X[s],a: EMG RMS 1-1,X[s].1,a: EMG RMS 1-2,X[s].2,a: EMG RMS 1-3,X[s].3,a: EMG RMS 1-4
532.0049999996371,2.457315e-05,532.0049999996371,6.836164e-05,532.0049999996371,1.150716e-05,532.0049999996371,1.209097e-05
532.0199999996371,2.345149e-05,532.0199999996371,6.899747e-05,532.0199999996371,1.167367e-05,532.0199999996371,1.191138e-05
532.0349999996371,2.342685e-05,532.0349999996371,6.830577e-05,532.0349999996371,1.174705e-05,532.0349999996371,1.328238e-05
532.0499999996371,2.415455e-05,532.0499999996371,6.777847e-05,532.0499999996371,1.195977e-05,532.0499999996371,1.37411e-05
532.064999999637,2.366317e-05,532.064999999637,6.959472e-05,532.064999999637,1.163983e-05,532.064999999637,1.383204e-05
532.079999999637,2.319176e-05,532.079999999637,7.107479e-05,532.079999999637,1.161682e-05,532.079999999637,1.449541e-05
532.094999999637,2.308339e-05,532.094999999637,7.075557e-05,532.094999999637,1.143717e-05,532.094999999637,1.446428e-05
532.109999999637,2.316015e-05,532.109999999637,6.441148e-05,532.109999999637,1.096172e-05,532.109999999637,1.424644e-05
532.124999999637,2.28571e-05,532.124999999637,6.360468e-05,532.124999999637,1.100021e-05,532.124999999637,1.426027e-05
532.139999999637,2.316867e-05,532.139999999637,6.775748e-05,532.139999999637,1.124214e-05,532.139999999637,1.448764e-05
532.154999999637,2.239828e-05,532.154999999637,6.912169e-05,532.154999999637,1.140634e-05,532.154999999637,1.431548e-05
532.169999999637,2.34076e-05,532.169999999637,7.049429e-05,532.169999999637,1.087528e-05,532.169999999637,1.470861e-05
532.184999999637,2.362623e-05,532.184999999637,7.18385e-05,532.184999999637,1.036053e-05,532.184999999637,1.567572e-05
532.1999999996369,2.372144e-05,532.1999999996369,7.280556e-05,532.1999999996369,1.048621e-05,532.1999999996369,1.534329e-05
532.2149999996369,2.466699e-05,532.2149999996369,7.891021e-05,532.2149999996369,1.038362e-05,532.2149999996369,1.494047e-05
532.2299999996369,2.452438e-05,532.2299999996369,7.733898e-05,532.2299999996369,1.071741e-05,532.2299999996369,1.501289e-05
532.2449999996369,2.541073e-05,532.2449999996369,7.94232e-05,532.2449999996369,1.08947e-05,532.2449999996369,1.504102e-05
532.2599999996369,2.535579e-05,532.2599999996369,7.897998e-05,532.2599999996369,1.154505e-05,532.2599999996369,1.507189e-05
532.2749999996369,2.518634e-05,532.2749999996369,8.444468e-05,532.2749999996369,1.146301e-05,532.2749999996369,1.467601e-05
532.2899999996368,2.635233e-05,532.2899999996368,8.858911e-05,532.2899999996368,1.139646e-05,532.2899999996368,1.361132e-05
532.3049999996368,2.655309e-05,532.3049999996368,8.968978e-05,532.3049999996368,1.395069e-05,532.3049999996368,1.292984e-05
532.3199999996368,2.656582e-05,532.3199999996368,0.0001052333,532.3199999996368,1.821609e-05,532.3199999996368,1.304697e-05
532.3349999996368,2.623554e-05,532.3349999996368,0.0001078453,532.3349999996368,2.122546e-05,532.3349999996368,1.230577e-05
532.3499999996368,2.573354e-05,532.3499999996368,0.0001185146,532.3499999996368,2.337086e-05,532.3499999996368,1.239587e-05
532.3649999996368,2.546279e-05,532.3649999996368,0.0001211131,532.3649999996368,2.353004e-05,532.3649999996368,1.313843e-05
532.3799999996368,2.506411e-05,532.3799999996368,0.0001208636,532.3799999996368,2.377423e-05,532.3799999996368,1.366915e-05
532.3949999996368,2.572204e-05,532.3949999996368,0.0001183918,532.3949999996368,2.384995e-05,532.3949999996368,1.425237e-05
532.4099999996367,2.636355e-05,532.4099999996367,0.0002202772,532.4099999996367,2.38777e-05,532.4099999996367,1.416413e-05
532.4249999996367,2.579969e-05,532.4249999996367,0.000248389,532.4249999996367,2.389303e-05,532.4249999996367,1.345205e-05
532.4399999996367,2.58057e-05,532.4399999996367,0.0002872536,532.4399999996367,2.392779e-05,532.4399999996367,1.296248e-05
532.4549999996367,2.575652e-05,532.4549999996367,0.0002924756,532.4549999996367,2.396368e-05,532.4549999996367,1.288619e-05
532.4699999996367,2.478889e-05,532.4699999996367,0.0002922489,532.4699999996367,2.394956e-05,532.4699999996367,1.247403e-05
532.4849999996367,2.416563e-05,532.4849999996367,0.0002979814,532.4849999996367,2.374815e-05,532.4849999996367,1.50859e-05
532.4999999996367,2.339195e-05,532.4999999996367,0.000299325,532.4999999996367,2.313094e-05,532.4999999996367,1.597657e-05
532.5149999996366,2.567051e-05,532.5149999996366,0.000301068,532.5149999996366,2.311693e-05,532.5149999996366,1.701084e-05
532.5299999996366,2.596786e-05,532.5299999996366,0.0002985253,532.5299999996366,2.301739e-05,532.5299999996366,1.717894e-05
532.5449999996366,2.548546e-05,532.5449999996366,0.0002977834,532.5449999996366,2.296531e-05,532.5449999996366,1.762337e-05
532.5599999996366,2.481843e-05,532.5599999996366,0.00029798,532.5599999996366,1.891267e-05,532.5599999996366,1.786708e-05
532.5749999996366,2.493564e-05,532.5749999996366,0.0002927699,532.5749999996366,1.718304e-05,532.5749999996366,1.853955e-05
532.5899999996366,2.574284e-05,532.5899999996366,0.0002924716,532.5899999996366,1.235375e-05,532.5899999996366,1.83816e-05
532.6049999996366,2.622104e-05,532.6049999996366,0.0002898244,532.6049999996366,9.645126e-06,532.6049999996366,1.921196e-05
532.6199999996365,2.794929e-05,532.6199999996365,0.000288766,532.6199999996365,9.990908e-06,532.6199999996365,1.896325e-05
532.6349999996365,2.77368e-05,532.6349999996365,0.000288422,532.6349999996365,1.008912e-05,532.6349999996365,1.922442e-05
532.6499999996365,2.632773e-05,532.6499999996365,0.0002817948,532.6499999996365,1.009191e-05,532.6499999996365,1.901147e-05
532.6649999996365,2.653505e-05,532.6649999996365,0.0002104237,532.6649999996365,1.000922e-05,532.6649999996365,1.915836e-05
532.6799999996365,2.763402e-05,532.6799999996365,0.0001661428,532.6799999996365,1.053045e-05,532.6799999996365,1.891342e-05
532.6949999996365,2.853042e-05,532.6949999996365,0.0001042219,532.6949999996365,1.055183e-05,532.6949999996365,1.89417e-05
532.7099999996365,2.851363e-05,532.7099999996365,9.669515e-05,532.7099999996365,1.063428e-05,532.7099999996365,1.918921e-05
532.7249999996365,2.868848e-05,532.7249999996365,8.934816e-05,532.7249999996365,1.066206e-05,532.7249999996365,1.878712e-05
532.7399999996364,2.845329e-05,532.7399999996364,7.751001e-05,532.7399999996364,1.056651e-05,532.7399999996364,1.734379e-05
532.7549999996364,2.678971e-05,532.7549999996364,7.003659e-05,532.7549999996364,1.118057e-05,532.7549999996364,1.584554e-05
532.7699999996364,2.605018e-05,532.7699999996364,7.440362e-05,532.7699999996364,1.233778e-05,532.7699999996364,1.512507e-05
532.7849999996364,2.557044e-05,532.7849999996364,7.42556e-05,532.7849999996364,1.231263e-05,532.7849999996364,1.486201e-05
532.7999999996364,2.771241e-05,532.7999999996364,7.386797e-05,532.7999999996364,1.210494e-05,532.7999999996364,1.439105e-05
532.8149999996364,2.784882e-05,532.8149999996364,6.248908e-05,532.8149999996364,1.193147e-05,532.8149999996364,1.372366e-05
532.8299999996364,2.766714e-05,532.8299999996364,6.072154e-05,532.8299999996364,1.203726e-05,532.8299999996364,1.32792e-05
532.8449999996363,2.71148e-05,532.8449999996363,6.031629e-05,532.8449999996363,1.207932e-05,532.8449999996363,1.331839e-05
532.8599999996363,2.522657e-05,532.8599999996363,5.804915e-05,532.8599999996363,1.170019e-05,532.8599999996363,1.147284e-05
532.8749999996363,2.526731e-05,532.8749999996363,5.739561e-05,532.8749999996363,1.144333e-05,532.8749999996363,1.078423e-05
532.8899999996363,2.584824e-05,532.8899999996363,5.743437e-05,532.8899999996363,1.160104e-05,532.8899999996363,1.119442e-05
532.9049999996363,2.572642e-05,532.9049999996363,5.879733e-05,532.9049999996363,1.118813e-05,532.9049999996363,1.1207e-05
532.9199999996363,2.440692e-05,532.9199999996363,5.994733e-05,532.9199999996363,1.096815e-05,532.9199999996363,1.114524e-05
532.9349999996363,2.367507e-05,532.9349999996363,5.949871e-05,532.9349999996363,1.090633e-05,532.9349999996363,1.168453e-05
532.9499999996362,2.254372e-05,532.9499999996362,6.134861e-05,532.9499999996362,1.094758e-05,532.9499999996362,1.22461e-05
532.9649999996362,2.176287e-05,532.9649999996362,6.994099e-05,532.9649999996362,1.084415e-05,532.9649999996362,1.19586e-05
532.9799999996362,2.147093e-05,532.9799999996362,6.970454e-05,532.9799999996362,1.108059e-05,532.9799999996362,1.257302e-05
532.9949999996362,2.075095e-05,532.9949999996362,6.957994e-05,532.9949999996362,1.106023e-05,532.9949999996362,1.294835e-05
533.0099999996362,2.052776e-05,533.0099999996362,6.885154e-05,533.0099999996362,9.257612e-06,533.0099999996362,1.315664e-05
533.0249999996362,2.056753e-05,533.0249999996362,6.972717e-05,533.0249999996362,9.009299e-06,533.0249999996362,1.441453e-05
533.0399999996362,1.974352e-05,533.0399999996362,7.09786e-05,533.0399999996362,8.742674e-06,533.0399999996362,1.492726e-05
533.0549999996362,1.681678e-05,533.0549999996362,7.034325e-05,533.0549999996362,9.30012e-06,533.0549999996362,1.519105e-05
533.0699999996361,1.72027e-05,533.0699999996361,6.895009e-05,533.0699999996361,9.840318e-06,533.0699999996361,1.557113e-05
533.0849999996361,1.727054e-05,533.0849999996361,6.876597e-05,533.0849999996361,9.837455e-06,533.0849999996361,1.566133e-05
533.0999999996361,1.704476e-05,533.0999999996361,6.933961e-05,533.0999999996361,9.699014e-06,533.0999999996361,1.621723e-05
533.1149999996361,1.719533e-05,533.1149999996361,7.251825e-05,533.1149999996361,9.571822e-06,533.1149999996361,1.628224e-05
533.1299999996361,1.654571e-05,533.1299999996361,7.153489e-05,533.1299999996361,9.466757e-06,533.1299999996361,1.609166e-05
533.1449999996361,1.617896e-05,533.1449999996361,7.173842e-05,533.1449999996361,8.95126e-06,533.1449999996361,1.530376e-05
533.159999999636,1.616851e-05,533.159999999636,6.94983e-05,533.159999999636,9.158172e-06,533.159999999636,1.516321e-05
533.174999999636,1.585531e-05,533.174999999636,6.898379e-05,533.174999999636,8.935509e-06,533.174999999636,1.521977e-05
533.189999999636,1.585709e-05,533.189999999636,7.207986e-05,533.189999999636,9.221021e-06,533.189999999636,1.587751e-05
533.204999999636,1.674712e-05,533.204999999636,6.810109e-05,533.204999999636,9.836022e-06,533.204999999636,1.540834e-05
533.219999999636,1.670163e-05,533.219999999636,6.069091e-05,533.219999999636,9.624658e-06,533.219999999636,1.564153e-05
533.234999999636,1.651503e-05,533.234999999636,6.140874e-05,533.234999999636,9.392062e-06,533.234999999636,1.462602e-05
533.249999999636,1.74046e-05,533.249999999636,6.609468e-05,533.249999999636,9.29709e-06,533.249999999636,1.44818e-05
533.264999999636,1.72534e-05,533.264999999636,6.336303e-05,533.264999999636,9.34545e-06,533.264999999636,1.466065e-05
533.279999999636,1.684691e-05,533.279999999636,5.5108e-05,533.279999999636,9.250001e-06,533.279999999636,1.348969e-05
533.2949999996359,1.765771e-05,533.2949999996359,5.352917e-05,533.2949999996359,8.8754e-06,533.2949999996359,1.376671e-05
533.3099999996359,1.756653e-05,533.3099999996359,5.402373e-05,533.3099999996359,8.39414e-06,533.3099999996359,1.323457e-05
533.3249999996359,1.783551e-05,533.3249999996359,5.604933e-05,533.3249999996359,7.854914e-06,533.3249999996359,1.361339e-05
533.3399999996359,1.805609e-05,533.3399999996359,6.170737e-05,533.3399999996359,7.8585e-06,533.3399999996359,1.403123e-05
533.3549999996359,1.762817e-05,533.3549999996359,6.189087e-05,533.3549999996359,7.968863e-06,533.3549999996359,1.408334e-05
533.3699999996359,1.817041e-05,533.3699999996359,6.029854e-05,533.3699999996359,8.074229e-06,533.3699999996359,1.40533e-05
533.3849999996359,1.814558e-05,533.3849999996359,6.060334e-05,533.3849999996359,8.016449e-06,533.3849999996359,1.409734e-05
533.3999999996358,1.860554e-05,533.3999999996358,6.300923e-05,533.3999999996358,8.129866e-06,533.3999999996358,1.376978e-05
533.4149999996358,1.882981e-05,533.4149999996358,6.605012e-05,533.4149999996358,8.105571e-06,533.4149999996358,1.385239e-05
533.4299999996358,1.854943e-05,533.4299999996358,6.61196e-05,533.4299999996358,8.965412e-06,533.4299999996358,1.403023e-05
533.4449999996358,1.841376e-05,533.4449999996358,6.083673e-05,533.4449999996358,8.372296e-06,533.4449999996358,1.322179e-05
533.4599999996358,1.857144e-05,533.4599999996358,6.09748e-05,533.4599999996358,8.899176e-06,533.4599999996358,1.315985e-05
533.4749999996358,1.828247e-05,533.4749999996358,6.176168e-05,533.4749999996358,8.827657e-06,533.4749999996358,1.323351e-05
533.4899999996358,1.90773e-05,533.4899999996358,6.693082e-05,533.4899999996358,9.032722e-06,533.4899999996358,1.412429e-05
533.5049999996357,1.881859e-05,533.5049999996357,6.82934e-05,533.5049999996357,9.054529e-06,533.5049999996357,1.429973e-05
533.5199999996357,1.924492e-05,533.5199999996357,6.787837e-05,533.5199999996357,1.008493e-05,533.5199999996357,1.410034e-05
533.5349999996357,1.851827e-05,533.5349999996357,6.938064e-05,533.5349999996357,1.028684e-05,533.5349999996357,1.34489e-05
533.5499999996357,1.826474e-05,533.5499999996357,7.21982e-05,533.5499999996357,1.01684e-05,533.5499999996357,1.337433e-05
533.5649999996357,1.873832e-05,533.5649999996357,7.352276e-05,533.5649999996357,1.010447e-05,533.5649999996357,1.305021e-05
533.5799999996357,1.900629e-05,533.5799999996357,7.327038e-05,533.5799999996357,1.017809e-05,533.5799999996357,1.29527e-05
533.5949999996357,1.948136e-05,533.5949999996357,7.084769e-05,533.5949999996357,1.03142e-05,533.5949999996357,1.20396e-05
533.6099999996356,1.956434e-05,533.6099999996356,7.038309e-05,533.6099999996356,1.008912e-05,533.6099999996356,1.304913e-05
533.6249999996356,1.875711e-05,533.6249999996356,6.847303e-05,533.6249999996356,1.018501e-05,533.6249999996356,1.329192e-05
533.6399999996356,1.870597e-05,533.6399999996356,6.996394e-05,533.6399999996356,1.042829e-05,533.6399999996356,1.383815e-05
533.6549999996356,1.837317e-05,533.6549999996356,6.50779e-05,533.6549999996356,1.050634e-05,533.6549999996356,1.414024e-05
533.6699999996356,1.938205e-05,533.6699999996356,6.850491e-05,533.6699999996356,9.605612e-06,533.6699999996356,1.387475e-05
533.6849999996356,2.011531e-05,533.6849999996356,6.889041e-05,533.6849999996356,9.548246e-06,533.6849999996356,1.314164e-05
533.6999999996356,2.002126e-05,533.6999999996356,6.959006e-05,533.6999999996356,8.692581e-06,533.6999999996356,1.33353e-05
533.7149999996356,1.990129e-05,533.7149999996356,7.028856e-05,533.7149999996356,9.49202e-06,533.7149999996356,1.348134e-05
533.7299999996355,2.001844e-05,533.7299999996355,6.899502e-05,533.7299999996355,9.414533e-06,533.7299999996355,1.290257e-05
533.7449999996355,2.069589e-05,533.7449999996355,6.676645e-05,533.7449999996355,9.694656e-06,533.7449999996355,1.23845e-05
533.7599999996355,2.141443e-05,533.7599999996355,6.404235e-05,533.7599999996355,1.051706e-05,533.7599999996355,1.219538e-05
533.7749999996355,2.228163e-05,533.7749999996355,6.342281e-05,533.7749999996355,9.935768e-06,533.7749999996355,1.205714e-05
533.7899999996355,2.285155e-05,533.7899999996355,6.190998e-05,533.7899999996355,1.003452e-05,533.7899999996355,1.231835e-05
533.8049999996355,2.301616e-05,533.8049999996355,5.852044e-05,533.8049999996355,1.008074e-05,533.8049999996355,1.255059e-05
533.8199999996355,2.263103e-05,533.8199999996355,5.949587e-05,533.8199999996355,1.006396e-05,533.8199999996355,1.26144e-05
533.8349999996354,2.291987e-05,533.8349999996354,5.46003e-05,533.8349999996354,1.052777e-05,533.8349999996354,1.334481e-05
533.8499999996354,2.271801e-05,533.8499999996354,5.494775e-05,533.8499999996354,1.192793e-05,533.8499999996354,1.277199e-05
533.8649999996354,2.370302e-05,533.8649999996354,5.616457e-05,533.8649999996354,1.198331e-05,533.8649999996354,1.251912e-05
533.8799999996354,2.501686e-05,533.8799999996354,6.157505e-05,533.8799999996354,1.2015e-05,533.8799999996354,1.252925e-05
533.8949999996354,2.582043e-05,533.8949999996354,6.319898e-05,533.8949999996354,1.185924e-05,533.8949999996354,1.168814e-05
533.9099999996354,2.599551e-05,533.9099999996354,6.412654e-05,533.9099999996354,1.179014e-05,533.9099999996354,1.226908e-05
533.9249999996354,2.451806e-05,533.9249999996354,6.45609e-05,533.9249999996354,1.179372e-05,533.9249999996354,1.24469e-05
533.9399999996353,2.454447e-05,533.9399999996353,6.45013e-05,533.9399999996353,1.194563e-05,533.9399999996353,1.255396e-05
533.9549999996353,2.434566e-05,533.9549999996353,6.397479e-05,533.9549999996353,1.197625e-05,533.9549999996353,1.249773e-05
533.9699999996353,2.494242e-05,533.9699999996353,6.35905e-05,533.9699999996353,1.180566e-05,533.9699999996353,1.240496e-05
533.9849999996353,2.497121e-05,533.9849999996353,6.166238e-05,533.9849999996353,1.172544e-05,533.9849999996353,1.271783e-05
533.9999999996353,2.375586e-05,533.9999999996353,6.232001e-05,533.9999999996353,1.1207e-05,533.9999999996353,1.377694e-05
534.0149999996353,2.303146e-05,534.0149999996353,6.135779e-05,534.0149999996353,1.060111e-05,534.0149999996353,1.487811e-05
534.0299999996353,2.358685e-05,534.0299999996353,6.278751e-05,534.0299999996353,1.178894e-05,534.0299999996353,1.502321e-05
534.0449999996353,2.363458e-05,534.0449999996353,6.579283e-05,534.0449999996353,1.186517e-05,534.0449999996353,1.460385e-05
534.0599999996352,2.330567e-05,534.0599999996352,6.447225e-05,534.0599999996352,1.19102e-05,534.0599999996352,1.446233e-05
534.0749999996352,2.381331e-05,534.0749999996352,6.35311e-05,534.0749999996352,1.224379e-05,534.0749999996352,1.459999e-05
534.0899999996352,2.404173e-05,534.0899999996352,6.305795e-05,534.0899999996352,1.261329e-05,534.0899999996352,1.397792e-05
534.1049999996352,2.390953e-05,534.1049999996352,6.282362e-05,534.1049999996352,1.18806e-05,534.1049999996352,1.399001e-05
534.1199999996352,2.355757e-05,534.1199999996352,6.225782e-05,534.1199999996352,1.181282e-05,534.1199999996352,1.52835e-05
534.1349999996352,2.269505e-05,534.1349999996352,5.553603e-05,534.1349999996352,1.180327e-05,534.1349999996352,1.586686e-05
534.1499999996352,2.200746e-05,534.1499999996352,5.426439e-05,534.1499999996352,1.184378e-05,534.1499999996352,1.654145e-05
534.1649999996351,2.407511e-05,534.1649999996351,5.640883e-05,534.1649999996351,1.401918e-05,534.1649999996351,1.637627e-05
534.1799999996351,2.454677e-05,534.1799999996351,5.25596e-05,534.1799999996351,1.501571e-05,534.1799999996351,1.614584e-05
534.1949999996351,2.44565e-05,534.1949999996351,5.278371e-05,534.1949999996351,1.520866e-05,534.1949999996351,1.621809e-05
534.2099999996351,2.441788e-05,534.2099999996351,5.271295e-05,534.2099999996351,1.510363e-05,534.2099999996351,1.623025e-05
534.2249999996351,2.386412e-05,534.2249999996351,5.740272e-05,534.2249999996351,1.50775e-05,534.2249999996351,1.598274e-05
534.2399999996351,2.388006e-05,534.2399999996351,6.237513e-05,534.2399999996351,1.561449e-05,534.2399999996351,1.547038e-05
534.2549999996351,2.522267e-05,534.2549999996351,6.781379e-05,534.2549999996351,1.605046e-05,534.2549999996351,1.474018e-05
534.269999999635,2.395192e-05,534.269999999635,7.064977e-05,534.269999999635,1.545672e-05,534.269999999635,1.409234e-05
534.284999999635,2.399481e-05,534.284999999635,7.196506e-05,534.284999999635,1.523735e-05,534.284999999635,1.424644e-05
534.299999999635,2.387475e-05,534.299999999635,6.978694e-05,534.299999999635,1.53644e-05,534.299999999635,1.479551e-05
534.314999999635,2.360178e-05,534.314999999635,6.888816e-05,534.314999999635,1.572954e-05,534.314999999635,1.534238e-05
534.329999999635,2.388242e-05,534.329999999635,7.171406e-05,534.329999999635,1.559553e-05,534.329999999635,1.517899e-05
534.344999999635,2.430281e-05,534.344999999635,7.621427e-05,534.344999999635,1.519012e-05,534.344999999635,1.500351e-05
534.359999999635,2.447435e-05,534.359999999635,7.600809e-05,534.359999999635,1.509897e-05,534.359999999635,1.516321e-05
534.374999999635,2.339375e-05,534.374999999635,7.625068e-05,534.374999999635,1.511016e-05,534.374999999635,1.272448e-05
534.3899999996349,2.29696e-05,534.3899999996349,7.638671e-05,534.3899999996349,1.498002e-05,534.3899999996349,1.27764e-05
534.4049999996349,2.264223e-05,534.4049999996349,7.635979e-05,534.4049999996349,1.49367e-05,534.4049999996349,1.399404e-05
534.4199999996349,2.162195e-05,534.4199999996349,0.000113064,534.4199999996349,1.361753e-05,534.4199999996349,1.354908e-05
534.4349999996349,2.188615e-05,534.4349999996349,0.0001448817,534.4349999996349,1.272891e-05,534.4349999996349,1.469999e-05
534.4499999996349,2.223606e-05,534.4499999996349,0.0002023985,534.4499999996349,1.279073e-05,534.4499999996349,1.488852e-05
534.4649999996349,2.205797e-05,534.4649999996349,0.0002157177,534.4649999996349,1.363614e-05,534.4649999996349,1.523919e-05
534.4799999996349,2.207393e-05,534.4799999996349,0.0002257891,534.4799999996349,1.367637e-05,534.4799999996349,1.622938e-05
534.4949999996348,2.02938e-05,534.4949999996348,0.0002394912,534.4949999996348,1.387373e-05,534.4949999996348,1.627532e-05
534.5099999996348,2.02681e-05,534.5099999996348,0.0002639739,534.5099999996348,1.378307e-05,534.5099999996348,1.752076e-05
534.5249999996348,2.204711e-05,534.5249999996348,0.0002733064,534.5249999996348,1.42108e-05,534.5249999996348,1.813471e-05
534.5399999996348,2.22329e-05,534.5399999996348,0.0002741223,534.5399999996348,1.42098e-05,534.5399999996348,1.850076e-05
534.5549999996348,2.171102e-05,534.5549999996348,0.0002765305,534.5549999996348,1.414522e-05,534.5549999996348,1.858281e-05
534.5699999996348,2.101135e-05,534.5699999996348,0.0002793889,534.5699999996348,1.383e-05,534.5699999996348,1.838849e-05
534.5849999996348,2.047004e-05,534.5849999996348,0.0002811928,534.5849999996348,1.357194e-05,534.5849999996348,1.826011e-05
534.5999999996347,2.097108e-05,534.5999999996347,0.0002834385,534.5999999996347,1.40232e-05,534.5999999996347,1.848553e-05
534.6149999996347,2.092132e-05,534.6149999996347,0.0002844699,534.6149999996347,1.42879e-05,534.6149999996347,1.869693e-05
534.6299999996347,2.123741e-05,534.6299999996347,0.0002863024,534.6299999996347,1.58979e-05,534.6299999996347,1.905662e-05
534.6449999996347,2.300698e-05,534.6449999996347,0.0003213831,534.6449999996347,1.575102e-05,534.6449999996347,1.914291e-05
534.6599999996347,2.298616e-05,534.6599999996347,0.0003239245,534.6599999996347,1.59748e-05,534.6599999996347,1.878787e-05
534.6749999996347,2.475762e-05,534.6749999996347,0.0004235067,534.6749999996347,1.603553e-05,534.6749999996347,1.897736e-05
534.6899999996347,2.461038e-05,534.6899999996347,0.0005648466,534.6899999996347,1.585975e-05,534.6899999996347,1.813083e-05
534.7049999996347,2.455423e-05,534.7049999996347,0.0006239465,534.7049999996347,1.604695e-05,534.7049999996347,1.81215e-05
534.7199999996346,2.515892e-05,534.7199999996346,0.0006779513,534.7199999996346,1.586597e-05,534.7199999996346,1.767047e-05
534.7349999996346,2.52489e-05,534.7349999996346,0.0006804774,534.7349999996346,1.650736e-05,534.7349999996346,1.741593e-05
534.7499999996346,2.544453e-05,534.7499999996346,0.0007475273,534.7499999996346,2.024028e-05,534.7499999996346,1.698266e-05
534.7649999996346,2.415805e-05,534.7649999996346,0.001246579,534.7649999996346,2.057848e-05,534.7649999996346,1.535247e-05
534.7799999996346,2.373865e-05,534.7799999996346,0.001348414,534.7799999996346,2.063727e-05,534.7799999996346,1.547312e-05
534.7949999996346,2.322272e-05,534.7949999996346,0.001484056,534.7949999996346,2.076927e-05,534.7949999996346,1.51055e-05
534.8099999996346,2.357908e-05,534.8099999996346,0.001504687,534.8099999996346,2.074823e-05,534.8099999996346,1.514462e-05
534.8249999996345,2.339496e-05,534.8249999996345,0.001510716,534.8249999996345,2.119358e-05,534.8249999996345,1.530929e-05
534.8399999996345,2.343466e-05,534.8399999996345,0.001514943,534.8399999996345,2.131091e-05,534.8399999996345,1.562351e-05
534.8549999996345,2.244415e-05,534.8549999996345,0.001517732,534.8549999996345,2.139469e-05,534.8549999996345,1.580548e-05
534.8699999996345,2.250056e-05,534.8699999996345,0.00152195,534.8699999996345,2.123343e-05,534.8699999996345,1.531757e-05
534.8849999996345,2.24096e-05,534.8849999996345,0.001522089,534.8849999996345,2.059422e-05,534.8849999996345,1.454198e-05
534.8999999996345,2.106558e-05,534.8999999996345,0.001517962,534.8999999996345,2.110366e-05,534.8999999996345,1.460578e-05
534.9149999996345,2.037416e-05,534.9149999996345,0.001518313,534.9149999996345,2.093074e-05,534.9149999996345,1.374725e-05
534.9299999996344,1.78584e-05,534.9299999996344,0.001453832,534.9299999996344,2.060858e-05,534.9299999996344,1.350222e-05
534.9449999996344,1.749099e-05,534.9449999996344,0.001434398,534.9449999996344,2.083428e-05,534.9449999996344,1.349909e-05
534.9599999996344,1.686029e-05,534.9599999996344,0.001396464,534.9599999996344,2.04418e-05,534.9599999996344,1.343528e-05
534.9749999996344,1.724033e-05,534.9749999996344,0.00137926,534.9749999996344,1.970424e-05,534.9749999996344,1.325584e-05
534.9899999996344,1.724115e-05,534.9899999996344,0.001380371,534.9899999996344,1.972496e-05,534.9899999996344,1.368254e-05
535.0049999996344,1.902629e-05,535.0049999996344,0.001316144,535.0049999996344,1.532032e-05,535.0049999996344,1.409634e-05
535.0199999996344,2.104886e-05,535.0199999996344,0.0007780258,535.0199999996344,1.47631e-05,535.0199999996344,1.324308e-05
535.0349999996344,2.113901e-05,535.0349999996344,0.0006215408,535.0349999996344,1.465008e-05,535.0349999996344,1.422863e-05
535.0499999996343,2.147683e-05,535.0499999996343,0.0004172075,535.0499999996343,1.49612e-05,535.0499999996343,1.497908e-05
535.0649999996343,2.208222e-05,535.0649999996343,0.0004128622,535.0649999996343,1.473062e-05,535.0649999996343,1.486959e-05
535.0799999996343,2.229364e-05,535.0799999996343,0.0003986914,535.0799999996343,1.426817e-05,535.0799999996343,1.476406e-05
535.0949999996343,2.279539e-05,535.0949999996343,0.0003939524,535.0949999996343,1.40041e-05,535.0949999996343,1.429283e-05
535.1099999996343,2.247112e-05,535.1099999996343,0.0003752715,535.1099999996343,1.337538e-05,535.1099999996343,1.447402e-05
535.1249999996343,2.251871e-05,535.1249999996343,0.0003720953,535.1249999996343,1.469712e-05,535.1249999996343,1.450804e-05
535.1399999996343,2.203241e-05,535.1399999996343,0.0003911804,535.1399999996343,1.610478e-05,535.1399999996343,1.46318e-05
535.1549999996342,2.200426e-05,535.1549999996342,0.0003843971,535.1549999996342,1.61502e-05,535.1549999996342,1.426916e-05
535.1699999996342,2.17564e-05,535.1699999996342,0.0003867841,535.1699999996342,1.629435e-05,535.1699999996342,1.444284e-05
535.1849999996342,2.167466e-05,535.1849999996342,0.0003911783,535.1849999996342,1.616067e-05,535.1849999996342,1.480217e-05
535.1999999996342,2.146371e-05,535.1999999996342,0.000399673,535.1999999996342,1.583931e-05,535.1999999996342,1.496308e-05
535.2149999996342,2.122347e-05,535.2149999996342,0.0004038351,535.2149999996342,1.557475e-05,535.2149999996342,1.490554e-05
535.2299999996342,2.09442e-05,535.2299999996342,0.0003999379,535.2299999996342,1.679835e-05,535.2299999996342,1.607063e-05
535.2449999996342,2.021521e-05,535.2449999996342,0.0003931827,535.2449999996342,1.810439e-05,535.2449999996342,1.640979e-05
535.2599999996341,1.935077e-05,535.2599999996341,0.0003854375,535.2599999996341,1.803735e-05,535.2599999996341,1.604519e-05
535.2749999996341,1.690368e-05,535.2749999996341,0.0003860932,535.2749999996341,1.792061e-05,535.2749999996341,1.671259e-05
535.2899999996341,1.680254e-05,535.2899999996341,0.0003855724,535.2899999996341,1.791117e-05,535.2899999996341,1.597128e-05
535.3049999996341,1.517992e-05,535.3049999996341,0.0003436509,535.3049999996341,1.833249e-05,535.3049999996341,1.541383e-05
535.3199999996341,1.594744e-05,535.3199999996341,0.0003547062,535.3199999996341,2.32306e-05,535.3199999996341,1.450901e-05
535.3349999996341,1.653209e-05,535.3349999996341,0.0003986233,535.3349999996341,2.378016e-05,535.3349999996341,1.456618e-05
535.3499999996341,1.650053e-05,535.3499999996341,0.000436268,535.3499999996341,2.381035e-05,535.3499999996341,1.393351e-05
535.364999999634,1.636078e-05,535.364999999634,0.0004383385,535.364999999634,2.361729e-05,535.364999999634,1.469807e-05
535.379999999634,1.629435e-05,535.379999999634,0.0004855414,535.379999999634,2.374459e-05,535.379999999634,1.45507e-05
535.394999999634,1.634614e-05,535.394999999634,0.000483562,535.394999999634,2.320512e-05,535.394999999634,1.520773e-05
535.409999999634,1.610041e-05,535.409999999634,0.0004968187,535.409999999634,2.370362e-05,535.409999999634,1.542753e-05
535.424999999634,1.612751e-05,535.424999999634,0.0005223544,535.424999999634,2.387475e-05,535.424999999634,1.511855e-05
535.439999999634,1.587662e-05,535.439999999634,0.0008178053,535.439999999634,2.403353e-05,535.439999999634,1.518363e-05
535.454999999634,1.663148e-05,535.454999999634,0.0009222617,535.454999999634,2.411836e-05,535.454999999634,1.541565e-05
535.469999999634,1.681008e-05,535.469999999634,0.001119677,535.469999999634,2.377779e-05,535.469999999634,1.535614e-05
535.4849999996339,1.578497e-05,535.4849999996339,0.001146329,535.4849999996339,2.301923e-05,535.4849999996339,1.331839e-05
535.4999999996339,1.564423e-05,535.4999999996339,0.001160345,535.4999999996339,2.31638e-05,535.4999999996339,1.469807e-05
535.5149999996339,1.599948e-05,535.5149999996339,0.00116006,535.5149999996339,2.31565e-05,535.5149999996339,1.517064e-05
535.5299999996339,1.562802e-05,535.5299999996339,0.001162479,535.5299999996339,2.336965e-05,535.5299999996339,1.509897e-05
535.5449999996339,1.583486e-05,535.5449999996339,0.001168271,535.5449999996339,2.316015e-05,535.5449999996339,1.562531e-05
535.5599999996339,1.548949e-05,535.5599999996339,0.001163419,535.5599999996339,2.239954e-05,535.5599999996339,1.556027e-05
535.5749999996339,1.588372e-05,535.5749999996339,0.001153255,535.5749999996339,1.717484e-05,535.5749999996339,1.556389e-05
535.5899999996338,1.531389e-05,535.5899999996338,0.001133784,535.5899999996338,1.728195e-05,535.5899999996338,1.574565e-05
535.6049999996338,1.451289e-05,535.6049999996338,0.001125964,535.6049999996338,1.801156e-05,535.6049999996338,1.62632e-05
535.6199999996338,1.470478e-05,535.6199999996338,0.001122281,535.6199999996338,1.811217e-05,535.6199999996338,1.572417e-05
535.6349999996338,1.50457e-05,535.6349999996338,0.001101753,535.6349999996338,1.734379e-05,535.6349999996338,1.532676e-05
535.6499999996338,1.531297e-05,535.6499999996338,0.001094798,535.6499999996338,1.686279e-05,535.6499999996338,1.594744e-05
535.6649999996338,1.555212e-05,535.6649999996338,0.001090313,535.6649999996338,1.617635e-05,535.6649999996338,1.569278e-05
535.6799999996338,1.781338e-05,535.6799999996338,0.001039569,535.6799999996338,1.668053e-05,535.6799999996338,1.54476e-05
535.6949999996338,1.861084e-05,535.6949999996338,0.0008317882,535.6949999996338,1.813549e-05,535.6949999996338,1.528995e-05
535.7099999996337,1.786787e-05,535.7099999996337,0.0006323577,535.7099999996337,1.818668e-05,535.7099999996337,1.525028e-05
535.7249999996337,1.799904e-05,535.7249999996337,0.0003115725,535.7249999996337,1.833633e-05,535.7249999996337,1.50354e-05
535.7399999996337,1.815567e-05,535.7399999996337,0.00026866,535.7399999996337,1.73072e-05,535.7399999996337,1.60566e-05
535.7549999996337,1.847867e-05,535.7549999996337,0.0002110283,535.7549999996337,1.706788e-05,535.7549999996337,1.437146e-05
535.7699999996337,1.825626e-05,535.7699999996337,0.0001865723,535.7699999996337,1.871801e-05,535.7699999996337,1.419493e-05
535.7849999996337,1.865242e-05,535.7849999996337,0.0001714427,535.7849999996337,1.895062e-05,535.7849999996337,1.337433e-05
535.7999999996337,1.921855e-05,535.7999999996337,0.0001099222,535.7999999996337,1.900406e-05,535.7999999996337,1.37575e-05
535.8149999996336,1.933839e-05,535.8149999996336,0.000109294,535.8149999996336,1.900999e-05,535.8149999996336,1.440084e-05
535.8299999996336,1.869391e-05,535.8299999996336,0.0001012419,535.8299999996336,1.912082e-05,535.8299999996336,1.500914e-05
535.8449999996336,1.885299e-05,535.8449999996336,9.717137e-05,535.8449999996336,1.91407e-05,535.8449999996336,1.508684e-05
535.8599999996336,1.872253e-05,535.8599999996336,9.464927e-05,535.8599999996336,1.898997e-05,535.8599999996336,1.581528e-05
535.8749999996336,1.895062e-05,535.8749999996336,8.578656e-05,535.8749999996336,1.856613e-05,535.8749999996336,1.585975e-05
535.8899999996336,1.873381e-05,535.8899999996336,8.240919e-05,535.8899999996336,1.834247e-05,535.8899999996336,1.709015e-05
535.9049999996336,1.900258e-05,535.9049999996336,7.793159e-05,535.9049999996336,1.791668e-05,535.9049999996336,1.90211e-05
535.9199999996335,1.87556e-05,535.9199999996335,7.48235e-05,535.9199999996335,1.771187e-05,535.9199999996335,2.011952e-05
535.9349999996335,1.853119e-05,535.9349999996335,7.549727e-05,535.9349999996335,1.784025e-05,535.9349999996335,2.179004e-05
535.9499999996335,1.937841e-05,535.9499999996335,7.333764e-05,535.9499999996335,1.736003e-05,535.9499999996335,2.271553e-05
535.9649999996335,1.931798e-05,535.9649999996335,7.749274e-05,535.9649999996335,1.742401e-05,535.9649999996335,2.319723e-05
535.9799999996335,2.072241e-05,535.9799999996335,7.722397e-05,535.9799999996335,1.769039e-05,535.9799999996335,2.318022e-05
535.9949999996335,2.073668e-05,535.9949999996335,7.692313e-05,535.9949999996335,1.825163e-05,535.9949999996335,2.295672e-05
536.0099999996335,2.055862e-05,536.0099999996335,7.987014e-05,536.0099999996335,1.773333e-05,536.0099999996335,2.661403e-05
536.0249999996335,2.076045e-05,536.0249999996335,8.540063e-05,536.0249999996335,1.765691e-05,536.0249999996335,2.746067e-05
536.0399999996334,2.036794e-05,536.0399999996334,8.67209e-05,536.0399999996334,1.783867e-05,536.0399999996334,2.849979e-05
536.0549999996334,1.9846e-05,536.0549999996334,9.154419e-05,536.0549999996334,1.776429e-05,536.0549999996334,3.184627e-05
536.0699999996334,1.985168e-05,536.0699999996334,9.380055e-05,536.0699999996334,1.785051e-05,536.0699999996334,3.343741e-05
536.0849999996334,1.922002e-05,536.0849999996334,9.377486e-05,536.0849999996334,1.771505e-05,536.0849999996334,3.451415e-05
536.0999999996334,1.975208e-05,536.0999999996334,9.395331e-05,536.0999999996334,1.710334e-05,536.0999999996334,3.596168e-05
536.1149999996334,1.959384e-05,536.1149999996334,9.721167e-05,536.1149999996334,1.680002e-05,536.1149999996334,3.679499e-05
536.1299999996334,1.967276e-05,536.1299999996334,9.735241e-05,536.1299999996334,1.68845e-05,536.1299999996334,3.68409e-05
536.1449999996333,1.946038e-05,536.1449999996333,0.0001005182,536.1449999996333,1.668307e-05,536.1449999996333,3.611958e-05
536.1599999996333,1.91105e-05,536.1599999996333,0.0001018416,536.1599999996333,1.681008e-05,536.1599999996333,3.613401e-05
536.1749999996333,1.934858e-05,536.1749999996333,0.0001031003,536.1749999996333,1.690368e-05,536.1749999996333,3.55365e-05
536.1899999996333,1.758656e-05,536.1899999996333,0.0001035516,536.1899999996333,1.57161e-05,536.1899999996333,3.477964e-05
536.2049999996333,1.643037e-05,536.2049999996333,0.0001025056,536.2049999996333,1.515113e-05,536.2049999996333,3.531821e-05
536.2199999996333,1.512693e-05,536.2199999996333,9.560587e-05,536.2199999996333,1.486295e-05,536.2199999996333,3.517353e-05
536.2349999996333,1.479265e-05,536.2349999996333,9.592933e-05,536.2349999996333,1.444674e-05,536.2349999996333,3.533775e-05
536.2499999996332,1.744986e-05,536.2499999996332,9.623282e-05,536.2499999996332,1.439497e-05,536.2499999996332,3.402375e-05
536.2649999996332,1.779202e-05,536.2649999996332,0.0001042259,536.2649999996332,1.399102e-05,536.2649999996332,3.238099e-05
536.2799999996332,1.794967e-05,536.2799999996332,0.0001084129,536.2799999996332,1.251237e-05,536.2799999996332,3.245746e-05
536.2949999996332,1.773889e-05,536.2949999996332,0.0001086182,536.2949999996332,1.177819e-05,536.2949999996332,3.188385e-05
536.3099999996332,1.759377e-05,536.3099999996332,0.0001046988,536.3099999996332,1.191848e-05,536.3099999996332,2.898791e-05
536.3249999996332,1.909133e-05,536.3249999996332,0.0001033553,536.3249999996332,1.434399e-05,536.3249999996332,2.601068e-05
536.3399999996332,1.923248e-05,536.3399999996332,0.0001043242,536.3399999996332,1.642694e-05,536.3399999996332,2.527734e-05
536.3549999996332,1.965198e-05,536.3549999996332,0.0001036564,536.3549999996332,1.709263e-05,536.3549999996332,2.323788e-05
536.3699999996331,2.049342e-05,536.3699999996331,0.0001014334,536.3699999996331,1.701581e-05,536.3699999996331,2.391601e-05
536.3849999996331,2.106491e-05,536.3849999996331,9.948081e-05,536.3849999996331,1.6753e-05,536.3849999996331,2.470009e-05
536.3999999996331,2.118561e-05,536.3999999996331,9.897158e-05,536.3999999996331,1.672692e-05,536.3999999996331,2.430629e-05
536.4149999996331,2.14847e-05,536.4149999996331,9.769936e-05,536.4149999996331,1.679751e-05,536.4149999996331,2.271615e-05
536.4299999996331,2.092199e-05,536.4299999996331,9.908879e-05,536.4299999996331,1.687031e-05,536.4299999996331,2.34094e-05
536.4449999996331,2.129239e-05,536.4449999996331,9.67502e-05,536.4449999996331,1.707613e-05,536.4449999996331,2.33099e-05
536.459999999633,2.19363e-05,536.459999999633,9.69329e-05,536.459999999633,1.69428e-05,536.459999999633,2.21141e-05
536.474999999633,2.202026e-05,536.474999999633,9.820314e-05,536.474999999633,1.696938e-05,536.474999999633,2.248679e-05
536.489999999633,2.241086e-05,536.489999999633,0.0001027224,536.489999999633,1.697353e-05,536.489999999633,2.23435e-05
536.504999999633,2.063181e-05,536.504999999633,9.945446e-05,536.504999999633,1.712474e-05,536.504999999633,2.253122e-05
536.519999999633,2.07957e-05,536.519999999633,9.104796e-05,536.519999999633,1.707943e-05,536.519999999633,2.127981e-05
536.534999999633,2.119092e-05,536.534999999633,8.302856e-05,536.534999999633,1.701332e-05,536.534999999633,2.115899e-05
536.549999999633,2.163042e-05,536.549999999633,8.14446e-05,536.549999999633,1.705054e-05,536.549999999633,1.902629e-05
536.564999999633,2.297267e-05,536.564999999633,8.118786e-05,536.564999999633,1.789937e-05,536.564999999633,1.949943e-05
536.579999999633,2.195555e-05,536.579999999633,8.875765e-05,536.579999999633,1.578943e-05,536.579999999633,2.155148e-05
536.5949999996329,2.240583e-05,536.5949999996329,9.76411e-05,536.5949999996329,1.455844e-05,536.5949999996329,2.37689e-05
536.6099999996329,2.239451e-05,536.6099999996329,9.68528e-05,536.6099999996329,1.353452e-05,536.6099999996329,3.665806e-05
536.6249999996329,2.156716e-05,536.6249999996329,9.768249e-05,536.6249999996329,1.35875e-05,536.6249999996329,3.700343e-05
536.6399999996329,2.148011e-05,536.6399999996329,9.659531e-05,536.6399999996329,1.525398e-05,536.6399999996329,3.670069e-05
536.6549999996329,2.201898e-05,536.6549999996329,9.616414e-05,536.6549999996329,1.707366e-05,536.6549999996329,3.70118e-05
536.6699999996329,2.236556e-05,536.6699999996329,0.0001053543,536.6699999996329,1.843593e-05,536.6699999996329,3.854763e-05
536.6849999996329,2.234413e-05,536.6849999996329,0.0001029383,536.6849999996329,1.835629e-05,536.6849999996329,3.990684e-05
536.6999999996328,2.23372e-05,536.6999999996328,0.0001028483,536.6999999996328,1.842599e-05,536.6999999996328,4.089877e-05
536.7149999996328,2.210008e-05,536.7149999996328,0.0001025952,536.7149999996328,1.86237e-05,536.7149999996328,4.132672e-05
536.7299999996328,2.435376e-05,536.7299999996328,9.995207e-05,536.7299999996328,1.902036e-05,536.7299999996328,4.136931e-05
536.7449999996328,2.492999e-05,536.7449999996328,0.0001029574,536.7449999996328,1.960965e-05,536.7449999996328,4.977487e-05
536.7599999996328,2.469381e-05,536.7599999996328,0.0001036697,536.7599999996328,1.977062e-05,536.7599999996328,8.738951e-05
536.7749999996328,2.509108e-05,536.7749999996328,0.0001008983,536.7749999996328,2.125266e-05,536.7749999996328,9.916609e-05
536.7899999996328,2.53891e-05,536.7899999996328,9.995419e-05,536.7899999996328,2.126657e-05,536.7899999996328,0.0001159907
536.8049999996327,2.436995e-05,536.8049999996327,9.976742e-05,536.8049999996327,2.089369e-05,536.8049999996327,0.000118531
536.8199999996327,2.458232e-05,536.8199999996327,0.0001038089,536.8199999996327,2.001492e-05,536.8199999996327,0.000119739
536.8349999996327,2.670386e-05,536.8349999996327,9.425239e-05,536.8349999996327,2.257557e-05,536.8349999996327,0.0002608963
536.8499999996327,2.605883e-05,536.8499999996327,9.415804e-05,536.8499999996327,2.258804e-05,536.8499999996327,0.0002761717
536.8649999996327,2.616511e-05,536.8649999996327,9.435815e-05,536.8649999996327,2.303207e-05,536.8649999996327,0.0003221193
536.8799999996327,2.646807e-05,536.8799999996327,0.0002650596,536.8799999996327,2.296592e-05,536.8799999996327,0.0003385256
536.8949999996327,2.607936e-05,536.8949999996327,0.0004725728,536.8949999996327,2.100665e-05,536.8949999996327,0.0003392211
536.9099999996326,2.677393e-05,536.9099999996326,0.0005899488,536.9099999996326,2.204519e-05,536.9099999996326,0.0003412824
536.9249999996326,2.678497e-05,536.9249999996326,0.000630045,536.9249999996326,2.147487e-05,536.9249999996326,0.0003447988
536.9399999996326,2.842754e-05,536.9399999996326,0.0006316993,536.9399999996326,2.173437e-05,536.9399999996326,0.0003461364
536.9549999996326,2.910575e-05,536.9549999996326,0.0006342308,536.9549999996326,2.170389e-05,536.9549999996326,0.0003468132
536.9699999996326,2.852548e-05,536.9699999996326,0.0006406815,536.9699999996326,2.123343e-05,536.9699999996326,0.00034694
536.9849999996326,2.79261e-05,536.9849999996326,0.0006466399,536.9849999996326,2.035341e-05,536.9849999996326,0.0003469769
536.9999999996326,2.783768e-05,536.9999999996326,0.000647972,536.9999999996326,2.08802e-05,536.9999999996326,0.0003410023
537.0149999996326,2.792862e-05,537.0149999996326,0.0006478542,537.0149999996326,1.922515e-05,537.0149999996326,0.0003371585
537.0299999996325,2.731666e-05,537.0299999996325,0.0006480908,537.0299999996325,1.903443e-05,537.0299999996325,0.0003328367
537.0449999996325,2.78068e-05,537.0449999996325,0.0006492718,537.0449999996325,1.906697e-05,537.0449999996325,0.0003289439
537.0599999996325,2.752472e-05,537.0599999996325,0.0006506916,537.0599999996325,1.920976e-05,537.0599999996325,0.0003285607
537.0749999996325,2.706019e-05,537.0749999996325,0.0006503286,537.0749999996325,1.949943e-05,537.0749999996325,0.0003100886
537.0899999996325,2.577839e-05,537.0899999996325,0.0006505414,537.0899999996325,1.70307e-05,537.0899999996325,0.0002171557
537.1049999996325,2.698304e-05,537.1049999996325,0.0006517709,537.1049999996325,1.658568e-05,537.1049999996325,0.0001869709
537.1199999996325,2.637424e-05,537.1199999996325,0.0006552829,537.1199999996325,1.648345e-05,537.1199999996325,0.0001061098
537.1349999996324,2.639399e-05,537.1349999996324,0.0005007802,537.1349999996324,1.698183e-05,537.1349999996324,6.632021e-05
537.1499999996324,2.667113e-05,537.1499999996324,0.0004269879,537.1499999996324,1.648088e-05,537.1499999996324,6.407798e-05
537.1649999996324,2.684119e-05,537.1649999996324,0.0002896026,537.1649999996324,1.64012e-05,537.1649999996324,5.324791e-05
537.1799999996324,2.71807e-05,537.1799999996324,0.0002291746,537.1799999996324,1.572327e-05,537.1799999996324,3.770262e-05
537.1949999996324,2.529739e-05,537.1949999996324,0.0002284587,537.1949999996324,1.581706e-05,537.1949999996324,2.889007e-05
537.2099999996324,2.440057e-05,537.2099999996324,0.0002250772,537.2099999996324,1.588372e-05,537.2099999996324,2.292971e-05
537.2249999996324,2.411953e-05,537.2249999996324,0.0002099816,537.2249999996324,1.64672e-05,537.2249999996324,2.353962e-05
537.2399999996323,2.377305e-05,537.2399999996323,0.0001955341,537.2399999996323,1.700504e-05,537.2399999996323,2.24052e-05
537.2549999996323,2.355219e-05,537.2549999996323,0.0001940465,537.2549999996323,1.653038e-05,537.2549999996323,2.201386e-05
537.2699999996323,2.364531e-05,537.2699999996323,0.0001946137,537.2699999996323,1.631595e-05,537.2699999996323,2.172011e-05
537.2849999996323,2.34617e-05,537.2849999996323,0.0001934772,537.2849999996323,1.605485e-05,537.2849999996323,2.17784e-05
537.2999999996323,2.361789e-05,537.2999999996323,0.0001862178,537.2999999996323,1.624586e-05,537.2999999996323,2.157761e-05
537.3149999996323,2.349769e-05,537.3149999996323,0.0001837837,537.3149999996323,1.718386e-05,537.3149999996323,2.175834e-05
537.3299999996323,2.280959e-05,537.3299999996323,0.0001835694,537.3299999996323,1.634355e-05,537.3299999996323,2.204839e-05
537.3449999996323,2.33244e-05,537.3449999996323,0.0001815232,537.3449999996323,1.584198e-05,537.3449999996323,2.156193e-05
537.3599999996322,2.228289e-05,537.3599999996322,0.0001729637,537.3599999996322,1.58135e-05,537.3599999996322,2.144927e-05
537.3749999996322,2.236178e-05,537.3749999996322,0.0001384342,537.3749999996322,1.580815e-05,537.3749999996322,2.15384e-05
537.3899999996322,2.218088e-05,537.3899999996322,0.000130799,537.3899999996322,1.492066e-05,537.3899999996322,2.182621e-05
537.4049999996322,2.207648e-05,537.4049999996322,0.0001068612,537.4049999996322,1.479836e-05,537.4049999996322,2.184879e-05
537.4199999996322,2.062361e-05,537.4199999996322,9.150509e-05,537.4199999996322,1.50354e-05,537.4199999996322,2.171946e-05
537.4349999996322,2.045214e-05,537.4349999996322,0.0001007316,537.4349999996322,1.489798e-05,537.4349999996322,1.885822e-05
537.4499999996322,2.038245e-05,537.4499999996322,0.0001016055,537.4499999996322,1.464527e-05,537.4499999996322,1.771903e-05
537.4649999996321,2.043767e-05,537.4649999996321,9.467813e-05,537.4649999996321,1.434988e-05,537.4649999996321,1.486769e-05
537.4799999996321,2.052364e-05,537.4799999996321,9.521195e-05,537.4799999996321,1.517528e-05,537.4799999996321,1.387069e-05
537.4949999996321,2.210199e-05,537.4949999996321,9.759419e-05,537.4949999996321,1.509524e-05,537.4949999996321,1.390619e-05
537.5099999996321,2.310779e-05,537.5099999996321,9.766115e-05,537.5099999996321,1.5412e-05,537.5099999996321,1.380043e-05
537.5249999996321,2.27657e-05,537.5249999996321,9.727902e-05,537.5249999996321,1.576264e-05,537.5249999996321,1.448569e-05
537.5399999996321,2.227404e-05,537.5399999996321,9.327193e-05,537.5399999996321,1.600828e-05,537.5399999996321,1.532308e-05
537.5549999996321,2.204519e-05,537.5549999996321,9.634502e-05,537.5549999996321,1.630558e-05,537.5549999996321,1.541931e-05
537.569999999632,2.285278e-05,537.569999999632,9.927513e-05,537.569999999632,1.616938e-05,537.569999999632,1.467505e-05
537.584999999632,2.356056e-05,537.584999999632,0.0001076292,537.584999999632,1.938713e-05,537.584999999632,1.443504e-05
537.599999999632,2.397837e-05,537.599999999632,0.0001276053,537.599999999632,1.947992e-05,537.599999999632,1.393048e-05
537.614999999632,2.356414e-05,537.614999999632,0.0001279428,537.614999999632,1.953263e-05,537.614999999632,1.397792e-05
537.629999999632,2.504725e-05,537.629999999632,0.0001245602,537.629999999632,1.978201e-05,537.629999999632,1.393856e-05
537.644999999632,2.387888e-05,537.644999999632,0.0001306832,537.644999999632,1.996489e-05,537.644999999632,1.386865e-05
537.659999999632,2.463155e-05,537.659999999632,0.0001330763,537.659999999632,1.939222e-05,537.659999999632,1.460288e-05
537.674999999632,2.453586e-05,537.674999999632,0.0001303897,537.674999999632,1.92581e-05,537.674999999632,1.456908e-05
537.6899999996319,2.503881e-05,537.6899999996319,0.0001229864,537.6899999996319,2.011041e-05,537.6899999996319,1.455941e-05
537.7049999996319,2.649308e-05,537.7049999996319,0.0002161706,537.7049999996319,2.093074e-05,537.7049999996319,1.435871e-05
537.7199999996319,2.771191e-05,537.7199999996319,0.000230274,537.7199999996319,2.033887e-05,537.7199999996319,1.429382e-05
537.7349999996319,2.70305e-05,537.7349999996319,0.0002703322,537.7349999996319,1.985381e-05,537.7349999996319,1.466449e-05
537.7499999996319,2.44225e-05,537.7499999996319,0.0002861898,537.7499999996319,1.952109e-05,537.7499999996319,1.413924e-05
537.7649999996319,2.453586e-05,537.7649999996319,0.0002862799,537.7649999996319,1.91304e-05,537.7649999996319,1.53387e-05
537.7799999996319,2.47246e-05,537.7799999996319,0.0002860335,537.7799999996319,1.970996e-05,537.7799999996319,1.440671e-05
537.7949999996318,2.545283e-05,537.7949999996318,0.0002976647,537.7949999996318,2.051129e-05,537.7949999996318,1.697851e-05
537.8099999996318,2.522378e-05,537.8099999996318,0.0003135938,537.8099999996318,1.999591e-05,537.8099999996318,1.81642e-05
537.8249999996318,2.557485e-05,537.8249999996318,0.00033561,537.8249999996318,1.787496e-05,537.8249999996318,2.007676e-05
537.8399999996318,2.554619e-05,537.8399999996318,0.0003542308,537.8399999996318,1.608728e-05,537.8399999996318,2.00971e-05
537.8549999996318,2.526731e-05,537.8549999996318,0.000351513,537.8549999996318,1.678241e-05,537.8549999996318,2.017196e-05
537.8699999996318,2.540464e-05,537.8699999996318,0.0003498415,537.8699999996318,1.727869e-05,537.8699999996318,1.96835e-05
537.8849999996318,2.482921e-05,537.8849999996318,0.0003498146,537.8849999996318,1.775398e-05,537.8849999996318,1.959168e-05
537.8999999996317,2.54943e-05,537.8999999996317,0.0003488685,537.8999999996317,1.754165e-05,537.8999999996317,1.913997e-05
537.9149999996317,2.479628e-05,537.9149999996317,0.0003493599,537.9149999996317,1.757615e-05,537.9149999996317,1.88096e-05
537.9299999996317,2.619631e-05,537.9299999996317,0.0003496813,537.9299999996317,1.687782e-05,537.9299999996317,1.865998e-05
537.9449999996317,2.628328e-05,537.9449999996317,0.0003506003,537.9449999996317,1.626233e-05,537.9449999996317,1.891193e-05
537.9599999996317,2.397308e-05,537.9599999996317,0.0002866309,537.9599999996317,1.58642e-05,537.9599999996317,1.873155e-05
537.9749999996317,2.409148e-05,537.9749999996317,0.0002790222,537.9749999996317,1.6131e-05,537.9749999996317,1.872403e-05
537.9899999996317,2.441731e-05,537.9899999996317,0.0002445352,537.9899999996317,1.624413e-05,537.9899999996317,1.838696e-05
538.0049999996317,2.438671e-05,538.0049999996317,0.0002336536,538.0049999996317,1.615718e-05,538.0049999996317,1.838926e-05
538.0199999996316,2.558862e-05,538.0199999996316,0.0002324143,538.0199999996316,1.59103e-05,538.0199999996316,1.756252e-05
538.0349999996316,2.617641e-05,538.0349999996316,0.000232373,538.0349999996316,1.527428e-05,538.0349999996316,1.732916e-05
538.0499999996316,2.60745e-05,538.0499999996316,0.0001845253,538.0499999996316,1.51083e-05,538.0499999996316,1.387779e-05
538.0649999996316,2.612038e-05,538.0649999996316,0.000172017,538.0649999996316,1.495272e-05,538.0649999996316,1.161682e-05
538.0799999996316,2.5388e-05,538.0799999996316,0.0001218784,538.0799999996316,1.553399e-05,538.0799999996316,9.700467e-06
538.0949999996316,2.526117e-05,538.0949999996316,0.0001097398,538.0949999996316,1.5433e-05,538.0949999996316,9.363521e-06
538.1099999996316,2.483602e-05,538.1099999996316,0.0001111199,538.1099999996316,1.543757e-05,538.1099999996316,8.984247e-06
538.1249999996315,2.462698e-05,538.1249999996315,0.0001550364,538.1249999996315,1.54722e-05,538.1249999996315,9.139696e-06
538.1399999996315,2.39272e-05,538.1399999996315,0.000159827,538.1399999996315,1.461542e-05,538.1399999996315,9.18275e-06
538.1549999996315,2.329116e-05,538.1549999996315,0.0001592633,538.1549999996315,1.482784e-05,538.1549999996315,9.462292e-06
538.1699999996315,2.464242e-05,538.1699999996315,0.0001754381,538.1699999996315,1.471723e-05,538.1699999996315,9.29406e-06
538.1849999996315,2.338833e-05,538.1849999996315,0.0001756146,538.1849999996315,1.471149e-05,538.1849999996315,8.938661e-06
538.1999999996315,2.271739e-05,538.1999999996315,0.0001759827,538.1999999996315,1.45478e-05,538.1999999996315,9.003043e-06
538.2149999996315,2.368995e-05,538.2149999996315,0.0001921233,538.2149999996315,1.450318e-05,538.2149999996315,9.091791e-06
538.2299999996314,2.341723e-05,538.2299999996314,0.0002053781,538.2299999996314,1.58135e-05,538.2299999996314,9.240859e-06
538.2449999996314,2.337327e-05,538.2449999996314,0.0002121213,538.2449999996314,1.585176e-05,538.2449999996314,9.315255e-06
538.2599999996314,2.482127e-05,538.2599999996314,0.0002846876,538.2599999996314,1.602147e-05,538.2599999996314,9.369536e-06
538.2749999996314,2.528458e-05,538.2749999996314,0.0005856765,538.2749999996314,1.60118e-05,538.2749999996314,9.375548e-06
538.2899999996314,2.379378e-05,538.2899999996314,0.0006880597,538.2899999996314,1.581973e-05,538.2899999996314,9.564462e-06
538.3049999996314,2.462412e-05,538.3049999996314,0.0007448401,538.3049999996314,1.588904e-05,538.3049999996314,9.589467e-06
538.3199999996314,2.483034e-05,538.3199999996314,0.0007952215,538.3199999996314,1.626493e-05,538.3199999996314,9.904527e-06
538.3349999996313,2.461439e-05,538.3349999996313,0.0007992916,538.3349999996313,1.585975e-05,538.3349999996313,9.962669e-06
538.3499999996313,2.555722e-05,538.3499999996313,0.0008091638,538.3499999996313,1.578765e-05,538.3499999996313,1.036189e-05
538.3649999996313,2.631114e-05,538.3649999996313,0.0008101815,538.3649999996313,1.530745e-05,538.3649999996313,1.064619e-05
538.3799999996313,2.664471e-05,538.3799999996313,0.0008090265,538.3799999996313,1.679499e-05,538.3799999996313,1.063428e-05
538.3949999996313,2.662779e-05,538.3949999996313,0.0008130068,538.3949999996313,1.701581e-05,538.3949999996313,1.135931e-05
538.4099999996313,2.672495e-05,538.4099999996313,0.0008131998,538.4099999996313,1.693116e-05,538.4099999996313,1.1207e-05
538.4249999996313,2.554233e-05,538.4249999996313,0.0008137198,538.4249999996313,1.777063e-05,538.4249999996313,1.204662e-05
538.4399999996313,2.561832e-05,538.4399999996313,0.0008160787,538.4399999996313,1.780864e-05,538.4399999996313,1.336696e-05
538.4549999996312,2.582588e-05,538.4549999996312,0.0008157906,538.4549999996312,1.902555e-05,538.4549999996312,1.367534e-05
538.4699999996312,2.554564e-05,538.4699999996312,0.0008181204,538.4699999996312,1.813393e-05,538.4699999996312,1.515113e-05
538.4849999996312,2.61538e-05,538.4849999996312,0.0008182056,538.4849999996312,1.766808e-05,538.4849999996312,1.522902e-05
538.4999999996312,2.606316e-05,538.4999999996312,0.000816275,538.4999999996312,1.766728e-05,538.4999999996312,1.54476e-05
538.5149999996312,2.331594e-05,538.5149999996312,0.0006955523,538.5149999996312,1.773651e-05,538.5149999996312,1.558108e-05
538.5299999996312,2.409791e-05,538.5299999996312,0.0005787289,538.5299999996312,1.746439e-05,538.5299999996312,1.571162e-05
538.5449999996312,2.421803e-05,538.5449999996312,0.0004818842,538.5449999996312,1.791668e-05,538.5449999996312,1.605836e-05
538.5599999996311,2.336121e-05,538.5599999996311,0.0004001858,538.5599999996311,1.81417e-05,538.5599999996311,1.65065e-05
538.5749999996311,2.361132e-05,538.5749999996311,0.000392205,538.5749999996311,1.8247e-05,538.5749999996311,1.653975e-05
538.5899999996311,2.3684e-05,538.5899999996311,0.0003843509,538.5899999996311,1.843211e-05,538.5899999996311,1.667462e-05
538.6049999996311,2.376653e-05,538.6049999996311,0.0003686014,538.6049999996311,1.823387e-05,538.6049999996311,1.636423e-05
538.6199999996311,2.399188e-05,538.6199999996311,0.000366868,538.6199999996311,1.822614e-05,538.6199999996311,1.632026e-05
538.6349999996311,2.437342e-05,538.6349999996311,0.0003831146,538.6349999996311,1.637025e-05,538.6349999996311,1.731208e-05
538.6499999996311,2.390246e-05,538.6499999996311,0.0003856907,538.6499999996311,1.662724e-05,538.6499999996311,1.675973e-05
538.664999999631,2.486549e-05,538.664999999631,0.000413795,538.664999999631,1.705467e-05,538.664999999631,1.771267e-05
538.679999999631,2.465728e-05,538.679999999631,0.0004249446,538.679999999631,1.682516e-05,538.679999999631,1.619549e-05
538.694999999631,2.488645e-05,538.694999999631,0.000426732,538.694999999631,1.673534e-05,538.694999999631,1.624933e-05
538.709999999631,2.561667e-05,538.709999999631,0.0004312405,538.709999999631,1.654656e-05,538.709999999631,1.603817e-05
538.724999999631,2.568148e-05,538.724999999631,0.0004290116,538.724999999631,1.719779e-05,538.724999999631,1.448375e-05
538.739999999631,2.540075e-05,538.739999999631,0.0004176474,538.739999999631,1.789937e-05,538.739999999631,1.412529e-05
538.754999999631,2.613656e-05,538.754999999631,0.00041794,538.754999999631,1.772539e-05,538.754999999631,1.414024e-05
538.769999999631,2.634538e-05,538.769999999631,0.0004185985,538.769999999631,1.804282e-05,538.769999999631,1.474018e-05
538.7849999996309,2.649201e-05,538.7849999996309,0.0004117756,538.7849999996309,1.849467e-05,538.7849999996309,1.438812e-05
538.7999999996309,2.72485e-05,538.7999999996309,0.0003921121,538.7999999996309,1.80053e-05,538.7999999996309,1.447791e-05
538.8149999996309,2.763402e-05,538.8149999996309,0.0003892979,538.8149999996309,1.845044e-05,538.8149999996309,1.475547e-05
538.8299999996309,2.75881e-05,538.8299999996309,0.0003429255,538.8299999996309,1.921562e-05,538.8299999996309,1.418301e-05
538.8449999996309,2.647925e-05,538.8449999996309,0.0003409878,538.8449999996309,1.93973e-05,538.8449999996309,1.402722e-05
538.8599999996309,2.619416e-05,538.8599999996309,0.0003496037,538.8599999996309,1.916644e-05,538.8599999996309,1.398195e-05
538.8749999996309,2.637584e-05,538.8749999996309,0.000353168,538.8749999996309,1.923321e-05,538.8749999996309,1.368152e-05
538.8899999996308,2.625111e-05,538.8899999996308,0.0003358688,538.8899999996308,1.886195e-05,538.8899999996308,1.267456e-05
538.9049999996308,2.540242e-05,538.9049999996308,0.0002997958,538.9049999996308,1.872855e-05,538.9049999996308,1.198213e-05
538.9199999996308,2.611283e-05,538.9199999996308,0.0002717756,538.9199999996308,1.855171e-05,538.9199999996308,1.187111e-05
538.9349999996308,2.568422e-05,538.9349999996308,0.0002806482,538.9349999996308,1.845884e-05,538.9349999996308,1.193619e-05
538.9499999996308,2.599876e-05,538.9499999996308,0.0002683932,538.9499999996308,1.883804e-05,538.9499999996308,1.137047e-05
538.9649999996308,2.59787e-05,538.9649999996308,0.0002605743,538.9649999996308,1.792375e-05,538.9649999996308,1.100021e-05
538.9799999996308,2.637637e-05,538.9799999996308,0.0002583689,538.9799999996308,1.741593e-05,538.9799999996308,1.100149e-05
538.9949999996307,2.575214e-05,538.9949999996307,0.0002598388,538.9949999996307,1.754807e-05,538.9949999996307,1.105769e-05
539.0099999996307,2.495936e-05,539.0099999996307,0.0002678522,539.0099999996307,1.736571e-05,539.0099999996307,1.108314e-05
539.0249999996307,2.483942e-05,539.0249999996307,0.0002770649,539.0249999996307,1.827168e-05,539.0249999996307,1.007235e-05
539.0399999996307,2.382691e-05,539.0399999996307,0.0002727435,539.0399999996307,1.920316e-05,539.0399999996307,1.008074e-05
539.0549999996307,2.490795e-05,539.0549999996307,0.0002441087,539.0549999996307,1.875485e-05,539.0549999996307,8.676361e-06
539.0699999996307,2.558366e-05,539.0699999996307,0.0002465855,539.0699999996307,1.785367e-05,539.0699999996307,8.954407e-06
539.0849999996307,2.530018e-05,539.0849999996307,0.0002715549,539.0849999996307,1.748615e-05,539.0849999996307,9.696108e-06
539.0999999996307,2.50731e-05,539.0999999996307,0.0003345673,539.0999999996307,1.747326e-05,539.0999999996307,9.755493e-06
539.1149999996306,2.462927e-05,539.1149999996306,0.0003673328,539.1149999996306,1.745309e-05,539.1149999996306,1.026491e-05
539.1299999996306,2.401007e-05,539.1299999996306,0.0003942601,539.1299999996306,1.734216e-05,539.1299999996306,1.112753e-05
539.1449999996306,2.606153e-05,539.1449999996306,0.0004018629,539.1449999996306,1.755369e-05,539.1449999996306,1.145686e-05
539.1599999996306,2.599171e-05,539.1599999996306,0.0004084174,539.1599999996306,1.71198e-05,539.1599999996306,1.234006e-05
539.1749999996306,2.70477e-05,539.1749999996306,0.000415294,539.1749999996306,1.711568e-05,539.1749999996306,1.264229e-05
539.1899999996306,2.69266e-05,539.1899999996306,0.00041363,539.1899999996306,1.758336e-05,539.1899999996306,1.272337e-05
539.2049999996306,2.584006e-05,539.2049999996306,0.0004226875,539.2049999996306,1.793397e-05,539.2049999996306,1.315664e-05
539.2199999996305,2.529015e-05,539.2199999996305,0.0004304294,539.2199999996305,1.806311e-05,539.2199999996305,1.33543e-05
539.2349999996305,2.530129e-05,539.2349999996305,0.0004374811,539.2349999996305,1.734135e-05,539.2349999996305,1.346774e-05
539.2499999996305,2.583243e-05,539.2499999996305,0.0004359196,539.2499999996305,1.696938e-05,539.2499999996305,1.338696e-05
539.2649999996305,2.653399e-05,539.2649999996305,0.000433684,539.2649999996305,1.70216e-05,539.2649999996305,1.37575e-05
539.2799999996305,2.611607e-05,539.2799999996305,0.0004312759,539.2799999996305,1.423852e-05,539.2799999996305,1.410034e-05
539.2949999996305,2.548546e-05,539.2949999996305,0.0004330982,539.2949999996305,1.495555e-05,539.2949999996305,1.442332e-05
539.3099999996305,2.392367e-05,539.3099999996305,0.0004399814,539.3099999996305,1.515391e-05,539.3099999996305,1.460867e-05
539.3249999996304,2.360834e-05,539.3249999996304,0.0004406986,539.3249999996304,1.489892e-05,539.3249999996304,1.48639e-05
539.3399999996304,2.409148e-05,539.3399999996304,0.0004017132,539.3399999996304,1.502415e-05,539.3399999996304,1.493575e-05
539.3549999996304,2.480537e-05,539.3549999996304,0.000404337,539.3549999996304,1.494235e-05,539.3549999996304,1.480503e-05
539.3699999996304,2.458519e-05,539.3699999996304,0.0004227093,539.3699999996304,1.57161e-05,539.3699999996304,1.411531e-05
539.3849999996304,2.343887e-05,539.3849999996304,0.0004193475,539.3849999996304,1.644237e-05,539.3849999996304,1.394058e-05
539.3999999996304,2.227088e-05,539.3999999996304,0.0004531023,539.3999999996304,1.740865e-05,539.3999999996304,1.33796e-05
539.4149999996304,2.147421e-05,539.4149999996304,0.0004789873,539.4149999996304,1.768401e-05,539.4149999996304,1.317162e-05
539.4299999996304,2.153709e-05,539.4299999996304,0.0005101266,539.4299999996304,1.785288e-05,539.4299999996304,1.267012e-05
539.4449999996303,2.166946e-05,539.4449999996303,0.0005276516,539.4449999996303,1.759777e-05,539.4449999996303,1.296466e-05
539.4599999996303,2.146634e-05,539.4599999996303,0.0005350753,539.4599999996303,1.692367e-05,539.4599999996303,1.230691e-05
539.4749999996303,2.132676e-05,539.4749999996303,0.0005651586,539.4749999996303,1.681008e-05,539.4749999996303,1.237653e-05
539.4899999996303,2.174409e-05,539.4899999996303,0.0005704388,539.4899999996303,1.71494e-05,539.4899999996303,1.223459e-05
539.5049999996303,2.088425e-05,539.5049999996303,0.0005797782,539.5049999996303,1.742805e-05,539.5049999996303,1.234805e-05
539.5199999996303,2.042595e-05,539.5199999996303,0.0005807344,539.5199999996303,1.79269e-05,539.5199999996303,1.190665e-05
539.5349999996303,2.083766e-05,539.5349999996303,0.0006091516,539.5349999996303,1.772539e-05,539.5349999996303,1.121831e-05
539.5499999996302,2.222656e-05,539.5499999996302,0.0006226513,539.5499999996302,1.690618e-05,539.5499999996302,1.156943e-05
539.5649999996302,2.204328e-05,539.5649999996302,0.0006315877,539.5649999996302,1.75095e-05,539.5649999996302,1.295161e-05
539.5799999996302,2.126061e-05,539.5799999996302,0.0006408122,539.5799999996302,1.757775e-05,539.5799999996302,1.226104e-05
539.5949999996302,2.124934e-05,539.5949999996302,0.0006305659,539.5949999996302,1.777538e-05,539.5949999996302,1.21282e-05
539.6099999996302,2.01936e-05,539.6099999996302,0.0006234057,539.6099999996302,1.734866e-05,539.6099999996302,1.195624e-05
539.6249999996302,2.047004e-05,539.6249999996302,0.0005807435,539.6249999996302,1.670332e-05,539.6249999996302,1.194091e-05
539.6399999996302,2.060858e-05,539.6399999996302,0.0005821324,539.6399999996302,1.62207e-05,539.6399999996302,1.235831e-05
539.6549999996301,2.14788e-05,539.6549999996301,0.0005503457,539.6549999996301,1.599683e-05,539.6549999996301,1.215372e-05
539.6699999996301,2.088155e-05,539.6699999996301,0.0005266853,539.6699999996301,1.66247e-05,539.6699999996301,1.19173e-05
539.6849999996301,2.067273e-05,539.6849999996301,0.0004831241,539.6849999996301,1.705715e-05,539.6849999996301,1.200797e-05
539.6999999996301,1.984245e-05,539.6999999996301,0.0004735469,539.6999999996301,1.747326e-05,539.6999999996301,1.176023e-05
539.7149999996301,2.085252e-05,539.7149999996301,0.0004719394,539.7149999996301,1.78584e-05,539.7149999996301,1.182593e-05
539.7299999996301,2.059627e-05,539.7299999996301,0.0004476069,539.7299999996301,1.783235e-05,539.7299999996301,1.18152e-05
539.7449999996301,1.917159e-05,539.7449999996301,0.0004380488,539.7449999996301,1.756653e-05,539.7449999996301,1.182474e-05
539.75999999963,1.894765e-05,539.75999999963,0.0004283181,539.75999999963,1.693947e-05,539.75999999963,1.231263e-05
539.77499999963,1.91245e-05,539.77499999963,0.0004364733,539.77499999963,1.674964e-05,539.77499999963,1.223689e-05
539.78999999963,1.948208e-05,539.78999999963,0.0003976479,539.78999999963,1.693116e-05,539.78999999963,1.251462e-05
539.80499999963,1.879312e-05,539.80499999963,0.0004075927,539.80499999963,1.697851e-05,539.80499999963,1.149369e-05
539.81999999963,1.966775e-05,539.81999999963,0.0003787933,539.81999999963,1.702905e-05,539.81999999963,1.063825e-05
539.83499999963,2.028269e-05,539.83499999963,0.0003843275,539.83499999963,1.646207e-05,539.83499999963,1.054382e-05
539.84999999963,2.028061e-05,539.84999999963,0.0003949254,539.84999999963,1.629089e-05,539.84999999963,1.189363e-05
539.86499999963,2.067954e-05,539.86499999963,0.0003954573,539.86499999963,1.601883e-05,539.86499999963,1.268012e-05
539.87999999963,2.060584e-05,539.87999999963,0.0003866979,539.87999999963,1.529456e-05,539.87999999963,1.414522e-05
539.8949999996299,2.101269e-05,539.8949999996299,0.000408326,539.8949999996299,1.611178e-05,539.8949999996299,1.57546e-05
539.9099999996299,1.96398e-05,539.9099999996299,0.0004240459,539.9099999996299,1.60794e-05,539.9099999996299,1.761138e-05
539.9249999996299,1.987012e-05,539.9249999996299,0.0004253702,539.9249999996299,1.588194e-05,539.9249999996299,1.820526e-05
539.9399999996299,2.103145e-05,539.9399999996299,0.0004451389,539.9399999996299,1.603466e-05,539.9399999996299,1.816886e-05
539.9549999996299,2.166166e-05,539.9549999996299,0.0004279711,539.9549999996299,1.573223e-05,539.9549999996299,1.851599e-05
539.9699999996299,2.078079e-05,539.9699999996299,0.0004206342,539.9699999996299,1.500351e-05,539.9699999996299,1.912671e-05
539.9849999996298,2.138744e-05,539.9849999996298,0.0004206541,539.9849999996298,1.521422e-05,539.9849999996298,1.929098e-05
539.9999999996298,2.209625e-05,539.9999999996298,0.0004183563,539.9999999996298,1.518734e-05,539.9999999996298,1.959096e-05
540.0149999996298,2.21039e-05,540.0149999996298,0.0004263531,540.0149999996298,1.52669e-05,540.0149999996298,1.954849e-05
540.0299999996298,2.225063e-05,540.0299999996298,0.0004029805,540.0299999996298,1.529732e-05,540.0299999996298,1.933329e-05
540.0449999996298,2.122281e-05,540.0449999996298,0.000404743,540.0449999996298,1.506535e-05,540.0449999996298,1.924419e-05
540.0599999996298,2.10147e-05,540.0599999996298,0.0004073134,540.0599999996298,1.469424e-05,540.0599999996298,1.951965e-05
540.0749999996298,2.041905e-05,540.0749999996298,0.0004140747,540.0749999996298,1.529824e-05,540.0749999996298,1.942125e-05
540.0899999996298,1.960893e-05,540.0899999996298,0.0004162524,540.0899999996298,1.542296e-05,540.0899999996298,1.870597e-05
540.1049999996297,1.993523e-05,540.1049999996297,0.0004038864,540.1049999996297,1.546401e-05,540.1049999996297,1.849924e-05
540.1199999996297,2.087683e-05,540.1199999996297,0.0004133797,540.1199999996297,1.542479e-05,540.1199999996297,1.729092e-05
540.1349999996297,2.1107e-05,540.1349999996297,0.0004178305,540.1349999996297,1.537997e-05,540.1349999996297,1.714365e-05
540.1499999996297,2.175575e-05,540.1499999996297,0.0004038321,540.1499999996297,1.437538e-05,540.1499999996297,1.457971e-05
540.1649999996297,2.206053e-05,540.1649999996297,0.0003774239,540.1649999996297,1.454005e-05,540.1649999996297,1.369181e-05
540.1799999996297,2.219358e-05,540.1799999996297,0.0003793711,540.1799999996297,1.431253e-05,540.1799999996297,1.38035e-05
540.1949999996297,2.119425e-05,540.1949999996297,0.0003612592,540.1949999996297,1.3147e-05,540.1949999996297,1.417208e-05
540.2099999996296,2.254247e-05,540.2099999996296,0.0003756079,540.2099999996296,1.30804e-05,540.2099999996296,1.447304e-05
540.2249999996296,2.257432e-05,540.2249999996296,0.0003804924,540.2249999996296,1.313306e-05,540.2249999996296,1.497249e-05
540.2399999996296,2.130958e-05,540.2399999996296,0.0003994022,540.2399999996296,1.35875e-05,540.2399999996296,1.504195e-05
540.2549999996296,2.133601e-05,540.2549999996296,0.0004009085,540.2549999996296,1.40041e-05,540.2549999996296,1.510363e-05
540.2699999996296,2.173696e-05,540.2699999996296,0.000413931,540.2699999996296,1.413924e-05,540.2699999996296,1.687532e-05
540.2849999996296,2.204328e-05,540.2849999996296,0.0004333935,540.2849999996296,1.414124e-05,540.2849999996296,1.713378e-05
540.2999999996296,2.232332e-05,540.2999999996296,0.000426522,540.2999999996296,1.381981e-05,540.2999999996296,1.724278e-05
540.3149999996295,2.236241e-05,540.3149999996295,0.0004420186,540.3149999996295,1.285883e-05,540.3149999996295,1.723052e-05
540.3299999996295,2.471035e-05,540.3299999996295,0.0004757216,540.3299999996295,1.269011e-05,540.3299999996295,1.746197e-05
540.3449999996295,2.466813e-05,540.3449999996295,0.0004984087,540.3449999996295,1.351577e-05,540.3449999996295,1.847486e-05
540.3599999996295,2.437284e-05,540.3599999996295,0.0005003242,540.3599999996295,1.401214e-05,540.3599999996295,1.873005e-05
540.3749999996295,2.374696e-05,540.3749999996295,0.0004885146,540.3749999996295,1.411731e-05,540.3749999996295,1.863127e-05
540.3899999996295,2.417554e-05,540.3899999996295,0.0004965474,540.3899999996295,1.410433e-05,540.3899999996295,1.887763e-05
540.4049999996295,2.34821e-05,540.4049999996295,0.0005021797,540.4049999996295,1.368152e-05,540.4049999996295,1.85099e-05
540.4199999996295,2.28028e-05,540.4199999996295,0.0005093143,540.4199999996295,1.208864e-05,540.4199999996295,1.875335e-05
540.4349999996294,2.251308e-05,540.4349999996294,0.0005038299,540.4349999996294,1.223228e-05,540.4349999996294,1.830942e-05
540.4499999996294,2.047486e-05,540.4499999996294,0.0005218657,540.4499999996294,1.253037e-05,540.4499999996294,1.791904e-05
540.4649999996294,2.07618e-05,540.4649999996294,0.0005082263,540.4649999996294,1.270454e-05,540.4649999996294,1.740622e-05
540.4799999996294,2.052776e-05,540.4799999996294,0.0005153013,540.4799999996294,1.293529e-05,540.4799999996294,1.682516e-05
540.4949999996294,2.08775e-05,540.4949999996294,0.0005108897,540.4949999996294,1.203609e-05,540.4949999996294,1.66391e-05
540.5099999996294,2.111634e-05,540.5099999996294,0.000507825,540.5099999996294,1.144087e-05,540.5099999996294,1.624066e-05
540.5249999996294,2.020824e-05,540.5249999996294,0.0004785394,540.5249999996294,1.173985e-05,540.5249999996294,1.613013e-05
540.5399999996293,2.059832e-05,540.5399999996293,0.0004770918,540.5399999996293,1.20548e-05,540.5399999996293,1.59845e-05
540.5549999996293,2.028269e-05,540.5549999996293,0.0005149093,540.5549999996293,1.23275e-05,540.5549999996293,1.651759e-05
540.5699999996293,1.9176e-05,540.5699999996293,0.000518705,540.5699999996293,1.215604e-05,540.5699999996293,1.70431e-05
540.5849999996293,1.714775e-05,540.5849999996293,0.0005195277,540.5849999996293,1.206064e-05,540.5849999996293,1.728114e-05
540.5999999996293,1.742805e-05,540.5999999996293,0.0005006915,540.5999999996293,1.086751e-05,540.5999999996293,1.788363e-05
540.6149999996293,1.725422e-05,540.6149999996293,0.0005019637,540.6149999996293,1.120574e-05,540.6149999996293,2.016777e-05
540.6299999996293,1.702988e-05,540.6299999996293,0.0004883059,540.6299999996293,1.152062e-05,540.6299999996293,2.097511e-05
540.6449999996292,1.560818e-05,540.6449999996292,0.0004922225,540.6449999996292,1.128591e-05,540.6449999996292,2.267332e-05
540.6599999996292,1.612838e-05,540.6599999996292,0.0004907034,540.6599999996292,1.139522e-05,540.6599999996292,2.440461e-05
540.6749999996292,1.632458e-05,540.6749999996292,0.0004989997,540.6749999996292,1.126967e-05,540.6749999996292,2.462183e-05
540.6899999996292,1.645265e-05,540.6899999996292,0.0004990229,540.6899999996292,1.132827e-05,540.6899999996292,2.519305e-05
540.7049999996292,1.671597e-05,540.7049999996292,0.0004794387,540.7049999996292,1.127717e-05,540.7049999996292,2.541628e-05
540.7199999996292,1.690701e-05,540.7199999996292,0.0004812568,540.7199999996292,1.086362e-05,540.7199999996292,2.524276e-05
540.7349999996292,1.692866e-05,540.7349999996292,0.0004799114,540.7349999996292,1.088564e-05,540.7349999996292,2.516843e-05
540.7499999996292,1.642694e-05,540.7499999996292,0.0004714466,540.7499999996292,1.100533e-05,540.7499999996292,2.485019e-05
540.7649999996291,1.564964e-05,540.7649999996291,0.0004734258,540.7649999996291,1.105896e-05,540.7649999996291,2.464985e-05
540.7799999996291,1.558831e-05,540.7799999996291,0.0004775491,540.7799999996291,1.089211e-05,540.7799999996291,2.410551e-05
540.7949999996291,1.593596e-05,540.7949999996291,0.0004829622,540.7949999996291,1.086621e-05,540.7949999996291,2.404232e-05
540.8099999996291,1.580994e-05,540.8099999996291,0.0004097916,540.8099999996291,1.044853e-05,540.8099999996291,2.34076e-05
540.8249999996291,1.614846e-05,540.8249999996291,0.0003922762,540.8249999996291,1.042694e-05,540.8249999996291,2.271181e-05
540.8399999996291,1.669066e-05,540.8399999996291,0.0003561659,540.8399999996291,9.92016e-06,540.8399999996291,2.278426e-05
540.8549999996291,1.630213e-05,540.8549999996291,0.0003615775,540.8549999996291,9.585059e-06,540.8549999996291,2.114567e-05
540.869999999629,1.584554e-05,540.869999999629,0.0003739242,540.869999999629,9.281926e-06,540.869999999629,1.936387e-05
540.884999999629,1.666871e-05,540.884999999629,0.0003726851,540.884999999629,8.803689e-06,540.884999999629,1.879762e-05
540.899999999629,1.717484e-05,540.899999999629,0.0003733296,540.899999999629,8.699061e-06,540.899999999629,1.580726e-05
540.914999999629,1.654145e-05,540.914999999629,0.0003674225,540.914999999629,9.119637e-06,540.914999999629,1.523642e-05
540.929999999629,1.694529e-05,540.929999999629,0.0003647039,540.929999999629,9.116548e-06,540.929999999629,1.428396e-05
540.944999999629,1.711157e-05,540.944999999629,0.0003812289,540.944999999629,8.640569e-06,540.944999999629,1.327602e-05
540.959999999629,1.630213e-05,540.959999999629,0.0003842582,540.959999999629,8.607901e-06,540.959999999629,1.383102e-05
540.974999999629,1.602059e-05,540.974999999629,0.0003899153,540.974999999629,8.638938e-06,540.974999999629,1.436656e-05
540.9899999996289,1.629262e-05,540.9899999996289,0.0003850098,540.9899999996289,8.472646e-06,540.9899999996289,1.492726e-05
541.0049999996289,1.637455e-05,541.0049999996289,0.0004267521,541.0049999996289,8.202317e-06,541.0049999996289,1.754326e-05
541.0199999996289,1.739164e-05,541.0199999996289,0.0004426235,541.0199999996289,7.952937e-06,541.0199999996289,1.81075e-05
541.0349999996289,1.833326e-05,541.0349999996289,0.0004375091,541.0349999996289,7.618211e-06,541.0349999996289,1.962186e-05
541.0499999996289,1.732429e-05,541.0499999996289,0.0004377969,541.0499999996289,8.341955e-06,541.0499999996289,1.972854e-05
541.0649999996289,1.93944e-05,541.0649999996289,0.0004299857,541.0649999996289,8.467658e-06,541.0649999996289,2.156389e-05
541.0799999996289,1.933329e-05,541.0799999996289,0.0004457112,541.0799999996289,8.520726e-06,541.0799999996289,2.177775e-05
541.0949999996288,1.906253e-05,541.0949999996288,0.0004366467,541.0949999996288,8.452672e-06,541.0949999996288,2.176287e-05
541.1099999996288,1.915615e-05,541.1099999996288,0.0004338783,541.1099999996288,9.506848e-06,541.1099999996288,2.211983e-05
541.1249999996288,1.943213e-05,541.1249999996288,0.0004126689,541.1249999996288,1.355844e-05,541.1249999996288,2.279168e-05
541.1399999996288,1.932673e-05,541.1399999996288,0.0004072711,541.1399999996288,1.394665e-05,541.1399999996288,2.464242e-05
541.1549999996288,1.975351e-05,541.1549999996288,0.000410641,541.1549999996288,1.410932e-05,541.1549999996288,2.706592e-05
541.1699999996288,1.947558e-05,541.1699999996288,0.0004105007,541.1699999996288,1.392238e-05,541.1699999996288,2.76177e-05
541.1849999996288,1.963406e-05,541.1849999996288,0.0003980277,541.1849999996288,1.391732e-05,541.1849999996288,2.776624e-05
541.1999999996287,1.948859e-05,541.1999999996287,0.0003924788,541.1999999996287,1.427508e-05,541.1999999996287,2.811112e-05
541.2149999996287,2.158479e-05,541.2149999996287,0.0003761343,541.2149999996287,1.702326e-05,541.2149999996287,2.817768e-05
541.2299999996287,2.234413e-05,541.2299999996287,0.0003707148,541.2299999996287,1.711322e-05,541.2299999996287,2.83009e-05
541.2449999996287,2.396779e-05,541.2449999996287,0.0003860823,541.2449999996287,1.73446e-05,541.2449999996287,2.754927e-05
541.2599999996287,2.456971e-05,541.2599999996287,0.0003542449,541.2599999996287,1.744179e-05,541.2599999996287,2.69987e-05
541.2749999996287,2.906556e-05,541.2749999996287,0.0003424892,541.2749999996287,1.729417e-05,541.2749999996287,2.655309e-05
541.2899999996287,2.935635e-05,541.2899999996287,0.0003303158,541.2899999996287,1.767525e-05,541.2899999996287,2.616941e-05
541.3049999996286,2.952239e-05,541.3049999996286,0.0003342217,541.3049999996286,1.888957e-05,541.3049999996286,2.520255e-05
541.3199999996286,2.822064e-05,541.3199999996286,0.000340809,541.3199999996286,1.914217e-05,541.3199999996286,2.450656e-05
541.3349999996286,2.857581e-05,541.3349999996286,0.0003334392,541.3349999996286,1.918775e-05,541.3349999996286,2.443345e-05
541.3499999996286,2.973017e-05,541.3499999996286,0.0003365424,541.3499999996286,1.948064e-05,541.3499999996286,2.430107e-05
541.3649999996286,3.019934e-05,541.3649999996286,0.0003337777,541.3649999996286,1.762737e-05,541.3649999996286,2.40634e-05
541.3799999996286,3.196504e-05,541.3799999996286,0.0003333999,541.3799999996286,1.606713e-05,541.3799999996286,2.204392e-05
541.3949999996286,3.171373e-05,541.3949999996286,0.0003337594,541.3949999996286,1.637369e-05,541.3949999996286,1.999591e-05
541.4099999996286,3.282129e-05,541.4099999996286,0.0003318607,541.4099999996286,1.680254e-05,541.4099999996286,1.854715e-05
541.4249999996285,3.299038e-05,541.4249999996285,0.0003211718,541.4249999996285,1.681511e-05,541.4249999996285,1.823541e-05
541.4399999996285,3.658998e-05,541.4399999996285,0.0003108493,541.4399999996285,1.703567e-05,541.4399999996285,1.823078e-05
541.4549999996285,3.908185e-05,541.4549999996285,0.0003081388,541.4549999996285,1.645008e-05,541.4549999996285,1.776667e-05
541.4699999996285,3.822764e-05,541.4699999996285,0.0003130604,541.4699999996285,1.398095e-05,541.4699999996285,1.670079e-05
541.4849999996285,3.827552e-05,541.4849999996285,0.0003033243,541.4849999996285,1.355844e-05,541.4849999996285,1.692533e-05
541.4999999996285,3.706961e-05,541.4999999996285,0.0002767103,541.4999999996285,1.341219e-05,541.4999999996285,1.671006e-05
541.5149999996285,3.701904e-05,541.5149999996285,0.0002584449,541.5149999996285,1.36413e-05,541.5149999996285,1.617286e-05
541.5299999996284,3.439804e-05,541.5299999996284,0.0002672682,541.5299999996284,1.360615e-05,541.5299999996284,1.505225e-05
541.5449999996284,3.440131e-05,541.5449999996284,0.0002650813,541.5449999996284,1.196566e-05,541.5449999996284,1.615456e-05
541.5599999996284,3.436772e-05,541.5599999996284,0.0002573953,541.5599999996284,1.37062e-05,541.5599999996284,1.651418e-05
541.5749999996284,3.666036e-05,541.5749999996284,0.0002530341,541.5749999996284,1.640549e-05,541.5749999996284,1.65193e-05
541.5899999996284,3.645305e-05,541.5899999996284,0.0002403589,541.5899999996284,1.642523e-05,541.5899999996284,1.691034e-05
541.6049999996284,3.826116e-05,541.6049999996284,0.0002346221,541.6049999996284,1.614846e-05,541.6049999996284,1.716089e-05
541.6199999996284,3.78633e-05,541.6199999996284,0.0002389999,541.6199999996284,1.616851e-05,541.6199999996284,1.661708e-05
541.6349999996283,3.771457e-05,541.6349999996283,0.0002364044,541.6349999996283,1.609428e-05,541.6349999996283,1.624153e-05
541.6499999996283,3.74789e-05,541.6499999996283,0.00023433,541.6499999996283,1.665687e-05,541.6499999996283,1.593242e-05
541.6649999996283,3.707835e-05,541.6649999996283,0.000230185,541.6649999996283,1.929901e-05,541.6649999996283,1.495178e-05
541.6799999996283,3.749994e-05,541.6799999996283,0.0002290469,541.6799999996283,1.978059e-05,541.6799999996283,1.510363e-05
541.6949999996283,3.450598e-05,541.6949999996283,0.0002514963,541.6949999996283,1.96527e-05,541.6949999996283,1.482499e-05
541.7099999996283,3.418072e-05,541.7099999996283,0.000266295,541.7099999996283,1.960462e-05,541.7099999996283,1.544213e-05
541.7249999996283,3.412957e-05,541.7249999996283,0.0002886622,541.7249999996283,1.964482e-05,541.7249999996283,1.650394e-05
541.7399999996283,3.370469e-05,541.7399999996283,0.0002721424,541.7399999996283,1.988004e-05,541.7399999996283,1.658993e-05
541.7549999996282,3.463312e-05,541.7549999996282,0.0002882292,541.7549999996282,2.090784e-05,541.7549999996282,1.747003e-05
541.7699999996282,3.42252e-05,541.7699999996282,0.0002874547,541.7699999996282,2.085523e-05,541.7699999996282,1.7466e-05
541.7849999996282,3.403824e-05,541.7849999996282,0.0002894712,541.7849999996282,2.091391e-05,541.7849999996282,1.724687e-05
541.7999999996282,3.423631e-05,541.7999999996282,0.0002993185,541.7999999996282,2.175251e-05,541.7999999996282,1.598715e-05
541.8149999996282,3.463922e-05,541.8149999996282,0.0003129922,541.8149999996282,1.831019e-05,541.8149999996282,1.564513e-05
541.8299999996282,3.285775e-05,541.8299999996282,0.0003122391,541.8299999996282,1.86728e-05,541.8299999996282,1.557022e-05
541.8449999996282,3.204734e-05,541.8449999996282,0.0003209328,541.8449999996282,1.865771e-05,541.8449999996282,1.503821e-05
541.8599999996281,3.025619e-05,541.8599999996281,0.0003206251,541.8599999996281,1.928222e-05,541.8599999996281,1.483734e-05
541.8749999996281,2.995439e-05,541.8749999996281,0.0003270775,541.8749999996281,1.953191e-05,541.8749999996281,1.520403e-05
541.8899999996281,2.982573e-05,541.8899999996281,0.0003466145,541.8899999996281,1.946689e-05,541.8899999996281,1.535247e-05
541.9049999996281,2.97548e-05,541.9049999996281,0.0003418503,541.9049999996281,1.75296e-05,541.9049999996281,1.492915e-05
541.9199999996281,2.936978e-05,541.9199999996281,0.0005969955,541.9199999996281,1.695443e-05,541.9199999996281,1.50082e-05
541.9349999996281,2.907476e-05,541.9349999996281,0.0008965955,541.9349999996281,1.668982e-05,541.9349999996281,1.525675e-05
541.9499999996281,2.646435e-05,541.9499999996281,0.0009516965,541.9499999996281,1.687365e-05,541.9499999996281,1.534329e-05
541.964999999628,2.730583e-05,541.964999999628,0.001019262,541.964999999628,1.692616e-05,541.964999999628,1.408034e-05
541.979999999628,2.716825e-05,541.979999999628,0.001051182,541.979999999628,1.713954e-05,541.979999999628,1.339538e-05
541.994999999628,2.64835e-05,541.994999999628,0.001077401,541.994999999628,1.679415e-05,541.994999999628,1.243671e-05
542.009999999628,2.627846e-05,542.009999999628,0.001074514,542.009999999628,1.626493e-05,542.009999999628,1.243218e-05
542.024999999628,2.701904e-05,542.024999999628,0.001087165,542.024999999628,1.686279e-05,542.024999999628,1.242084e-05
542.039999999628,2.660715e-05,542.039999999628,0.001102695,542.039999999628,1.748615e-05,542.039999999628,1.305237e-05
542.054999999628,2.669595e-05,542.054999999628,0.001112383,542.054999999628,1.661114e-05,542.054999999628,1.41691e-05
542.069999999628,2.66225e-05,542.069999999628,0.001109154,542.069999999628,1.649882e-05,542.069999999628,1.449541e-05
542.0849999996279,2.625003e-05,542.0849999996279,0.001115986,542.0849999996279,1.60794e-05,542.0849999996279,1.422566e-05
542.0999999996279,2.683751e-05,542.0999999996279,0.001117002,542.0999999996279,1.711815e-05,542.0999999996279,1.420385e-05
542.1149999996279,2.580406e-05,542.1149999996279,0.001118707,542.1149999996279,1.817738e-05,542.1149999996279,1.403926e-05
542.1299999996279,2.629293e-05,542.1299999996279,0.001133705,542.1299999996279,1.829711e-05,542.1299999996279,1.392542e-05
542.1449999996279,2.673918e-05,542.1449999996279,0.001129758,542.1449999996279,1.826397e-05,542.1449999996279,1.347715e-05
542.1599999996279,2.660344e-05,542.1599999996279,0.001132103,542.1599999996279,1.756332e-05,542.1599999996279,1.312341e-05
542.1749999996279,2.684801e-05,542.1749999996279,0.001007916,542.1749999996279,1.785525e-05,542.1749999996279,1.264341e-05
542.1899999996278,2.614087e-05,542.1899999996278,0.000735161,542.1899999996278,1.808726e-05,542.1899999996278,1.241063e-05
542.2049999996278,2.780629e-05,542.2049999996278,0.000714637,542.2049999996278,1.824236e-05,542.2049999996278,1.270786e-05
542.2199999996278,2.753904e-05,542.2199999996278,0.0006183329,542.2199999996278,1.824854e-05,542.2199999996278,1.273554e-05
542.2349999996278,2.830537e-05,542.2349999996278,0.0005799345,542.2349999996278,1.814869e-05,542.2349999996278,1.313843e-05
542.2499999996278,2.849782e-05,542.2499999996278,0.0005275647,542.2499999996278,1.808882e-05,542.2499999996278,1.306208e-05
542.2649999996278,2.891054e-05,542.2649999996278,0.0005258642,542.2649999996278,1.842294e-05,542.2649999996278,1.255732e-05
542.2799999996278,2.988141e-05,542.2799999996278,0.0004939612,542.2799999996278,1.824159e-05,542.2799999996278,1.272891e-05
542.2949999996277,2.972685e-05,542.2949999996277,0.0004930802,542.2949999996277,1.756172e-05,542.2949999996277,1.293638e-05
542.3099999996277,2.92477e-05,542.3099999996277,0.0004642054,542.3099999996277,1.815334e-05,542.3099999996277,1.18628e-05
542.3249999996277,2.811061e-05,542.3249999996277,0.0004625751,542.3249999996277,1.788363e-05,542.3249999996277,1.197155e-05
542.3399999996277,2.822913e-05,542.3399999996277,0.0004521759,542.3399999996277,1.775477e-05,542.3399999996277,1.268123e-05
542.3549999996277,2.835858e-05,542.3549999996277,0.0004468915,542.3549999996277,1.679835e-05,542.3549999996277,1.331839e-05
542.3699999996277,2.801323e-05,542.3699999996277,0.0004477881,542.3699999996277,1.621983e-05,542.3699999996277,1.33543e-05
542.3849999996277,2.801423e-05,542.3849999996277,0.0004160734,542.3849999996277,1.647661e-05,542.3849999996277,1.402219e-05
542.3999999996277,2.980399e-05,542.3999999996277,0.0004207495,542.3999999996277,1.682181e-05,542.3999999996277,1.415219e-05
542.4149999996276,2.928813e-05,542.4149999996276,0.0004095836,542.4149999996276,1.651589e-05,542.4149999996276,1.460192e-05
542.4299999996276,2.912124e-05,542.4299999996276,0.0003927251,542.4299999996276,1.648686e-05,542.4299999996276,1.480122e-05
542.4449999996276,2.954814e-05,542.4449999996276,0.0003694528,542.4449999996276,1.633493e-05,542.4449999996276,1.454392e-05
542.4599999996276,2.807451e-05,542.4599999996276,0.0003411903,542.4599999996276,1.623719e-05,542.4599999996276,1.404327e-05
542.4749999996276,2.625647e-05,542.4749999996276,0.0003355223,542.4749999996276,1.798417e-05,542.4749999996276,1.392946e-05
542.4899999996276,2.627578e-05,542.4899999996276,0.0003283637,542.4899999996276,1.842905e-05,542.4899999996276,1.353348e-05
542.5049999996276,2.745144e-05,542.5049999996276,0.000335545,542.5049999996276,1.831096e-05,542.5049999996276,1.352931e-05
542.5199999996275,2.528848e-05,542.5199999996275,0.0003384202,542.5199999996275,1.8377e-05,542.5199999996275,1.394362e-05
542.5349999996275,2.482297e-05,542.5349999996275,0.0003331434,542.5349999996275,1.882532e-05,542.5349999996275,1.38412e-05
542.5499999996275,2.489154e-05,542.5499999996275,0.0003158008,542.5499999996275,1.970996e-05,542.5499999996275,1.32367e-05
542.5649999996275,2.558972e-05,542.5649999996275,0.0003084666,542.5649999996275,1.958089e-05,542.5649999996275,1.328768e-05
542.5799999996275,2.517123e-05,542.5799999996275,0.0003191642,542.5799999996275,1.969852e-05,542.5799999996275,1.278853e-05
542.5949999996275,2.451978e-05,542.5949999996275,0.0003336627,542.5949999996275,1.948064e-05,542.5949999996275,1.262557e-05
542.6099999996275,2.689414e-05,542.6099999996275,0.0003492023,542.6099999996275,1.94857e-05,542.6099999996275,1.23845e-05
542.6249999996274,2.718173e-05,542.6249999996274,0.000344653,542.6249999996274,1.879162e-05,542.6249999996274,1.239814e-05
542.6399999996274,2.411836e-05,542.6399999996274,0.0005324651,542.6399999996274,2.076452e-05,542.6399999996274,1.178297e-05
542.6549999996274,2.387298e-05,542.6549999996274,0.0005367615,542.6549999996274,2.037831e-05,542.6549999996274,1.163862e-05
542.6699999996274,2.463613e-05,542.6699999996274,0.0005748302,542.6699999996274,2.033194e-05,542.6699999996274,1.180208e-05
542.6849999996274,2.459664e-05,542.6849999996274,0.0006349202,542.6849999996274,2.020127e-05,542.6849999996274,1.199741e-05
542.6999999996274,2.463155e-05,542.6999999996274,0.0009015331,542.6999999996274,2.026045e-05,542.6999999996274,1.221961e-05
542.7149999996274,2.732285e-05,542.7149999996274,0.0009538076,542.7149999996274,1.982825e-05,542.7149999996274,1.262891e-05
542.7299999996274,2.783667e-05,542.7299999996274,0.0009567693,542.7299999996274,1.848782e-05,542.7299999996274,1.267234e-05
542.7449999996273,2.794929e-05,542.7449999996273,0.0009836727,542.7449999996273,1.815179e-05,542.7449999996273,1.270897e-05
542.7599999996273,2.62205e-05,542.7599999996273,0.001349037,542.7599999996273,1.830557e-05,542.7599999996273,1.238791e-05
542.7749999996273,2.676761e-05,542.7749999996273,0.00162412,542.7749999996273,1.829172e-05,542.7749999996273,1.226678e-05
542.7899999996273,2.689205e-05,542.7899999996273,0.001775111,542.7899999996273,1.788756e-05,542.7899999996273,1.215604e-05
542.8049999996273,2.795988e-05,542.8049999996273,0.001859495,542.8049999996273,1.690534e-05,542.8049999996273,1.222076e-05
542.8199999996273,2.795685e-05,542.8199999996273,0.001867851,542.8199999996273,1.689618e-05,542.8199999996273,1.228973e-05
542.8349999996273,2.805293e-05,542.8349999996273,0.001884059,542.8349999996273,1.802172e-05,542.8349999996273,1.212355e-05
542.8499999996272,2.73213e-05,542.8499999996272,0.001889368,542.8499999996272,1.811994e-05,542.8499999996272,1.223919e-05
542.8649999996272,2.615434e-05,542.8649999996272,0.001888603,542.8649999996272,1.77063e-05,542.8649999996272,1.2465e-05
542.8799999996272,2.932946e-05,542.8799999996272,0.001876963,542.8799999996272,1.777063e-05,542.8799999996272,1.359372e-05
542.8949999996272,2.897187e-05,542.8949999996272,0.001841188,542.8949999996272,1.62233e-05,542.8949999996272,1.47067e-05
542.9099999996272,2.94732e-05,542.9099999996272,0.001840722,542.9099999996272,1.685527e-05,542.9099999996272,1.542388e-05
542.9249999996272,3.003986e-05,542.9249999996272,0.001829975,542.9249999996272,1.676981e-05,542.9249999996272,1.600476e-05
542.9399999996272,3.05158e-05,542.9399999996272,0.001743532,542.9399999996272,1.799748e-05,542.9399999996272,1.633062e-05
542.9549999996271,3.110876e-05,542.9549999996271,0.001677018,542.9549999996271,1.81215e-05,542.9549999996271,1.668982e-05
542.9699999996271,2.938417e-05,542.9699999996271,0.001671862,542.9699999996271,1.845884e-05,542.9699999996271,1.667884e-05
542.9849999996271,2.934051e-05,542.9849999996271,0.001672802,542.9849999996271,1.879537e-05,542.9849999996271,1.675468e-05
542.9999999996271,3.04363e-05,542.9999999996271,0.001619793,542.9999999996271,1.937623e-05,542.9999999996271,1.788756e-05
543.0149999996271,3.005298e-05,543.0149999996271,0.001145136,543.0149999996271,1.910313e-05,543.0149999996271,1.824777e-05
543.0299999996271,3.049872e-05,543.0299999996271,0.0009860728,543.0299999996271,1.876461e-05,543.0299999996271,1.836933e-05
543.0449999996271,3.162968e-05,543.0449999996271,0.0006734836,543.0449999996271,2.004095e-05,543.0449999996271,1.836857e-05
543.059999999627,3.222749e-05,543.059999999627,0.0005140518,543.059999999627,2.007466e-05,543.059999999627,1.87007e-05
543.074999999627,3.243271e-05,543.074999999627,0.0005129743,543.074999999627,2.0316e-05,543.074999999627,1.879762e-05
543.089999999627,3.39259e-05,543.089999999627,0.0004712568,543.089999999627,1.957154e-05,543.089999999627,1.853652e-05
543.104999999627,3.394209e-05,543.104999999627,0.0004567946,543.104999999627,1.947847e-05,543.104999999627,1.845426e-05
543.119999999627,3.088517e-05,543.119999999627,0.0004530797,543.119999999627,2.027922e-05,543.119999999627,1.766887e-05
543.134999999627,3.252813e-05,543.134999999627,0.0004578982,543.134999999627,2.084982e-05,543.134999999627,1.717156e-05
543.149999999627,3.373644e-05,543.149999999627,0.0004837129,543.149999999627,2.122878e-05,543.149999999627,1.752639e-05
543.164999999627,3.269227e-05,543.164999999627,0.0005246977,543.164999999627,2.119159e-05,543.164999999627,1.746439e-05
543.179999999627,3.249129e-05,543.179999999627,0.0005438144,543.179999999627,2.118694e-05,543.179999999627,1.616241e-05
543.1949999996269,3.220519e-05,543.1949999996269,0.0005271881,543.1949999996269,2.069929e-05,543.1949999996269,1.713131e-05
543.2099999996269,3.089201e-05,543.2099999996269,0.0005242675,543.2099999996269,2.103279e-05,543.2099999996269,1.742401e-05
543.2249999996269,3.061903e-05,543.2249999996269,0.0005173034,543.2249999996269,2.096369e-05,543.2249999996269,1.748454e-05
543.2399999996269,3.091936e-05,543.2399999996269,0.0005482952,543.2399999996269,2.051197e-05,543.2399999996269,1.760018e-05
543.2549999996269,2.994075e-05,543.2549999996269,0.000590788,543.2549999996269,2.041422e-05,543.2549999996269,1.677821e-05
543.2699999996269,2.887495e-05,543.2699999996269,0.0005719672,543.2699999996269,2.050923e-05,543.2699999996269,1.692283e-05
543.2849999996268,2.865408e-05,543.2849999996268,0.0006005548,543.2849999996268,2.08586e-05,543.2849999996268,1.798182e-05
543.2999999996268,2.784628e-05,543.2999999996268,0.0006028755,543.2999999996268,1.965485e-05,543.2999999996268,1.780864e-05
543.3149999996268,2.69198e-05,543.3149999996268,0.0005975564,543.3149999996268,1.954201e-05,543.3149999996268,1.748374e-05
543.3299999996268,2.872479e-05,543.3299999996268,0.0005807312,543.3299999996268,1.941255e-05,543.3299999996268,1.766329e-05
543.3449999996268,2.732388e-05,543.3449999996268,0.0005749746,543.3449999996268,1.951243e-05,543.3449999996268,1.775636e-05
543.3599999996268,2.756767e-05,543.3599999996268,0.0005687755,543.3599999996268,1.927856e-05,543.3599999996268,1.782919e-05
543.3749999996268,2.71724e-05,543.3749999996268,0.0005656397,543.3749999996268,1.82817e-05,543.3749999996268,1.752397e-05
543.3899999996268,2.599226e-05,543.3899999996268,0.0005233914,543.3899999996268,1.744744e-05,543.3899999996268,1.757374e-05
543.4049999996267,2.495145e-05,543.4049999996267,0.0005320823,543.4049999996267,1.710416e-05,543.4049999996267,1.808726e-05
543.4199999996267,2.511745e-05,543.4199999996267,0.0004913294,543.4199999996267,1.73072e-05,543.4199999996267,1.893426e-05
543.4349999996267,2.611014e-05,543.4349999996267,0.0004769695,543.4349999996267,1.670163e-05,543.4349999996267,1.856841e-05
543.4499999996267,2.580515e-05,543.4499999996267,0.0004713939,543.4499999996267,1.785446e-05,543.4499999996267,1.805687e-05
543.4649999996267,2.616403e-05,543.4649999996267,0.000466451,543.4649999996267,1.935441e-05,543.4649999996267,1.814403e-05
543.4799999996267,2.489267e-05,543.4799999996267,0.0004390136,543.4799999996267,1.924492e-05,543.4799999996267,1.825471e-05
543.4949999996267,2.530964e-05,543.4949999996267,0.0003854593,543.4949999996267,1.850838e-05,543.4949999996267,1.783788e-05
543.5099999996266,2.582152e-05,543.5099999996266,0.0003920171,543.5099999996266,1.837547e-05,543.5099999996266,1.902259e-05
543.5249999996266,2.610852e-05,543.5249999996266,0.0003884308,543.5249999996266,1.803266e-05,543.5249999996266,1.831711e-05
543.5399999996266,2.508546e-05,543.5399999996266,0.0003521756,543.5399999996266,1.831558e-05,543.5399999996266,1.816188e-05
543.5549999996266,2.449966e-05,543.5549999996266,0.0004158693,543.5549999996266,1.93944e-05,543.5549999996266,1.816265e-05
543.5699999996266,2.342625e-05,543.5699999996266,0.0004193122,543.5699999996266,1.908912e-05,543.5699999996266,1.809194e-05
543.5849999996266,2.183202e-05,543.5849999996266,0.0004133672,543.5849999996266,1.906327e-05,543.5849999996266,1.818436e-05
543.5999999996266,2.234098e-05,543.5999999996266,0.0004184583,543.5999999996266,1.891416e-05,543.5999999996266,1.85099e-05
543.6149999996265,2.210008e-05,543.6149999996265,0.000421318,543.6149999996265,1.89082e-05,543.6149999996265,1.839462e-05
543.6299999996265,2.198377e-05,543.6299999996265,0.0004194667,543.6299999996265,1.885e-05,543.6299999996265,1.866979e-05
543.6449999996265,2.067069e-05,543.6449999996265,0.0004233704,543.6449999996265,1.880361e-05,543.6449999996265,1.811917e-05
543.6599999996265,2.017336e-05,543.6599999996265,0.0004289361,543.6599999996265,1.867884e-05,543.6599999996265,1.762497e-05
543.6749999996265,1.900629e-05,543.6749999996265,0.0004300012,543.6749999996265,1.872629e-05,543.6749999996265,1.683771e-05
543.6899999996265,1.892831e-05,543.6899999996265,0.0004339711,543.6899999996265,1.888285e-05,543.6899999996265,1.74046e-05
543.7049999996265,1.892756e-05,543.7049999996265,0.0004384024,543.7049999996265,1.672607e-05,543.7049999996265,1.709263e-05
543.7199999996265,1.879986e-05,543.7199999996265,0.0004321394,543.7199999996265,1.645693e-05,543.7199999996265,1.675468e-05
543.7349999996264,1.80186e-05,543.7349999996264,0.0004280801,543.7349999996264,1.683771e-05,543.7349999996264,1.710087e-05
543.7499999996264,0.0001629762,543.7499999996264,0.0004291347,543.7499999996264,1.670754e-05,543.7499999996264,1.727135e-05
543.7649999996264,0.0001884416,543.7649999996264,0.0004161928,543.7649999996264,1.693116e-05,543.7649999996264,1.614322e-05
543.7799999996264,0.0002125026,543.7799999996264,0.0004172266,543.7799999996264,1.702739e-05,543.7799999996264,1.601795e-05
543.7949999996264,0.0002150906,543.7949999996264,0.0003722688,543.7949999996264,1.480027e-05,543.7949999996264,1.63582e-05
543.8099999996264,0.0002159396,543.8099999996264,0.0003369943,543.8099999996264,1.420187e-05,543.8099999996264,1.771028e-05
543.8249999996264,0.0002181071,543.8249999996264,0.0003351372,543.8249999996264,1.46318e-05,543.8249999996264,1.763056e-05
543.8399999996263,0.000219106,543.8399999996263,0.000338591,543.8399999996263,1.555393e-05,543.8399999996263,1.747648e-05
543.8549999996263,0.0002193433,543.8549999996263,0.0003397751,543.8549999996263,1.580192e-05,543.8549999996263,1.728929e-05
543.8699999996263,0.0002194331,543.8699999996263,0.0003359458,543.8699999996263,1.558469e-05,543.8699999996263,1.785603e-05
543.8849999996263,0.0002194891,543.8849999996263,0.000338181,543.8849999996263,1.486864e-05,543.8849999996263,1.733323e-05
543.8999999996263,0.0002195619,543.8999999996263,0.0003088297,543.8999999996263,1.467985e-05,543.8999999996263,1.666702e-05
543.9149999996263,0.0002195958,543.9149999996263,0.0002971844,543.9149999996263,1.596687e-05,543.9149999996263,1.634786e-05
543.9299999996263,0.0002195776,543.9299999996263,0.0002938087,543.9299999996263,1.577336e-05,543.9299999996263,1.60285e-05
543.9449999996262,0.0002196083,543.9449999996262,0.0005968718,543.9449999996262,1.55494e-05,543.9449999996262,1.536715e-05
543.9599999996262,0.0002196154,543.9599999996262,0.001208274,543.9599999996262,1.532492e-05,543.9599999996262,1.512041e-05
543.9749999996262,0.000219617,543.9749999996262,0.001411361,543.9749999996262,1.400913e-05,543.9749999996262,1.440964e-05
543.9899999996262,0.00019282,543.9899999996262,0.001634145,543.9899999996262,1.880586e-05,543.9899999996262,1.474783e-05
544.0049999996262,0.0001391048,544.0049999996262,0.001817964,544.0049999996262,2.013211e-05,544.0049999996262,1.568021e-05
544.0199999996262,9.129224e-05,544.0199999996262,0.001886689,544.0199999996262,2.006413e-05,544.0199999996262,1.528074e-05
544.0349999996262,4.650454e-05,544.0349999996262,0.00215882,544.0349999996262,2.026045e-05,544.0349999996262,1.529087e-05
544.0499999996262,4.039138e-05,544.0499999996262,0.00232755,544.0499999996262,2.024237e-05,544.0499999996262,1.572327e-05
544.0649999996261,3.627486e-05,544.0649999996261,0.002340989,544.0649999996261,2.038245e-05,544.0649999996261,1.501852e-05
544.0799999996261,2.802077e-05,544.0799999996261,0.002352392,544.0799999996261,2.017196e-05,544.0799999996261,1.552674e-05
544.0949999996261,2.353723e-05,544.0949999996261,0.00235827,544.0949999996261,2.006413e-05,544.0949999996261,1.588993e-05
544.1099999996261,2.220373e-05,544.1099999996261,0.002367129,544.1099999996261,2.101269e-05,544.1099999996261,1.53286e-05
544.1249999996261,2.241337e-05,544.1249999996261,0.0023732,544.1249999996261,2.106491e-05,544.1249999996261,1.531757e-05
544.1399999996261,2.245293e-05,544.1399999996261,0.00237493,544.1399999996261,2.097645e-05,544.1399999996261,1.54722e-05
544.154999999626,2.371728e-05,544.154999999626,0.002376721,544.154999999626,2.11763e-05,544.154999999626,1.565773e-05
544.169999999626,2.368162e-05,544.169999999626,0.002378579,544.169999999626,2.051884e-05,544.169999999626,1.570714e-05
544.184999999626,2.360297e-05,544.184999999626,0.002379272,544.184999999626,2.127187e-05,544.184999999626,1.547858e-05
544.199999999626,2.399481e-05,544.199999999626,0.002181068,544.199999999626,2.184879e-05,544.199999999626,1.595539e-05
544.214999999626,2.608261e-05,544.214999999626,0.002038232,544.214999999626,2.184621e-05,544.214999999626,1.641064e-05
544.229999999626,2.608315e-05,544.229999999626,0.001861699,544.229999999626,2.175381e-05,544.229999999626,1.641579e-05
544.244999999626,2.566667e-05,544.244999999626,0.001686222,544.244999999626,1.757134e-05,544.244999999626,1.542388e-05
544.259999999626,2.587547e-05,544.259999999626,0.001399653,544.259999999626,1.781892e-05,544.259999999626,1.505225e-05
544.274999999626,2.626881e-05,544.274999999626,0.001325481,544.274999999626,1.768083e-05,544.274999999626,1.541108e-05
544.2899999996259,2.567271e-05,544.2899999996259,0.0008829815,544.2899999996259,1.772698e-05,544.2899999996259,1.483259e-05
544.3049999996259,2.597653e-05,544.3049999996259,0.0005459744,544.3049999996259,1.791589e-05,544.3049999996259,1.437832e-05
544.3199999996259,2.612632e-05,544.3199999996259,0.0004898669,544.3199999996259,1.770312e-05,544.3199999996259,1.504382e-05
544.3349999996259,2.722212e-05,544.3349999996259,0.0004722678,544.3349999996259,1.749743e-05,544.3349999996259,1.542205e-05
544.3499999996259,2.674971e-05,544.3499999996259,0.0004346543,544.3499999996259,1.869919e-05,544.3499999996259,1.488947e-05
544.3649999996259,2.614033e-05,544.3649999996259,0.0004058331,544.3649999996259,1.780706e-05,544.3649999996259,1.660181e-05
544.3799999996259,2.641907e-05,544.3799999996259,0.0003729622,544.3799999996259,1.775636e-05,544.3799999996259,1.720598e-05
544.3949999996258,2.619847e-05,544.3949999996258,0.0003596632,544.3949999996258,1.762017e-05,544.3949999996258,1.726564e-05
544.4099999996258,2.488135e-05,544.4099999996258,0.0003544251,544.4099999996258,1.737787e-05,544.4099999996258,1.829942e-05
544.4249999996258,2.473941e-05,544.4249999996258,0.000343584,544.4249999996258,1.702491e-05,544.4249999996258,1.896251e-05
544.4399999996258,2.424303e-05,544.4399999996258,0.0003428873,544.4399999996258,1.579567e-05,544.4399999996258,1.924126e-05
544.4549999996258,2.514828e-05,544.4549999996258,0.0003697615,544.4549999996258,1.597128e-05,544.4549999996258,2.062771e-05
544.4699999996258,2.312546e-05,544.4699999996258,0.0003564519,544.4699999996258,1.696108e-05,544.4699999996258,2.147421e-05
544.4849999996258,2.338472e-05,544.4849999996258,0.0003635116,544.4849999996258,1.781734e-05,544.4849999996258,2.192281e-05
544.4999999996257,2.344308e-05,544.4999999996257,0.0003761142,544.4999999996257,1.716828e-05,544.4999999996257,2.241714e-05
544.5149999996257,2.28842e-05,544.5149999996257,0.0003813259,544.5149999996257,1.639948e-05,544.5149999996257,2.237311e-05
544.5299999996257,2.324091e-05,544.5299999996257,0.000392491,544.5299999996257,1.703484e-05,544.5299999996257,2.233846e-05
544.5449999996257,2.323363e-05,544.5449999996257,0.0004004178,544.5449999996257,1.734704e-05,544.5449999996257,2.213956e-05
544.5599999996257,2.345689e-05,544.5599999996257,0.0003967955,544.5599999996257,1.792297e-05,544.5599999996257,2.195812e-05
544.5749999996257,2.06475e-05,544.5749999996257,0.0003915189,544.5749999996257,1.782998e-05,544.5749999996257,2.077876e-05
544.5899999996257,2.060311e-05,544.5899999996257,0.0004211634,544.5899999996257,1.6258e-05,544.5899999996257,2.07896e-05
544.6049999996256,2.119956e-05,544.6049999996256,0.0004321718,544.6049999996256,1.620332e-05,544.6049999996256,2.032155e-05
544.6199999996256,2.103681e-05,544.6199999996256,0.0004417929,544.6199999996256,1.612576e-05,544.6199999996256,1.910239e-05
544.6349999996256,1.913261e-05,544.6349999996256,0.0004583589,544.6349999996256,1.617286e-05,544.6349999996256,1.871274e-05
544.6499999996256,1.981474e-05,544.6499999996256,0.0004779154,544.6499999996256,1.669573e-05,544.6499999996256,1.857447e-05
544.6649999996256,2.072649e-05,544.6649999996256,0.0005038275,544.6649999996256,1.661453e-05,544.6649999996256,1.778964e-05
544.6799999996256,2.074551e-05,544.6799999996256,0.0005224104,544.6799999996256,1.662301e-05,544.6799999996256,1.716582e-05
544.6949999996256,2.216945e-05,544.6949999996256,0.0005235563,544.6949999996256,1.616241e-05,544.6949999996256,1.785051e-05
544.7099999996256,2.050511e-05,544.7099999996256,0.0005077642,544.7099999996256,1.621028e-05,544.7099999996256,1.56163e-05
544.7249999996255,2.012792e-05,544.7249999996255,0.0005038314,544.7249999996255,1.551221e-05,544.7249999996255,1.408734e-05
544.7399999996255,2.089639e-05,544.7399999996255,0.0005055274,544.7399999996255,1.484778e-05,544.7399999996255,1.508217e-05
544.7549999996255,2.176222e-05,544.7549999996255,0.0005148499,544.7549999996255,1.453714e-05,544.7549999996255,1.39527e-05
544.7699999996255,2.14578e-05,544.7699999996255,0.0005169809,544.7699999996255,1.430662e-05,544.7699999996255,1.360304e-05
544.7849999996255,2.118561e-05,544.7849999996255,0.0005027538,544.7849999996255,1.410733e-05,544.7849999996255,1.404428e-05
544.7999999996255,2.096168e-05,544.7999999996255,0.0005047969,544.7999999996255,1.349804e-05,544.7999999996255,1.410333e-05
544.8149999996255,2.045696e-05,544.8149999996255,0.0005136802,544.8149999996255,1.401617e-05,544.8149999996255,1.451095e-05
544.8299999996254,2.040111e-05,544.8299999996254,0.0005113693,544.8299999996254,1.42583e-05,544.8299999996254,1.444381e-05
544.8449999996254,2.183911e-05,544.8449999996254,0.0005100263,544.8449999996254,1.624413e-05,544.8449999996254,1.432532e-05
544.8599999996254,2.130033e-05,544.8599999996254,0.0005263942,544.8599999996254,1.73381e-05,544.8599999996254,1.43381e-05
544.8749999996254,2.128511e-05,544.8749999996254,0.0005221012,544.8749999996254,1.743452e-05,544.8749999996254,1.434301e-05
544.8899999996254,2.195363e-05,544.8899999996254,0.0005397585,544.8899999996254,1.723298e-05,544.8899999996254,1.469712e-05
544.9049999996254,2.122281e-05,544.9049999996254,0.0005386783,544.9049999996254,1.671681e-05,544.9049999996254,1.50887e-05
544.9199999996254,2.197479e-05,544.9199999996254,0.0005190644,544.9199999996254,1.733404e-05,544.9199999996254,1.514741e-05
544.9349999996253,2.340278e-05,544.9349999996253,0.0005106875,544.9349999996253,1.733648e-05,544.9349999996253,1.548586e-05
544.9499999996253,2.257869e-05,544.9499999996253,0.0005103659,544.9499999996253,1.742563e-05,544.9499999996253,1.526506e-05
544.9649999996253,2.271553e-05,544.9649999996253,0.0005067347,544.9649999996253,1.736652e-05,544.9649999996253,1.506254e-05
544.9799999996253,2.241275e-05,544.9799999996253,0.0004910965,544.9799999996253,1.7165e-05,544.9799999996253,1.506441e-05
544.9949999996253,2.144796e-05,544.9949999996253,0.000511543,544.9949999996253,1.705798e-05,544.9949999996253,1.47201e-05
545.0099999996253,2.065296e-05,545.0099999996253,0.0005096437,545.0099999996253,1.772936e-05,545.0099999996253,1.507002e-05
545.0249999996253,2.072989e-05,545.0249999996253,0.0005059254,545.0249999996253,1.75553e-05,545.0249999996253,1.582686e-05
545.0399999996253,2.063658e-05,545.0399999996253,0.0004990915,545.0399999996253,1.759617e-05,545.0399999996253,1.53286e-05
545.0549999996252,2.088493e-05,545.0549999996252,0.0004942066,545.0549999996252,1.746116e-05,545.0549999996252,1.570983e-05
545.0699999996252,2.069589e-05,545.0699999996252,0.0005213098,545.0699999996252,1.63625e-05,545.0699999996252,1.554759e-05
545.0849999996252,2.099458e-05,545.0849999996252,0.000511925,545.0849999996252,1.602147e-05,545.0849999996252,1.59165e-05
545.0999999996252,1.945676e-05,545.0999999996252,0.000484998,545.0999999996252,1.385036e-05,545.0999999996252,1.631163e-05
545.1149999996252,1.909354e-05,545.1149999996252,0.0004676175,545.1149999996252,1.221154e-05,545.1149999996252,1.795595e-05
545.1299999996252,1.896845e-05,545.1299999996252,0.0004643158,545.1299999996252,1.219307e-05,545.1299999996252,1.858206e-05
545.1449999996252,1.863958e-05,545.1449999996252,0.0004478659,545.1449999996252,1.297877e-05,545.1449999996252,1.886718e-05
545.1599999996251,1.832864e-05,545.1599999996251,0.0004286144,545.1599999996251,1.39153e-05,545.1599999996251,1.88343e-05
545.1749999996251,1.480598e-05,545.1749999996251,0.0004191345,545.1749999996251,1.312663e-05,545.1749999996251,1.823619e-05
545.1899999996251,1.45352e-05,545.1899999996251,0.0004212554,545.1899999996251,1.304697e-05,545.1899999996251,1.840993e-05
545.2049999996251,1.476978e-05,545.2049999996251,0.0004156704,545.2049999996251,1.293311e-05,545.2049999996251,1.790881e-05
545.2199999996251,1.470574e-05,545.2199999996251,0.0004230406,545.2199999996251,1.273776e-05,545.2199999996251,1.92559e-05
545.2349999996251,1.514555e-05,545.2349999996251,0.0004170188,545.2349999996251,1.28993e-05,545.2349999996251,1.922442e-05
545.2499999996251,1.496967e-05,545.2499999996251,0.0003998125,545.2499999996251,1.328344e-05,545.2499999996251,1.894393e-05
545.264999999625,1.501946e-05,545.264999999625,0.0004055474,545.264999999625,1.229889e-05,545.264999999625,1.869015e-05
545.279999999625,1.603378e-05,545.279999999625,0.0004168341,545.279999999625,1.170861e-05,545.279999999625,1.842829e-05
545.294999999625,1.800843e-05,545.294999999625,0.0004136959,545.294999999625,1.148511e-05,545.294999999625,1.835169e-05
545.309999999625,2.062429e-05,545.309999999625,0.0003814304,545.309999999625,1.264897e-05,545.309999999625,1.878337e-05
545.324999999625,2.060243e-05,545.324999999625,0.0003654891,545.324999999625,1.357505e-05,545.324999999625,1.99656e-05
545.339999999625,2.072445e-05,545.339999999625,0.0003647811,545.339999999625,1.371956e-05,545.339999999625,1.983961e-05
545.354999999625,2.053119e-05,545.354999999625,0.0003735112,545.354999999625,1.383306e-05,545.354999999625,1.890075e-05
545.369999999625,2.103279e-05,545.369999999625,0.0003616679,545.369999999625,1.389402e-05,545.369999999625,1.831327e-05
545.3849999996249,2.265965e-05,545.3849999996249,0.0003647306,545.3849999996249,1.411731e-05,545.3849999996249,1.742401e-05
545.3999999996249,2.251809e-05,545.3999999996249,0.0003591521,545.3999999996249,1.288181e-05,545.3999999996249,1.710334e-05
545.4149999996249,2.251934e-05,545.4149999996249,0.0003616915,545.4149999996249,1.23845e-05,545.4149999996249,1.696191e-05
545.4299999996249,2.263539e-05,545.4299999996249,0.0003657815,545.4299999996249,1.249773e-05,545.4299999996249,1.675805e-05
545.4449999996249,2.316137e-05,545.4449999996249,0.0003701805,545.4449999996249,1.303509e-05,545.4449999996249,1.671933e-05
545.4599999996249,3.065444e-05,545.4599999996249,0.0003762399,545.4599999996249,1.386865e-05,545.4599999996249,1.652186e-05
545.4749999996249,3.094441e-05,545.4749999996249,0.0003669707,545.4749999996249,1.380452e-05,545.4749999996249,1.506535e-05
545.4899999996248,3.162567e-05,545.4899999996248,0.0003686625,545.4899999996248,1.603026e-05,545.4899999996248,1.544395e-05
545.5049999996248,3.168708e-05,545.5049999996248,0.0003847448,545.5049999996248,1.581884e-05,545.5049999996248,1.572148e-05
545.5199999996248,3.230913e-05,545.5199999996248,0.0003757652,545.5199999996248,1.584376e-05,545.5199999996248,1.673534e-05
545.5349999996248,3.216186e-05,545.5349999996248,0.0003949144,545.5349999996248,1.604958e-05,545.5349999996248,1.732998e-05
545.5499999996248,3.271123e-05,545.5499999996248,0.0003978861,545.5499999996248,1.633665e-05,545.5499999996248,1.702657e-05
545.5649999996248,3.532938e-05,545.5649999996248,0.0004249949,545.5649999996248,1.54476e-05,545.5649999996248,1.667462e-05
545.5799999996248,3.518194e-05,545.5799999996248,0.0004418594,545.5799999996248,1.987224e-05,545.5799999996248,1.517899e-05
545.5949999996247,3.564416e-05,545.5949999996247,0.0004481198,545.5949999996247,1.986657e-05,545.5949999996247,1.514555e-05
545.6099999996247,3.607783e-05,545.6099999996247,0.0004419788,545.6099999996247,1.998182e-05,545.6099999996247,1.514462e-05
545.6249999996247,3.661461e-05,545.6249999996247,0.0004402735,545.6249999996247,1.992604e-05,545.6249999996247,1.586952e-05
545.6399999996247,3.703083e-05,545.6399999996247,0.0004355463,545.6399999996247,1.994583e-05,545.6399999996247,1.574118e-05
545.6549999996247,3.731957e-05,545.6549999996247,0.0004318256,545.6549999996247,2.013561e-05,545.6549999996247,1.582864e-05
545.6699999996247,3.759149e-05,545.6699999996247,0.0004335769,545.6699999996247,2.090111e-05,545.6699999996247,1.607063e-05
545.6849999996247,3.789454e-05,545.6849999996247,0.0004207932,545.6849999996247,2.118361e-05,545.6849999996247,1.60829e-05
545.6999999996247,3.67946e-05,545.6999999996247,0.0004176775,545.6999999996247,2.06884e-05,545.6999999996247,1.590587e-05
545.7149999996246,3.307397e-05,545.7149999996246,0.0004215176,545.7149999996246,2.037969e-05,545.7149999996246,1.621723e-05
545.7299999996246,3.30305e-05,545.7299999996246,0.0004319476,545.7299999996246,2.034579e-05,545.7299999996246,1.626839e-05
545.7449999996246,3.254847e-05,545.7449999996246,0.0004272091,545.7449999996246,1.863656e-05,545.7449999996246,1.583576e-05
545.7599999996246,3.262326e-05,545.7599999996246,0.0003900771,545.7599999996246,1.881634e-05,545.7599999996246,1.538181e-05
545.7749999996246,3.299038e-05,545.7749999996246,0.0003853259,545.7749999996246,2.003954e-05,545.7749999996246,1.441453e-05
545.7899999996246,3.17204e-05,545.7899999996246,0.0003542272,545.7899999996246,1.988004e-05,545.7899999996246,1.451581e-05
545.8049999996246,2.894706e-05,545.8049999996246,0.000337863,545.8049999996246,1.9443e-05,545.8049999996246,1.430662e-05
545.8199999996245,2.697886e-05,545.8199999996245,0.0003241587,545.8199999996245,1.832711e-05,545.8199999996245,1.481073e-05
545.8349999996245,2.87395e-05,545.8349999996245,0.0003183535,545.8349999996245,1.470957e-05,545.8349999996245,1.472201e-05
545.8499999996245,2.828696e-05,545.8499999996245,0.0003025349,545.8499999996245,1.470861e-05,545.8499999996245,1.473062e-05
545.8649999996245,2.653876e-05,545.8649999996245,0.0002945832,545.8649999996245,1.500163e-05,545.8649999996245,1.453811e-05
545.8799999996245,2.697834e-05,545.8799999996245,0.0003089395,545.8799999996245,1.485537e-05,545.8799999996245,1.424545e-05
545.8949999996245,2.826503e-05,545.8949999996245,0.0003148135,545.8949999996245,1.492443e-05,545.8949999996245,1.523272e-05
545.9099999996245,2.820067e-05,545.9099999996245,0.0003082275,545.9099999996245,1.491216e-05,545.9099999996245,1.514089e-05
545.9249999996244,2.842357e-05,545.9249999996244,0.0003110836,545.9249999996244,1.467409e-05,545.9249999996244,1.658143e-05
545.9399999996244,2.712415e-05,545.9399999996244,0.0003110674,545.9399999996244,1.71346e-05,545.9399999996244,1.70009e-05
545.9549999996244,2.842655e-05,545.9549999996244,0.0003088514,545.9549999996244,1.727135e-05,545.9549999996244,1.709757e-05
545.9699999996244,2.809959e-05,545.9699999996244,0.0002922665,545.9699999996244,1.772539e-05,545.9699999996244,1.688116e-05
545.9849999996244,2.880852e-05,545.9849999996244,0.0002743426,545.9849999996244,1.752317e-05,545.9849999996244,1.649797e-05
545.9999999996244,2.899325e-05,545.9999999996244,0.0002638458,545.9999999996244,1.767525e-05,545.9999999996244,1.631422e-05
546.0149999996244,2.811763e-05,546.0149999996244,0.0002658078,546.0149999996244,1.73251e-05,546.0149999996244,1.595804e-05
546.0299999996244,2.786651e-05,546.0299999996244,0.000268138,546.0299999996244,1.658313e-05,546.0299999996244,1.585265e-05
546.0449999996243,2.845973e-05,546.0449999996243,0.0004526943,546.0449999996243,1.744098e-05,546.0449999996243,1.581439e-05
546.0599999996243,2.922457e-05,546.0599999996243,0.0004839469,546.0599999996243,1.757775e-05,546.0599999996243,1.58482e-05
546.0749999996243,2.841118e-05,546.0749999996243,0.0005742995,546.0749999996243,1.7373e-05,546.0749999996243,1.535889e-05
546.0899999996243,2.701904e-05,546.0899999996243,0.0005834388,546.0899999996243,1.736408e-05,546.0899999996243,1.528811e-05
546.1049999996243,2.703728e-05,546.1049999996243,0.0005898423,546.1049999996243,1.770471e-05,546.1049999996243,1.543027e-05
546.1199999996243,2.705811e-05,546.1199999996243,0.0005960107,546.1199999996243,1.77071e-05,546.1199999996243,1.545581e-05
546.1349999996243,2.454734e-05,546.1349999996243,0.0005951535,546.1349999996243,1.78363e-05,546.1349999996243,1.483544e-05
546.1499999996242,2.479458e-05,546.1499999996242,0.0005997669,546.1499999996242,1.773731e-05,546.1499999996242,1.668307e-05
546.1649999996242,2.437862e-05,546.1649999996242,0.0006048559,546.1649999996242,1.758015e-05,546.1649999996242,1.650053e-05
546.1799999996242,2.399246e-05,546.1799999996242,0.0006126539,546.1799999996242,1.422169e-05,546.1799999996242,1.632544e-05
546.1949999996242,2.383814e-05,546.1949999996242,0.000615197,546.1949999996242,1.41979e-05,546.1949999996242,1.659162e-05
546.2099999996242,2.304308e-05,546.2099999996242,0.0006186582,546.2099999996242,1.367225e-05,546.2099999996242,1.70431e-05
546.2249999996242,2.226392e-05,546.2249999996242,0.0006173452,546.2249999996242,1.400511e-05,546.2249999996242,1.73251e-05
546.2399999996242,2.217707e-05,546.2399999996242,0.0006290227,546.2399999996242,1.442332e-05,546.2399999996242,1.759457e-05
546.2549999996241,2.221769e-05,546.2549999996241,0.0006303496,546.2549999996241,1.402219e-05,546.2549999996241,1.759858e-05
546.2699999996241,2.219421e-05,546.2699999996241,0.0006372221,546.2699999996241,1.395876e-05,546.2699999996241,1.795124e-05
546.2849999996241,2.227594e-05,546.2849999996241,0.0006262446,546.2849999996241,1.348238e-05,546.2849999996241,1.788205e-05
546.2999999996241,1.986019e-05,546.2999999996241,0.0004989962,546.2999999996241,1.261217e-05,546.2999999996241,1.847867e-05
546.3149999996241,2.003602e-05,546.3149999996241,0.0004611165,546.3149999996241,1.257526e-05,546.3149999996241,1.846723e-05
546.3299999996241,2.017685e-05,546.3299999996241,0.0003680942,546.3299999996241,1.29527e-05,546.3299999996241,1.874433e-05
546.3449999996241,2.127253e-05,546.3449999996241,0.0003665329,546.3449999996241,1.258645e-05,546.3449999996241,1.876987e-05
546.359999999624,2.20241e-05,546.359999999624,0.0003655437,546.359999999624,1.152796e-05,546.359999999624,1.828555e-05
546.374999999624,2.167856e-05,546.374999999624,0.000379781,546.374999999624,1.151818e-05,546.374999999624,1.873456e-05
546.389999999624,2.117563e-05,546.389999999624,0.0005236877,546.389999999624,1.164104e-05,546.389999999624,1.994512e-05
546.404999999624,2.10348e-05,546.404999999624,0.0005285086,546.404999999624,1.237084e-05,546.404999999624,1.811528e-05
546.419999999624,2.212301e-05,546.419999999624,0.0005289924,546.419999999624,1.23275e-05,546.419999999624,1.702574e-05
546.434999999624,2.31638e-05,546.434999999624,0.0005440585,546.434999999624,1.263003e-05,546.434999999624,1.685444e-05
546.449999999624,2.361073e-05,546.449999999624,0.0005505019,546.449999999624,1.249434e-05,546.449999999624,1.573313e-05
546.464999999624,2.199209e-05,546.464999999624,0.0005444059,546.464999999624,1.248758e-05,546.464999999624,1.556117e-05
546.4799999996239,2.183525e-05,546.4799999996239,0.0005412483,546.4799999996239,1.268678e-05,546.4799999996239,1.567572e-05
546.4949999996239,2.044112e-05,546.4949999996239,0.0005290426,546.4949999996239,1.234234e-05,546.4949999996239,1.525028e-05
546.5099999996239,2.065842e-05,546.5099999996239,0.000526603,546.5099999996239,1.276096e-05,546.5099999996239,1.516785e-05
546.5249999996239,2.097243e-05,546.5249999996239,0.0005447257,546.5249999996239,1.265788e-05,546.5249999996239,1.448277e-05
546.5399999996239,2.11743e-05,546.5399999996239,0.0005523637,546.5399999996239,1.24129e-05,546.5399999996239,1.467121e-05
546.5549999996239,2.277808e-05,546.5549999996239,0.000587977,546.5549999996239,1.233435e-05,546.5549999996239,1.363407e-05
546.5699999996239,2.243034e-05,546.5699999996239,0.000592991,546.5699999996239,1.2284e-05,546.5699999996239,1.365781e-05
546.5849999996238,2.222656e-05,546.5849999996238,0.0005767929,546.5849999996238,1.301129e-05,546.5849999996238,1.29614e-05
546.5999999996238,2.079435e-05,546.5999999996238,0.0005680647,546.5999999996238,1.323351e-05,546.5999999996238,1.303077e-05
546.6149999996238,2.075638e-05,546.6149999996238,0.0005856077,546.6149999996238,1.372366e-05,546.6149999996238,1.388794e-05
