X[s],a: EMG RMS 1-1,X[s].1,a: EMG RMS 1-2,X[s].2,a: EMG RMS 1-3,X[s].3,a: EMG RMS 1-4
472.0049999996916,0.0001996368,472.0049999996916,0.00521563,472.0049999996916,0.0001086721,472.0049999996916,0.0002240651
472.0199999996916,0.0002033137,472.0199999996916,0.005144389,472.0199999996916,0.0001141476,472.0199999996916,0.0002225483
472.0349999996916,0.0001954113,472.0349999996916,0.005041793,472.0349999996916,0.0001184406,472.0349999996916,0.0002097009
472.0499999996916,0.0001879426,472.0499999996916,0.004871137,472.0499999996916,0.0001221006,472.0499999996916,0.0001910095
472.06499999969157,0.0001865213,472.06499999969157,0.004672037,472.06499999969157,0.0001235846,472.06499999969157,0.000186469
472.07999999969155,0.0001799264,472.07999999969155,0.004557099,472.07999999969155,0.0001224181,472.07999999969155,0.0001778344
472.09499999969154,0.0001678575,472.09499999969154,0.004492765,472.09499999969154,0.0001226621,472.09499999969154,0.0001527225
472.1099999996915,0.0001614051,472.1099999996915,0.004398742,472.1099999996915,0.0001220936,472.1099999996915,0.0001356249
472.1249999996915,0.0001581625,472.1249999996915,0.004327591,472.1249999996915,0.0001204635,472.1249999996915,0.0001334449
472.1399999996915,0.0001543899,472.1399999996915,0.004251745,472.1399999996915,0.0001203912,472.1399999996915,0.0001287781
472.1549999996915,0.0001435751,472.1549999996915,0.004258091,472.1549999996915,0.0001157809,472.1549999996915,0.0001142697
472.16999999969147,0.0001350589,472.16999999969147,0.004321611,472.16999999969147,0.0001077935,472.16999999969147,9.789425e-05
472.18499999969146,0.0001211072,472.18499999969146,0.004103457,472.18499999969146,9.725353e-05,472.18499999969146,5.621822e-05
472.19999999969144,0.0001208438,472.19999999969144,0.004003967,472.19999999969144,7.927461e-05,472.19999999969144,5.194819e-05
472.21499999969143,0.0001124368,472.21499999969143,0.004003967,472.21499999969143,7.131301e-05,472.21499999969143,5.145503e-05
472.2299999996914,7.463877e-05,472.2299999996914,0.004081074,472.2299999996914,6.917038e-05,472.2299999996914,4.119015e-05
472.2449999996914,7.093453e-05,472.2449999996914,0.004010097,472.2449999996914,6.889224e-05,472.2449999996914,3.063283e-05
472.2599999996914,5.307196e-05,472.2599999996914,0.003780211,472.2599999996914,6.58213e-05,472.2599999996914,3.059049e-05
472.2749999996914,3.611685e-05,472.2749999996914,0.003877943,472.2749999996914,4.471064e-05,472.2749999996914,2.763147e-05
472.28999999969136,3.616596e-05,472.28999999969136,0.003960053,472.28999999969136,4.191058e-05,472.28999999969136,2.777943e-05
472.30499999969135,4.683565e-05,472.30499999969135,0.004139881,472.30499999969135,3.181087e-05,472.30499999969135,4.659774e-05
472.31999999969133,4.53929e-05,472.31999999969133,0.004151445,472.31999999969133,2.66463e-05,472.31999999969133,4.784027e-05
472.3349999996913,0.0001538554,472.3349999996913,0.004200133,472.3349999996913,9.645988e-05,472.3349999996913,0.0001584352
472.3499999996913,0.0001946854,472.3499999996913,0.004343036,472.3499999996913,0.000112232,472.3499999996913,0.0002208739
472.3649999996913,0.0002303435,472.3649999996913,0.004414106,472.3649999996913,0.0001227797,472.3649999996913,0.0002575199
472.3799999996913,0.0002368461,472.3799999996913,0.004411345,472.3799999996913,0.0001231603,472.3799999996913,0.0002743737
472.39499999969127,0.0002381676,472.39499999969127,0.004500436,472.39499999969127,0.0001234647,472.39499999969127,0.0002776077
472.40999999969125,0.0002402075,472.40999999969125,0.004627933,472.40999999969125,0.0001251158,472.40999999969125,0.0002808402
472.42499999969124,0.0002492154,472.42499999969124,0.004817791,472.42499999969124,0.0001291799,472.42499999969124,0.0002900131
472.4399999996912,0.0002790484,472.4399999996912,0.005017076,472.4399999996912,0.0001299732,472.4399999996912,0.0003943908
472.4549999996912,0.0002930968,472.4549999996912,0.005064828,472.4549999996912,0.0001301673,472.4549999996912,0.0004657865
472.4699999996912,0.0002983121,472.4699999996912,0.004992645,472.4699999996912,0.0001306019,472.4699999996912,0.0004894419
472.4849999996912,0.000302865,472.4849999996912,0.004837707,472.4849999996912,0.0001307129,472.4849999996912,0.0005175286
472.49999999969117,0.0007767832,472.49999999969117,0.004768928,472.49999999969117,0.0001696252,472.49999999969117,0.0006863827
472.51499999969116,0.0008808601,472.51499999969116,0.004752781,472.51499999969116,0.000191149,472.51499999969116,0.0007087196
472.52999999969114,0.0009643076,472.52999999969114,0.0046564,472.52999999969114,0.0001953763,472.52999999969114,0.0007103048
472.54499999969113,0.0009707542,472.54499999969113,0.004745425,472.54499999969113,0.0001957745,472.54499999969113,0.000710114
472.5599999996911,0.0009732135,472.5599999996911,0.004829102,472.5599999996911,0.0001979866,472.5599999996911,0.0007093935
472.5749999996911,0.0009798524,472.5749999996911,0.004924871,472.5749999996911,0.0001989271,472.5749999996911,0.0007094965
472.5899999996911,0.0009649384,472.5899999996911,0.004931564,472.5899999996911,0.0001735031,472.5899999996911,0.0006778485
472.6049999996911,0.0009627175,472.6049999996911,0.004861067,472.6049999996911,0.0001626088,472.6049999996911,0.0006720836
472.61999999969106,0.0009568316,472.61999999969106,0.004766872,472.61999999969106,0.0001580513,472.61999999969106,0.0006599639
472.63499999969105,0.0009561977,472.63499999969105,0.004752955,472.63499999969105,0.0001580373,472.63499999969105,0.0006559587
472.64999999969103,0.0009552877,472.64999999969103,0.004700548,472.64999999969103,0.0001575656,472.64999999969103,0.0006528718
472.664999999691,0.0009548694,472.664999999691,0.00470506,472.664999999691,0.0001553637,472.664999999691,0.0006521222
472.679999999691,0.0009521687,472.679999999691,0.00470506,472.679999999691,0.0001527743,472.679999999691,0.0006470081
472.694999999691,0.0009410915,472.694999999691,0.0046473,472.694999999691,0.0001523335,472.694999999691,0.0005401336
472.709999999691,0.0009401685,472.709999999691,0.004683472,472.709999999691,0.0001521115,472.709999999691,0.0005251035
472.72499999969097,0.0009383961,472.72499999969097,0.00469074,472.72499999969097,0.0001517865,472.72499999969097,0.0005033929
472.73999999969095,0.0007360897,472.73999999969095,0.0046611,472.73999999969095,0.0001173698,472.73999999969095,0.0002386133
472.75499999969094,0.0005602944,472.75499999969094,0.004847298,472.75499999969094,9.516608e-05,472.75499999969094,0.0001339114
472.7699999996909,0.0003410944,472.7699999996909,0.00500437,472.7699999996909,4.504149e-05,472.7699999996909,4.793676e-05
472.7849999996909,0.0001596199,472.7849999996909,0.005118991,472.7849999996909,3.982451e-05,472.7849999996909,4.298448e-05
472.7999999996909,0.0001407301,472.7999999996909,0.005020701,472.7999999996909,3.39562e-05,472.7999999996909,4.098959e-05
472.8149999996909,0.0001238349,472.8149999996909,0.004807353,472.8149999996909,2.955386e-05,472.8149999996909,3.873428e-05
472.82999999969087,7.450616e-05,472.82999999969087,0.004570274,472.82999999969087,2.942058e-05,472.82999999969087,3.423672e-05
472.84499999969086,3.770075e-05,472.84499999969086,0.004300991,472.84499999969086,3.534572e-05,472.84499999969086,2.78387e-05
472.85999999969084,2.521764e-05,472.85999999969084,0.00415114,472.85999999969084,3.68581e-05,472.85999999969084,2.454562e-05
472.87499999969083,2.413238e-05,472.87499999969083,0.004229924,472.87499999969083,3.789417e-05,472.87499999969083,1.916277e-05
472.8899999996908,2.401711e-05,472.8899999996908,0.004301386,472.8899999996908,3.945064e-05,472.8899999996908,1.814558e-05
472.9049999996908,2.415922e-05,472.9049999996908,0.004145019,472.9049999996908,4.840901e-05,472.9049999996908,1.840687e-05
472.9199999996908,2.194785e-05,472.9199999996908,0.003979342,472.9199999996908,5.064181e-05,472.9199999996908,1.679499e-05
472.9349999996908,2.259864e-05,472.9349999996908,0.003837308,472.9349999996908,5.544058e-05,472.9349999996908,1.714611e-05
472.94999999969076,2.303146e-05,472.94999999969076,0.003750603,472.94999999969076,5.758232e-05,472.94999999969076,1.659672e-05
472.96499999969075,2.40634e-05,472.96499999969075,0.003523055,472.96499999969075,5.971117e-05,472.96499999969075,1.696025e-05
472.97999999969073,2.47377e-05,472.97999999969073,0.003222088,472.97999999969073,6.138236e-05,472.97999999969073,1.710416e-05
472.9949999996907,2.411895e-05,472.9949999996907,0.003170525,472.9949999996907,6.162491e-05,472.9949999996907,1.740865e-05
473.0099999996907,2.710077e-05,473.0099999996907,0.003210952,473.0099999996907,6.19632e-05,473.0099999996907,1.897662e-05
473.0249999996907,3.188649e-05,473.0249999996907,0.003120924,473.0249999996907,6.44469e-05,473.0249999996907,2.590105e-05
473.0399999996907,6.243202e-05,473.0399999996907,0.003156701,473.0399999996907,6.985998e-05,473.0399999996907,7.054662e-05
473.05499999969066,6.768342e-05,473.05499999969066,0.00335216,473.05499999969066,7.258214e-05,473.05499999969066,7.250971e-05
473.06999999969065,6.791447e-05,473.06999999969065,0.003636272,473.06999999969065,7.304084e-05,473.06999999969065,7.419734e-05
473.08499999969064,6.803322e-05,473.08499999969064,0.003737933,473.08499999969064,6.847364e-05,473.08499999969064,7.505733e-05
473.0999999996906,7.098813e-05,473.0999999996906,0.003938694,473.0999999996906,6.797024e-05,473.0999999996906,7.618636e-05
473.1149999996906,7.165885e-05,473.1149999996906,0.004021226,473.1149999996906,6.88718e-05,473.1149999996906,7.644331e-05
473.1299999996906,7.293528e-05,473.1299999996906,0.004051058,473.1299999996906,6.870223e-05,473.1299999996906,7.900798e-05
473.1449999996906,8.657979e-05,473.1449999996906,0.004179114,473.1449999996906,7.263219e-05,473.1449999996906,0.0001047701
473.15999999969057,0.0003749976,473.15999999969057,0.004321649,473.15999999969057,0.0001288889,473.15999999969057,0.0002574934
473.17499999969056,0.0009035828,473.17499999969056,0.004511728,473.17499999969056,0.0002100958,473.17499999969056,0.000738986
473.18999999969054,0.0009386918,473.18999999969054,0.004627454,473.18999999969054,0.000247399,473.18999999969054,0.000765254
473.20499999969053,0.000983029,473.20499999969053,0.00475609,473.20499999969053,0.0002494585,473.20499999969053,0.0008111236
473.2199999996905,0.0009887952,473.2199999996905,0.004898223,473.2199999996905,0.000252377,473.2199999996905,0.0008206381
473.2349999996905,0.0009890256,473.2349999996905,0.004987187,473.2349999996905,0.0002528105,473.2349999996905,0.0008212025
473.2499999996905,0.0009903637,473.2499999996905,0.00502089,473.2499999996905,0.0002530937,473.2499999996905,0.0008221754
473.2649999996905,0.0009914767,473.2649999996905,0.00502039,473.2649999996905,0.0002529882,473.2649999996905,0.0008230503
473.27999999969046,0.0009909521,473.27999999969046,0.004998684,473.27999999969046,0.0002516129,473.27999999969046,0.0008226485
473.29499999969045,0.000990108,473.29499999969045,0.004990962,473.29499999969045,0.0002505638,473.29499999969045,0.0008208979
473.30999999969043,0.0009900228,473.30999999969043,0.004954859,473.30999999969043,0.0002500962,473.30999999969043,0.0008208062
473.3249999996904,0.0009900372,473.3249999996904,0.004991884,473.3249999996904,0.0002499324,473.3249999996904,0.0008208586
473.3399999996904,0.0009901528,473.3399999996904,0.004977847,473.3399999996904,0.0002500534,473.3399999996904,0.0008209415
473.3549999996904,0.0009899269,473.3549999996904,0.004919797,473.3549999996904,0.0002498705,473.3549999996904,0.0008208261
473.3699999996904,0.000990029,473.3699999996904,0.00501848,473.3699999996904,0.0002496105,473.3699999996904,0.0008209561
473.38499999969036,0.0009894706,473.38499999969036,0.005040205,473.38499999969036,0.0002495634,473.38499999969036,0.0008199973
473.39999999969035,0.000929,473.39999999969035,0.004933679,473.39999999969035,0.0002237098,473.39999999969035,0.0007947977
473.41499999969034,0.0008732338,473.41499999969034,0.005031124,473.41499999969034,0.0001842037,473.41499999969034,0.0007254872
473.4299999996903,0.000376937,473.4299999996903,0.005042282,473.4299999996903,0.0001085634,473.4299999996903,0.0003223698
473.4449999996903,0.000247914,473.4449999996903,0.005047427,473.4449999996903,6.119734e-05,473.4449999996903,0.0002492405
473.4599999996903,0.0002262657,473.4599999996903,0.005047888,473.4599999996903,7.051167e-05,473.4599999996903,0.0003670863
473.4749999996903,0.000224066,473.4749999996903,0.004852411,473.4749999996903,6.599571e-05,473.4749999996903,0.0003728658
473.48999999969027,0.0007534606,473.48999999969027,0.004717307,473.48999999969027,8.761441e-05,473.48999999969027,0.0005811217
473.50499999969026,0.000797498,473.50499999969026,0.004652646,473.50499999969026,0.0001249129,473.50499999969026,0.0005809173
473.51999999969024,0.0008760902,473.51999999969024,0.004557537,473.51999999969024,0.0001300644,473.51999999969024,0.0005804938
473.5349999996902,0.0008891711,473.5349999996902,0.004446089,473.5349999996902,0.0001347451,473.5349999996902,0.0005806132
473.5499999996902,0.0008900621,473.5499999996902,0.00441569,473.5499999996902,0.0001397538,473.5499999996902,0.0005819347
473.5649999996902,0.0008921904,473.5649999996902,0.004569639,473.5649999996902,0.0001396787,473.5649999996902,0.0005822648
473.5799999996902,0.0008939106,473.5799999996902,0.004583259,473.5799999996902,0.0001395198,473.5799999996902,0.0005821281
473.5949999996902,0.0008942544,473.5949999996902,0.004659953,473.5949999996902,0.0001392845,473.5949999996902,0.0005822708
473.60999999969016,0.0008942666,473.60999999969016,0.004712144,473.60999999969016,0.0001391834,473.60999999969016,0.0005822502
473.62499999969015,0.0008941171,473.62499999969015,0.004639708,473.62499999969015,0.0001386257,473.62499999969015,0.0005819775
473.63999999969013,0.0008940418,473.63999999969013,0.004578243,473.63999999969013,0.0001379052,473.63999999969013,0.0005815687
473.6549999996901,0.0008940205,473.6549999996901,0.004525114,473.6549999996901,0.0001379324,473.6549999996901,0.0005815066
473.6699999996901,0.0008940094,473.6699999996901,0.004525114,473.6699999996901,0.0001377858,473.6699999996901,0.0005812476
473.6849999996901,0.0008938339,473.6849999996901,0.004522818,473.6849999996901,0.0001373921,473.6849999996901,0.0005805809
473.6999999996901,0.0008875318,473.6999999996901,0.004470938,473.6999999996901,0.0001330187,473.6999999996901,0.0005540218
473.71499999969006,0.0008683699,473.71499999969006,0.004387049,473.71499999969006,0.0001269454,473.71499999969006,0.0004525779
473.72999999969005,0.0008648994,473.72999999969005,0.004458653,473.72999999969005,0.0001253325,473.72999999969005,0.000439105
473.74499999969004,0.0004481061,473.74499999969004,0.004556175,473.74499999969004,0.0001012932,473.74499999969004,4.951097e-05
473.75999999969,0.0003281669,473.75999999969,0.004526629,473.75999999969,5.512896e-05,473.75999999969,4.821891e-05
473.77499999969,0.0001291327,473.77499999969,0.004483576,473.77499999969,5.141998e-05,473.77499999969,4.722026e-05
473.78999999969,8.520957e-05,473.78999999969,0.004464342,473.78999999969,2.885152e-05,473.78999999969,4.218229e-05
473.80499999969,7.682326e-05,473.80499999969,0.004367293,473.80499999969,1.801078e-05,473.80499999969,2.743809e-05
473.81999999968997,5.481505e-05,473.81999999968997,0.004221799,473.81999999968997,1.844051e-05,473.81999999968997,2.602421e-05
473.83499999968996,3.503951e-05,473.83499999968996,0.004021959,473.83499999968996,1.739731e-05,473.83499999968996,2.387357e-05
473.84999999968994,2.920143e-05,473.84999999968994,0.003814996,473.84999999968994,1.796301e-05,473.84999999968994,1.779994e-05
473.8649999996899,2.862408e-05,473.8649999996899,0.003539228,473.8649999996899,1.841529e-05,473.8649999996899,1.731127e-05
473.8799999996899,2.878113e-05,473.8799999996899,0.003380502,473.8799999996899,1.81005e-05,473.8799999996899,1.826937e-05
473.8949999996899,2.829492e-05,473.8949999996899,0.003179523,473.8949999996899,1.813471e-05,473.8949999996899,1.861841e-05
473.9099999996899,2.859848e-05,473.9099999996899,0.002956002,473.9099999996899,1.838926e-05,473.9099999996899,2.02535e-05
473.9249999996899,2.888422e-05,473.9249999996899,0.002669772,473.9249999996899,1.853803e-05,473.9249999996899,1.992463e-05
473.93999999968986,2.900054e-05,473.93999999968986,0.002375511,473.93999999968986,1.849162e-05,473.93999999968986,2.086535e-05
473.95499999968985,2.895339e-05,473.95499999968985,0.002198849,473.95499999968985,1.891342e-05,473.95499999968985,2.180361e-05
473.96999999968983,3.487994e-05,473.96999999968983,0.002263462,473.96999999968983,1.918701e-05,473.96999999968983,2.433351e-05
473.9849999996898,6.620392e-05,473.9849999996898,0.002392044,473.9849999996898,1.933256e-05,473.9849999996898,2.62248e-05
473.9999999996898,8.358589e-05,473.9999999996898,0.002651297,473.9999999996898,1.924419e-05,473.9999999996898,2.66389e-05
474.0149999996898,0.000125772,474.0149999996898,0.002842346,474.0149999996898,1.9176e-05,474.0149999996898,3.141203e-05
474.0299999996898,0.0001327998,474.0299999996898,0.002834843,474.0299999996898,2.054011e-05,474.0299999996898,3.344878e-05
474.04499999968976,0.0001345743,474.04499999968976,0.003052649,474.04499999968976,2.177258e-05,474.04499999968976,3.487227e-05
474.05999999968975,0.0001379953,474.05999999968975,0.00326069,474.05999999968975,2.179069e-05,474.05999999968975,4.907632e-05
474.07499999968974,0.0001385978,474.07499999968974,0.003299606,474.07499999968974,2.344067e-05,474.07499999968974,5.164795e-05
474.0899999996897,0.0001389169,474.0899999996897,0.003408581,474.0899999996897,2.544896e-05,474.0899999996897,5.624703e-05
474.1049999996897,0.000139534,474.1049999996897,0.003626091,474.1049999996897,2.562437e-05,474.1049999996897,5.679087e-05
474.1199999996897,0.0001396894,474.1199999996897,0.003757853,474.1199999996897,2.845577e-05,474.1199999996897,5.738554e-05
474.1349999996897,0.0001399621,474.1349999996897,0.003823299,474.1349999996897,2.949088e-05,474.1349999996897,5.822022e-05
474.14999999968967,0.000140013,474.14999999968967,0.004056164,474.14999999968967,3.029481e-05,474.14999999968967,5.86935e-05
474.16499999968966,0.0001401213,474.16499999968966,0.004265784,474.16499999968966,3.085916e-05,474.16499999968966,5.832272e-05
474.17999999968964,0.0001401023,474.17999999968964,0.004348598,474.17999999968964,3.096034e-05,474.17999999968964,5.982501e-05
474.1949999996896,0.0001409462,474.1949999996896,0.004436143,474.1949999996896,3.230433e-05,474.1949999996896,6.038025e-05
474.2099999996896,0.0001425657,474.2099999996896,0.004596693,474.2099999996896,3.468352e-05,474.2099999996896,6.021812e-05
474.2249999996896,0.0001371367,474.2249999996896,0.004609629,474.2249999996896,3.915999e-05,474.2249999996896,6.234509e-05
474.2399999996896,0.0001222165,474.2399999996896,0.004601853,474.2399999996896,4.008822e-05,474.2399999996896,6.15318e-05
474.2549999996896,0.0001032937,474.2549999996896,0.004601853,474.2549999996896,4.018684e-05,474.2549999996896,6.297255e-05
474.26999999968956,6.054031e-05,474.26999999968956,0.004666137,474.26999999968956,4.227036e-05,474.26999999968956,6.223519e-05
474.28499999968955,5.462171e-05,474.28499999968955,0.004791768,474.28499999968955,4.224469e-05,474.28499999968955,6.382841e-05
474.29999999968953,5.140409e-05,474.29999999968953,0.004841111,474.29999999968953,4.299726e-05,474.29999999968953,6.123324e-05
474.3149999996895,4.559077e-05,474.3149999996895,0.004848806,474.3149999996895,4.714144e-05,474.3149999996895,5.063458e-05
474.3299999996895,4.553481e-05,474.3299999996895,0.005069676,474.3299999996895,4.797523e-05,474.3299999996895,5.321112e-05
474.3449999996895,4.486413e-05,474.3449999996895,0.005086916,474.3449999996895,5.103417e-05,474.3449999996895,5.094549e-05
474.3599999996895,4.413669e-05,474.3599999996895,0.005092844,474.3599999996895,5.214414e-05,474.3599999996895,5.332536e-05
474.37499999968946,4.365823e-05,474.37499999968946,0.005142437,474.37499999968946,5.14928e-05,474.37499999968946,5.393344e-05
474.38999999968945,4.29799e-05,474.38999999968945,0.005177544,474.38999999968945,5.206872e-05,474.38999999968945,5.507604e-05
474.40499999968944,4.269347e-05,474.40499999968944,0.005036141,474.40499999968944,5.321774e-05,474.40499999968944,5.636412e-05
474.4199999996894,4.23619e-05,474.4199999996894,0.004965413,474.4199999996894,5.349706e-05,474.4199999996894,5.602244e-05
474.4349999996894,4.251161e-05,474.4349999996894,0.005009096,474.4349999996894,5.417502e-05,474.4349999996894,5.460753e-05
474.4499999996894,3.707949e-05,474.4499999996894,0.005081121,474.4499999996894,5.472477e-05,474.4499999996894,5.27645e-05
474.4649999996894,3.42359e-05,474.4649999996894,0.005081126,474.4649999996894,5.579946e-05,474.4649999996894,5.237838e-05
474.47999999968937,3.364404e-05,474.47999999968937,0.005050739,474.47999999968937,5.324288e-05,474.47999999968937,4.886374e-05
474.49499999968936,3.426592e-05,474.49499999968936,0.00492744,474.49499999968936,5.304647e-05,474.49499999968936,4.725783e-05
474.50999999968934,3.350811e-05,474.50999999968934,0.004765138,474.50999999968934,5.297366e-05,474.50999999968934,4.627832e-05
474.5249999996893,3.114406e-05,474.5249999996893,0.00475641,474.5249999996893,5.215144e-05,474.5249999996893,4.251757e-05
474.5399999996893,3.019374e-05,474.5399999996893,0.00476171,474.5399999996893,5.178306e-05,474.5399999996893,3.991072e-05
474.5549999996893,2.770479e-05,474.5549999996893,0.004658369,474.5549999996893,4.971909e-05,474.5549999996893,3.994882e-05
474.5699999996893,2.747811e-05,474.5699999996893,0.004586076,474.5699999996893,4.49413e-05,474.5699999996893,3.831598e-05
474.5849999996893,2.706852e-05,474.5849999996893,0.00457233,474.5849999996893,4.417529e-05,474.5849999996893,3.251946e-05
474.59999999968926,2.599822e-05,474.59999999968926,0.004477275,474.59999999968926,3.957222e-05,474.59999999968926,3.056331e-05
474.61499999968925,2.519417e-05,474.61499999968925,0.004350229,474.61499999968925,3.871609e-05,474.61499999968925,2.700704e-05
474.62999999968923,2.435318e-05,474.62999999968923,0.004227208,474.62999999968923,4.364564e-05,474.62999999968923,2.632291e-05
474.6449999996892,2.422501e-05,474.6449999996892,0.004321995,474.6449999996892,4.446263e-05,474.6449999996892,1.97934e-05
474.6599999996892,2.365841e-05,474.6599999996892,0.004499495,474.6599999996892,4.585265e-05,474.6599999996892,1.766648e-05
474.6749999996892,2.333889e-05,474.6749999996892,0.004526322,474.6749999996892,4.68564e-05,474.6749999996892,1.981403e-05
474.6899999996892,2.324152e-05,474.6899999996892,0.004488428,474.6899999996892,4.515519e-05,474.6899999996892,2.189516e-05
474.70499999968916,2.35755e-05,474.70499999968916,0.004345149,474.70499999968916,4.488139e-05,474.70499999968916,2.34803e-05
474.71999999968915,2.367745e-05,474.71999999968915,0.004143734,474.71999999968915,4.205955e-05,474.71999999968915,2.844884e-05
474.73499999968914,2.16532e-05,474.73499999968914,0.004289311,474.73499999968914,4.16371e-05,474.73499999968914,3.268797e-05
474.7499999996891,1.823696e-05,474.7499999996891,0.00448794,474.7499999996891,4.160867e-05,474.7499999996891,3.340326e-05
474.7649999996891,1.836166e-05,474.7649999996891,0.004711317,474.7649999996891,4.071927e-05,474.7649999996891,3.455983e-05
474.7799999996891,1.852967e-05,474.7799999996891,0.004597269,474.7799999996891,4.068916e-05,474.7799999996891,3.492958e-05
474.7949999996891,1.890447e-05,474.7949999996891,0.004546942,474.7949999996891,4.148288e-05,474.7949999996891,3.529746e-05
474.80999999968907,1.863731e-05,474.80999999968907,0.004501382,474.80999999968907,4.246984e-05,474.80999999968907,3.5673e-05
474.82499999968906,1.86237e-05,474.82499999968906,0.004347274,474.82499999968906,4.266277e-05,474.82499999968906,3.603915e-05
474.83999999968904,1.966703e-05,474.83999999968904,0.004256897,474.83999999968904,4.302477e-05,474.83999999968904,3.598243e-05
474.854999999689,2.005921e-05,474.854999999689,0.004215376,474.854999999689,4.404372e-05,474.854999999689,3.586086e-05
474.869999999689,2.226962e-05,474.869999999689,0.004201131,474.869999999689,4.436589e-05,474.869999999689,3.425359e-05
474.884999999689,2.400127e-05,474.884999999689,0.004156196,474.884999999689,3.748153e-05,474.884999999689,3.372684e-05
474.899999999689,2.530908e-05,474.899999999689,0.003915779,474.899999999689,4.531277e-05,474.899999999689,3.355936e-05
474.914999999689,2.549541e-05,474.914999999689,0.003668906,474.914999999689,5.054269e-05,474.914999999689,3.360508e-05
474.92999999968896,2.590485e-05,474.92999999968896,0.003554984,474.92999999968896,5.002048e-05,474.92999999968896,3.311653e-05
474.94499999968895,2.555391e-05,474.94499999968895,0.003353925,474.94499999968895,4.984755e-05,474.94499999968895,3.115627e-05
474.95999999968893,2.600851e-05,474.95999999968893,0.003143747,474.95999999968893,4.973438e-05,474.95999999968893,3.040296e-05
474.9749999996889,2.769156e-05,474.9749999996889,0.002974333,474.9749999996889,4.937022e-05,474.9749999996889,2.440403e-05
474.9899999996889,2.916281e-05,474.9899999996889,0.002812623,474.9899999996889,4.94435e-05,474.9899999996889,2.120355e-05
475.0049999996889,2.942537e-05,475.0049999996889,0.002655565,475.0049999996889,4.95687e-05,475.0049999996889,2.084171e-05
475.0199999996889,2.819318e-05,475.0199999996889,0.002563246,475.0199999996889,4.949219e-05,475.0199999996889,1.930558e-05
475.03499999968886,2.876399e-05,475.03499999968886,0.002685734,475.03499999968886,4.959853e-05,475.03499999968886,2.003884e-05
475.04999999968885,2.815568e-05,475.04999999968885,0.003020666,475.04999999968885,4.930541e-05,475.04999999968885,2.003954e-05
475.06499999968884,2.914107e-05,475.06499999968884,0.003233633,475.06499999968884,4.935681e-05,475.06499999968884,1.946255e-05
475.0799999996888,3.021613e-05,475.0799999996888,0.003368326,475.0799999996888,4.934083e-05,475.0799999996888,1.964697e-05
475.0949999996888,3.199983e-05,475.0949999996888,0.00347569,475.0949999996888,5.083144e-05,475.0949999996888,1.959959e-05
475.1099999996888,3.237359e-05,475.1099999996888,0.003719015,475.1099999996888,5.124902e-05,475.1099999996888,2.112101e-05
475.1249999996888,3.203151e-05,475.1249999996888,0.003961952,475.1249999996888,5.082646e-05,475.1249999996888,2.368281e-05
475.13999999968877,3.060707e-05,475.13999999968877,0.004163912,475.13999999968877,5.36514e-05,475.13999999968877,2.545006e-05
475.15499999968875,3.071733e-05,475.15499999968875,0.004359416,475.15499999968875,4.186215e-05,475.15499999968875,3.356607e-05
475.16999999968874,3.139678e-05,475.16999999968874,0.004548834,475.16999999968874,3.968135e-05,475.16999999968874,3.647044e-05
475.1849999996887,3.494732e-05,475.1849999996887,0.004661265,475.1849999996887,3.91945e-05,475.1849999996887,4.538546e-05
475.1999999996887,4.252321e-05,475.1999999996887,0.004686957,475.1999999996887,3.95505e-05,475.1999999996887,4.802865e-05
475.2149999996887,4.429948e-05,475.2149999996887,0.00486021,475.2149999996887,4.008295e-05,475.2149999996887,4.769518e-05
475.2299999996887,4.346809e-05,475.2299999996887,0.005017723,475.2299999996887,4.029186e-05,475.2299999996887,4.769991e-05
475.2449999996887,4.297203e-05,475.2449999996887,0.005036198,475.2449999996887,4.104386e-05,475.2449999996887,4.795174e-05
475.25999999968866,4.405843e-05,475.25999999968866,0.005080496,475.25999999968866,4.469488e-05,475.25999999968866,4.751349e-05
475.27499999968865,4.40274e-05,475.27499999968865,0.005118352,475.27499999968865,4.746188e-05,475.27499999968865,4.731622e-05
475.28999999968863,4.48569e-05,475.28999999968863,0.005154877,475.28999999968863,4.71268e-05,475.28999999968863,4.857431e-05
475.3049999996886,4.482737e-05,475.3049999996886,0.00510046,475.3049999996886,4.816717e-05,475.3049999996886,4.823323e-05
475.3199999996886,4.43265e-05,475.3199999996886,0.005174566,475.3199999996886,4.804067e-05,475.3199999996886,4.802278e-05
475.3349999996886,4.361368e-05,475.3349999996886,0.005116796,475.3349999996886,5.336154e-05,475.3349999996886,4.829189e-05
475.3499999996886,4.27795e-05,475.3499999996886,0.00506492,475.3499999996886,5.074463e-05,475.3499999996886,4.852556e-05
475.36499999968856,4.180524e-05,475.36499999968856,0.005031001,475.36499999968856,5.024051e-05,475.36499999968856,4.714323e-05
475.37999999968855,4.203912e-05,475.37999999968855,0.004956119,475.37999999968855,4.813412e-05,475.37999999968855,4.623538e-05
475.39499999968854,4.156023e-05,475.39499999968854,0.004889352,475.39499999968854,4.61799e-05,475.39499999968854,4.453417e-05
475.4099999996885,4.009314e-05,475.4099999996885,0.004710463,475.4099999996885,4.582807e-05,475.4099999996885,3.66765e-05
475.4249999996885,3.935483e-05,475.4249999996885,0.00453996,475.4249999996885,4.675769e-05,475.4249999996885,3.459975e-05
475.4399999996885,3.312121e-05,475.4399999996885,0.004558065,475.4399999996885,4.818238e-05,475.4399999996885,2.343166e-05
475.4549999996885,2.743039e-05,475.4549999996885,0.004711308,475.4549999996885,4.884298e-05,475.4549999996885,2.086198e-05
475.46999999968847,2.558862e-05,475.46999999968847,0.004649402,475.46999999968847,4.935367e-05,475.46999999968847,2.024515e-05
475.48499999968845,2.60399e-05,475.48499999968845,0.004500276,475.48499999968845,4.903066e-05,475.48499999968845,1.91304e-05
475.49999999968844,2.449449e-05,475.49999999968844,0.004417664,475.49999999968844,4.967657e-05,475.49999999968844,1.901073e-05
475.5149999996884,2.370124e-05,475.5149999996884,0.004382394,475.5149999996884,4.814407e-05,475.5149999996884,1.938495e-05
475.5299999996884,2.440461e-05,475.5299999996884,0.004362038,475.5299999996884,4.885855e-05,475.5299999996884,1.900851e-05
475.5449999996884,2.453184e-05,475.5449999996884,0.004436821,475.5449999996884,4.89369e-05,475.5449999996884,1.621983e-05
475.5599999996884,2.485869e-05,475.5599999996884,0.004516553,475.5599999996884,4.813558e-05,475.5599999996884,1.665602e-05
475.5749999996884,2.470009e-05,475.5749999996884,0.004516553,475.5749999996884,4.786647e-05,475.5749999996884,1.66611e-05
475.58999999968836,2.392544e-05,475.58999999968836,0.004496507,475.58999999968836,4.187292e-05,475.58999999968836,1.622938e-05
475.60499999968835,2.289958e-05,475.60499999968835,0.004324983,475.60499999968835,4.214654e-05,475.60499999968835,1.635217e-05
475.61999999968833,2.280404e-05,475.61999999968833,0.00430011,475.61999999968833,4.173645e-05,475.61999999968833,1.659502e-05
475.6349999996883,2.160044e-05,475.6349999996883,0.004268112,475.6349999996883,4.198714e-05,475.6349999996883,1.645008e-05
475.6499999996883,2.169739e-05,475.6499999996883,0.00426465,475.6499999996883,4.139994e-05,475.6499999996883,1.578229e-05
475.6649999996883,2.201002e-05,475.6649999996883,0.004258,475.6649999996883,4.075765e-05,475.6649999996883,1.569637e-05
475.6799999996883,2.294137e-05,475.6799999996883,0.00423109,475.6799999996883,3.834685e-05,475.6799999996883,1.580459e-05
475.69499999968826,2.316745e-05,475.69499999968826,0.004337052,475.69499999968826,3.592405e-05,475.69499999968826,1.580281e-05
475.70999999968825,2.362027e-05,475.70999999968825,0.00432043,475.70999999968825,3.462458e-05,475.70999999968825,1.604958e-05
475.72499999968824,2.444383e-05,475.72499999968824,0.0044798,475.72499999968824,3.417083e-05,475.72499999968824,2.034164e-05
475.7399999996882,2.41493e-05,475.7399999996882,0.00447362,475.7399999996882,3.405024e-05,475.7399999996882,2.136965e-05
475.7549999996882,2.313886e-05,475.7549999996882,0.00429064,475.7549999996882,2.78751e-05,475.7549999996882,2.3725e-05
475.7699999996882,2.274589e-05,475.7699999996882,0.004115535,475.7699999996882,2.537079e-05,475.7699999996882,2.489324e-05
475.7849999996882,2.2109e-05,475.7849999996882,0.004083608,475.7849999996882,2.151484e-05,475.7849999996882,2.494298e-05
475.79999999968817,2.306324e-05,475.79999999968817,0.003992407,475.79999999968817,2.05257e-05,475.79999999968817,2.531743e-05
475.81499999968815,2.277931e-05,475.81499999968815,0.003892403,475.81499999968815,2.09825e-05,475.81499999968815,2.518522e-05
475.82999999968814,2.256059e-05,475.82999999968814,0.003965879,475.82999999968814,2.015519e-05,475.82999999968814,2.488701e-05
475.8449999996881,2.21141e-05,475.8449999996881,0.004028411,475.8449999996881,2.035687e-05,475.8449999996881,2.443634e-05
475.8599999996881,2.288235e-05,475.8599999996881,0.004167177,475.8599999996881,2.186039e-05,475.8599999996881,2.428193e-05
475.8749999996881,2.266897e-05,475.8749999996881,0.004026507,475.8749999996881,2.375586e-05,475.8749999996881,2.508546e-05
475.8899999996881,2.405989e-05,475.8899999996881,0.004013596,475.8899999996881,2.263788e-05,475.8899999996881,2.521652e-05
475.9049999996881,2.363935e-05,475.9049999996881,0.004058953,475.9049999996881,2.226835e-05,475.9049999996881,2.50613e-05
475.91999999968806,2.28497e-05,475.91999999968806,0.004237009,475.91999999968806,2.190031e-05,475.91999999968806,2.508209e-05
475.93499999968805,2.187134e-05,475.93499999968805,0.004283299,475.93499999968805,2.300759e-05,475.93499999968805,2.510904e-05
475.94999999968803,2.20784e-05,475.94999999968803,0.004221511,475.94999999968803,2.441731e-05,475.94999999968803,2.487852e-05
475.964999999688,2.168246e-05,475.964999999688,0.004092851,475.964999999688,2.418078e-05,475.964999999688,2.429933e-05
475.979999999688,2.075366e-05,475.979999999688,0.004066309,475.979999999688,2.42622e-05,475.979999999688,1.989067e-05
475.994999999688,2.115699e-05,475.994999999688,0.004184286,475.994999999688,2.409616e-05,475.994999999688,1.875711e-05
476.009999999688,2.128577e-05,476.009999999688,0.004114946,476.009999999688,2.365245e-05,476.009999999688,1.634441e-05
476.02499999968796,2.136768e-05,476.02499999968796,0.003932118,476.02499999968796,2.39272e-05,476.02499999968796,1.52318e-05
476.03999999968795,1.829865e-05,476.03999999968795,0.003835044,476.03999999968795,2.57193e-05,476.03999999968795,1.499317e-05
476.05499999968794,1.853728e-05,476.05499999968794,0.003903695,476.05499999968794,2.507535e-05,476.05499999968794,1.831942e-05
476.0699999996879,1.878187e-05,476.0699999996879,0.003845233,476.0699999996879,2.580952e-05,476.0699999996879,2.037762e-05
476.0849999996879,1.90773e-05,476.0849999996879,0.003700971,476.0849999996879,2.607126e-05,476.0849999996879,2.239262e-05
476.0999999996879,1.81316e-05,476.0999999996879,0.003572208,476.0999999996879,2.555115e-05,476.0999999996879,2.231638e-05
476.1149999996879,1.904331e-05,476.1149999996879,0.00343676,476.1149999996879,2.328572e-05,476.1149999996879,2.166816e-05
476.12999999968787,1.927345e-05,476.12999999968787,0.003378064,476.12999999968787,2.314434e-05,476.12999999968787,2.240269e-05
476.14499999968785,1.793318e-05,476.14499999968785,0.003405292,476.14499999968785,2.298922e-05,476.14499999968785,2.227594e-05
476.15999999968784,1.803657e-05,476.15999999968784,0.003342885,476.15999999968784,2.328814e-05,476.15999999968784,2.244478e-05
476.1749999996878,1.849924e-05,476.1749999996878,0.003240084,476.1749999996878,2.315346e-05,476.1749999996878,2.225759e-05
476.1899999996878,1.895731e-05,476.1899999996878,0.003247634,476.1899999996878,2.146634e-05,476.1899999996878,2.288358e-05
476.2049999996878,1.908985e-05,476.2049999996878,0.003241082,476.2049999996878,2.180878e-05,476.2049999996878,2.374281e-05
476.2199999996878,1.962616e-05,476.2199999996878,0.00322125,476.2199999996878,2.242029e-05,476.2199999996878,2.411603e-05
476.2349999996878,1.916571e-05,476.2349999996878,0.003085106,476.2349999996878,2.252809e-05,476.2349999996878,2.41598e-05
476.24999999968776,1.948931e-05,476.24999999968776,0.003083892,476.24999999968776,2.298922e-05,476.24999999968776,2.406164e-05
476.26499999968775,1.97021e-05,476.26499999968775,0.003307446,476.26499999968775,2.261235e-05,476.26499999968775,2.452495e-05
476.27999999968773,2.407276e-05,476.27999999968773,0.003470431,476.27999999968773,2.054217e-05,476.27999999968773,2.440461e-05
476.2949999996877,2.966993e-05,476.2949999996877,0.003438364,476.2949999996877,2.001563e-05,476.2949999996877,2.472688e-05
476.3099999996877,3.159358e-05,476.3099999996877,0.003454595,476.3099999996877,1.885075e-05,476.3099999996877,2.687161e-05
476.3249999996877,3.27491e-05,476.3249999996877,0.003569778,476.3249999996877,2.038176e-05,476.3249999996877,2.459664e-05
476.3399999996877,3.289631e-05,476.3399999996877,0.003553991,476.3399999996877,1.979198e-05,476.3399999996877,2.626184e-05
476.35499999968766,3.583807e-05,476.35499999968766,0.003567141,476.35499999968766,1.977703e-05,476.35499999968766,2.738464e-05
476.36999999968765,3.629349e-05,476.36999999968765,0.00358084,476.36999999968765,2.196838e-05,476.36999999968765,2.744271e-05
476.38499999968764,3.622239e-05,476.38499999968764,0.003623874,476.38499999968764,2.559192e-05,476.38499999968764,2.737332e-05
476.3999999996876,3.598087e-05,476.3999999996876,0.003765768,476.3999999996876,2.662938e-05,476.3999999996876,2.729706e-05
476.4149999996876,3.628495e-05,476.4149999996876,0.00371055,476.4149999996876,2.703154e-05,476.4149999996876,2.789935e-05
476.4299999996876,3.659845e-05,476.4299999996876,0.003858052,476.4299999996876,2.758759e-05,476.4299999996876,2.806548e-05
476.4449999996876,3.630164e-05,476.4449999996876,0.003872268,476.4449999996876,2.776929e-05,476.4449999996876,2.769665e-05
476.45999999968757,3.663192e-05,476.45999999968757,0.003959239,476.45999999968757,2.864572e-05,476.45999999968757,2.772715e-05
476.47499999968755,3.62834e-05,476.47499999968755,0.004078443,476.47499999968755,2.932994e-05,476.47499999968755,2.768444e-05
476.48999999968754,3.569234e-05,476.48999999968754,0.004130175,476.48999999968754,3.108294e-05,476.48999999968754,2.799059e-05
476.5049999996875,3.561451e-05,476.5049999996875,0.004172904,476.5049999996875,3.128532e-05,476.5049999996875,2.806648e-05
476.5199999996875,3.555552e-05,476.5199999996875,0.004162153,476.5199999996875,3.208819e-05,476.5199999996875,2.85901e-05
476.5349999996875,3.182326e-05,476.5349999996875,0.00417611,476.5349999996875,3.230564e-05,476.5349999996875,2.944403e-05
476.5499999996875,2.735067e-05,476.5499999996875,0.004196907,476.5499999996875,3.529826e-05,476.5499999996875,2.678077e-05
476.5649999996875,2.518522e-05,476.5649999996875,0.004176546,476.5649999996875,3.509334e-05,476.5649999996875,2.503149e-05
476.57999999968746,2.546334e-05,476.57999999968746,0.004140907,476.57999999968746,3.58015e-05,476.57999999968746,2.471035e-05
476.59499999968745,2.635981e-05,476.59499999968745,0.004077092,476.59499999968745,3.682599e-05,476.59499999968745,2.261297e-05
476.60999999968743,4.775923e-05,476.60999999968743,0.004169779,476.60999999968743,3.770112e-05,476.60999999968743,2.16187e-05
476.6249999996874,5.626206e-05,476.6249999996874,0.004286405,476.6249999996874,3.833766e-05,476.6249999996874,2.131884e-05
476.6399999996874,7.061128e-05,476.6399999996874,0.004395684,476.6399999996874,3.804702e-05,476.6399999996874,2.110233e-05
476.6549999996874,7.480259e-05,476.6549999996874,0.004263899,476.6549999996874,3.790978e-05,476.6549999996874,2.166881e-05
476.6699999996874,7.507535e-05,476.6699999996874,0.004252441,476.6699999996874,3.812358e-05,476.6699999996874,2.066387e-05
476.68499999968736,7.532187e-05,476.68499999968736,0.004108207,476.68499999968736,3.805406e-05,476.68499999968736,2.056821e-05
476.69999999968735,7.638192e-05,476.69999999968735,0.004209858,476.69999999968735,3.709848e-05,476.69999999968735,2.03264e-05
476.71499999968734,7.639354e-05,476.71499999968734,0.004163564,476.71499999968734,3.652023e-05,476.71499999968734,1.975351e-05
476.7299999996873,7.634982e-05,476.7299999996873,0.004086054,476.7299999996873,3.616596e-05,476.7299999996873,1.959168e-05
476.7449999996873,7.642488e-05,476.7449999996873,0.0040769,476.7449999996873,3.492676e-05,476.7449999996873,1.904405e-05
476.7599999996873,7.653668e-05,476.7599999996873,0.003992882,476.7599999996873,3.628845e-05,476.7599999996873,1.88739e-05
476.7749999996873,7.640276e-05,476.7749999996873,0.003996445,476.7749999996873,3.586165e-05,476.7749999996873,1.795046e-05
476.78999999968727,7.615326e-05,476.78999999968727,0.003956976,476.78999999968727,3.508692e-05,476.78999999968727,1.60829e-05
476.80499999968725,7.61033e-05,476.80499999968725,0.004006339,476.80499999968725,3.216799e-05,476.80499999968725,1.563432e-05
476.81999999968724,7.639243e-05,476.81999999968724,0.00399861,476.81999999968724,3.224628e-05,476.81999999968724,1.55004e-05
476.8349999996872,7.619024e-05,476.8349999996872,0.003930217,476.8349999996872,3.017134e-05,476.8349999996872,1.425928e-05
476.8499999996872,7.410767e-05,476.8499999996872,0.00390358,476.8499999996872,2.912221e-05,476.8499999996872,1.413426e-05
476.8649999996872,6.021929e-05,476.8649999996872,0.003855531,476.8649999996872,2.834864e-05,476.8649999996872,1.397389e-05
476.8799999996872,5.007171e-05,476.8799999996872,0.003654334,476.8799999996872,2.314494e-05,476.8799999996872,1.433024e-05
476.8949999996872,3.295578e-05,476.8949999996872,0.003485975,476.8949999996872,2.208988e-05,476.8949999996872,1.329616e-05
476.90999999968716,2.627417e-05,476.90999999968716,0.003464885,476.90999999968716,2.042388e-05,476.90999999968716,1.387069e-05
476.92499999968715,2.572478e-05,476.92499999968715,0.003204657,476.92499999968715,1.98119e-05,476.92499999968715,2.097511e-05
476.93999999968713,2.496782e-05,476.93999999968713,0.003102811,476.93999999968713,1.884851e-05,476.93999999968713,2.469153e-05
476.9549999996871,2.272173e-05,476.9549999996871,0.002898044,476.9549999996871,1.880061e-05,476.9549999996871,3.067052e-05
476.9699999996871,2.301739e-05,476.9699999996871,0.002821949,476.9699999996871,1.857751e-05,476.9699999996871,3.10276e-05
476.9849999996871,2.275518e-05,476.9849999996871,0.002527663,476.9849999996871,1.882607e-05,476.9849999996871,3.108929e-05
476.9999999996871,2.338532e-05,476.9999999996871,0.002377211,476.9999999996871,1.947558e-05,476.9999999996871,3.133076e-05
477.01499999968706,6.66575e-05,477.01499999968706,0.002355527,477.01499999968706,1.799826e-05,477.01499999968706,3.309951e-05
477.02999999968705,7.243701e-05,477.02999999968705,0.002093963,477.02999999968705,1.820139e-05,477.02999999968705,3.364404e-05
477.04499999968704,8.914707e-05,477.04499999968704,0.002002332,477.04499999968704,1.84428e-05,477.04499999968704,3.362771e-05
477.059999999687,9.269641e-05,477.059999999687,0.002018093,477.059999999687,1.799513e-05,477.059999999687,3.357782e-05
477.074999999687,9.2647e-05,477.074999999687,0.002018557,477.074999999687,1.783314e-05,477.074999999687,3.38569e-05
477.089999999687,9.421427e-05,477.089999999687,0.002024067,477.089999999687,1.843211e-05,477.089999999687,3.39902e-05
477.104999999687,9.48118e-05,477.104999999687,0.00207022,477.104999999687,1.897736e-05,477.104999999687,3.411471e-05
477.11999999968697,9.510818e-05,477.11999999968697,0.001889427,477.11999999968697,1.901073e-05,477.11999999968697,3.411182e-05
477.13499999968695,9.508078e-05,477.13499999968695,0.001783948,477.13499999968695,1.912377e-05,477.13499999968695,3.407298e-05
477.14999999968694,9.497687e-05,477.14999999968694,0.001776628,477.14999999968694,2.014191e-05,477.14999999968694,3.367836e-05
477.1649999996869,9.497316e-05,477.1649999996869,0.001771545,477.1649999996869,2.061131e-05,477.1649999996869,3.348161e-05
477.1799999996869,9.480645e-05,477.1799999996869,0.001777269,477.1799999996869,2.125597e-05,477.1799999996869,2.884322e-05
477.1949999996869,9.514047e-05,477.1949999996869,0.001770345,477.1949999996869,2.126525e-05,477.1949999996869,2.420756e-05
477.2099999996869,9.543141e-05,477.2099999996869,0.00176113,477.2099999996869,2.133733e-05,477.2099999996869,2.054834e-05
477.2249999996869,9.531665e-05,477.2249999996869,0.001718462,477.2249999996869,2.136636e-05,477.2249999996869,2.080518e-05
477.23999999968686,9.581031e-05,477.23999999968686,0.001721666,477.23999999968686,1.982682e-05,477.23999999968686,2.065091e-05
477.25499999968685,9.366935e-05,477.25499999968685,0.001528802,477.25499999968685,0.000139828,477.25499999968685,1.964912e-05
477.26999999968683,6.964408e-05,477.26999999968683,0.001478171,477.26999999968683,0.0001563531,477.26999999968683,1.663402e-05
477.2849999996868,5.874052e-05,477.2849999996868,0.001490973,477.2849999996868,0.0002029752,477.2849999996868,1.701332e-05
477.2999999996868,3.62997e-05,477.2999999996868,0.001280246,477.2999999996868,0.000217099,477.2999999996868,1.729173e-05
477.3149999996868,3.162968e-05,477.3149999996868,0.001105381,477.3149999996868,0.0002177553,477.3149999996868,1.791039e-05
477.3299999996868,3.034035e-05,477.3299999996868,0.00108619,477.3299999996868,0.0002225397,477.3299999996868,1.793318e-05
477.34499999968676,2.688995e-05,477.34499999968676,0.001091499,477.34499999968676,0.000225341,477.34499999968676,1.926614e-05
477.35999999968675,2.524053e-05,477.35999999968675,0.001217397,477.35999999968675,0.0002261856,477.35999999968675,1.916056e-05
477.37499999968674,2.446111e-05,477.37499999968674,0.00145303,477.37499999968674,0.0002262555,477.37499999968674,1.914438e-05
477.3899999996867,2.61042e-05,477.3899999996867,0.001531053,477.3899999996867,0.000226442,477.3899999996867,1.928149e-05
477.4049999996867,2.643079e-05,477.4049999996867,0.001626372,477.4049999996867,0.0002264615,477.4049999996867,1.947775e-05
477.4199999996867,2.798254e-05,477.4199999996867,0.001686463,477.4199999996867,0.0002263581,477.4199999996867,1.924639e-05
477.4349999996867,2.951141e-05,477.4349999996867,0.001765741,477.4349999996867,0.0002265877,477.4349999996867,2.089571e-05
477.44999999968667,2.875028e-05,477.44999999968667,0.001823737,477.44999999968667,0.0002269328,477.44999999968667,2.091728e-05
477.46499999968665,3.009467e-05,477.46499999968665,0.001813733,477.46499999968665,0.0002282616,477.46499999968665,2.056342e-05
477.47999999968664,3.085825e-05,477.47999999968664,0.001959315,477.47999999968664,0.0002282893,477.47999999968664,2.127386e-05
477.4949999996866,3.13896e-05,477.4949999996866,0.001939122,477.4949999996866,0.0002278542,477.4949999996866,2.197095e-05
477.5099999996866,3.157619e-05,477.5099999996866,0.00191509,477.5099999996866,0.0001684446,477.5099999996866,2.69198e-05
477.5249999996866,3.175635e-05,477.5249999996866,0.002039072,477.5249999996866,0.000148585,477.5249999996866,2.760699e-05
477.5399999996866,3.325745e-05,477.5399999996866,0.002303116,477.5399999996866,8.93469e-05,477.5399999996866,2.743193e-05
477.5549999996866,3.413577e-05,477.5549999996866,0.002407096,477.5549999996866,6.656466e-05,477.5549999996866,2.888275e-05
477.56999999968656,3.474966e-05,477.56999999968656,0.002613191,477.56999999968656,6.479133e-05,477.56999999968656,2.859995e-05
477.58499999968654,4.55311e-05,477.58499999968654,0.002601557,477.58499999968654,5.44802e-05,477.58499999968654,2.852351e-05
477.59999999968653,5.155568e-05,477.59999999968653,0.002643926,477.59999999968653,4.920817e-05,477.59999999968653,2.811112e-05
477.6149999996865,5.196418e-05,477.6149999996865,0.002669401,477.6149999996865,5.303452e-05,477.6149999996865,2.808454e-05
477.6299999996865,5.43873e-05,477.6299999996865,0.002620498,477.6299999996865,5.35039e-05,477.6299999996865,2.800921e-05
477.6449999996865,5.449778e-05,477.6449999996865,0.002787429,477.6449999996865,5.29585e-05,477.6449999996865,2.838042e-05
477.6599999996865,5.396764e-05,477.6599999996865,0.00293105,477.6599999996865,5.406674e-05,477.6599999996865,2.868848e-05
477.67499999968646,5.506274e-05,477.67499999968646,0.002911306,477.67499999968646,5.41321e-05,477.67499999968646,2.860439e-05
477.68999999968645,5.473687e-05,477.68999999968645,0.002904239,477.68999999968645,5.373221e-05,477.68999999968645,2.678708e-05
477.70499999968644,5.528843e-05,477.70499999968644,0.003193546,477.70499999968644,5.192676e-05,477.70499999968644,2.6678e-05
477.7199999996864,5.603149e-05,477.7199999996864,0.003435509,477.7199999996864,4.757482e-05,477.7199999996864,2.711688e-05
477.7349999996864,5.57128e-05,477.7349999996864,0.003473942,477.7349999996864,4.741437e-05,477.7349999996864,2.57516e-05
477.7499999996864,5.599401e-05,477.7499999996864,0.003534125,477.7499999996864,4.744911e-05,477.7499999996864,2.644944e-05
477.7649999996864,5.607396e-05,477.7649999996864,0.00383076,477.7649999996864,4.804829e-05,477.7649999996864,2.143744e-05
477.77999999968637,5.508832e-05,477.77999999968637,0.003904705,477.77999999968637,4.575885e-05,477.77999999968637,2.160305e-05
477.79499999968635,5.451639e-05,477.79499999968635,0.003899726,477.79499999968635,4.704392e-05,477.79499999968635,2.115966e-05
477.80999999968634,5.399296e-05,477.80999999968634,0.003975684,477.80999999968634,4.801926e-05,477.80999999968634,1.95384e-05
477.8249999996863,5.307435e-05,477.8249999996863,0.0040275,477.8249999996863,4.510743e-05,477.8249999996863,2.117962e-05
477.8399999996863,4.242504e-05,477.8399999996863,0.004140045,477.8399999996863,4.559015e-05,477.8399999996863,2.158674e-05
477.8549999996863,3.959855e-05,477.8549999996863,0.004387851,477.8549999996863,3.953197e-05,477.8549999996863,2.174344e-05
477.8699999996863,4.003688e-05,477.8699999996863,0.004573599,477.8699999996863,3.713643e-05,477.8699999996863,2.242971e-05
477.8849999996863,3.763905e-05,477.8849999996863,0.00470923,477.8849999996863,3.625e-05,477.8849999996863,2.272297e-05
477.89999999968626,3.751571e-05,477.89999999968626,0.004524302,477.89999999968626,3.622628e-05,477.89999999968626,2.197095e-05
477.91499999968624,3.732636e-05,477.91499999968624,0.004438639,477.91499999968624,3.608564e-05,477.91499999968624,2.260176e-05
477.92999999968623,3.646966e-05,477.92999999968623,0.004413767,477.92999999968623,3.647469e-05,477.92999999968623,2.309071e-05
477.9449999996862,3.768879e-05,477.9449999996862,0.004331781,477.9449999996862,3.632763e-05,477.9449999996862,2.295672e-05
477.9599999996862,3.591934e-05,477.9599999996862,0.004201632,477.9599999996862,3.554919e-05,477.9599999996862,2.373984e-05
477.9749999996862,3.551826e-05,477.9749999996862,0.004050461,477.9749999996862,3.591111e-05,477.9749999996862,2.290573e-05
477.9899999996862,3.548295e-05,477.9899999996862,0.004084624,477.9899999996862,3.648897e-05,477.9899999996862,2.464585e-05
478.00499999968616,3.387188e-05,478.00499999968616,0.004095097,478.00499999968616,3.689936e-05,478.00499999968616,2.543068e-05
478.01999999968615,3.618232e-05,478.01999999968615,0.004041568,478.01999999968615,3.654684e-05,478.01999999968615,2.570012e-05
478.03499999968614,3.662923e-05,478.03499999968614,0.003848644,478.03499999968614,3.501337e-05,478.03499999968614,2.55787e-05
478.0499999996861,3.669685e-05,478.0499999996861,0.003650602,478.0499999996861,3.12664e-05,478.0499999996861,2.571109e-05
478.0649999996861,3.766711e-05,478.0649999996861,0.003394719,478.0649999996861,3.03422e-05,478.0649999996861,2.60961e-05
478.0799999996861,3.820958e-05,478.0799999996861,0.003360546,478.0799999996861,2.955624e-05,478.0799999996861,2.490908e-05
478.0949999996861,3.986305e-05,478.0949999996861,0.003211582,478.0949999996861,2.857877e-05,478.0949999996861,2.420116e-05
478.10999999968607,3.844224e-05,478.10999999968607,0.002919086,478.10999999968607,2.776117e-05,478.10999999968607,2.367626e-05
478.12499999968605,3.76016e-05,478.12499999968605,0.002919086,478.12499999968605,2.707997e-05,478.12499999968605,2.369411e-05
478.13999999968604,3.797141e-05,478.13999999968604,0.003012339,478.13999999968604,2.715062e-05,478.13999999968604,2.360774e-05
478.154999999686,3.801517e-05,478.154999999686,0.003291225,478.154999999686,2.605126e-05,478.154999999686,2.369292e-05
478.169999999686,3.742925e-05,478.169999999686,0.003380435,478.169999999686,2.441615e-05,478.169999999686,2.358327e-05
478.184999999686,3.677201e-05,478.184999999686,0.003401327,478.184999999686,2.409324e-05,478.184999999686,2.312241e-05
478.199999999686,3.578773e-05,478.199999999686,0.003533229,478.199999999686,2.334553e-05,478.199999999686,2.3684e-05
478.214999999686,3.50029e-05,478.214999999686,0.003581313,478.214999999686,2.304614e-05,478.214999999686,2.355518e-05
478.22999999968596,3.479179e-05,478.22999999968596,0.003586987,478.22999999968596,2.260425e-05,478.22999999968596,2.404114e-05
478.24499999968594,3.439886e-05,478.24499999968594,0.003620636,478.24499999968594,2.259927e-05,478.24499999968594,2.149388e-05
478.25999999968593,3.374396e-05,478.25999999968593,0.003570678,478.25999999968593,2.25974e-05,478.25999999968593,1.829942e-05
478.2749999996859,3.135323e-05,478.2749999996859,0.003747233,478.2749999996859,2.488984e-05,478.2749999996859,1.769118e-05
478.2899999996859,3.117119e-05,478.2899999996859,0.003919846,478.2899999996859,2.813065e-05,478.2899999996859,2.021312e-05
478.3049999996859,3.127091e-05,478.3049999996859,0.003975467,478.3049999996859,2.827849e-05,478.3049999996859,1.968708e-05
478.3199999996859,3.060247e-05,478.3199999996859,0.00402264,478.3199999996859,2.833969e-05,478.3199999996859,2.041422e-05
478.33499999968586,2.798707e-05,478.33499999968586,0.004076424,478.33499999968586,2.789481e-05,478.33499999968586,2.311693e-05
478.34999999968585,2.885982e-05,478.34999999968585,0.004200685,478.34999999968585,2.756921e-05,478.34999999968585,2.382927e-05
478.36499999968584,3.077414e-05,478.36499999968584,0.004159884,478.36499999968584,2.753904e-05,478.36499999968584,2.508546e-05
478.3799999996858,3.171685e-05,478.3799999996858,0.003971899,478.3799999996858,2.746426e-05,478.3799999996858,2.575871e-05
478.3949999996858,3.371807e-05,478.3949999996858,0.00376095,478.3949999996858,2.67734e-05,478.3949999996858,2.625325e-05
478.4099999996858,3.385898e-05,478.4099999996858,0.003509051,478.4099999996858,2.634859e-05,478.4099999996858,2.640253e-05
478.4249999996858,3.364948e-05,478.4249999996858,0.003490364,478.4249999996858,2.586458e-05,478.4249999996858,2.691299e-05
478.43999999968577,3.471396e-05,478.43999999968577,0.003463186,478.43999999968577,2.573354e-05,478.43999999968577,2.715218e-05
478.45499999968575,3.533695e-05,478.45499999968575,0.00334334,478.45499999968575,2.594506e-05,478.45499999968575,2.64164e-05
478.46999999968574,3.573928e-05,478.46999999968574,0.003248508,478.46999999968574,2.602042e-05,478.46999999968574,2.641693e-05
478.4849999996857,3.516752e-05,478.4849999996857,0.003121474,478.4849999996857,2.558146e-05,478.4849999996857,2.790844e-05
478.4999999996857,3.464369e-05,478.4999999996857,0.002867188,478.4999999996857,2.417379e-05,478.4999999996857,2.818118e-05
478.5149999996857,3.438002e-05,478.5149999996857,0.002752438,478.5149999996857,2.333889e-05,478.5149999996857,2.841515e-05
478.5299999996857,3.515189e-05,478.5299999996857,0.002415836,478.5299999996857,1.992534e-05,478.5299999996857,2.862654e-05
478.5449999996857,3.725988e-05,478.5449999996857,0.002060352,478.5449999996857,1.74539e-05,478.5449999996857,2.803384e-05
478.55999999968566,3.675247e-05,478.55999999968566,0.001983953,478.55999999968566,1.745632e-05,478.55999999968566,2.801474e-05
478.57499999968564,3.693217e-05,478.57499999968564,0.001755231,478.57499999968564,1.718714e-05,478.57499999968564,2.740161e-05
478.58999999968563,3.490296e-05,478.58999999968563,0.001575841,478.58999999968563,1.704228e-05,478.58999999968563,2.485926e-05
478.6049999996856,3.399268e-05,478.6049999996856,0.001444238,478.6049999996856,1.735191e-05,478.6049999996856,2.506243e-05
478.6199999996856,3.090979e-05,478.6199999996856,0.001519583,478.6199999996856,1.726891e-05,478.6199999996856,2.327301e-05
478.6349999996856,3.07517e-05,478.6349999996856,0.001516267,478.6349999996856,1.743775e-05,478.6349999996856,2.245042e-05
478.6499999996856,2.891298e-05,478.6499999996856,0.001533033,478.6499999996856,1.734704e-05,478.6499999996856,2.185266e-05
478.66499999968556,2.863884e-05,478.66499999968556,0.001575822,478.66499999968556,1.707118e-05,478.66499999968556,2.223353e-05
478.67999999968555,2.772207e-05,478.67999999968555,0.001575051,478.67999999968555,1.737787e-05,478.67999999968555,2.159979e-05
478.69499999968554,2.705759e-05,478.69499999968554,0.001562251,478.69499999968554,1.748051e-05,478.69499999968554,2.167011e-05
478.7099999996855,2.62291e-05,478.7099999996855,0.001549293,478.7099999996855,1.731371e-05,478.7099999996855,2.321483e-05
478.7249999996855,2.639186e-05,478.7249999996855,0.001510094,478.7249999996855,1.688367e-05,478.7249999996855,2.339797e-05
478.7399999996855,2.60637e-05,478.7399999996855,0.001472633,478.7399999996855,1.636336e-05,478.7399999996855,2.190159e-05
478.7549999996855,2.634912e-05,478.7549999996855,0.001495759,478.7549999996855,1.608903e-05,478.7549999996855,2.147421e-05
478.76999999968547,2.627203e-05,478.76999999968547,0.001458621,478.76999999968547,1.523827e-05,478.76999999968547,2.128908e-05
478.78499999968545,2.441384e-05,478.78499999968545,0.001509135,478.78499999968545,1.546219e-05,478.78499999968545,1.989845e-05
478.79999999968544,2.228732e-05,478.79999999968544,0.00143565,478.79999999968544,1.558379e-05,478.79999999968544,1.926614e-05
478.8149999996854,2.190867e-05,478.8149999996854,0.001406094,478.8149999996854,1.657464e-05,478.8149999996854,1.972925e-05
478.8299999996854,2.111834e-05,478.8299999996854,0.001441343,478.8299999996854,1.709427e-05,478.8299999996854,1.972496e-05
478.8449999996854,2.018522e-05,478.8449999996854,0.001470569,478.8449999996854,2.01538e-05,478.8449999996854,1.948136e-05
478.8599999996854,2.050304e-05,478.8599999996854,0.001609938,478.8599999996854,2.049823e-05,478.8599999996854,1.966632e-05
478.8749999996854,2.055382e-05,478.8749999996854,0.001593919,478.8749999996854,2.279971e-05,478.8749999996854,2.101738e-05
478.88999999968536,1.989704e-05,478.88999999968536,0.001605418,478.88999999968536,2.399716e-05,478.88999999968536,2.150698e-05
478.90499999968534,1.957873e-05,478.90499999968534,0.001638267,478.90499999968534,2.698669e-05,478.90499999968534,2.268388e-05
478.91999999968533,1.928368e-05,478.91999999968533,0.001795835,478.91999999968533,2.899957e-05,478.91999999968533,2.204967e-05
478.9349999996853,2.021033e-05,478.9349999996853,0.002072172,478.9349999996853,2.943972e-05,478.9349999996853,2.079299e-05
478.9499999996853,2.091997e-05,478.9499999996853,0.002185667,478.9499999996853,3.308632e-05,478.9499999996853,2.062088e-05
478.9649999996853,2.066523e-05,478.9649999996853,0.002276791,478.9649999996853,3.297543e-05,478.9649999996853,1.893426e-05
478.9799999996853,2.186297e-05,478.9799999996853,0.0027135,478.9799999996853,3.432917e-05,478.9799999996853,1.899368e-05
478.99499999968526,2.271987e-05,478.99499999968526,0.003012733,478.99499999968526,3.655262e-05,478.99499999968526,2.065364e-05
479.00999999968525,2.256496e-05,479.00999999968525,0.003052329,479.00999999968525,3.77269e-05,479.00999999968525,2.124404e-05
479.02499999968524,2.314068e-05,479.02499999968524,0.003248471,479.02499999968524,3.816162e-05,479.02499999968524,2.143284e-05
479.0399999996852,2.703936e-05,479.0399999996852,0.003427469,479.0399999996852,3.801072e-05,479.0399999996852,2.156912e-05
479.0549999996852,0.0001282819,479.0549999996852,0.00357881,479.0549999996852,3.76858e-05,479.0549999996852,2.202474e-05
479.0699999996852,0.0001706531,479.0699999996852,0.003836664,479.0699999996852,3.756525e-05,479.0699999996852,2.266835e-05
479.0849999996852,0.000213154,479.0849999996852,0.00407239,479.0849999996852,4.04729e-05,479.0849999996852,2.290942e-05
479.09999999968517,0.0002382275,479.09999999968517,0.004245562,479.09999999968517,4.063928e-05,479.09999999968517,2.28571e-05
479.11499999968515,0.0002398341,479.11499999968515,0.004272078,479.11499999968515,4.076906e-05,479.11499999968515,2.220437e-05
479.12999999968514,0.0002476246,479.12999999968514,0.004442417,479.12999999968514,4.049761e-05,479.12999999968514,2.159849e-05
479.1449999996851,0.0002523983,479.1449999996851,0.004603329,479.1449999996851,3.915639e-05,479.1449999996851,2.164409e-05
479.1599999996851,0.000252785,479.1599999996851,0.004713882,479.1599999996851,3.827552e-05,479.1599999996851,2.329419e-05
479.1749999996851,0.0002530359,479.1749999996851,0.004726776,479.1749999996851,3.813725e-05,479.1749999996851,2.37997e-05
479.1899999996851,0.000253289,479.1899999996851,0.004840754,479.1899999996851,3.694628e-05,479.1899999996851,3.279552e-05
479.20499999968507,0.0002533074,479.20499999968507,0.004869097,479.20499999968507,3.565602e-05,479.20499999968507,3.330486e-05
479.21999999968506,0.0002532816,479.21999999968506,0.004962585,479.21999999968506,3.599926e-05,479.21999999968506,3.370051e-05
479.23499999968504,0.0002531356,479.23499999968504,0.004890489,479.23499999968504,3.529427e-05,479.23499999968504,3.31824e-05
479.24999999968503,0.000253017,479.24999999968503,0.004920987,479.24999999968503,3.277275e-05,479.24999999968503,3.235923e-05
479.264999999685,0.0002531177,479.264999999685,0.005044497,479.264999999685,3.313269e-05,479.264999999685,3.230695e-05
479.279999999685,0.000252973,479.279999999685,0.005009743,479.279999999685,3.34079e-05,479.279999999685,3.233353e-05
479.294999999685,0.0002525797,479.294999999685,0.004842222,479.294999999685,3.519755e-05,479.294999999685,3.236314e-05
479.309999999685,0.000187649,479.309999999685,0.00485775,479.309999999685,3.692111e-05,479.309999999685,3.342055e-05
479.32499999968496,0.0001727571,479.32499999968496,0.004922169,479.32499999968496,3.663038e-05,479.32499999968496,3.318282e-05
479.33999999968495,0.0001138007,479.33999999968495,0.00497261,479.33999999968495,3.301429e-05,479.33999999968495,3.294252e-05
479.35499999968494,7.667367e-05,479.35499999968494,0.004991706,479.35499999968494,3.235705e-05,479.35499999968494,3.324983e-05
479.3699999996849,7.237962e-05,479.3699999996849,0.005058218,479.3699999996849,3.109925e-05,479.3699999996849,3.326465e-05
479.3849999996849,4.514115e-05,479.3849999996849,0.005012793,479.3849999996849,3.086373e-05,479.3849999996849,3.32528e-05
479.3999999996849,2.835758e-05,479.3999999996849,0.004927226,479.3999999996849,3.046776e-05,479.3999999996849,3.253462e-05
479.4149999996849,2.844537e-05,479.4149999996849,0.004852598,479.4149999996849,2.931986e-05,479.4149999996849,3.042705e-05
479.42999999968487,2.455767e-05,479.42999999968487,0.004814097,479.42999999968487,2.898985e-05,479.42999999968487,2.855411e-05
479.44499999968485,2.444095e-05,479.44499999968485,0.0048141,479.44499999968485,2.873312e-05,479.44499999968485,2.177193e-05
479.45999999968484,2.455136e-05,479.45999999968484,0.004915561,479.45999999968484,2.825706e-05,479.45999999968484,2.140983e-05
479.4749999996848,2.446687e-05,479.4749999996848,0.004869885,479.4749999996848,2.645903e-05,479.4749999996848,2.09778e-05
479.4899999996848,2.439306e-05,479.4899999996848,0.004764266,479.4899999996848,2.648297e-05,479.4899999996848,2.123608e-05
479.5049999996848,2.400362e-05,479.5049999996848,0.004677508,479.5049999996848,2.600526e-05,479.5049999996848,2.14624e-05
479.5199999996848,2.411486e-05,479.5199999996848,0.004647147,479.5199999996848,2.546334e-05,479.5199999996848,2.182427e-05
479.53499999968477,2.604261e-05,479.53499999968477,0.004665369,479.53499999968477,2.500109e-05,479.53499999968477,2.205861e-05
479.54999999968476,2.793568e-05,479.54999999968476,0.00465544,479.54999999968476,2.269567e-05,479.54999999968476,2.180813e-05
479.56499999968474,3.012882e-05,479.56499999968474,0.004614561,479.56499999968474,2.153317e-05,479.56499999968474,1.790881e-05
479.57999999968473,3.025526e-05,479.57999999968473,0.004634058,479.57999999968473,2.244101e-05,479.57999999968473,1.789229e-05
479.5949999996847,3.002954e-05,479.5949999996847,0.004634058,479.5949999996847,2.193822e-05,479.5949999996847,1.812772e-05
479.6099999996847,3.008905e-05,479.6099999996847,0.004584512,479.6099999996847,2.251559e-05,479.6099999996847,1.897662e-05
479.6249999996847,3.038859e-05,479.6249999996847,0.00448794,479.6249999996847,2.345389e-05,479.6249999996847,1.880286e-05
479.6399999996847,2.987528e-05,479.6399999996847,0.00453176,479.6399999996847,2.325727e-05,479.6399999996847,2.058396e-05
479.65499999968466,3.060569e-05,479.65499999968466,0.004554376,479.65499999968466,2.304186e-05,479.65499999968466,2.330869e-05
479.66999999968465,2.872136e-05,479.66999999968465,0.004514241,479.66999999968465,2.489493e-05,479.66999999968465,2.394721e-05
479.68499999968463,2.858961e-05,479.68499999968463,0.004424949,479.68499999968463,2.488758e-05,479.68499999968463,2.34971e-05
479.6999999996846,3.034545e-05,479.6999999996846,0.004388503,479.6999999996846,2.527622e-05,479.6999999996846,2.322636e-05
479.7149999996846,3.210136e-05,479.7149999996846,0.004291085,479.7149999996846,2.673338e-05,479.7149999996846,2.29469e-05
479.7299999996846,3.253376e-05,479.7299999996846,0.004220737,479.7299999996846,2.707216e-05,479.7299999996846,2.482127e-05
479.7449999996846,3.296732e-05,479.7449999996846,0.004176938,479.7449999996846,2.733831e-05,479.7449999996846,2.490172e-05
479.75999999968457,3.307524e-05,479.75999999968457,0.004134038,479.75999999968457,2.728983e-05,479.75999999968457,2.441154e-05
479.77499999968455,3.249086e-05,479.77499999968455,0.00405141,479.77499999968455,2.740007e-05,479.77499999968455,2.432598e-05
479.78999999968454,3.14564e-05,479.78999999968454,0.003895814,479.78999999968454,2.675761e-05,479.78999999968454,2.479855e-05
479.8049999996845,2.970125e-05,479.8049999996845,0.003955835,479.8049999996845,2.814967e-05,479.8049999996845,2.706332e-05
479.8199999996845,2.807953e-05,479.8199999996845,0.004109986,479.8199999996845,2.833224e-05,479.8199999996845,2.833074e-05
479.8349999996845,2.795333e-05,479.8349999996845,0.004120133,479.8349999996845,2.742063e-05,479.8349999996845,3.029807e-05
479.8499999996845,2.988895e-05,479.8499999996845,0.003916907,479.8499999996845,2.727847e-05,479.8499999996845,3.082948e-05
479.86499999968447,3.079199e-05,479.86499999968447,0.003893618,479.86499999968447,2.60664e-05,479.86499999968447,3.066455e-05
479.87999999968446,3.070494e-05,479.87999999968446,0.003953782,479.87999999968446,2.557265e-05,479.87999999968446,3.027481e-05
479.89499999968444,3.263362e-05,479.89499999968444,0.004008437,479.89499999968444,2.580024e-05,479.89499999968444,2.949136e-05
479.90999999968443,3.183521e-05,479.90999999968443,0.004201781,479.90999999968443,2.602421e-05,479.90999999968443,2.750475e-05
479.9249999996844,3.196504e-05,479.9249999996844,0.004332581,479.9249999996844,2.467041e-05,479.9249999996844,2.740521e-05
479.9399999996844,3.205964e-05,479.9399999996844,0.004397596,479.9399999996844,2.466927e-05,479.9399999996844,2.693915e-05
479.9549999996844,2.946794e-05,479.9549999996844,0.004470561,479.9549999996844,2.528904e-05,479.9549999996844,2.720194e-05
479.9699999996844,2.886909e-05,479.9699999996844,0.004614593,479.9699999996844,2.391071e-05,479.9699999996844,2.785134e-05
479.98499999968436,2.849337e-05,479.98499999968436,0.004588302,479.98499999968436,2.276323e-05,479.98499999968436,2.646754e-05
479.99999999968435,3.059464e-05,479.99999999968435,0.004692851,479.99999999968435,2.318872e-05,479.99999999968435,3.005158e-05
480.01499999968433,3.075537e-05,480.01499999968433,0.004784863,480.01499999968433,2.345749e-05,480.01499999968433,3.050934e-05
480.0299999996843,3.335304e-05,480.0299999996843,0.004745272,480.0299999996843,2.308217e-05,480.0299999996843,3.054948e-05
480.0449999996843,3.343193e-05,480.0449999996843,0.004723659,480.0449999996843,2.417554e-05,480.0449999996843,2.878945e-05
480.0599999996843,3.326931e-05,480.0599999996843,0.004596221,480.0599999996843,2.498925e-05,480.0599999996843,2.7633e-05
480.0749999996843,3.403575e-05,480.0749999996843,0.00437034,480.0749999996843,2.497121e-05,480.0749999996843,2.742268e-05
480.08999999968427,3.310249e-05,480.08999999968427,0.004114349,480.08999999968427,2.612038e-05,480.08999999968427,2.597057e-05
480.10499999968425,3.203723e-05,480.10499999968425,0.004035081,480.10499999968425,3.171551e-05,480.10499999968425,2.45238e-05
480.11999999968424,3.13411e-05,480.11999999968424,0.004008401,480.11999999968424,3.397486e-05,480.11999999968424,2.490795e-05
480.1349999996842,3.101534e-05,480.1349999996842,0.003866842,480.1349999996842,3.48092e-05,480.1349999996842,2.671335e-05
480.1499999996842,3.123575e-05,480.1499999996842,0.003731431,480.1499999996842,3.698477e-05,480.1499999996842,2.816568e-05
480.1649999996842,3.232438e-05,480.1649999996842,0.00357982,480.1649999996842,3.747213e-05,480.1649999996842,3.110107e-05
480.1799999996842,3.252553e-05,480.1799999996842,0.003450297,480.1799999996842,3.804258e-05,480.1799999996842,3.317051e-05
480.19499999968417,3.233005e-05,480.19499999968417,0.003464644,480.19499999968417,3.937845e-05,480.19499999968417,3.334333e-05
480.20999999968416,3.175102e-05,480.20999999968416,0.003207603,480.20999999968416,4.105793e-05,480.20999999968416,3.254025e-05
480.22499999968414,3.224672e-05,480.22499999968414,0.00285541,480.22499999968414,4.367339e-05,480.22499999968414,3.26129e-05
480.23999999968413,3.817528e-05,480.23999999968413,0.002816761,480.23999999968413,4.452626e-05,480.23999999968413,3.148102e-05
480.2549999996841,3.753035e-05,480.2549999996841,0.00283039,480.2549999996841,4.621405e-05,480.2549999996841,2.933571e-05
480.2699999996841,4.127487e-05,480.2699999996841,0.002846064,480.2699999996841,4.835894e-05,480.2699999996841,2.929775e-05
480.2849999996841,4.005693e-05,480.2849999996841,0.003022997,480.2849999996841,4.97794e-05,480.2849999996841,2.932082e-05
480.2999999996841,4.072619e-05,480.2999999996841,0.003253379,480.2999999996841,5.132153e-05,480.2999999996841,2.93088e-05
480.31499999968406,4.065938e-05,480.31499999968406,0.003468558,480.31499999968406,5.521475e-05,480.31499999968406,3.089429e-05
480.32999999968405,4.355098e-05,480.32999999968405,0.003556398,480.32999999968405,5.715679e-05,480.32999999968405,3.074529e-05
480.34499999968403,4.584005e-05,480.34499999968403,0.003705175,480.34499999968403,5.690609e-05,480.34499999968403,3.08345e-05
480.359999999684,4.659351e-05,480.359999999684,0.003925847,480.359999999684,5.621471e-05,480.359999999684,3.155789e-05
480.374999999684,5.178197e-05,480.374999999684,0.004087164,480.374999999684,5.537219e-05,480.374999999684,3.287618e-05
480.389999999684,5.207764e-05,480.389999999684,0.004194462,480.389999999684,5.521526e-05,480.389999999684,3.030364e-05
480.404999999684,5.231379e-05,480.404999999684,0.004311114,480.404999999684,5.483355e-05,480.404999999684,2.963668e-05
480.41999999968397,5.360596e-05,480.41999999968397,0.00438226,480.41999999968397,5.545913e-05,480.41999999968397,2.514547e-05
480.43499999968395,5.344938e-05,480.43499999968395,0.004241661,480.43499999968395,5.5534e-05,480.43499999968395,2.896992e-05
480.44999999968394,5.395276e-05,480.44999999968394,0.004301445,480.44999999968394,5.474125e-05,480.44999999968394,2.95262e-05
480.4649999996839,5.411648e-05,480.4649999996839,0.004555079,480.4649999996839,6.081727e-05,480.4649999996839,2.994639e-05
480.4799999996839,5.392325e-05,480.4799999996839,0.004816338,480.4799999996839,6.059869e-05,480.4799999996839,2.983564e-05
480.4949999996839,4.980628e-05,480.4949999996839,0.005000237,480.4949999996839,6.015399e-05,480.4949999996839,3.037051e-05
480.5099999996839,4.876418e-05,480.5099999996839,0.005077781,480.5099999996839,5.819796e-05,480.5099999996839,3.048902e-05
480.52499999968387,4.6327e-05,480.52499999968387,0.004892712,480.52499999968387,5.696077e-05,480.52499999968387,3.09066e-05
480.53999999968386,4.518326e-05,480.53999999968386,0.004786465,480.53999999968386,5.624452e-05,480.53999999968386,3.112913e-05
480.55499999968384,4.48635e-05,480.55499999968384,0.004632696,480.55499999968384,5.497287e-05,480.55499999968384,3.118384e-05
480.56999999968383,4.436367e-05,480.56999999968383,0.004437695,480.56999999968383,5.154284e-05,480.56999999968383,2.865261e-05
480.5849999996838,4.356197e-05,480.5849999996838,0.004443534,480.5849999996838,4.78011e-05,480.5849999996838,2.830537e-05
480.5999999996838,4.460181e-05,480.5999999996838,0.004348924,480.5999999996838,4.639051e-05,480.5999999996838,2.807351e-05
480.6149999996838,4.419123e-05,480.6149999996838,0.00421031,480.6149999996838,4.590731e-05,480.6149999996838,2.685116e-05
480.6299999996838,3.84437e-05,480.6299999996838,0.004035161,480.6299999996838,4.652634e-05,480.6299999996838,2.552026e-05
480.64499999968376,3.789826e-05,480.64499999968376,0.00389312,480.64499999968376,4.584128e-05,480.64499999968376,2.5036e-05
480.65999999968375,3.629155e-05,480.65999999968375,0.003632882,480.65999999968375,4.52191e-05,480.65999999968375,2.468868e-05
480.67499999968373,3.54897e-05,480.67499999968373,0.003363471,480.67499999968373,4.431633e-05,480.67499999968373,2.513427e-05
480.6899999996837,3.442465e-05,480.6899999996837,0.003273692,480.6899999996837,4.259734e-05,480.6899999996837,2.104685e-05
480.7049999996837,3.392507e-05,480.7049999996837,0.003285543,480.7049999996837,3.631871e-05,480.7049999996837,2.071222e-05
480.7199999996837,3.393918e-05,480.7199999996837,0.003301207,480.7199999996837,2.917054e-05,480.7199999996837,2.005921e-05
480.7349999996837,3.33222e-05,480.7349999996837,0.003128915,480.7349999996837,2.80459e-05,480.7349999996837,1.928149e-05
480.74999999968367,3.288432e-05,480.74999999968367,0.002879035,480.74999999968367,2.746888e-05,480.74999999968367,1.796928e-05
480.76499999968365,3.265089e-05,480.76499999968365,0.002689417,480.76499999968365,2.649255e-05,480.76499999968365,1.745067e-05
480.77999999968364,3.391302e-05,480.77999999968364,0.002798702,480.77999999968364,2.604585e-05,480.77999999968364,1.654145e-05
480.7949999996836,3.440049e-05,480.7949999996836,0.003072049,480.7949999996836,2.438151e-05,480.7949999996836,1.599155e-05
480.8099999996836,3.377734e-05,480.8099999996836,0.003388303,480.8099999996836,2.049342e-05,480.8099999996836,1.64278e-05
480.8249999996836,3.374605e-05,480.8249999996836,0.003698643,480.8249999996836,2.003673e-05,480.8249999996836,1.690784e-05
480.8399999996836,3.110333e-05,480.8399999996836,0.003748332,480.8399999996836,2.000999e-05,480.8399999996836,1.676645e-05
480.85499999968357,2.542016e-05,480.85499999968357,0.003809779,480.85499999968357,1.957658e-05,480.85499999968357,1.649541e-05
480.86999999968356,2.438787e-05,480.86999999968356,0.003852827,480.86999999968356,1.741835e-05,480.86999999968356,1.648686e-05
480.88499999968354,2.428773e-05,480.88499999968354,0.004038594,480.88499999968354,1.528258e-05,480.88499999968354,1.676309e-05
480.89999999968353,2.440403e-05,480.89999999968353,0.004062238,480.89999999968353,1.551675e-05,480.89999999968353,1.671175e-05
480.9149999996835,2.419825e-05,480.9149999996835,0.00408015,480.9149999996835,1.530652e-05,480.9149999996835,1.690451e-05
480.9299999996835,2.34923e-05,480.9299999996835,0.004164131,480.9299999996835,1.540377e-05,480.9299999996835,1.566133e-05
480.9449999996835,2.359342e-05,480.9449999996835,0.004174668,480.9449999996835,1.559463e-05,480.9449999996835,1.518085e-05
480.9599999996835,2.45238e-05,480.9599999996835,0.004019512,480.9599999996835,1.63194e-05,480.9599999996835,1.535247e-05
480.97499999968346,2.723971e-05,480.97499999968346,0.004036544,480.97499999968346,1.843211e-05,480.97499999968346,1.83793e-05
480.98999999968345,2.743501e-05,480.98999999968345,0.004129897,480.98999999968345,1.888957e-05,480.98999999968345,1.841299e-05
481.00499999968343,2.740624e-05,481.00499999968343,0.004093796,481.00499999968343,1.926614e-05,481.00499999968343,1.929098e-05
481.0199999996834,2.714595e-05,481.0199999996834,0.003970371,481.0199999996834,1.922369e-05,481.0199999996834,1.944373e-05
481.0349999996834,2.591083e-05,481.0349999996834,0.003939428,481.0349999996834,1.945966e-05,481.0349999996834,1.944445e-05
481.0499999996834,2.619255e-05,481.0499999996834,0.003821165,481.0499999996834,1.931361e-05,481.0499999996834,1.918554e-05
481.0649999996834,2.596135e-05,481.0649999996834,0.003634475,481.0649999996834,1.956002e-05,481.0649999996834,1.888062e-05
481.07999999968337,2.578385e-05,481.07999999968337,0.003427162,481.07999999968337,1.926395e-05,481.07999999968337,1.881559e-05
481.09499999968335,2.502812e-05,481.09499999968335,0.003345906,481.09499999968335,1.959743e-05,481.09499999968335,1.90544e-05
481.10999999968334,2.523718e-05,481.10999999968334,0.003145703,481.10999999968334,1.95593e-05,481.10999999968334,1.977632e-05
481.1249999996833,2.567655e-05,481.1249999996833,0.003042123,481.1249999996833,1.909281e-05,481.1249999996833,1.965915e-05
481.1399999996833,2.666638e-05,481.1399999996833,0.002778578,481.1399999996833,1.946907e-05,481.1399999996833,1.915027e-05
481.1549999996833,2.60799e-05,481.1549999996833,0.002698304,481.1549999996833,2.022775e-05,481.1549999996833,1.94256e-05
481.1699999996833,2.609988e-05,481.1699999996833,0.002488761,481.1699999996833,1.959599e-05,481.1699999996833,1.872102e-05
481.18499999968327,2.612685e-05,481.18499999968327,0.002269296,481.18499999968327,2.12248e-05,481.18499999968327,1.840228e-05
481.19999999968326,2.624467e-05,481.19999999968326,0.002242134,481.19999999968326,2.029727e-05,481.19999999968326,1.833556e-05
481.21499999968324,2.456627e-05,481.21499999968324,0.002330966,481.21499999968324,2.051815e-05,481.21499999968324,1.788678e-05
481.22999999968323,2.324515e-05,481.22999999968323,0.002273525,481.22999999968323,1.903147e-05,481.22999999968323,1.499975e-05
481.2449999996832,2.342023e-05,481.2449999996832,0.002210738,481.2449999996832,1.889329e-05,481.2449999996832,1.384222e-05
481.2599999996832,2.344909e-05,481.2599999996832,0.002271703,481.2599999996832,1.896771e-05,481.2599999996832,1.396784e-05
481.2749999996832,2.272793e-05,481.2749999996832,0.002208996,481.2749999996832,1.917967e-05,481.2749999996832,1.35792e-05
481.2899999996832,2.328814e-05,481.2899999996832,0.002213996,481.2899999996832,1.997476e-05,481.2899999996832,1.488663e-05
481.30499999968316,2.172465e-05,481.30499999968316,0.002247449,481.30499999968316,2.02361e-05,481.30499999968316,1.502227e-05
481.31999999968315,2.156781e-05,481.31999999968315,0.002220882,481.31999999968315,2.059011e-05,481.31999999968315,1.445746e-05
481.33499999968313,2.184234e-05,481.33499999968313,0.002202046,481.33499999968313,2.133865e-05,481.33499999968313,1.428297e-05
481.3499999996831,2.311815e-05,481.3499999996831,0.002238045,481.3499999996831,2.393191e-05,481.3499999996831,1.409534e-05
481.3649999996831,2.295795e-05,481.3649999996831,0.002249618,481.3649999996831,2.452151e-05,481.3649999996831,1.301562e-05
481.3799999996831,2.316928e-05,481.3799999996831,0.002435206,481.3799999996831,2.511072e-05,481.3799999996831,1.290803e-05
481.3949999996831,2.274218e-05,481.3949999996831,0.00266495,481.3949999996831,2.576035e-05,481.3949999996831,1.285335e-05
481.40999999968307,2.581279e-05,481.40999999968307,0.002738356,481.40999999968307,2.941579e-05,481.40999999968307,1.206298e-05
481.42499999968305,2.572259e-05,481.42499999968305,0.002950159,481.42499999968305,3.38186e-05,481.42499999968305,1.252475e-05
481.43999999968304,2.650371e-05,481.43999999968304,0.003209396,481.43999999968304,5.168694e-05,481.43999999968304,1.328026e-05
481.454999999683,2.69449e-05,481.454999999683,0.003386843,481.454999999683,5.328678e-05,481.454999999683,1.420286e-05
481.469999999683,2.765288e-05,481.469999999683,0.003500193,481.469999999683,5.366558e-05,481.469999999683,1.460288e-05
481.484999999683,2.918213e-05,481.484999999683,0.003577205,481.484999999683,5.504227e-05,481.484999999683,1.703401e-05
481.499999999683,3.663307e-05,481.499999999683,0.00374105,481.499999999683,5.558624e-05,481.499999999683,1.825934e-05
481.51499999968297,3.692721e-05,481.51499999968297,0.003913429,481.51499999968297,5.720336e-05,481.51499999968297,1.834862e-05
481.52999999968296,3.682981e-05,481.52999999968296,0.004092346,481.52999999968296,5.832827e-05,481.52999999968296,1.83839e-05
481.54499999968294,3.621189e-05,481.54499999968294,0.004240177,481.54499999968294,5.887682e-05,481.54499999968294,1.784893e-05
481.55999999968293,3.682216e-05,481.55999999968293,0.004459315,481.55999999968293,5.937997e-05,481.55999999968293,1.791353e-05
481.5749999996829,3.715729e-05,481.5749999996829,0.00464777,481.5749999996829,6.089181e-05,481.5749999996829,1.793632e-05
481.5899999996829,3.820516e-05,481.5899999996829,0.004786124,481.5899999996829,6.322393e-05,481.5899999996829,1.81642e-05
481.6049999996829,4.012966e-05,481.6049999996829,0.004896309,481.6049999996829,6.321279e-05,481.6049999996829,1.769835e-05
481.6199999996829,3.950345e-05,481.6199999996829,0.005061919,481.6199999996829,6.334013e-05,481.6199999996829,1.779994e-05
481.63499999968286,4.224936e-05,481.63499999968286,0.005123173,481.63499999968286,6.329831e-05,481.63499999968286,1.777222e-05
481.64999999968285,4.289394e-05,481.64999999968285,0.005123185,481.64999999968285,6.514022e-05,481.64999999968285,1.790803e-05
481.66499999968283,4.142783e-05,481.66499999968283,0.005224085,481.66499999968283,6.841993e-05,481.66499999968283,1.845044e-05
481.6799999996828,4.238218e-05,481.6799999996828,0.005142371,481.6799999996828,6.282586e-05,481.6799999996828,1.845655e-05
481.6949999996828,4.195358e-05,481.6949999996828,0.005142371,481.6949999996828,5.463358e-05,481.6949999996828,1.76601e-05
481.7099999996828,4.152157e-05,481.7099999996828,0.005152521,481.7099999996828,5.359992e-05,481.7099999996828,1.727706e-05
481.7249999996828,4.101296e-05,481.7249999996828,0.005230353,481.7249999996828,5.496492e-05,481.7249999996828,1.691284e-05
481.73999999968277,3.79562e-05,481.73999999968277,0.005287845,481.73999999968277,5.480168e-05,481.73999999968277,1.229546e-05
481.75499999968275,4.093836e-05,481.75499999968275,0.00528785,481.75499999968275,5.432173e-05,481.75499999968275,1.276537e-05
481.76999999968274,5.037072e-05,481.76999999968274,0.005249073,481.76999999968274,5.205762e-05,481.76999999968274,1.234805e-05
481.7849999996827,5.567866e-05,481.7849999996827,0.005232436,481.7849999996827,5.125342e-05,481.7849999996827,1.211076e-05
481.7999999996827,5.720286e-05,481.7999999996827,0.005246443,481.7999999996827,5.055523e-05,481.7999999996827,1.227597e-05
481.8149999996827,5.717429e-05,481.8149999996827,0.005201983,481.8149999996827,4.952492e-05,481.8149999996827,1.272669e-05
481.8299999996827,5.843565e-05,481.8299999996827,0.005085134,481.8299999996827,4.796525e-05,481.8299999996827,1.245256e-05
481.84499999968267,5.784885e-05,481.84499999968267,0.005002579,481.84499999968267,4.440779e-05,481.84499999968267,1.293855e-05
481.85999999968266,5.622649e-05,481.85999999968266,0.004888776,481.85999999968266,4.29871e-05,481.85999999968266,1.371545e-05
481.87499999968264,5.562348e-05,481.87499999968264,0.004740527,481.87499999968264,4.260264e-05,481.87499999968264,1.460674e-05
481.88999999968263,5.425323e-05,481.88999999968263,0.004578514,481.88999999968263,4.200828e-05,481.88999999968263,1.494141e-05
481.9049999996826,5.768815e-05,481.9049999996826,0.004438343,481.9049999996826,3.161943e-05,481.9049999996826,1.516228e-05
481.9199999996826,5.820812e-05,481.9199999996826,0.004177685,481.9199999996826,2.768241e-05,481.9199999996826,1.449444e-05
481.9349999996826,6.070785e-05,481.9349999996826,0.004236734,481.9349999996826,2.588418e-05,481.9349999996826,1.489514e-05
481.9499999996826,6.179064e-05,481.9499999996826,0.004218979,481.9499999996826,2.461611e-05,481.9499999996826,1.600124e-05
481.96499999968256,6.178129e-05,481.96499999968256,0.004038158,481.96499999968256,2.273784e-05,481.96499999968256,1.586863e-05
481.97999999968255,6.158009e-05,481.97999999968255,0.003877596,481.97999999968255,1.540102e-05,481.97999999968255,1.580726e-05
481.99499999968253,5.830025e-05,481.99499999968253,0.003675278,481.99499999968253,1.349178e-05,481.99499999968253,1.617112e-05
482.0099999996825,5.540907e-05,482.0099999996825,0.003388036,482.0099999996825,1.32792e-05,482.0099999996825,1.577426e-05
482.0249999996825,4.616892e-05,482.0249999996825,0.003360263,482.0249999996825,1.415119e-05,482.0249999996825,1.582953e-05
482.0399999996825,3.975866e-05,482.0399999996825,0.003236247,482.0399999996825,1.526044e-05,482.0399999996825,1.596334e-05
482.0549999996825,3.865674e-05,482.0549999996825,0.00304041,482.0549999996825,1.532584e-05,482.0549999996825,1.537081e-05
482.06999999968247,3.887151e-05,482.06999999968247,0.00295075,482.06999999968247,1.484683e-05,482.06999999968247,1.546036e-05
482.08499999968245,3.670491e-05,482.08499999968245,0.002866053,482.08499999968245,1.375135e-05,482.08499999968245,1.519105e-05
482.09999999968244,3.630164e-05,482.09999999968244,0.002899929,482.09999999968244,1.461156e-05,482.09999999968244,1.547676e-05
482.1149999996824,3.769626e-05,482.1149999996824,0.002899019,482.1149999996824,1.626233e-05,482.1149999996824,1.413027e-05
482.1299999996824,3.794544e-05,482.1299999996824,0.002903718,482.1299999996824,1.620071e-05,482.1299999996824,1.421674e-05
482.1449999996824,3.852972e-05,482.1449999996824,0.002863603,482.1449999996824,1.604783e-05,482.1449999996824,1.404227e-05
482.1599999996824,3.324009e-05,482.1599999996824,0.002691271,482.1599999996824,1.677317e-05,482.1599999996824,1.364543e-05
482.17499999968237,3.111873e-05,482.17499999968237,0.0026692,482.17499999968237,1.688367e-05,482.17499999968237,1.35522e-05
482.18999999968236,2.568697e-05,482.18999999968236,0.002517464,482.18999999968236,1.718796e-05,482.18999999968236,1.192557e-05
482.20499999968234,2.418311e-05,482.20499999968234,0.002364588,482.20499999968234,1.779835e-05,482.20499999968234,1.110599e-05
482.21999999968233,2.4013e-05,482.21999999968233,0.002404826,482.21999999968233,1.858054e-05,482.21999999968233,1.182236e-05
482.2349999996823,2.43844e-05,482.2349999996823,0.002360072,482.2349999996823,1.878862e-05,482.2349999996823,1.215372e-05
482.2499999996823,2.58177e-05,482.2499999996823,0.002309286,482.2499999996823,1.880286e-05,482.2499999996823,1.182236e-05
482.2649999996823,2.657271e-05,482.2649999996823,0.002305746,482.2649999996823,1.805765e-05,482.2649999996823,1.361443e-05
482.2799999996823,2.643292e-05,482.2799999996823,0.00206541,482.2799999996823,1.839998e-05,482.2799999996823,1.414522e-05
482.29499999968226,2.620277e-05,482.29499999968226,0.001837811,482.29499999968226,1.824622e-05,482.29499999968226,1.411531e-05
482.30999999968225,2.603341e-05,482.30999999968225,0.001855231,482.30999999968225,1.918775e-05,482.30999999968225,1.391935e-05
482.32499999968223,2.572259e-05,482.32499999968223,0.001846315,482.32499999968223,1.970567e-05,482.32499999968223,1.386459e-05
482.3399999996822,2.540464e-05,482.3399999996822,0.001640645,482.3399999996822,2.091458e-05,482.3399999996822,1.37534e-05
482.3549999996822,2.624789e-05,482.3549999996822,0.001578491,482.3549999996822,2.010271e-05,482.3549999996822,1.314057e-05
482.3699999996822,2.429759e-05,482.3699999996822,0.001534955,482.3699999996822,1.921196e-05,482.3699999996822,1.305237e-05
482.3849999996822,2.424013e-05,482.3849999996822,0.001449898,482.3849999996822,1.928514e-05,482.3849999996822,1.357713e-05
482.39999999968217,2.10435e-05,482.39999999968217,0.001377713,482.39999999968217,1.932892e-05,482.39999999968217,1.349387e-05
482.41499999968215,2.010691e-05,482.41499999968215,0.001346559,482.41499999968215,1.974067e-05,482.41499999968215,1.396381e-05
482.42999999968214,2.029727e-05,482.42999999968214,0.001369425,482.42999999968214,1.94314e-05,482.42999999968214,1.406533e-05
482.4449999996821,2.023471e-05,482.4449999996821,0.001331278,482.4449999996821,1.944228e-05,482.4449999996821,1.461542e-05
482.4599999996821,2.093814e-05,482.4599999996821,0.001555272,482.4599999996821,1.879387e-05,482.4599999996821,1.482119e-05
482.4749999996821,2.10147e-05,482.4749999996821,0.001692816,482.4749999996821,1.857599e-05,482.4749999996821,1.459227e-05
482.4899999996821,2.07394e-05,482.4899999996821,0.001693866,482.4899999996821,2.005711e-05,482.4899999996821,1.410533e-05
482.50499999968207,1.939367e-05,482.50499999968207,0.001715339,482.50499999968207,2.257182e-05,482.50499999968207,1.359061e-05
482.51999999968206,1.951748e-05,482.51999999968206,0.001721793,482.51999999968206,2.264472e-05,482.51999999968206,1.20968e-05
482.53499999968204,2.073465e-05,482.53499999968204,0.001731421,482.53499999968204,2.194978e-05,482.53499999968204,1.27001e-05
482.54999999968203,2.080112e-05,482.54999999968203,0.001770822,482.54999999968203,2.231322e-05,482.54999999968203,1.321326e-05
482.564999999682,2.153971e-05,482.564999999682,0.00173813,482.564999999682,2.413471e-05,482.564999999682,1.315664e-05
482.579999999682,2.247363e-05,482.579999999682,0.001734004,482.579999999682,2.61791e-05,482.579999999682,1.351056e-05
482.594999999682,2.197608e-05,482.594999999682,0.001718678,482.594999999682,2.799915e-05,482.594999999682,1.35574e-05
482.609999999682,2.125465e-05,482.609999999682,0.00168215,482.609999999682,2.97969e-05,482.609999999682,1.349596e-05
482.62499999968196,2.207904e-05,482.62499999968196,0.001662481,482.62499999968196,3.174703e-05,482.62499999968196,1.359682e-05
482.63999999968195,2.206882e-05,482.63999999968195,0.001729652,482.63999999968195,3.202095e-05,482.63999999968195,1.327495e-05
482.65499999968193,2.318386e-05,482.65499999968193,0.001764874,482.65499999968193,3.266124e-05,482.65499999968193,1.303077e-05
482.6699999996819,2.353962e-05,482.6699999996819,0.0019075,482.6699999996819,3.248609e-05,482.6699999996819,1.301671e-05
482.6849999996819,2.438671e-05,482.6849999996819,0.001969606,482.6849999996819,3.303902e-05,482.6849999996819,1.273333e-05
482.6999999996819,2.505737e-05,482.6999999996819,0.001936747,482.6999999996819,3.489448e-05,482.6999999996819,1.25831e-05
482.7149999996819,2.491756e-05,482.7149999996819,0.00179733,482.7149999996819,3.474601e-05,482.7149999996819,1.238791e-05
482.72999999968187,2.544121e-05,482.72999999968187,0.001787051,482.72999999968187,3.516752e-05,482.72999999968187,1.244464e-05
482.74499999968185,2.564141e-05,482.74499999968185,0.001900031,482.74499999968185,3.33809e-05,482.74499999968185,1.280834e-05
482.75999999968184,2.646488e-05,482.75999999968184,0.002185727,482.75999999968184,3.342603e-05,482.75999999968184,1.2838e-05
482.7749999996818,2.679181e-05,482.7749999996818,0.002315966,482.7749999996818,3.503669e-05,482.7749999996818,1.303077e-05
482.7899999996818,2.668961e-05,482.7899999996818,0.00263042,482.7899999996818,3.981284e-05,482.7899999996818,1.128466e-05
482.8049999996818,2.760291e-05,482.8049999996818,0.002947638,482.8049999996818,3.971258e-05,482.8049999996818,1.189718e-05
482.8199999996818,2.768902e-05,482.8199999996818,0.00322861,482.8199999996818,3.937737e-05,482.8199999996818,1.244351e-05
482.83499999968177,2.776827e-05,482.83499999968177,0.003461174,482.83499999968177,3.66323e-05,482.83499999968177,1.196684e-05
482.84999999968176,2.809207e-05,482.84999999968176,0.003517919,482.84999999968176,3.624572e-05,482.84999999968176,1.211076e-05
482.86499999968174,2.791904e-05,482.86499999968174,0.003742295,482.86499999968174,3.692988e-05,482.86499999968174,1.233549e-05
482.87999999968173,2.791752e-05,482.87999999968173,0.003965266,482.87999999968173,4.038161e-05,482.87999999968173,1.281054e-05
482.8949999996817,2.752369e-05,482.8949999996817,0.004143156,482.8949999996817,4.381476e-05,482.8949999996817,1.24129e-05
482.9099999996817,2.778501e-05,482.9099999996817,0.004245469,482.9099999996817,4.384754e-05,482.9099999996817,1.259652e-05
482.9249999996817,2.68779e-05,482.9249999996817,0.004394941,482.9249999996817,4.435478e-05,482.9249999996817,1.412429e-05
482.9399999996817,2.601122e-05,482.9399999996817,0.004487575,482.9399999996817,4.378614e-05,482.9399999996817,1.404227e-05
482.95499999968166,2.810059e-05,482.95499999968166,0.004622696,482.95499999968166,4.586218e-05,482.95499999968166,1.406533e-05
482.96999999968165,2.929823e-05,482.96999999968165,0.004815913,482.96999999968165,5.026602e-05,482.96999999968165,1.417407e-05
482.98499999968163,3.081851e-05,482.98499999968163,0.004775436,482.98499999968163,5.026966e-05,482.98499999968163,1.406533e-05
482.9999999996816,3.192006e-05,482.9999999996816,0.004678339,482.9999999996816,5.010658e-05,482.9999999996816,1.424446e-05
483.0149999996816,3.062639e-05,483.0149999996816,0.004569506,483.0149999996816,5.015576e-05,483.0149999996816,1.406232e-05
483.0299999996816,3.021659e-05,483.0299999996816,0.004483082,483.0299999996816,4.906598e-05,483.0299999996816,1.407133e-05
483.0449999996816,2.978083e-05,483.0449999996816,0.004383905,483.0449999996816,4.614297e-05,483.0449999996816,1.440964e-05
483.05999999968157,2.946459e-05,483.05999999968157,0.004305651,483.05999999968157,4.561178e-05,483.05999999968157,1.366709e-05
483.07499999968155,2.919322e-05,483.07499999968155,0.004268984,483.07499999968155,4.600509e-05,483.07499999968155,1.368152e-05
483.08999999968154,2.90253e-05,483.08999999968154,0.004209233,483.08999999968154,4.607668e-05,483.08999999968154,1.401416e-05
483.1049999996815,2.879874e-05,483.1049999996815,0.004274714,483.1049999996815,4.536993e-05,483.1049999996815,1.415617e-05
483.1199999996815,2.823562e-05,483.1199999996815,0.004316824,483.1199999996815,4.491779e-05,483.1199999996815,1.377898e-05
483.1349999996815,2.844042e-05,483.1349999996815,0.004332691,483.1349999996815,4.029081e-05,483.1349999996815,1.346774e-05
483.1499999996815,2.851511e-05,483.1499999996815,0.004212755,483.1499999996815,3.765925e-05,483.1499999996815,1.326221e-05
483.16499999968147,2.911834e-05,483.16499999968147,0.004157389,483.16499999968147,3.710607e-05,483.16499999968147,1.493764e-05
483.17999999968146,2.918357e-05,483.17999999968146,0.004010326,483.17999999968146,3.638846e-05,483.17999999968146,1.426719e-05
483.19499999968144,2.948228e-05,483.19499999968144,0.003887012,483.19499999968144,3.532379e-05,483.19499999968144,1.486295e-05
483.20999999968143,2.685168e-05,483.20999999968143,0.003907557,483.20999999968143,3.115627e-05,483.20999999968143,1.519476e-05
483.2249999996814,2.574065e-05,483.2249999996814,0.003808395,483.2249999996814,2.540852e-05,483.2249999996814,1.520959e-05
483.2399999996814,2.246861e-05,483.2399999996814,0.003848885,483.2399999996814,2.601176e-05,483.2399999996814,1.482974e-05
483.2549999996814,2.064614e-05,483.2549999996814,0.003994047,483.2549999996814,2.589071e-05,483.2549999996814,1.522255e-05
483.2699999996814,2.062429e-05,483.2699999996814,0.004248451,483.2699999996814,2.535746e-05,483.2699999996814,1.549404e-05
483.28499999968136,2.134261e-05,483.28499999968136,0.004442543,483.28499999968136,2.458118e-05,483.28499999968136,1.57385e-05
483.29999999968135,2.187392e-05,483.29999999968135,0.004523739,483.29999999968135,2.332984e-05,483.29999999968135,1.534513e-05
483.31499999968133,2.124603e-05,483.31499999968133,0.004384591,483.31499999968133,2.250369e-05,483.31499999968133,1.546674e-05
483.3299999996813,2.152859e-05,483.3299999996813,0.00424237,483.3299999996813,2.088425e-05,483.3299999996813,1.531941e-05
483.3449999996813,2.217135e-05,483.3449999996813,0.004213182,483.3449999996813,2.000577e-05,483.3449999996813,1.50999e-05
483.3599999996813,2.270312e-05,483.3599999996813,0.004100013,483.3599999996813,1.954056e-05,483.3599999996813,1.525675e-05
483.3749999996813,2.239074e-05,483.3749999996813,0.004058398,483.3749999996813,1.700835e-05,483.3749999996813,1.528258e-05
483.38999999968127,2.141246e-05,483.38999999968127,0.004152126,483.38999999968127,1.645522e-05,483.38999999968127,1.527797e-05
483.40499999968125,2.1149e-05,483.40499999968125,0.004293927,483.40499999968125,1.558108e-05,483.40499999968125,1.59986e-05
483.41999999968124,2.000366e-05,483.41999999968124,0.004360775,483.41999999968124,1.544213e-05,483.41999999968124,1.325797e-05
483.4349999996812,1.995148e-05,483.4349999996812,0.004470296,483.4349999996812,1.677065e-05,483.4349999996812,1.308901e-05
483.4499999996812,1.952398e-05,483.4499999996812,0.004470571,483.4499999996812,1.706541e-05,483.4499999996812,1.29983e-05
483.4649999996812,2.000929e-05,483.4649999996812,0.004379185,483.4649999996812,1.679331e-05,483.4649999996812,1.257078e-05
483.4799999996812,2.004727e-05,483.4799999996812,0.004279596,483.4799999996812,1.62857e-05,483.4799999996812,1.263783e-05
483.49499999968117,2.313886e-05,483.49499999968117,0.004230384,483.49499999968117,1.459999e-05,483.49499999968117,1.37329e-05
483.50999999968116,2.323363e-05,483.50999999968116,0.004186694,483.50999999968116,1.369387e-05,483.50999999968116,1.302752e-05
483.52499999968114,2.33588e-05,483.52499999968114,0.004076915,483.52499999968114,1.445649e-05,483.52499999968114,1.315878e-05
483.53999999968113,2.326332e-05,483.53999999968113,0.00389847,483.53999999968113,1.453229e-05,483.53999999968113,1.386358e-05
483.5549999996811,2.363339e-05,483.5549999996811,0.003757531,483.5549999996811,1.507656e-05,483.5549999996811,1.447499e-05
483.5699999996811,2.358685e-05,483.5699999996811,0.003747886,483.5699999996811,1.54722e-05,483.5699999996811,1.434497e-05
483.5849999996811,2.251308e-05,483.5849999996811,0.003690438,483.5849999996811,1.536623e-05,483.5849999996811,1.421377e-05
483.5999999996811,2.232521e-05,483.5999999996811,0.00352556,483.5999999996811,1.536898e-05,483.5999999996811,1.410034e-05
483.61499999968106,2.264472e-05,483.61499999968106,0.003590763,483.61499999968106,1.529456e-05,483.61499999968106,1.36444e-05
483.62999999968105,2.298003e-05,483.62999999968105,0.003817416,483.62999999968105,1.520218e-05,483.62999999968105,1.411531e-05
483.64499999968103,2.265281e-05,483.64499999968103,0.003881649,483.64499999968103,1.578408e-05,483.64499999968103,1.422566e-05
483.659999999681,2.24636e-05,483.659999999681,0.003773665,483.659999999681,1.607852e-05,483.659999999681,1.37175e-05
483.674999999681,2.290635e-05,483.674999999681,0.003524074,483.674999999681,1.740703e-05,483.674999999681,1.471532e-05
483.689999999681,2.297819e-05,483.689999999681,0.003509901,483.689999999681,1.693032e-05,483.689999999681,1.451192e-05
483.704999999681,2.322332e-05,483.704999999681,0.003629048,483.704999999681,1.664079e-05,483.704999999681,1.467697e-05
483.71999999968097,2.24918e-05,483.71999999968097,0.003767897,483.71999999968097,1.756733e-05,483.71999999968097,1.549949e-05
483.73499999968095,2.262543e-05,483.73499999968095,0.003939209,483.73499999968095,1.767047e-05,483.73499999968095,1.489609e-05
483.74999999968094,1.980905e-05,483.74999999968094,0.004038268,483.74999999968094,1.847486e-05,483.74999999968094,1.495649e-05
483.7649999996809,2.109832e-05,483.7649999996809,0.003907756,483.7649999996809,2.536857e-05,483.7649999996809,1.453229e-05
483.7799999996809,2.143547e-05,483.7799999996809,0.00377155,483.7799999996809,2.585968e-05,483.7799999996809,1.465104e-05
483.7949999996809,2.179585e-05,483.7949999996809,0.003729554,483.7949999996809,2.660397e-05,483.7949999996809,1.384324e-05
483.8099999996809,2.161087e-05,483.8099999996809,0.003695891,483.8099999996809,2.646382e-05,483.8099999996809,1.334903e-05
483.82499999968087,2.271739e-05,483.82499999968087,0.003690001,483.82499999968087,2.644997e-05,483.82499999968087,1.327071e-05
483.83999999968086,2.254872e-05,483.83999999968086,0.003663691,483.83999999968086,2.749758e-05,483.83999999968086,1.337854e-05
483.85499999968084,2.219612e-05,483.85499999968084,0.003555903,483.85499999968084,2.995909e-05,483.85499999968084,1.325903e-05
483.86999999968083,2.205733e-05,483.86999999968083,0.003390901,483.86999999968083,3.169552e-05,483.86999999968083,1.311482e-05
483.8849999996808,2.179262e-05,483.8849999996808,0.00301712,483.8849999996808,3.24991e-05,483.8849999996808,1.289056e-05
483.8999999996808,2.244101e-05,483.8999999996808,0.002524571,483.8999999996808,3.256535e-05,483.8999999996808,1.454586e-05
483.9149999996808,2.315711e-05,483.9149999996808,0.002565959,483.9149999996808,3.323585e-05,483.9149999996808,1.493953e-05
483.9299999996808,2.282626e-05,483.9299999996808,0.002818277,483.9299999996808,3.32837e-05,483.9299999996808,1.506161e-05
483.94499999968076,2.311937e-05,483.94499999968076,0.002707475,483.94499999968076,3.488964e-05,483.94499999968076,1.499505e-05
483.95999999968075,2.290204e-05,483.95999999968075,0.002587955,483.95999999968075,3.586794e-05,483.95999999968075,1.538638e-05
483.97499999968073,2.384877e-05,483.97499999968073,0.002579661,483.97499999968073,3.611997e-05,483.97499999968073,1.473158e-05
483.9899999996807,2.379141e-05,483.9899999996807,0.002568163,483.9899999996807,3.719821e-05,483.9899999996807,1.422764e-05
484.0049999996807,2.390011e-05,484.0049999996807,0.002534231,484.0049999996807,3.602195e-05,484.0049999996807,1.465488e-05
484.0199999996807,2.33588e-05,484.0199999996807,0.00262233,484.0199999996807,3.226942e-05,484.0199999996807,1.511203e-05
484.0349999996807,2.301433e-05,484.0349999996807,0.003037957,484.0349999996807,3.15007e-05,484.0349999996807,1.580815e-05
484.04999999968067,2.189516e-05,484.04999999968067,0.003114467,484.04999999968067,3.20715e-05,484.04999999968067,1.709263e-05
484.06499999968065,2.142627e-05,484.06499999968065,0.00312169,484.06499999968065,3.284488e-05,484.06499999968065,1.795908e-05
484.07999999968064,2.043698e-05,484.07999999968064,0.003328719,484.07999999968064,3.277619e-05,484.07999999968064,1.867884e-05
484.0949999996806,2.143876e-05,484.0949999996806,0.003590459,484.0949999996806,3.066914e-05,484.0949999996806,1.912082e-05
484.1099999996806,2.171557e-05,484.1099999996806,0.003663454,484.1099999996806,2.981297e-05,484.1099999996806,1.942198e-05
484.1249999996806,2.119358e-05,484.1249999996806,0.003734398,484.1249999996806,2.843546e-05,484.1249999996806,2.098787e-05
484.1399999996806,2.155605e-05,484.1399999996806,0.00383982,484.1399999996806,2.882368e-05,484.1399999996806,2.109699e-05
484.15499999968057,2.114234e-05,484.15499999968057,0.003912216,484.15499999968057,2.934579e-05,484.15499999968057,1.99317e-05
484.16999999968056,2.076588e-05,484.16999999968056,0.003777986,484.16999999968056,3.000607e-05,484.16999999968056,2.022566e-05
484.18499999968054,2.071902e-05,484.18499999968054,0.003651331,484.18499999968054,2.975149e-05,484.18499999968054,1.990907e-05
484.19999999968053,2.01524e-05,484.19999999968053,0.003799104,484.19999999968053,2.773223e-05,484.19999999968053,2.02173e-05
484.2149999996805,1.921782e-05,484.2149999996805,0.004024408,484.2149999996805,2.638438e-05,484.2149999996805,2.02535e-05
484.2299999996805,1.864563e-05,484.2299999996805,0.004046076,484.2299999996805,2.611391e-05,484.2299999996805,2.10348e-05
484.2449999996805,1.854259e-05,484.2449999996805,0.003918346,484.2449999996805,2.548159e-05,484.2449999996805,2.147814e-05
484.2599999996805,2.123807e-05,484.2599999996805,0.003807171,484.2599999996805,2.524778e-05,484.2599999996805,2.192666e-05
484.27499999968046,2.039627e-05,484.27499999968046,0.003867937,484.27499999968046,2.577893e-05,484.27499999968046,2.452782e-05
484.28999999968045,2.20209e-05,484.28999999968045,0.003918136,484.28999999968045,2.564965e-05,484.28999999968045,2.3597e-05
484.30499999968043,2.270684e-05,484.30499999968043,0.004002175,484.30499999968043,2.588745e-05,484.30499999968043,2.341843e-05
484.3199999996804,2.395368e-05,484.3199999996804,0.00434001,484.3199999996804,2.517739e-05,484.3199999996804,2.320512e-05
484.3349999996804,2.44519e-05,484.3349999996804,0.004340018,484.3349999996804,2.525002e-05,484.3349999996804,2.263228e-05
484.3499999996804,2.402415e-05,484.3499999996804,0.004337296,484.3499999996804,2.540131e-05,484.3499999996804,2.248365e-05
484.3649999996804,2.422327e-05,484.3649999996804,0.004417926,484.3649999996804,2.586785e-05,484.3649999996804,2.224367e-05
484.37999999968036,2.463784e-05,484.37999999968036,0.004398001,484.37999999968036,2.530853e-05,484.37999999968036,2.063249e-05
484.39499999968035,2.449506e-05,484.39499999968035,0.004444982,484.39499999968035,2.464127e-05,484.39499999968035,2.068227e-05
484.40999999968034,2.433756e-05,484.40999999968034,0.004589822,484.40999999968034,2.16467e-05,484.40999999968034,2.023541e-05
484.4249999996803,2.447838e-05,484.4249999996803,0.004594936,484.4249999996803,2.1153e-05,484.4249999996803,1.970853e-05
484.4399999996803,2.521317e-05,484.4399999996803,0.004608951,484.4399999996803,2.066932e-05,484.4399999996803,1.97699e-05
484.4549999996803,2.696006e-05,484.4549999996803,0.004453884,484.4549999996803,2.1103e-05,484.4549999996803,1.915468e-05
484.4699999996803,2.826852e-05,484.4699999996803,0.004245434,484.4699999996803,2.064682e-05,484.4699999996803,1.871952e-05
484.48499999968027,2.893002e-05,484.48499999968027,0.004106067,484.48499999968027,1.918261e-05,484.48499999968027,1.761698e-05
484.49999999968026,2.865408e-05,484.49999999968026,0.003968594,484.49999999968026,1.936387e-05,484.49999999968026,1.674543e-05
484.51499999968024,2.66262e-05,484.51499999968024,0.003944232,484.51499999968024,1.892384e-05,484.51499999968024,1.543027e-05
484.52999999968023,2.732491e-05,484.52999999968023,0.003727429,484.52999999968023,1.83371e-05,484.52999999968023,1.187111e-05
484.5449999996802,2.814467e-05,484.5449999996802,0.003586615,484.5449999996802,1.785998e-05,484.5449999996802,1.144948e-05
484.5599999996802,2.775153e-05,484.5599999996802,0.003396552,484.5599999996802,1.663656e-05,484.5599999996802,1.176861e-05
484.5749999996802,2.695953e-05,484.5749999996802,0.003149567,484.5749999996802,1.655933e-05,484.5749999996802,1.186161e-05
484.5899999996802,2.685378e-05,484.5899999996802,0.003137707,484.5899999996802,1.653209e-05,484.5899999996802,1.147406e-05
484.60499999968016,2.662514e-05,484.60499999968016,0.003103528,484.60499999968016,1.589613e-05,484.60499999968016,1.255396e-05
484.61999999968015,2.802429e-05,484.61999999968015,0.003097528,484.61999999968015,1.51055e-05,484.61999999968015,1.287306e-05
484.63499999968013,2.791651e-05,484.63499999968013,0.003097894,484.63499999968013,1.559102e-05,484.63499999968013,1.282592e-05
484.6499999996801,2.832925e-05,484.6499999996801,0.002873155,484.6499999996801,1.511948e-05,484.6499999996801,1.456521e-05
484.6649999996801,2.857926e-05,484.6649999996801,0.002562572,484.6649999996801,1.61144e-05,484.6649999996801,1.60118e-05
484.6799999996801,2.818618e-05,484.6799999996801,0.002585984,484.6799999996801,1.649797e-05,484.6799999996801,1.892012e-05
484.6949999996801,2.753188e-05,484.6949999996801,0.002535997,484.6949999996801,1.721989e-05,484.6949999996801,1.963908e-05
484.70999999968006,2.61608e-05,484.70999999968006,0.002602325,484.70999999968006,1.743856e-05,484.70999999968006,2.001844e-05
484.72499999968005,2.512586e-05,484.72499999968005,0.002591132,484.72499999968005,1.773969e-05,484.72499999968005,2.066251e-05
484.73999999968004,2.538078e-05,484.73999999968004,0.00257256,484.73999999968004,1.798652e-05,484.73999999968004,2.105287e-05
484.75499999968,2.540685e-05,484.75499999968,0.002501631,484.75499999968,1.794575e-05,484.75499999968,2.143153e-05
484.76999999968,2.385881e-05,484.76999999968,0.00244992,484.76999999968,1.88627e-05,484.76999999968,2.152008e-05
484.78499999968,2.31638e-05,484.78499999968,0.002650073,484.78499999968,2.056342e-05,484.78499999968,2.176222e-05
484.79999999968,2.067409e-05,484.79999999968,0.002842727,484.79999999968,2.108697e-05,484.79999999968,2.185846e-05
484.81499999967997,2.057164e-05,484.81499999967997,0.002916054,484.81499999967997,2.019639e-05,484.81499999967997,2.170454e-05
484.82999999967996,2.048586e-05,484.82999999967996,0.002962488,484.82999999967996,2.191381e-05,484.82999999967996,2.171102e-05
484.84499999967994,1.947558e-05,484.84499999967994,0.002996128,484.84499999967994,2.207393e-05,484.84499999967994,2.111567e-05
484.8599999996799,1.87541e-05,484.8599999996799,0.002802598,484.8599999996799,2.332319e-05,484.8599999996799,2.093747e-05
484.8749999996799,1.688784e-05,484.8749999996799,0.002719142,484.8749999996799,2.503431e-05,484.8749999996799,2.116698e-05
484.8899999996799,1.70398e-05,484.8899999996799,0.002932651,484.8899999996799,2.601771e-05,484.8899999996799,2.103346e-05
484.9049999996799,1.886718e-05,484.9049999996799,0.003008713,484.9049999996799,3.257357e-05,484.9049999996799,1.948064e-05
484.9199999996799,1.945893e-05,484.9199999996799,0.002958027,484.9199999996799,3.502021e-05,484.9199999996799,1.879986e-05
484.93499999967986,2.060516e-05,484.93499999967986,0.002969431,484.93499999967986,3.51134e-05,484.93499999967986,1.625887e-05
484.94999999967985,2.092939e-05,484.94999999967985,0.00313258,484.94999999967985,3.457531e-05,484.94999999967985,1.866375e-05
484.96499999967983,2.150567e-05,484.96499999967983,0.003186004,484.96499999967983,3.441646e-05,484.96499999967983,2.02528e-05
484.9799999996798,2.223987e-05,484.9799999996798,0.003410784,484.9799999996798,3.438002e-05,484.9799999996798,1.971068e-05
484.9949999996798,2.775609e-05,484.9949999996798,0.003442227,484.9949999996798,3.473141e-05,484.9949999996798,1.882383e-05
485.0099999996798,2.99746e-05,485.0099999996798,0.003499502,485.0099999996798,3.465223e-05,485.0099999996798,1.881784e-05
485.0249999996798,3.157708e-05,485.0249999996798,0.00349178,485.0249999996798,3.625816e-05,485.0249999996798,1.887912e-05
485.03999999967976,3.325618e-05,485.03999999967976,0.003341006,485.03999999967976,3.855348e-05,485.03999999967976,1.949437e-05
485.05499999967975,3.338259e-05,485.05499999967975,0.002994283,485.05499999967975,3.877208e-05,485.05499999967975,1.929244e-05
485.06999999967974,3.34572e-05,485.06999999967974,0.003037489,485.06999999967974,3.905517e-05,485.06999999967974,1.976064e-05
485.0849999996797,3.411306e-05,485.0849999996797,0.003126439,485.0849999996797,4.200794e-05,485.0849999996797,1.983748e-05
485.0999999996797,3.462742e-05,485.0999999996797,0.003077502,485.0999999996797,4.516798e-05,485.0999999996797,2.014121e-05
485.1149999996797,3.491103e-05,485.1149999996797,0.003213174,485.1149999996797,4.509713e-05,485.1149999996797,2.023471e-05
485.1299999996797,3.512945e-05,485.1299999996797,0.003335776,485.1299999996797,4.454904e-05,485.1299999996797,2.024794e-05
485.14499999967967,3.502383e-05,485.14499999967967,0.003245143,485.14499999967967,4.448575e-05,485.14499999967967,1.999732e-05
485.15999999967966,3.332516e-05,485.15999999967966,0.003285417,485.15999999967966,4.128238e-05,485.15999999967966,1.990482e-05
485.17499999967964,3.353458e-05,485.17499999967964,0.003466436,485.17499999967964,4.101605e-05,485.17499999967964,2.131091e-05
485.1899999996796,3.672678e-05,485.1899999996796,0.003665881,485.1899999996796,4.37723e-05,485.1899999996796,1.940093e-05
485.2049999996796,3.801257e-05,485.2049999996796,0.003495279,485.2049999996796,4.399411e-05,485.2049999996796,1.685026e-05
485.2199999996796,3.799923e-05,485.2199999996796,0.003613489,485.2199999996796,4.451171e-05,485.2199999996796,2.027713e-05
485.2349999996796,3.747965e-05,485.2349999996796,0.003632422,485.2349999996796,4.469961e-05,485.2349999996796,2.062429e-05
485.2499999996796,3.330866e-05,485.2499999996796,0.003687987,485.2499999996796,4.598273e-05,485.2499999996796,2.09267e-05
485.26499999967956,3.435747e-05,485.26499999967956,0.003855891,485.26499999967956,4.69342e-05,485.26499999967956,2.088223e-05
485.27999999967955,3.481527e-05,485.27999999967955,0.003955774,485.27999999967955,4.473552e-05,485.27999999967955,2.119757e-05
485.29499999967953,3.655339e-05,485.29499999967953,0.003884755,485.29499999967953,4.679202e-05,485.29499999967953,2.17415e-05
485.3099999996795,3.667573e-05,485.3099999996795,0.003913027,485.3099999996795,4.742209e-05,485.3099999996795,2.149519e-05
485.3249999996795,3.731655e-05,485.3249999996795,0.004031152,485.3249999996795,4.72626e-05,485.3249999996795,2.074551e-05
485.3399999996795,3.698934e-05,485.3399999996795,0.004037184,485.3399999996795,4.200526e-05,485.3399999996795,2.151942e-05
485.3549999996795,3.685619e-05,485.3549999996795,0.004121054,485.3549999996795,4.096897e-05,485.3549999996795,2.120289e-05
485.36999999967946,3.713226e-05,485.36999999967946,0.004119252,485.36999999967946,4.108708e-05,485.36999999967946,2.110233e-05
485.38499999967945,3.836962e-05,485.38499999967945,0.004062215,485.38499999967945,4.047151e-05,485.38499999967945,2.267456e-05
485.39999999967944,3.837329e-05,485.39999999967944,0.003979872,485.39999999967944,4.142715e-05,485.39999999967944,2.236619e-05
485.4149999996794,3.812322e-05,485.4149999996794,0.003968371,485.4149999996794,3.940491e-05,485.4149999996794,2.311693e-05
485.4299999996794,3.703121e-05,485.4299999996794,0.00378587,485.4299999996794,3.806516e-05,485.4299999996794,2.255809e-05
485.4449999996794,3.330359e-05,485.4449999996794,0.003634052,485.4449999996794,3.701485e-05,485.4449999996794,2.268698e-05
485.4599999996794,3.227466e-05,485.4599999996794,0.003631326,485.4599999996794,3.625311e-05,485.4599999996794,2.20835e-05
485.47499999967937,3.138063e-05,485.47499999967937,0.003442447,485.47499999967937,3.638575e-05,485.47499999967937,1.863505e-05
485.48999999967936,3.082811e-05,485.48999999967936,0.00320338,485.48999999967936,3.562084e-05,485.48999999967936,1.883355e-05
485.50499999967934,3.021146e-05,485.50499999967934,0.003333708,485.50499999967934,3.995305e-05,485.50499999967934,1.838773e-05
485.5199999996793,2.743398e-05,485.5199999996793,0.003341689,485.5199999996793,3.757462e-05,485.5199999996793,1.889553e-05
485.5349999996793,2.323727e-05,485.5349999996793,0.003210321,485.5349999996793,3.718798e-05,485.5349999996793,1.729499e-05
485.5499999996793,2.261858e-05,485.5499999996793,0.003189899,485.5499999996793,3.421985e-05,485.5499999996793,1.748132e-05
485.5649999996793,2.170583e-05,485.5649999996793,0.003279019,485.5649999996793,3.484681e-05,485.5649999996793,1.789858e-05
485.5799999996793,2.208733e-05,485.5799999996793,0.003256458,485.5799999996793,3.590915e-05,485.5799999996793,1.937041e-05
485.59499999967926,2.162065e-05,485.59499999967926,0.003431175,485.59499999967926,3.736899e-05,485.59499999967926,1.969924e-05
485.60999999967925,2.249305e-05,485.60999999967925,0.003617213,485.60999999967925,3.816347e-05,485.60999999967925,2.058464e-05
485.62499999967923,2.166491e-05,485.62499999967923,0.00379213,485.62499999967923,3.970335e-05,485.62499999967923,2.079773e-05
485.6399999996792,2.055451e-05,485.6399999996792,0.003873974,485.6399999996792,3.796511e-05,485.6399999996792,1.968922e-05
485.6549999996792,2.067682e-05,485.6549999996792,0.003911862,485.6549999996792,3.788153e-05,485.6549999996792,1.919215e-05
485.6699999996792,2.168181e-05,485.6699999996792,0.004019196,485.6699999996792,3.806701e-05,485.6699999996792,1.966775e-05
485.6849999996792,2.277437e-05,485.6849999996792,0.003985804,485.6849999996792,3.788637e-05,485.6849999996792,1.940892e-05
485.69999999967916,2.31948e-05,485.69999999967916,0.003996253,485.69999999967916,3.694628e-05,485.69999999967916,1.949582e-05
485.71499999967915,2.3906e-05,485.71499999967915,0.003927965,485.71499999967915,3.683096e-05,485.71499999967915,2.138217e-05
485.72999999967914,2.424942e-05,485.72999999967914,0.003887481,485.72999999967914,3.649785e-05,485.72999999967914,2.207521e-05
485.7449999996791,2.69449e-05,485.7449999996791,0.003899906,485.7449999996791,3.547422e-05,485.7449999996791,2.204711e-05
485.7599999996791,2.807351e-05,485.7599999996791,0.003756611,485.7599999996791,2.962813e-05,485.7599999996791,2.276075e-05
485.7749999996791,2.835808e-05,485.7749999996791,0.003586214,485.7749999996791,2.948228e-05,485.7749999996791,2.244289e-05
485.7899999996791,2.820067e-05,485.7899999996791,0.003518003,485.7899999996791,2.817268e-05,485.7899999996791,2.241589e-05
485.80499999967907,2.818518e-05,485.80499999967907,0.003412259,485.80499999967907,2.811362e-05,485.80499999967907,2.220627e-05
485.81999999967906,2.829442e-05,485.81999999967906,0.003155517,485.81999999967906,2.798908e-05,485.81999999967906,2.197095e-05
485.83499999967904,2.806397e-05,485.83499999967904,0.00293716,485.83499999967904,2.628703e-05,485.83499999967904,2.037278e-05
485.849999999679,2.818518e-05,485.849999999679,0.002655974,485.849999999679,2.36322e-05,485.849999999679,2.060789e-05
485.864999999679,2.741857e-05,485.864999999679,0.002342774,485.864999999679,2.046935e-05,485.864999999679,2.000859e-05
485.879999999679,2.643879e-05,485.879999999679,0.002022284,485.879999999679,1.815412e-05,485.879999999679,1.95247e-05
485.894999999679,2.640947e-05,485.894999999679,0.001979964,485.894999999679,1.735353e-05,485.894999999679,2.028894e-05
485.909999999679,2.686794e-05,485.909999999679,0.001814578,485.909999999679,1.715268e-05,485.909999999679,1.987012e-05
485.92499999967896,2.604369e-05,485.92499999967896,0.001618369,485.92499999967896,1.64937e-05,485.92499999967896,1.893426e-05
485.93999999967895,2.561283e-05,485.93999999967895,0.001647477,485.93999999967895,1.619289e-05,485.93999999967895,1.866073e-05
485.95499999967893,2.483034e-05,485.95499999967893,0.001657506,485.95499999967893,1.556208e-05,485.95499999967893,1.852131e-05
485.9699999996789,2.435665e-05,485.9699999996789,0.001740348,485.9699999996789,1.577961e-05,485.9699999996789,1.595804e-05
485.9849999996789,2.558366e-05,485.9849999996789,0.00177759,485.9849999996789,1.577158e-05,485.9849999996789,1.512786e-05
485.9999999996789,2.257993e-05,485.9999999996789,0.001757754,485.9999999996789,1.580637e-05,485.9999999996789,1.521236e-05
486.0149999996789,2.179715e-05,486.0149999996789,0.001790609,486.0149999996789,1.55358e-05,486.0149999996789,1.420286e-05
486.02999999967886,2.149519e-05,486.02999999967886,0.002118105,486.02999999967886,1.563342e-05,486.02999999967886,1.412329e-05
486.04499999967885,2.176481e-05,486.04499999967885,0.002293706,486.04499999967885,1.580013e-05,486.04499999967885,1.40041e-05
486.05999999967884,2.196004e-05,486.05999999967884,0.002561276,486.05999999967884,1.533411e-05,486.05999999967884,1.396481e-05
486.0749999996788,2.157761e-05,486.0749999996788,0.00286489,486.0749999996788,1.065545e-05,486.0749999996788,1.319086e-05
486.0899999996788,2.299657e-05,486.0899999996788,0.002963147,486.0899999996788,1.155237e-05,486.0899999996788,1.430269e-05
486.1049999996788,2.302228e-05,486.1049999996788,0.00295543,486.1049999996788,1.190902e-05,486.1049999996788,1.263895e-05
486.1199999996788,2.279353e-05,486.1199999996788,0.002901291,486.1199999996788,1.194327e-05,486.1199999996788,1.285006e-05
486.13499999967877,2.236052e-05,486.13499999967877,0.002818377,486.13499999967877,1.230004e-05,486.13499999967877,1.243898e-05
486.14999999967876,2.214084e-05,486.14999999967876,0.002853759,486.14999999967876,1.237995e-05,486.14999999967876,1.164709e-05
486.16499999967874,2.115433e-05,486.16499999967874,0.002881729,486.16499999967874,1.414024e-05,486.16499999967874,1.156821e-05
486.1799999996787,2.124537e-05,486.1799999996787,0.002875887,486.1799999996787,1.583576e-05,486.1799999996787,1.265788e-05
486.1949999996787,2.189838e-05,486.1949999996787,0.002871981,486.1949999996787,2.034164e-05,486.1949999996787,1.296792e-05
486.2099999996787,2.326332e-05,486.2099999996787,0.00285746,486.2099999996787,2.172789e-05,486.2099999996787,1.344786e-05
486.2249999996787,2.264286e-05,486.2249999996787,0.00282454,486.2249999996787,2.159783e-05,486.2249999996787,1.395674e-05
486.2399999996787,2.22424e-05,486.2399999996787,0.002799132,486.2399999996787,2.319237e-05,486.2399999996787,1.363924e-05
486.25499999967866,2.279106e-05,486.25499999967866,0.002824686,486.25499999967866,2.992616e-05,486.25499999967866,1.379431e-05
486.26999999967865,2.533912e-05,486.26999999967865,0.002748582,486.26999999967865,3.883743e-05,486.26999999967865,1.400712e-05
486.28499999967863,2.504725e-05,486.28499999967863,0.002452749,486.28499999967863,4.305096e-05,486.28499999967863,1.40503e-05
486.2999999996786,2.53469e-05,486.2999999996786,0.002508615,486.2999999996786,4.334055e-05,486.2999999996786,1.404227e-05
486.3149999996786,2.519249e-05,486.3149999996786,0.002172003,486.3149999996786,4.357329e-05,486.3149999996786,1.41203e-05
486.3299999996786,2.492999e-05,486.3299999996786,0.001694496,486.3299999996786,4.362014e-05,486.3299999996786,1.413127e-05
486.3449999996786,2.387947e-05,486.3449999996786,0.00156941,486.3449999996786,4.410157e-05,486.3449999996786,1.308901e-05
486.35999999967856,2.451346e-05,486.35999999967856,0.001650866,486.35999999967856,4.831551e-05,486.35999999967856,1.276868e-05
486.37499999967855,2.694438e-05,486.37499999967855,0.001747432,486.37499999967855,5.063069e-05,486.37499999967855,1.298094e-05
486.38999999967854,2.720711e-05,486.38999999967854,0.001731077,486.38999999967854,5.144353e-05,486.38999999967854,1.3892e-05
486.4049999996785,2.744938e-05,486.4049999996785,0.001734474,486.4049999996785,5.147146e-05,486.4049999996785,1.383102e-05
486.4199999996785,2.818918e-05,486.4199999996785,0.001743911,486.4199999996785,5.280853e-05,486.4199999996785,1.511016e-05
486.4349999996785,2.8787e-05,486.4349999996785,0.002204242,486.4349999996785,5.656918e-05,486.4349999996785,1.759938e-05
486.4499999996785,2.735016e-05,486.4499999996785,0.002548546,486.4499999996785,5.552437e-05,486.4499999996785,1.849391e-05
486.46499999967847,2.701069e-05,486.46499999967847,0.002756428,486.46499999967847,5.538007e-05,486.46499999967847,1.806232e-05
486.47999999967845,2.743347e-05,486.47999999967845,0.002877616,486.47999999967845,5.538847e-05,486.47999999967845,1.867054e-05
