X[s],a: EMG RMS 1-1,X[s].1,a: EMG RMS 1-2,X[s].2,a: EMG RMS 1-3,X[s].3,a: EMG RMS 1-4
427.00499999973255,6.946283e-05,427.00499999973255,0.00222954,427.00499999973255,3.636523e-05,427.00499999973255,1.903961e-05
427.01999999973253,6.978028e-05,427.01999999973253,0.002224561,427.01999999973253,3.347067e-05,427.01999999973253,1.849619e-05
427.0349999997325,7.010715e-05,427.0349999997325,0.002261135,427.0349999997325,3.287104e-05,427.0349999997325,1.826474e-05
427.0499999997325,7.041231e-05,427.0499999997325,0.002137717,427.0499999997325,3.263405e-05,427.0499999997325,1.803891e-05
427.0649999997325,7.052665e-05,427.0649999997325,0.001982153,427.0649999997325,3.208775e-05,427.0649999997325,1.748535e-05
427.0799999997325,7.323403e-05,427.0799999997325,0.001959968,427.0799999997325,3.139544e-05,427.0799999997325,1.52244e-05
427.09499999973247,7.097423e-05,427.09499999973247,0.001871935,427.09499999973247,2.847705e-05,427.09499999973247,1.489609e-05
427.10999999973245,5.326034e-05,427.10999999973245,0.001794804,427.10999999973245,2.24385e-05,427.10999999973245,1.86909e-05
427.12499999973244,5.073602e-05,427.12499999973244,0.001815904,427.12499999973244,1.789307e-05,427.12499999973244,2.202857e-05
427.1399999997324,4.659381e-05,427.1399999997324,0.001803183,427.1399999997324,2.03451e-05,427.1399999997324,3.20082e-05
427.1549999997324,4.52602e-05,427.1549999997324,0.001768694,427.1549999997324,2.646648e-05,427.1549999997324,3.287404e-05
427.1699999997324,4.502523e-05,427.1699999997324,0.001689756,427.1699999997324,2.717085e-05,427.1699999997324,3.373519e-05
427.1849999997324,4.470024e-05,427.1849999997324,0.001816995,427.1849999997324,2.826454e-05,427.1849999997324,3.384525e-05
427.19999999973237,4.438272e-05,427.19999999973237,0.001567075,427.19999999973237,2.889446e-05,427.19999999973237,3.432342e-05
427.21499999973236,4.420845e-05,427.21499999973236,0.001515726,427.21499999973236,2.861916e-05,427.21499999973236,3.423302e-05
427.22999999973234,5.364326e-05,427.22999999973234,0.001464755,427.22999999973234,2.919757e-05,427.22999999973234,3.426469e-05
427.24499999973233,6.228429e-05,427.24499999973233,0.001376246,427.24499999973233,3.288517e-05,427.24499999973233,3.501015e-05
427.2599999997323,6.808868e-05,427.2599999997323,0.001361179,427.2599999997323,3.36298e-05,427.2599999997323,3.498519e-05
427.2749999997323,7.12733e-05,427.2749999997323,0.001366806,427.2749999997323,3.514107e-05,427.2749999997323,3.500934e-05
427.2899999997323,7.31453e-05,427.2899999997323,0.001374593,427.2899999997323,3.602156e-05,427.2899999997323,3.518954e-05
427.3049999997323,7.374964e-05,427.3049999997323,0.001553279,427.3049999997323,3.61866e-05,427.3049999997323,3.649939e-05
427.31999999973226,6.879894e-05,427.31999999973226,0.001626016,427.31999999973226,3.655262e-05,427.31999999973226,3.708747e-05
427.33499999973225,6.762554e-05,427.33499999973225,0.001674897,427.33499999973225,3.648125e-05,427.33499999973225,4.287029e-05
427.34999999973223,6.775955e-05,427.34999999973223,0.001683438,427.34999999973223,3.674825e-05,427.34999999973223,4.669136e-05
427.3649999997322,6.38893e-05,427.3649999997322,0.001742454,427.3649999997322,3.850888e-05,427.3649999997322,4.521629e-05
427.3799999997322,6.426193e-05,427.3799999997322,0.001743358,427.3799999997322,4.14574e-05,427.3799999997322,4.292677e-05
427.3949999997322,6.413005e-05,427.3949999997322,0.001727111,427.3949999997322,3.962593e-05,427.3949999997322,3.730825e-05
427.4099999997322,6.378094e-05,427.4099999997322,0.001734889,427.4099999997322,3.738783e-05,427.4099999997322,3.737049e-05
427.42499999973217,6.504456e-05,427.42499999973217,0.001571942,427.42499999973217,3.877681e-05,427.42499999973217,3.651599e-05
427.43999999973215,7.101551e-05,427.43999999973215,0.00168481,427.43999999973215,3.918192e-05,427.43999999973215,3.658883e-05
427.45499999973214,7.228342e-05,427.45499999973214,0.001878903,427.45499999973214,3.951593e-05,427.45499999973214,3.791721e-05
427.4699999997321,7.257418e-05,427.4699999997321,0.00199593,427.4699999997321,3.991955e-05,427.4699999997321,3.790607e-05
427.4849999997321,6.323574e-05,427.4849999997321,0.001987687,427.4849999997321,3.816753e-05,427.4849999997321,3.799997e-05
427.4999999997321,6.351004e-05,427.4999999997321,0.002003403,427.4999999997321,3.677929e-05,427.4999999997321,4.073103e-05
427.5149999997321,5.796561e-05,427.5149999997321,0.002076272,427.5149999997321,3.638691e-05,427.5149999997321,4.197808e-05
427.52999999973207,5.247645e-05,427.52999999973207,0.00213227,427.52999999973207,3.598987e-05,427.52999999973207,5.270119e-05
427.54499999973206,5.000386e-05,427.54499999973206,0.002059302,427.54499999973206,4.102498e-05,427.54499999973206,5.408862e-05
427.55999999973204,4.93785e-05,427.55999999973204,0.001973734,427.55999999973204,4.515082e-05,427.55999999973204,5.353391e-05
427.57499999973203,4.925911e-05,427.57499999973203,0.001999599,427.57499999973203,4.679323e-05,427.57499999973203,5.107253e-05
427.589999999732,5.008127e-05,427.589999999732,0.002009931,427.589999999732,4.919272e-05,427.589999999732,4.651575e-05
427.604999999732,6.450392e-05,427.604999999732,0.002118077,427.604999999732,5.070409e-05,427.604999999732,4.634554e-05
427.619999999732,7.772054e-05,427.619999999732,0.002077001,427.619999999732,4.851046e-05,427.619999999732,4.70936e-05
427.634999999732,7.874455e-05,427.634999999732,0.002031242,427.634999999732,4.757038e-05,427.634999999732,4.688615e-05
427.64999999973196,8.318281e-05,427.64999999973196,0.002025607,427.64999999973196,4.600447e-05,427.64999999973196,4.66331e-05
427.66499999973195,8.550498e-05,427.66499999973195,0.002053017,427.66499999973195,4.60357e-05,427.66499999973195,4.784498e-05
427.67999999973193,8.485323e-05,427.67999999973193,0.00205431,427.67999999973193,4.460023e-05,427.67999999973193,5.050422e-05
427.6949999997319,8.162238e-05,427.6949999997319,0.001957264,427.6949999997319,4.433222e-05,427.6949999997319,5.162886e-05
427.7099999997319,8.096773e-05,427.7099999997319,0.001659499,427.7099999997319,5.315868e-05,427.7099999997319,5.58817e-05
427.7249999997319,7.761571e-05,427.7249999997319,0.001647803,427.7249999997319,5.484023e-05,427.7249999997319,5.787246e-05
427.7399999997319,7.583647e-05,427.7399999997319,0.001650235,427.7399999997319,5.638111e-05,427.7399999997319,5.822845e-05
427.75499999973187,7.529792e-05,427.75499999973187,0.00159447,427.75499999973187,5.626005e-05,427.75499999973187,5.688826e-05
427.76999999973185,7.543941e-05,427.76999999973185,0.001549031,427.76999999973185,5.62961e-05,427.76999999973185,5.48772e-05
427.78499999973184,7.639649e-05,427.78499999973184,0.001489884,427.78499999973184,5.535565e-05,427.78499999973184,4.723219e-05
427.7999999997318,7.696524e-05,427.7999999997318,0.001524579,427.7999999997318,5.115768e-05,427.7999999997318,4.584159e-05
427.8149999997318,8.226034e-05,427.8149999997318,0.00153409,427.8149999997318,4.848403e-05,427.8149999997318,4.551284e-05
427.8299999997318,8.782767e-05,427.8299999997318,0.001478698,427.8299999997318,4.695071e-05,427.8299999997318,4.504493e-05
427.8449999997318,8.846658e-05,427.8449999997318,0.001423093,427.8449999997318,4.583237e-05,427.8449999997318,4.465673e-05
427.85999999973177,7.317938e-05,427.85999999973177,0.001310145,427.85999999973177,4.486193e-05,427.85999999973177,4.387291e-05
427.87499999973176,6.898869e-05,427.87499999973176,0.001308754,427.87499999973176,4.497295e-05,427.87499999973176,4.29776e-05
427.88999999973174,6.690282e-05,427.88999999973174,0.001325817,427.88999999973174,4.513772e-05,427.88999999973174,4.298121e-05
427.90499999973173,6.20838e-05,427.90499999973173,0.001349825,427.90499999973173,4.477675e-05,427.90499999973173,4.283742e-05
427.9199999997317,5.941863e-05,427.9199999997317,0.001280836,427.9199999997317,4.432619e-05,427.9199999997317,4.0499e-05
427.9349999997317,5.807171e-05,427.9349999997317,0.001264472,427.9349999997317,4.391656e-05,427.9349999997317,3.650788e-05
427.9499999997317,5.79002e-05,427.9499999997317,0.001274648,427.9499999997317,4.259602e-05,427.9499999997317,3.426962e-05
427.9649999997317,5.832055e-05,427.9649999997317,0.001278773,427.9649999997317,3.205437e-05,427.9649999997317,2.431729e-05
427.97999999973166,5.910415e-05,427.97999999973166,0.001309649,427.97999999973166,2.757789e-05,427.97999999973166,2.123276e-05
427.99499999973165,5.91306e-05,427.99499999973165,0.001374781,427.99499999973165,2.580897e-05,427.99499999973165,1.974352e-05
428.00999999973163,5.999501e-05,428.00999999973163,0.001367694,428.00999999973163,2.567874e-05,428.00999999973163,1.871199e-05
428.0249999997316,5.995391e-05,428.0249999997316,0.001383375,428.0249999997316,2.486039e-05,428.0249999997316,1.804828e-05
428.0399999997316,6.060845e-05,428.0399999997316,0.001334121,428.0399999997316,2.456627e-05,428.0399999997316,1.559644e-05
428.0549999997316,5.453447e-05,428.0549999997316,0.001260117,428.0549999997316,2.306019e-05,428.0549999997316,1.5412e-05
428.0699999997316,5.722625e-05,428.0699999997316,0.001215585,428.0699999997316,2.230564e-05,428.0699999997316,1.525767e-05
428.08499999973156,5.053071e-05,428.08499999973156,0.001150632,428.08499999973156,1.971711e-05,428.08499999973156,1.918701e-05
428.09999999973155,4.761271e-05,428.09999999973155,0.001132292,428.09999999973155,1.830942e-05,428.09999999973155,2.533412e-05
428.11499999973154,4.498485e-05,428.11499999973154,0.001131217,428.11499999973154,1.786629e-05,428.11499999973154,2.768749e-05
428.1299999997315,4.480286e-05,428.1299999997315,0.001074095,428.1299999997315,1.748696e-05,428.1299999997315,2.89777e-05
428.1449999997315,4.440493e-05,428.1449999997315,0.001011144,428.1449999997315,2.338954e-05,428.1449999997315,2.912946e-05
428.1599999997315,4.350955e-05,428.1599999997315,0.0009752463,428.1599999997315,3.230695e-05,428.1599999997315,2.915121e-05
428.1749999997315,4.339219e-05,428.1749999997315,0.001003428,428.1749999997315,3.363818e-05,428.1749999997315,2.921348e-05
428.18999999973147,4.307974e-05,428.18999999973147,0.00108746,428.18999999973147,3.477397e-05,428.18999999973147,2.914976e-05
428.20499999973146,4.242006e-05,428.20499999973146,0.001322795,428.20499999973146,3.485651e-05,428.20499999973146,2.913091e-05
428.21999999973144,4.202873e-05,428.21999999973144,0.00129791,428.21999999973144,3.490377e-05,428.21999999973144,2.89636e-05
428.23499999973143,4.170775e-05,428.23499999973143,0.001214385,428.23499999973143,3.487025e-05,428.23499999973143,2.859257e-05
428.2499999997314,4.952548e-05,428.2499999997314,0.001190438,428.2499999997314,3.492313e-05,428.2499999997314,2.875567e-05
428.2649999997314,6.120838e-05,428.2649999997314,0.001370736,428.2649999997314,3.580504e-05,428.2649999997314,2.848892e-05
428.2799999997314,6.270062e-05,428.2799999997314,0.001515432,428.2799999997314,3.713112e-05,428.2799999997314,2.84419e-05
428.2949999997314,6.590792e-05,428.2949999997314,0.001538046,428.2949999997314,3.725837e-05,428.2949999997314,2.821016e-05
428.30999999973136,6.668306e-05,428.30999999973136,0.001539933,428.30999999973136,3.761247e-05,428.30999999973136,2.84087e-05
428.32499999973135,6.029036e-05,428.32499999973135,0.001595575,428.32499999973135,3.80385e-05,428.32499999973135,2.846022e-05
428.33999999973133,6.03282e-05,428.33999999973133,0.001624849,428.33999999973133,3.817602e-05,428.33999999973133,2.372441e-05
428.3549999997313,6.06289e-05,428.3549999997313,0.001690904,428.3549999997313,3.807626e-05,428.3549999997313,2.13914e-05
428.3699999997313,6.820506e-05,428.3699999997313,0.001743058,428.3699999997313,3.806479e-05,428.3699999997313,1.812461e-05
428.3849999997313,7.011218e-05,428.3849999997313,0.001740262,428.3849999997313,3.701295e-05,428.3849999997313,1.673618e-05
428.3999999997313,7.40609e-05,428.3999999997313,0.00172443,428.3999999997313,3.336191e-05,428.3999999997313,1.726483e-05
428.41499999973126,7.602477e-05,428.41499999973126,0.001719069,428.41499999973126,2.582479e-05,428.41499999973126,1.761618e-05
428.42999999973125,7.620485e-05,428.42999999973125,0.001710151,428.42999999973125,2.316684e-05,428.42999999973125,1.748776e-05
428.44499999973124,7.62407e-05,428.44499999973124,0.001644599,428.44499999973124,2.276013e-05,428.44499999973124,1.749099e-05
428.4599999997312,8.130004e-05,428.4599999997312,0.001502798,428.4599999997312,2.231701e-05,428.4599999997312,1.752397e-05
428.4749999997312,8.143093e-05,428.4749999997312,0.001459752,428.4749999997312,2.154755e-05,428.4749999997312,1.73584e-05
428.4899999997312,8.34106e-05,428.4899999997312,0.001378294,428.4899999997312,2.138942e-05,428.4899999997312,1.708191e-05
428.5049999997312,7.439509e-05,428.5049999997312,0.001382005,428.5049999997312,2.00943e-05,428.5049999997312,1.704641e-05
428.51999999973117,6.926929e-05,428.51999999973117,0.001170537,428.51999999973117,1.891416e-05,428.51999999973117,1.823387e-05
428.53499999973116,6.79833e-05,428.53499999973116,0.001059889,428.53499999973116,1.596157e-05,428.53499999973116,1.885374e-05
428.54999999973114,6.833587e-05,428.54999999973114,0.001101221,428.54999999973114,1.605923e-05,428.54999999973114,1.893203e-05
428.5649999997311,6.700549e-05,428.5649999997311,0.001086995,428.5649999997311,1.563162e-05,428.5649999997311,1.865922e-05
428.5799999997311,6.701642e-05,428.5799999997311,0.001006402,428.5799999997311,1.468369e-05,428.5799999997311,1.962688e-05
428.5949999997311,6.710947e-05,428.5949999997311,0.0009757456,428.5949999997311,1.943358e-05,428.5949999997311,2.017475e-05
428.6099999997311,6.456373e-05,428.6099999997311,0.0008708556,428.6099999997311,2.64867e-05,428.6099999997311,1.899962e-05
428.6249999997311,5.817714e-05,428.6249999997311,0.0007981109,428.6249999997311,3.250343e-05,428.6249999997311,1.975494e-05
428.63999999973106,5.599426e-05,428.63999999973106,0.0008322152,428.63999999973106,3.476871e-05,428.63999999973106,1.982967e-05
428.65499999973105,5.07002e-05,428.65499999973105,0.0008499384,428.65499999973105,3.688637e-05,428.65499999973105,1.966274e-05
428.66999999973103,4.872285e-05,428.66999999973103,0.0009877228,428.66999999973103,3.686269e-05,428.66999999973103,1.965772e-05
428.684999999731,4.847183e-05,428.684999999731,0.001112488,428.684999999731,3.710569e-05,428.684999999731,1.966918e-05
428.699999999731,4.175838e-05,428.699999999731,0.001133,428.699999999731,3.748228e-05,428.699999999731,1.901814e-05
428.714999999731,4.090497e-05,428.714999999731,0.001127909,428.714999999731,3.847081e-05,428.714999999731,1.996418e-05
428.729999999731,3.820184e-05,428.729999999731,0.001215378,428.729999999731,3.846605e-05,428.729999999731,2.029449e-05
428.74499999973096,3.552263e-05,428.74499999973096,0.001298533,428.74499999973096,3.847667e-05,428.74499999973096,2.145846e-05
428.75999999973095,3.867241e-05,428.75999999973095,0.001338599,428.75999999973095,3.897465e-05,428.75999999973095,2.367626e-05
428.77499999973094,4.0444e-05,428.77499999973094,0.001376602,428.77499999973094,3.941849e-05,428.77499999973094,2.274218e-05
428.7899999997309,3.807626e-05,428.7899999997309,0.001503255,428.7899999997309,3.958716e-05,428.7899999997309,2.316076e-05
428.8049999997309,3.503227e-05,428.8049999997309,0.001577,428.8049999997309,3.975795e-05,428.8049999997309,2.356295e-05
428.8199999997309,3.607002e-05,428.8199999997309,0.001621777,428.8199999997309,3.971293e-05,428.8199999997309,2.38659e-05
428.8349999997309,3.637723e-05,428.8349999997309,0.001693564,428.8349999997309,3.892836e-05,428.8349999997309,2.222086e-05
428.84999999973087,3.646426e-05,428.84999999973087,0.001683952,428.84999999973087,3.707949e-05,428.84999999973087,2.203177e-05
428.86499999973086,3.641129e-05,428.86499999973086,0.001691336,428.86499999973086,2.933715e-05,428.86499999973086,2.205542e-05
428.87999999973084,3.636135e-05,428.87999999973084,0.001689587,428.87999999973084,2.718484e-05,428.87999999973084,2.196838e-05
428.8949999997308,3.625466e-05,428.8949999997308,0.001685889,428.8949999997308,2.243222e-05,428.8949999997308,2.207329e-05
428.9099999997308,3.674595e-05,428.9099999997308,0.001611413,428.9099999997308,2.178357e-05,428.9099999997308,2.174409e-05
428.9249999997308,3.867568e-05,428.9249999997308,0.001471251,428.9249999997308,2.133865e-05,428.9249999997308,2.14847e-05
428.9399999997308,3.99386e-05,428.9399999997308,0.001444917,428.9399999997308,2.089167e-05,428.9399999997308,2.147421e-05
428.9549999997308,3.99266e-05,428.9549999997308,0.00143647,428.9549999997308,2.037278e-05,428.9549999997308,2.285093e-05
428.96999999973076,3.873392e-05,428.96999999973076,0.001417036,428.96999999973076,1.860554e-05,428.96999999973076,2.252309e-05
428.98499999973075,3.903821e-05,428.98499999973075,0.001378152,428.98499999973075,1.870973e-05,428.98499999973075,2.201578e-05
428.99999999973073,4.137441e-05,428.99999999973073,0.001228686,428.99999999973073,1.926541e-05,428.99999999973073,2.221008e-05
429.0149999997307,4.004251e-05,429.0149999997307,0.001228626,429.0149999997307,1.765212e-05,429.0149999997307,1.966202e-05
429.0299999997307,4.007275e-05,429.0299999997307,0.001169767,429.0299999997307,1.718714e-05,429.0299999997307,2.024863e-05
429.0449999997307,3.949525e-05,429.0449999997307,0.0009419726,429.0449999997307,1.684357e-05,429.0449999997307,2.079841e-05
429.0599999997307,3.847996e-05,429.0599999997307,0.0008432394,429.0599999997307,1.649284e-05,429.0599999997307,2.068295e-05
429.07499999973066,3.760572e-05,429.07499999973066,0.0006663952,429.07499999973066,1.744502e-05,429.07499999973066,2.124735e-05
429.08999999973065,3.688637e-05,429.08999999973065,0.0005930196,429.08999999973065,2.722471e-05,429.08999999973065,2.271863e-05
429.10499999973064,3.667996e-05,429.10499999973064,0.0005743645,429.10499999973064,3.335389e-05,429.10499999973064,2.310169e-05
429.1199999997306,3.635748e-05,429.1199999997306,0.0006611758,429.1199999997306,3.524315e-05,429.1199999997306,2.791248e-05
429.1349999997306,3.653219e-05,429.1349999997306,0.0007502136,429.1349999997306,3.874264e-05,429.1349999997306,3.052227e-05
429.1499999997306,4.171045e-05,429.1499999997306,0.0008497309,429.1499999997306,3.917401e-05,429.1499999997306,3.108611e-05
429.1649999997306,6.682255e-05,429.1649999997306,0.0009036987,429.1649999997306,4.531619e-05,429.1649999997306,3.118249e-05
429.17999999973057,7.11051e-05,429.17999999973057,0.0009132714,429.17999999973057,4.815548e-05,429.17999999973057,3.218419e-05
429.19499999973056,8.857209e-05,429.19499999973056,0.0009264284,429.19499999973056,4.950528e-05,429.19499999973056,3.238229e-05
429.20999999973054,9.50461e-05,429.20999999973054,0.00100121,429.20999999973054,5.06254e-05,429.20999999973054,3.387354e-05
429.2249999997305,9.706186e-05,429.2249999997305,0.001026432,429.2249999997305,5.117228e-05,429.2249999997305,3.525513e-05
429.2399999997305,9.858682e-05,429.2399999997305,0.001042348,429.2399999997305,5.111802e-05,429.2399999997305,3.842098e-05
429.2549999997305,9.917703e-05,429.2549999997305,0.001053288,429.2549999997305,5.095738e-05,429.2549999997305,4.559386e-05
429.2699999997305,9.78646e-05,429.2699999997305,0.001075041,429.2699999997305,5.222998e-05,429.2699999997305,5.18608e-05
429.2849999997305,9.766403e-05,429.2849999997305,0.00106795,429.2849999997305,5.39418e-05,429.2849999997305,6.282788e-05
429.29999999973046,9.784775e-05,429.29999999973046,0.001066143,429.29999999973046,5.77989e-05,429.29999999973046,6.349473e-05
429.31499999973045,9.794417e-05,429.31499999973045,0.001078689,429.31499999973045,5.879254e-05,429.31499999973045,6.430248e-05
429.32999999973043,9.818406e-05,429.32999999973043,0.001068201,429.32999999973043,5.802439e-05,429.32999999973043,6.427815e-05
429.3449999997304,0.0001019326,429.3449999997304,0.001084957,429.3449999997304,5.360228e-05,429.3449999997304,6.402101e-05
429.3599999997304,0.0001040502,429.3599999997304,0.001162676,429.3599999997304,5.116292e-05,429.3599999997304,6.341081e-05
429.3749999997304,0.0001125573,429.3749999997304,0.001200269,429.3749999997304,5.018889e-05,429.3749999997304,6.082306e-05
429.3899999997304,0.0001159446,429.3899999997304,0.001189726,429.3899999997304,5.025004e-05,429.3899999997304,6.084668e-05
429.40499999973036,0.0001076764,429.40499999973036,0.00114632,429.40499999973036,4.958319e-05,429.40499999973036,6.0877e-05
429.41999999973035,0.0001050016,429.41999999973035,0.001325613,429.41999999973035,4.355647e-05,429.41999999973035,6.063192e-05
429.43499999973034,0.0001040416,429.43499999973034,0.00137047,429.43499999973034,4.394574e-05,429.43499999973034,6.018349e-05
429.4499999997303,8.853248e-05,429.4499999997303,0.001405154,429.4499999997303,4.31823e-05,429.4499999997303,5.92044e-05
429.4649999997303,8.130993e-05,429.4649999997303,0.001439415,429.4649999997303,4.170066e-05,429.4649999997303,5.830992e-05
429.4799999997303,8.139373e-05,429.4799999997303,0.001430023,429.4799999997303,4.218496e-05,429.4799999997303,5.768131e-05
429.4949999997303,8.011422e-05,429.4949999997303,0.001436717,429.4949999997303,4.2085e-05,429.4949999997303,5.476955e-05
429.50999999973027,8.017731e-05,429.50999999973027,0.001421589,429.50999999973027,4.211712e-05,429.50999999973027,4.828693e-05
429.52499999973026,8.202368e-05,429.52499999973026,0.001476906,429.52499999973026,4.002562e-05,429.52499999973026,3.718874e-05
429.53999999973024,8.313775e-05,429.53999999973024,0.001525624,429.53999999973024,3.662846e-05,429.53999999973024,2.560788e-05
429.5549999997302,8.334387e-05,429.5549999997302,0.001530326,429.5549999997302,3.410067e-05,429.5549999997302,2.662303e-05
429.5699999997302,8.379191e-05,429.5699999997302,0.001510213,429.5699999997302,3.507326e-05,429.5699999997302,3.114361e-05
429.5849999997302,8.337648e-05,429.5849999997302,0.001530463,429.5849999997302,3.661038e-05,429.5849999997302,3.149534e-05
429.5999999997302,7.658635e-05,429.5999999997302,0.001503754,429.5999999997302,3.990013e-05,429.5999999997302,3.25225e-05
429.6149999997302,7.033604e-05,429.6149999997302,0.001415204,429.6149999997302,4.183455e-05,429.6149999997302,3.301727e-05
429.62999999973016,5.856183e-05,429.62999999973016,0.001380368,429.62999999973016,3.999886e-05,429.62999999973016,3.469814e-05
429.64499999973015,5.417268e-05,429.64499999973015,0.001395775,429.64499999973015,4.022222e-05,429.64499999973015,3.438247e-05
429.65999999973013,5.157808e-05,429.65999999973013,0.001489943,429.65999999973013,3.931687e-05,429.65999999973013,3.670338e-05
429.6749999997301,4.581915e-05,429.6749999997301,0.001370188,429.6749999997301,3.925556e-05,429.6749999997301,3.731391e-05
429.6899999997301,5.056833e-05,429.6899999997301,0.001374956,429.6899999997301,3.906815e-05,429.6899999997301,3.778212e-05
429.7049999997301,6.662262e-05,429.7049999997301,0.001347853,429.7049999997301,4.116381e-05,429.7049999997301,3.87201e-05
429.7199999997301,8.513233e-05,429.7199999997301,0.001343827,429.7199999997301,4.222468e-05,429.7199999997301,3.884178e-05
429.73499999973006,8.560953e-05,429.73499999973006,0.001445594,429.73499999973006,4.432873e-05,429.73499999973006,3.836925e-05
429.74999999973005,8.870717e-05,429.74999999973005,0.001442969,429.74999999973005,4.576347e-05,429.74999999973005,3.910779e-05
429.76499999973004,9.312003e-05,429.76499999973004,0.00157491,429.76499999973004,4.602101e-05,429.76499999973004,3.847521e-05
429.77999999973,9.525145e-05,429.77999999973,0.001631309,429.77999999973,4.597047e-05,429.77999999973,3.761958e-05
429.79499999973,9.479025e-05,429.79499999973,0.001597972,429.79499999973,4.547599e-05,429.79499999973,3.656225e-05
429.80999999973,9.430678e-05,429.80999999973,0.001741386,429.80999999973,4.367565e-05,429.80999999973,3.037515e-05
429.82499999973,9.52303e-05,429.82499999973,0.001760034,429.82499999973,4.252254e-05,429.82499999973,2.830239e-05
429.83999999972997,9.602884e-05,429.83999999972997,0.001774873,429.83999999972997,3.997667e-05,429.83999999972997,2.755336e-05
429.85499999972996,9.80356e-05,429.85499999972996,0.001789737,429.85499999972996,3.671412e-05,429.85499999972996,2.730892e-05
429.86999999972994,9.805198e-05,429.86999999972994,0.001792315,429.86999999972994,3.372141e-05,429.86999999972994,2.57319e-05
429.8849999997299,9.852636e-05,429.8849999997299,0.001799739,429.8849999997299,3.310164e-05,429.8849999997299,2.474681e-05
429.8999999997299,9.955781e-05,429.8999999997299,0.001791785,429.8999999997299,3.168663e-05,429.8999999997299,2.39272e-05
429.9149999997299,0.0001002234,429.9149999997299,0.001658188,429.9149999997299,3.2669e-05,429.9149999997299,2.095563e-05
429.9299999997299,9.920188e-05,429.9299999997299,0.001647433,429.9299999997299,3.237881e-05,429.9299999997299,2.037001e-05
429.9449999997299,9.66007e-05,429.9449999997299,0.001640416,429.9449999997299,3.036262e-05,429.9449999997299,1.933475e-05
429.95999999972986,8.46937e-05,429.95999999972986,0.001599696,429.95999999972986,2.855214e-05,429.95999999972986,1.761777e-05
429.97499999972985,6.685501e-05,429.97499999972985,0.001522599,429.97499999972985,2.503993e-05,429.97499999972985,1.775953e-05
429.98999999972983,6.592779e-05,429.98999999972983,0.001441367,429.98999999972983,2.034718e-05,429.98999999972983,1.776032e-05
430.0049999997298,6.059288e-05,430.0049999997298,0.001413803,430.0049999997298,1.918481e-05,430.0049999997298,1.755209e-05
430.0199999997298,5.162203e-05,430.0199999997298,0.001249574,430.0199999997298,1.900851e-05,430.0199999997298,1.720598e-05
430.0349999997298,4.81856e-05,430.0349999997298,0.001078195,430.0349999997298,2.325424e-05,430.0349999997298,1.707613e-05
430.0499999997298,4.784557e-05,430.0499999997298,0.001060527,430.0499999997298,3.233789e-05,430.0499999997298,1.70067e-05
430.06499999972976,4.75689e-05,430.06499999972976,0.0008539174,430.06499999972976,3.277404e-05,430.06499999972976,1.727135e-05
430.07999999972975,4.658776e-05,430.07999999972975,0.0008628101,430.07999999972975,3.282858e-05,430.07999999972975,1.78513e-05
430.09499999972974,4.410029e-05,430.09499999972974,0.0008958342,430.09499999972974,3.338006e-05,430.09499999972974,1.79096e-05
430.1099999997297,4.050491e-05,430.1099999997297,0.001022922,430.1099999997297,3.502785e-05,430.1099999997297,1.803345e-05
430.1249999997297,4.297924e-05,430.1249999997297,0.001047777,430.1249999997297,3.652756e-05,430.1249999997297,1.990695e-05
430.1399999997297,4.239215e-05,430.1399999997297,0.0009765599,430.1399999997297,3.705098e-05,430.1399999997297,1.950449e-05
430.1549999997297,4.487668e-05,430.1549999997297,0.001027551,430.1549999997297,3.802517e-05,430.1549999997297,1.953407e-05
430.16999999972967,6.176784e-05,430.16999999972967,0.001072267,430.16999999972967,3.939847e-05,430.16999999972967,1.895285e-05
430.18499999972965,6.493813e-05,430.18499999972965,0.001065136,430.18499999972965,3.890338e-05,430.18499999972965,1.956506e-05
430.19999999972964,6.819928e-05,430.19999999972964,0.001135334,430.19999999972964,3.853557e-05,430.19999999972964,2.596786e-05
430.2149999997296,6.879669e-05,430.2149999997296,0.001136128,430.2149999997296,3.974378e-05,430.2149999997296,3.05974e-05
430.2299999997296,6.672255e-05,430.2299999997296,0.001163381,430.2299999997296,4.403284e-05,430.2299999997296,3.334121e-05
430.2449999997296,6.720408e-05,430.2449999997296,0.001231551,430.2449999997296,4.534664e-05,430.2449999997296,3.462376e-05
430.2599999997296,6.796464e-05,430.2599999997296,0.001246396,430.2599999997296,4.629719e-05,430.2599999997296,3.431398e-05
430.2749999997296,6.787816e-05,430.2749999997296,0.001298024,430.2749999997296,4.583944e-05,430.2749999997296,3.566036e-05
430.28999999972956,6.802368e-05,430.28999999972956,0.001341346,430.28999999972956,4.404308e-05,430.28999999972956,3.60829e-05
430.30499999972955,9.077712e-05,430.30499999972955,0.001388954,430.30499999972955,3.861007e-05,430.30499999972955,3.65264e-05
430.31999999972953,0.0002572984,430.31999999972953,0.001423911,430.31999999972953,3.963446e-05,430.31999999972953,3.6095e-05
430.3349999997295,0.0003429108,430.3349999997295,0.001428473,430.3349999997295,4.042136e-05,430.3349999997295,3.596677e-05
430.3499999997295,0.0003616845,430.3499999997295,0.001300243,430.3499999997295,4.133728e-05,430.3499999997295,3.582707e-05
430.3649999997295,0.0003640771,430.3649999997295,0.001258708,430.3649999997295,3.942493e-05,430.3649999997295,3.588796e-05
430.3799999997295,0.0003654747,430.3799999997295,0.001348501,430.3799999997295,3.970335e-05,430.3799999997295,3.570181e-05
430.39499999972946,0.0003718435,430.39499999972946,0.001332095,430.39499999972946,3.910455e-05,430.39499999972946,3.565641e-05
430.40999999972945,0.0003738627,430.40999999972945,0.001313192,430.40999999972945,3.795954e-05,430.40999999972945,3.538197e-05
430.42499999972944,0.0003720424,430.42499999972944,0.001309425,430.42499999972944,3.615817e-05,430.42499999972944,3.545753e-05
430.4399999997294,0.0003738469,430.4399999997294,0.001313186,430.4399999997294,3.605908e-05,430.4399999997294,3.503428e-05
430.4549999997294,0.0003756252,430.4549999997294,0.001236557,430.4549999997294,3.583257e-05,430.4549999997294,2.981297e-05
430.4699999997294,0.0003765171,430.4699999997294,0.001271931,430.4699999997294,3.379027e-05,430.4699999997294,2.544287e-05
430.4849999997294,0.0003764956,430.4849999997294,0.001315135,430.4849999997294,2.747144e-05,430.4849999997294,2.124603e-05
430.49999999972937,0.000376353,430.49999999972937,0.001293357,430.49999999972937,2.615326e-05,430.49999999972937,2.326211e-05
430.51499999972935,0.0003770461,430.51499999972935,0.001340126,430.51499999972935,2.675919e-05,430.51499999972935,2.907719e-05
430.52999999972934,0.0003783874,430.52999999972934,0.001289785,430.52999999972934,3.058497e-05,430.52999999972934,3.229299e-05
430.5449999997293,0.0003788331,430.5449999997293,0.001327413,430.5449999997293,3.162923e-05,430.5449999997293,3.202623e-05
430.5599999997293,0.0003156557,430.5599999997293,0.001273139,430.5599999997293,3.336656e-05,430.5599999997293,3.149846e-05
430.5749999997293,0.0002397175,430.5749999997293,0.001275883,430.5749999997293,3.23849e-05,430.5749999997293,3.227685e-05
430.5899999997293,0.0001470287,430.5899999997293,0.001317837,430.5899999997293,3.040528e-05,430.5899999997293,3.228208e-05
430.6049999997293,0.0001342479,430.6049999997293,0.001475286,430.6049999997293,3.047562e-05,430.6049999997293,3.264182e-05
430.61999999972926,0.0002601274,430.61999999972926,0.001479114,430.61999999972926,3.037283e-05,430.61999999972926,3.317391e-05
430.63499999972925,0.0002847692,430.63499999972925,0.001532802,430.63499999972925,3.085551e-05,430.63499999972925,3.235226e-05
430.64999999972923,0.0002832455,430.64999999972923,0.001711036,430.64999999972923,3.115311e-05,430.64999999972923,3.317391e-05
430.6649999997292,0.0002836331,430.6649999997292,0.001709223,430.6649999997292,3.240229e-05,430.6649999997292,3.302239e-05
430.6799999997292,0.0002858091,430.6799999997292,0.001707779,430.6799999997292,3.260944e-05,430.6799999997292,3.312929e-05
430.6949999997292,0.0002837699,430.6949999997292,0.001709273,430.6949999997292,3.282429e-05,430.6949999997292,3.323754e-05
430.7099999997292,0.0002806738,430.7099999997292,0.001756572,430.7099999997292,3.299465e-05,430.7099999997292,3.387811e-05
430.72499999972916,0.0002809352,430.72499999972916,0.001732621,430.72499999972916,3.323288e-05,430.72499999972916,3.376649e-05
430.73999999972915,0.0002815823,430.73999999972915,0.001708564,430.73999999972915,3.304712e-05,430.73999999972915,3.266167e-05
430.75499999972914,0.0002814709,430.75499999972914,0.001752348,430.75499999972914,3.291258e-05,430.75499999972914,3.090706e-05
430.7699999997291,0.0002803464,430.7699999997291,0.00172786,430.7699999997291,3.134739e-05,430.7699999997291,2.289159e-05
430.7849999997291,0.0002791006,430.7849999997291,0.001718267,430.7849999997291,2.829791e-05,430.7849999997291,2.109432e-05
430.7999999997291,0.0002788846,430.7999999997291,0.001707491,430.7999999997291,2.721281e-05,430.7999999997291,2.186426e-05
430.8149999997291,0.0002784879,430.8149999997291,0.001759207,430.8149999997291,2.406106e-05,430.8149999997291,2.202793e-05
430.82999999972907,0.0002782409,430.82999999972907,0.00172776,430.82999999972907,2.377838e-05,430.82999999972907,2.15763e-05
430.84499999972905,0.0002782219,430.84499999972905,0.001682642,430.84499999972905,2.339134e-05,430.84499999972905,2.126127e-05
430.85999999972904,0.0001951488,430.85999999972904,0.001519708,430.85999999972904,2.262543e-05,430.85999999972904,2.133535e-05
430.874999999729,0.0001323766,430.874999999729,0.001483008,430.874999999729,2.101336e-05,430.874999999729,2.107761e-05
430.889999999729,8.85172e-05,430.889999999729,0.001453506,430.889999999729,1.977418e-05,430.889999999729,2.112301e-05
430.904999999729,7.370111e-05,430.904999999729,0.001328482,430.904999999729,1.949943e-05,430.904999999729,2.228289e-05
430.919999999729,6.090176e-05,430.919999999729,0.001278432,430.919999999729,1.682516e-05,430.919999999729,2.267705e-05
430.934999999729,5.125342e-05,430.934999999729,0.001279925,430.934999999729,2.027505e-05,430.934999999729,2.312668e-05
430.94999999972896,5.122263e-05,430.94999999972896,0.001276955,430.94999999972896,2.30131e-05,430.94999999972896,2.830239e-05
430.96499999972895,5.009871e-05,430.96499999972895,0.001198336,430.96499999972895,2.653399e-05,430.96499999972895,3.114044e-05
430.97999999972893,4.675528e-05,430.97999999972893,0.001214247,430.97999999972893,3.287489e-05,430.97999999972893,3.382568e-05
430.9949999997289,4.153311e-05,430.9949999997289,0.001136277,430.9949999997289,3.320829e-05,430.9949999997289,3.396698e-05
431.0099999997289,4.108057e-05,431.0099999997289,0.0009880563,431.0099999997289,3.318792e-05,431.0099999997289,3.410687e-05
431.0249999997289,4.084535e-05,431.0249999997289,0.001260475,431.0249999997289,3.286032e-05,431.0249999997289,3.399517e-05
431.0399999997289,4.241773e-05,431.0399999997289,0.001329311,431.0399999997289,3.270176e-05,431.0399999997289,3.329471e-05
431.05499999972886,4.568368e-05,431.05499999972886,0.001333858,431.05499999972886,3.385981e-05,431.05499999972886,3.281657e-05
431.06999999972885,5.954486e-05,431.06999999972885,0.001384601,431.06999999972885,3.429633e-05,431.06999999972885,3.295364e-05
431.08499999972884,7.431647e-05,431.08499999972884,0.001361015,431.08499999972884,3.587461e-05,431.08499999972884,3.287361e-05
431.0999999997288,7.508323e-05,431.0999999997288,0.0013228,431.0999999997288,3.666344e-05,431.0999999997288,3.257616e-05
431.1149999997288,8.154882e-05,431.1149999997288,0.00133301,431.1149999997288,3.669071e-05,431.1149999997288,3.226331e-05
431.1299999997288,8.436674e-05,431.1299999997288,0.001326932,431.1299999997288,3.68103e-05,431.1299999997288,3.249086e-05
431.1449999997288,8.384217e-05,431.1449999997288,0.00134873,431.1449999997288,3.697677e-05,431.1449999997288,3.254155e-05
431.15999999972877,8.349618e-05,431.15999999972877,0.001372426,431.15999999972877,3.714629e-05,431.15999999972877,3.218463e-05
431.17499999972875,8.392227e-05,431.17499999972875,0.001374018,431.17499999972875,3.706087e-05,431.17499999972875,3.141248e-05
431.18999999972874,8.722542e-05,431.18999999972874,0.001390208,431.18999999972874,3.526752e-05,431.18999999972874,3.129027e-05
431.2049999997287,8.924073e-05,431.2049999997287,0.001456177,431.2049999997287,3.158199e-05,431.2049999997287,2.310779e-05
431.2199999997287,8.877035e-05,431.2199999997287,0.001426275,431.2199999997287,2.394486e-05,431.2199999997287,2.119757e-05
431.2349999997287,8.82453e-05,431.2349999997287,0.001430119,431.2349999997287,2.34671e-05,431.2349999997287,1.914585e-05
431.2499999997287,8.830163e-05,431.2499999997287,0.001444663,431.2499999997287,2.29978e-05,431.2499999997287,1.90211e-05
431.2649999997287,8.872749e-05,431.2649999997287,0.001367934,431.2649999997287,2.288789e-05,431.2649999997287,1.828555e-05
431.27999999972866,8.911641e-05,431.27999999972866,0.001154091,431.27999999972866,2.288851e-05,431.27999999972866,1.799513e-05
431.29499999972865,8.740096e-05,431.29499999972865,0.001091419,431.29499999972865,2.23517e-05,431.29499999972865,1.93413e-05
431.30999999972863,8.427837e-05,431.30999999972863,0.001056125,431.30999999972863,2.001563e-05,431.30999999972863,2.112168e-05
431.3249999997286,6.395409e-05,431.3249999997286,0.001014613,431.3249999997286,1.933329e-05,431.3249999997286,2.086198e-05
431.3399999997286,5.903595e-05,431.3399999997286,0.00101123,431.3399999997286,1.49819e-05,431.3399999997286,2.075366e-05
431.3549999997286,5.51172e-05,431.3549999997286,0.001010002,431.3549999997286,1.393048e-05,431.3549999997286,2.248178e-05
431.3699999997286,4.837175e-05,431.3699999997286,0.0009850424,431.3699999997286,1.399605e-05,431.3699999997286,2.416038e-05
431.38499999972856,4.208132e-05,431.38499999972856,0.001054347,431.38499999972856,1.364853e-05,431.38499999972856,2.473998e-05
431.39999999972855,4.039347e-05,431.39999999972855,0.000970657,431.39999999972855,1.331522e-05,431.39999999972855,2.376534e-05
431.41499999972854,3.965365e-05,431.41499999972854,0.000955556,431.41499999972854,1.35418e-05,431.41499999972854,2.357311e-05
431.4299999997285,4.45193e-05,431.4299999997285,0.0009718692,431.4299999997285,1.38035e-05,431.4299999997285,2.380325e-05
431.4449999997285,4.036661e-05,431.4449999997285,0.0009537605,431.4449999997285,1.39153e-05,431.4449999997285,2.562108e-05
431.4599999997285,3.920205e-05,431.4599999997285,0.0009178765,431.4599999997285,1.463276e-05,431.4599999997285,2.626881e-05
431.4749999997285,4.30804e-05,431.4749999997285,0.0009362164,431.4749999997285,1.535798e-05,431.4749999997285,2.951045e-05
431.48999999972847,4.352153e-05,431.48999999972847,0.0009714248,431.48999999972847,1.811761e-05,431.48999999972847,2.967183e-05
431.50499999972845,4.369016e-05,431.50499999972845,0.001221093,431.50499999972845,2.480594e-05,431.50499999972845,3.277662e-05
431.51999999972844,4.268819e-05,431.51999999972844,0.001633531,431.51999999972844,2.491304e-05,431.51999999972844,3.722471e-05
431.5349999997284,4.292972e-05,431.5349999997284,0.001780317,431.5349999997284,2.660238e-05,431.5349999997284,3.76046e-05
431.5499999997284,4.290773e-05,431.5499999997284,0.001835587,431.5499999997284,2.831184e-05,431.5499999997284,3.557889e-05
431.5649999997284,4.327061e-05,431.5649999997284,0.002265127,431.5649999997284,2.983423e-05,431.5649999997284,3.635825e-05
431.5799999997284,4.325596e-05,431.5799999997284,0.002475083,431.5799999997284,2.999715e-05,431.5799999997284,3.803073e-05
431.5949999997284,4.36921e-05,431.5949999997284,0.002804694,431.5949999997284,3.007266e-05,431.5949999997284,3.826447e-05
431.60999999972836,4.463023e-05,431.60999999972836,0.002874067,431.60999999972836,3.063743e-05,431.60999999972836,3.705137e-05
431.62499999972835,4.499455e-05,431.62499999972835,0.002951868,431.62499999972835,3.120778e-05,431.62499999972835,3.681298e-05
431.63999999972833,4.554502e-05,431.63999999972833,0.002969033,431.63999999972833,3.172129e-05,431.63999999972833,3.663922e-05
431.6549999997283,4.390758e-05,431.6549999997283,0.003012889,431.6549999997283,3.209522e-05,431.6549999997283,3.671949e-05
431.6699999997283,4.330803e-05,431.6699999997283,0.003018584,431.6699999997283,3.143221e-05,431.6699999997283,3.662461e-05
431.6849999997283,3.407216e-05,431.6849999997283,0.003017207,431.6849999997283,3.169508e-05,431.6849999997283,3.620372e-05
431.6999999997283,3.209916e-05,431.6999999997283,0.003011105,431.6999999997283,3.363148e-05,431.6999999997283,3.526313e-05
431.71499999972826,2.819917e-05,431.71499999972826,0.003006326,431.71499999972826,3.322101e-05,431.71499999972826,3.357446e-05
431.72999999972825,2.357072e-05,431.72999999972825,0.002998703,431.72999999972825,3.295193e-05,431.72999999972825,3.306886e-05
431.74499999972824,2.535857e-05,431.74499999972824,0.002949689,431.74499999972824,3.112053e-05,431.74499999972824,3.313992e-05
431.7599999997282,2.762229e-05,431.7599999997282,0.002849077,431.7599999997282,2.749707e-05,431.7599999997282,3.080571e-05
431.7749999997282,2.725212e-05,431.7749999997282,0.002520605,431.7749999997282,2.753853e-05,431.7749999997282,2.70758e-05
431.7899999997282,2.802932e-05,431.7899999997282,0.002484313,431.7899999997282,2.629989e-05,431.7899999997282,2.725987e-05
431.8049999997282,2.885006e-05,431.8049999997282,0.002361987,431.8049999997282,2.471947e-05,431.8049999997282,2.733985e-05
431.81999999972817,2.911253e-05,431.81999999972817,0.002014917,431.81999999972817,2.435839e-05,431.81999999972817,2.599009e-05
431.83499999972815,2.942154e-05,431.83499999972815,0.001671961,431.83499999972815,2.477866e-05,431.83499999972815,2.451806e-05
431.84999999972814,2.832975e-05,431.84999999972814,0.001234856,431.84999999972814,2.51841e-05,431.84999999972814,2.575707e-05
431.8649999997281,2.839084e-05,431.8649999997281,0.001033484,431.8649999997281,2.474681e-05,431.8649999997281,2.645583e-05
431.8799999997281,2.73759e-05,431.8799999997281,0.0007208526,431.8799999997281,2.41493e-05,431.8799999997281,2.487342e-05
431.8949999997281,2.724799e-05,431.8949999997281,0.000638064,431.8949999997281,2.317353e-05,431.8949999997281,2.48048e-05
431.9099999997281,2.75283e-05,431.9099999997281,0.0004850504,431.9099999997281,2.358506e-05,431.9099999997281,2.593529e-05
431.9249999997281,2.794677e-05,431.9249999997281,0.000436819,431.9249999997281,2.496951e-05,431.9249999997281,2.622695e-05
431.93999999972806,2.827052e-05,431.93999999972806,0.0005173638,431.93999999972806,2.428657e-05,431.93999999972806,2.620169e-05
431.95499999972805,2.844339e-05,431.95499999972805,0.0005842125,431.95499999972805,2.171622e-05,431.95499999972805,2.620975e-05
431.96999999972803,2.783768e-05,431.96999999972803,0.0005878747,431.96999999972803,2.198248e-05,431.96999999972803,2.361729e-05
431.984999999728,2.752165e-05,431.984999999728,0.0006466984,431.984999999728,2.04893e-05,431.984999999728,2.344127e-05
431.999999999728,2.559467e-05,431.999999999728,0.0007032927,431.999999999728,1.945314e-05,431.999999999728,2.22291e-05
432.014999999728,2.433293e-05,432.014999999728,0.001031067,432.014999999728,1.974709e-05,432.014999999728,2.164279e-05
432.029999999728,2.377482e-05,432.029999999728,0.001443985,432.029999999728,1.91105e-05,432.029999999728,2.163172e-05
432.04499999972796,2.244227e-05,432.04499999972796,0.001476234,432.04499999972796,1.879462e-05,432.04499999972796,2.209689e-05
432.05999999972795,2.068908e-05,432.05999999972795,0.001590367,432.05999999972795,1.876461e-05,432.05999999972795,2.242029e-05
432.07499999972794,2.064819e-05,432.07499999972794,0.00164975,432.07499999972794,1.682013e-05,432.07499999972794,2.36465e-05
432.0899999997279,1.928149e-05,432.0899999997279,0.001685561,432.0899999997279,1.612227e-05,432.0899999997279,2.324212e-05
432.1049999997279,1.9081e-05,432.1049999997279,0.001740236,432.1049999997279,1.576711e-05,432.1049999997279,2.544231e-05
432.1199999997279,1.876687e-05,432.1199999997279,0.001824146,432.1199999997279,1.541474e-05,432.1199999997279,2.588364e-05
432.1349999997279,1.724523e-05,432.1349999997279,0.001911116,432.1349999997279,1.542661e-05,432.1349999997279,2.594723e-05
432.14999999972787,1.703732e-05,432.14999999972787,0.001892696,432.14999999972787,1.675048e-05,432.14999999972787,2.64851e-05
432.16499999972785,1.610741e-05,432.16499999972785,0.001904843,432.16499999972785,1.55494e-05,432.16499999972785,2.565349e-05
432.17999999972784,1.588194e-05,432.17999999972784,0.001930384,432.17999999972784,1.458358e-05,432.17999999972784,2.562657e-05
432.1949999997278,1.549222e-05,432.1949999997278,0.001910423,432.1949999997278,1.45942e-05,432.1949999997278,2.539132e-05
432.2099999997278,1.584998e-05,432.2099999997278,0.001921115,432.2099999997278,1.475547e-05,432.2099999997278,2.534857e-05
432.2249999997278,1.591119e-05,432.2249999997278,0.001937876,432.2249999997278,1.481549e-05,432.2249999997278,2.612146e-05
432.2399999997278,1.706293e-05,432.2399999997278,0.001919303,432.2399999997278,1.473923e-05,432.2399999997278,2.677288e-05
432.2549999997278,1.641408e-05,432.2549999997278,0.001926843,432.2549999997278,1.441648e-05,432.2549999997278,2.65308e-05
432.26999999972776,1.526875e-05,432.26999999972776,0.001660757,432.26999999972776,1.35366e-05,432.26999999972776,2.601392e-05
432.28499999972775,1.508123e-05,432.28499999972775,0.001542798,432.28499999972775,1.332368e-05,432.28499999972775,2.570615e-05
432.29999999972773,1.95924e-05,432.29999999972773,0.001526449,432.29999999972773,1.365781e-05,432.29999999972773,2.672179e-05
432.3149999997277,1.98183e-05,432.3149999997277,0.001411433,432.3149999997277,1.38412e-05,432.3149999997277,2.640893e-05
432.3299999997277,2.103614e-05,432.3299999997277,0.001293179,432.3299999997277,1.400511e-05,432.3299999997277,2.451691e-05
432.3449999997277,2.122414e-05,432.3449999997277,0.001293214,432.3449999997277,1.419294e-05,432.3449999997277,2.321908e-05
432.3599999997277,2.147552e-05,432.3599999997277,0.001189656,432.3599999997277,1.508497e-05,432.3599999997277,2.104484e-05
432.37499999972766,2.5465e-05,432.37499999972766,0.001069426,432.37499999972766,1.526413e-05,432.37499999972766,2.07896e-05
432.38999999972765,2.641267e-05,432.38999999972765,0.0009997172,432.38999999972765,3.405975e-05,432.38999999972765,2.083022e-05
432.40499999972764,2.716514e-05,432.40499999972764,0.0009683909,432.40499999972764,4.330055e-05,432.40499999972764,2.025906e-05
432.4199999997276,2.699557e-05,432.4199999997276,0.0009523524,432.4199999997276,4.981476e-05,432.4199999997276,2.007957e-05
432.4349999997276,2.785792e-05,432.4349999997276,0.0009156144,432.4349999997276,5.105625e-05,432.4349999997276,2.096705e-05
432.4499999997276,2.764676e-05,432.4499999997276,0.0009067646,432.4499999997276,5.152206e-05,432.4499999997276,2.103815e-05
432.4649999997276,2.770428e-05,432.4649999997276,0.0008721311,432.4649999997276,5.426076e-05,432.4649999997276,2.087143e-05
432.47999999972757,2.924626e-05,432.47999999972757,0.0008456117,432.47999999972757,5.546421e-05,432.47999999972757,2.029796e-05
432.49499999972755,2.90578e-05,432.49499999972755,0.0007451938,432.49499999972755,5.557483e-05,432.49499999972755,1.946183e-05
432.50999999972754,2.911156e-05,432.50999999972754,0.0006908802,432.50999999972754,5.637786e-05,432.50999999972754,1.961468e-05
432.5249999997275,2.911108e-05,432.5249999997275,0.0006632271,432.5249999997275,5.794641e-05,432.5249999997275,1.969566e-05
432.5399999997275,2.910624e-05,432.5399999997275,0.0006545737,432.5399999997275,6.726442e-05,432.5399999997275,1.806077e-05
432.5549999997275,2.635714e-05,432.5549999997275,0.0006656494,432.5549999997275,8.964186e-05,432.5549999997275,1.721662e-05
432.5699999997275,2.665053e-05,432.5699999997275,0.0006729978,432.5699999997275,9.925044e-05,432.5699999997275,1.708521e-05
432.5849999997275,2.68039e-05,432.5849999997275,0.0006703386,432.5849999997275,0.0001033575,432.5849999997275,1.651333e-05
432.59999999972746,2.687371e-05,432.59999999972746,0.0006761049,432.59999999972746,0.0001035838,432.59999999972746,1.646463e-05
432.61499999972744,2.602367e-05,432.61499999972744,0.0006666584,432.61499999972744,0.0001059081,432.61499999972744,1.593242e-05
432.62999999972743,2.332199e-05,432.62999999972743,0.0006701463,432.62999999972743,0.0001041415,432.62999999972743,1.611265e-05
432.6449999997274,2.243034e-05,432.6449999997274,0.0007143195,432.6449999997274,0.0001009595,432.6449999997274,1.628051e-05
432.6599999997274,2.32966e-05,432.6599999997274,0.0007596686,432.6599999997274,9.716122e-05,432.6599999997274,1.653038e-05
432.6749999997274,2.489154e-05,432.6749999997274,0.0007619987,432.6749999997274,9.452744e-05,432.6749999997274,1.673954e-05
432.6899999997274,2.54002e-05,432.6899999997274,0.0007641706,432.6899999997274,9.426435e-05,432.6899999997274,1.65193e-05
432.70499999972736,2.551364e-05,432.70499999972736,0.0008036259,432.70499999972736,9.411195e-05,432.70499999972736,1.671344e-05
432.71999999972735,2.521875e-05,432.71999999972735,0.0007975428,432.71999999972735,9.269382e-05,432.71999999972735,1.648857e-05
432.73499999972734,2.407803e-05,432.73499999972734,0.0008009958,432.73499999972734,9.246863e-05,432.73499999972734,1.572865e-05
432.7499999997273,2.368935e-05,432.7499999997273,0.0008006937,432.7499999997273,9.268835e-05,432.7499999997273,1.590853e-05
432.7649999997273,2.424768e-05,432.7649999997273,0.000835816,432.7649999997273,9.265901e-05,432.7649999997273,1.620071e-05
432.7799999997273,2.452782e-05,432.7799999997273,0.0008475854,432.7799999997273,8.994104e-05,432.7799999997273,1.715186e-05
432.7949999997273,2.501235e-05,432.7949999997273,0.0008505076,432.7949999997273,6.881225e-05,432.7949999997273,1.750709e-05
432.80999999972727,2.560843e-05,432.80999999972727,0.0008422368,432.80999999972727,5.722527e-05,432.80999999972727,1.821377e-05
432.82499999972725,2.453586e-05,432.82499999972725,0.0008546579,432.82499999972725,3.852058e-05,432.82499999972725,1.831788e-05
432.83999999972724,2.388655e-05,432.83999999972724,0.000858204,432.83999999972724,3.303434e-05,432.83999999972724,1.977133e-05
432.8549999997272,2.542403e-05,432.8549999997272,0.0008714176,432.8549999997272,3.09262e-05,432.8549999997272,1.98183e-05
432.8699999997272,2.522434e-05,432.8699999997272,0.0008706531,432.8699999997272,2.432714e-05,432.8699999997272,1.892756e-05
432.8849999997272,2.522657e-05,432.8849999997272,0.0008701796,432.8849999997272,2.445766e-05,432.8849999997272,1.879912e-05
432.8999999997272,2.51606e-05,432.8999999997272,0.0008170282,432.8999999997272,2.290081e-05,432.8999999997272,1.882383e-05
432.9149999997272,2.293401e-05,432.9149999997272,0.0008018719,432.9149999997272,2.281947e-05,432.9149999997272,1.902036e-05
432.92999999972716,2.274032e-05,432.92999999972716,0.0008058184,432.92999999972716,2.298125e-05,432.92999999972716,1.938423e-05
432.94499999972714,2.300943e-05,432.94499999972714,0.0008049528,432.94499999972714,2.287004e-05,432.94499999972714,2.023402e-05
432.95999999972713,2.309986e-05,432.95999999972713,0.0007845109,432.95999999972713,2.314677e-05,432.95999999972713,2.023262e-05
432.9749999997271,2.324333e-05,432.9749999997271,0.0007751981,432.9749999997271,2.338171e-05,432.9749999997271,2.067886e-05
432.9899999997271,2.315711e-05,432.9899999997271,0.0007586657,432.9899999997271,2.230185e-05,432.9899999997271,2.170843e-05
433.0049999997271,2.350848e-05,433.0049999997271,0.0007369395,433.0049999997271,2.104752e-05,433.0049999997271,2.529015e-05
433.0199999997271,2.317292e-05,433.0199999997271,0.0007563853,433.0199999997271,2.033402e-05,433.0199999997271,2.638599e-05
433.03499999972706,2.28423e-05,433.03499999972706,0.0007901997,433.03499999972706,1.930558e-05,433.03499999972706,2.803786e-05
433.04999999972705,2.692346e-05,433.04999999972705,0.0009914329,433.04999999972705,1.875786e-05,433.04999999972705,2.78149e-05
433.06499999972704,3.281957e-05,433.06499999972704,0.001074897,433.06499999972704,1.849239e-05,433.06499999972704,2.832776e-05
433.079999999727,3.784172e-05,433.079999999727,0.001210583,433.079999999727,1.761937e-05,433.079999999727,2.868602e-05
433.094999999727,3.862283e-05,433.094999999727,0.001261464,433.094999999727,1.719288e-05,433.094999999727,3.04488e-05
433.109999999727,3.827147e-05,433.109999999727,0.001798164,433.109999999727,1.816498e-05,433.109999999727,3.276845e-05
433.124999999727,4.207027e-05,433.124999999727,0.001845077,433.124999999727,1.75569e-05,433.124999999727,3.687415e-05
433.13999999972697,4.259734e-05,433.13999999972697,0.001880503,433.13999999972697,1.774207e-05,433.13999999972697,4.281768e-05
433.15499999972695,4.294547e-05,433.15499999972695,0.002056646,433.15499999972695,1.802094e-05,433.15499999972695,5.101954e-05
433.16999999972694,4.326605e-05,433.16999999972694,0.002408782,433.16999999972694,2.101939e-05,433.16999999972694,5.308231e-05
433.1849999997269,4.679594e-05,433.1849999997269,0.002602615,433.1849999997269,6.783706e-05,433.1849999997269,5.581057e-05
433.1999999997269,4.717758e-05,433.1999999997269,0.002636633,433.1999999997269,0.0001399393,433.1999999997269,5.880739e-05
433.2149999997269,4.794205e-05,433.2149999997269,0.002683066,433.2149999997269,0.0001493229,433.2149999997269,0.0001061034
433.2299999997269,4.996441e-05,433.2299999997269,0.002814239,433.2299999997269,0.000177354,433.2299999997269,0.0001116763
433.2449999997269,5.2203e-05,433.2449999997269,0.003129817,433.2449999997269,0.000183668,433.2449999997269,0.0002057965
433.25999999972686,5.449184e-05,433.25999999972686,0.00338254,433.25999999972686,0.0002459889,433.25999999972686,0.0002234844
433.27499999972684,5.858107e-05,433.27499999972684,0.003586116,433.27499999972684,0.0002816926,433.27499999972684,0.0002328975
433.28999999972683,6.148004e-05,433.28999999972683,0.003668486,433.28999999972683,0.0002846541,433.28999999972683,0.0002425747
433.3049999997268,6.041197e-05,433.3049999997268,0.003747341,433.3049999997268,0.0002867513,433.3049999997268,0.0002459481
433.3199999997268,5.842191e-05,433.3199999997268,0.00405963,433.3199999997268,0.0002929643,433.3199999997268,0.0002466896
433.3349999997268,6.552229e-05,433.3349999997268,0.004146405,433.3349999997268,0.000316516,433.3349999997268,0.0002468224
433.3499999997268,6.598888e-05,433.3499999997268,0.004200165,433.3499999997268,0.0003213863,433.3499999997268,0.0002470284
433.36499999972676,6.535395e-05,433.36499999972676,0.004237432,433.36499999972676,0.0003214566,433.36499999972676,0.0002479934
433.37999999972675,6.355571e-05,433.37999999972675,0.004293464,433.37999999972675,0.000321425,433.37999999972675,0.0002469178
433.39499999972674,6.358739e-05,433.39499999972674,0.004414948,433.39499999972674,0.0003214439,433.39499999972674,0.0002465827
433.4099999997267,6.41127e-05,433.4099999997267,0.004490265,433.4099999997267,0.0003219049,433.4099999997267,0.0002453534
433.4249999997267,6.634824e-05,433.4249999997267,0.004528812,433.4249999997267,0.0003223309,433.4249999997267,0.0002449804
433.4399999997267,6.344857e-05,433.4399999997267,0.004760132,433.4399999997267,0.0003078705,433.4399999997267,0.0002444863
433.4549999997267,6.320031e-05,433.4549999997267,0.004865265,433.4549999997267,0.0002800296,433.4549999997267,0.0002411721
433.46999999972667,6.33259e-05,433.46999999972667,0.004964344,433.46999999972667,0.0002783447,433.46999999972667,0.0002236493
433.48499999972665,6.171285e-05,433.48499999972665,0.004996288,433.48499999972665,0.0002657346,433.48499999972665,0.0002150442
433.49999999972664,5.96354e-05,433.49999999972664,0.004996289,433.49999999972664,0.0002609546,433.49999999972664,0.0001146067
433.5149999997266,5.927978e-05,433.5149999997266,0.004972347,433.5149999997266,0.0001769469,433.5149999997266,0.0001010787
433.5299999997266,5.44546e-05,433.5299999997266,0.004896337,433.5299999997266,0.0001399987,433.5299999997266,8.143076e-05
433.5449999997266,5.148678e-05,433.5449999997266,0.004841852,433.5449999997266,0.0001378822,433.5449999997266,5.745571e-05
433.5599999997266,5.080705e-05,433.5599999997266,0.004870015,433.5599999997266,0.0001373601,433.5599999997266,4.479783e-05
433.5749999997266,4.876418e-05,433.5749999997266,0.004870015,433.5749999997266,0.0001193374,433.5749999997266,4.148356e-05
433.58999999972656,4.5089e-05,433.58999999972656,0.004988022,433.58999999972656,5.601917e-05,433.58999999972656,4.015773e-05
433.60499999972654,4.572467e-05,433.60499999972654,0.005034002,433.60499999972654,4.154464e-05,433.60499999972654,3.90977e-05
433.61999999972653,4.857228e-05,433.61999999972653,0.004983216,433.61999999972653,4.024813e-05,433.61999999972653,3.575662e-05
433.6349999997265,4.873384e-05,433.6349999997265,0.004892308,433.6349999997265,4.279629e-05,433.6349999997265,3.549446e-05
433.6499999997265,5.039392e-05,433.6499999997265,0.004845353,433.6499999997265,4.348202e-05,433.6499999997265,3.517553e-05
433.6649999997265,4.983229e-05,433.6649999997265,0.004699943,433.6649999997265,4.089498e-05,433.6649999997265,3.512824e-05
433.6799999997265,4.750489e-05,433.6799999997265,0.004616683,433.6799999997265,3.485045e-05,433.6799999997265,3.713795e-05
433.69499999972646,4.861025e-05,433.69499999972646,0.004501763,433.69499999972646,3.755437e-05,433.69499999972646,3.489165e-05
433.70999999972645,4.909669e-05,433.70999999972645,0.004509297,433.70999999972645,4.366856e-05,433.70999999972645,3.519675e-05
433.72499999972644,4.797465e-05,433.72499999972644,0.004509297,433.72499999972644,4.610907e-05,433.72499999972644,3.450353e-05
433.7399999997264,4.824199e-05,433.7399999997264,0.004448884,433.7399999997264,5.579769e-05,433.7399999997264,3.571128e-05
433.7549999997264,4.834262e-05,433.7549999997264,0.004402251,433.7549999997264,6.732722e-05,433.7549999997264,3.779367e-05
433.7699999997264,4.807497e-05,433.7699999997264,0.004473739,433.7699999997264,6.935749e-05,433.7699999997264,3.643141e-05
433.7849999997264,4.774566e-05,433.7849999997264,0.004549811,433.7849999997264,7.147757e-05,433.7849999997264,3.664538e-05
433.79999999972637,4.798551e-05,433.79999999972637,0.004546623,433.79999999972637,7.371525e-05,433.79999999972637,3.748416e-05
433.81499999972635,4.847386e-05,433.81499999972635,0.00442331,433.81499999972635,7.430586e-05,433.81499999972635,3.799515e-05
433.82999999972634,4.530157e-05,433.82999999972634,0.004275316,433.82999999972634,7.416563e-05,433.82999999972634,3.90328e-05
433.8449999997263,4.495446e-05,433.8449999997263,0.004096704,433.8449999997263,7.367243e-05,433.8449999997263,3.850924e-05
433.8599999997263,4.902204e-05,433.8599999997263,0.003882227,433.8599999997263,7.365025e-05,433.8599999997263,3.652023e-05
433.8749999997263,4.631118e-05,433.8749999997263,0.003696927,433.8749999997263,7.353751e-05,433.8749999997263,3.668303e-05
433.8899999997263,4.655177e-05,433.8899999997263,0.003666499,433.8899999997263,7.224092e-05,433.8899999997263,3.769402e-05
433.9049999997263,4.526736e-05,433.9049999997263,0.003679358,433.9049999997263,7.137699e-05,433.9049999997263,3.751308e-05
433.91999999972626,4.46397e-05,433.91999999972626,0.003666151,433.91999999972626,7.062026e-05,433.91999999972626,3.629233e-05
433.93499999972624,4.657869e-05,433.93499999972624,0.003609897,433.93499999972624,7.067728e-05,433.93499999972624,3.453128e-05
433.94999999972623,4.71737e-05,433.94999999972623,0.003449457,433.94999999972623,6.763075e-05,433.94999999972623,3.468271e-05
433.9649999997262,4.668261e-05,433.9649999997262,0.003144084,433.9649999997262,6.429195e-05,433.9649999997262,3.562242e-05
433.9799999997262,4.624452e-05,433.9799999997262,0.002853977,433.9799999997262,6.338771e-05,433.9799999997262,3.660499e-05
433.9949999997262,4.549581e-05,433.9949999997262,0.00276064,433.9949999997262,5.518131e-05,433.9949999997262,3.472167e-05
434.0099999997262,4.526362e-05,434.0099999997262,0.002722687,434.0099999997262,4.218195e-05,434.0099999997262,3.461033e-05
434.02499999972616,4.505369e-05,434.02499999972616,0.002434946,434.02499999972616,4.083534e-05,434.02499999972616,3.555751e-05
434.03999999972615,4.546701e-05,434.03999999972615,0.002125393,434.03999999972615,3.79996e-05,434.03999999972615,3.626087e-05
434.05499999972614,4.485063e-05,434.05499999972614,0.002377362,434.05499999972614,3.970016e-05,434.05499999972614,3.569747e-05
434.0699999997261,4.285418e-05,434.0699999997261,0.002345249,434.0699999997261,3.981885e-05,434.0699999997261,3.579796e-05
434.0849999997261,4.017878e-05,434.0849999997261,0.002329402,434.0849999997261,4.09865e-05,434.0849999997261,3.458753e-05
434.0999999997261,3.667688e-05,434.0999999997261,0.002333578,434.0999999997261,4.278609e-05,434.0999999997261,3.419596e-05
434.1149999997261,3.280154e-05,434.1149999997261,0.00236401,434.1149999997261,4.202705e-05,434.1149999997261,3.409117e-05
434.12999999972607,3.477235e-05,434.12999999972607,0.00241926,434.12999999972607,4.187224e-05,434.12999999972607,3.348708e-05
434.14499999972605,3.494289e-05,434.14499999972605,0.002415951,434.14499999972605,4.191327e-05,434.14499999972605,3.201392e-05
434.15999999972604,3.520635e-05,434.15999999972604,0.002473391,434.15999999972604,4.133695e-05,434.15999999972604,3.182238e-05
434.174999999726,3.142907e-05,434.174999999726,0.002367487,434.174999999726,4.11792e-05,434.174999999726,3.166217e-05
434.189999999726,3.284231e-05,434.189999999726,0.002272648,434.189999999726,3.893524e-05,434.189999999726,3.202228e-05
434.204999999726,3.264355e-05,434.204999999726,0.002274546,434.204999999726,3.696039e-05,434.204999999726,3.207019e-05
434.219999999726,3.375272e-05,434.219999999726,0.00220956,434.219999999726,3.671872e-05,434.219999999726,3.038396e-05
434.23499999972597,3.540147e-05,434.23499999972597,0.002182021,434.23499999972597,3.327016e-05,434.23499999972597,2.999574e-05
434.24999999972596,3.579363e-05,434.24999999972596,0.002127787,434.24999999972596,3.518994e-05,434.24999999972596,2.740367e-05
434.26499999972594,3.478815e-05,434.26499999972594,0.00209289,434.26499999972594,3.528628e-05,434.26499999972594,2.706592e-05
434.27999999972593,3.425359e-05,434.27999999972593,0.002123164,434.27999999972593,3.593072e-05,434.27999999972593,2.546777e-05
434.2949999997259,3.317306e-05,434.2949999997259,0.002144499,434.2949999997259,3.192094e-05,434.2949999997259,2.296776e-05
434.3099999997259,3.359334e-05,434.3099999997259,0.002066407,434.3099999997259,2.878309e-05,434.3099999997259,2.187778e-05
434.3249999997259,3.386314e-05,434.3249999997259,0.002060237,434.3249999997259,2.754416e-05,434.3249999997259,2.150502e-05
434.3399999997259,3.323373e-05,434.3399999997259,0.002065115,434.3399999997259,2.672495e-05,434.3399999997259,2.047554e-05
434.35499999972586,3.369215e-05,434.35499999972586,0.002174394,434.35499999972586,2.548325e-05,434.35499999972586,1.888733e-05
434.36999999972585,3.35329e-05,434.36999999972585,0.002513992,434.36999999972585,2.543899e-05,434.36999999972585,1.877062e-05
434.38499999972584,3.035613e-05,434.38499999972584,0.002811037,434.38499999972584,2.794526e-05,434.38499999972584,1.890596e-05
434.3999999997258,3.124341e-05,434.3999999997258,0.002818696,434.3999999997258,2.793568e-05,434.3999999997258,1.848934e-05
434.4149999997258,3.074391e-05,434.4149999997258,0.00306478,434.4149999997258,2.816468e-05,434.4149999997258,1.855854e-05
434.4299999997258,3.121274e-05,434.4299999997258,0.003209975,434.4299999997258,3.019001e-05,434.4299999997258,1.635389e-05
434.4449999997258,2.654726e-05,434.4449999997258,0.003259454,434.4449999997258,2.988895e-05,434.4449999997258,1.535981e-05
434.45999999972577,2.650637e-05,434.45999999972577,0.003333357,434.45999999972577,3.002532e-05,434.45999999972577,1.335325e-05
434.47499999972575,2.21211e-05,434.47499999972575,0.003421181,434.47499999972575,3.181662e-05,434.47499999972575,1.370723e-05
434.48999999972574,2.367091e-05,434.48999999972574,0.003485058,434.48999999972574,3.220694e-05,434.48999999972574,1.361443e-05
434.5049999997257,3.623873e-05,434.5049999997257,0.003674069,434.5049999997257,3.225982e-05,434.5049999997257,1.540926e-05
434.5199999997257,5.373588e-05,434.5199999997257,0.003837128,434.5199999997257,3.682025e-05,434.5199999997257,1.490838e-05
434.5349999997257,5.870814e-05,434.5349999997257,0.003905495,434.5349999997257,4.289295e-05,434.5349999997257,1.479075e-05
434.5499999997257,7.719696e-05,434.5499999997257,0.004025871,434.5499999997257,4.366404e-05,434.5499999997257,1.480312e-05
434.56499999972567,8.090334e-05,434.56499999972567,0.004048376,434.56499999972567,4.327647e-05,434.56499999972567,1.477836e-05
434.57999999972566,8.149682e-05,434.57999999972566,0.004263443,434.57999999972566,4.354742e-05,434.57999999972566,1.491971e-05
434.59499999972564,8.335096e-05,434.59499999972564,0.004497292,434.59499999972564,4.303983e-05,434.59499999972564,1.627705e-05
434.60999999972563,8.490766e-05,434.60999999972563,0.004624967,434.60999999972563,4.267301e-05,434.60999999972563,1.701084e-05
434.6249999997256,8.553101e-05,434.6249999997256,0.004544643,434.6249999997256,4.258941e-05,434.6249999997256,1.756011e-05
434.6399999997256,8.544565e-05,434.6399999997256,0.004353619,434.6399999997256,4.071996e-05,434.6399999997256,1.990553e-05
434.6549999997256,8.536978e-05,434.6549999997256,0.004321547,434.6549999997256,4.198278e-05,434.6549999997256,2.646062e-05
434.6699999997256,8.567976e-05,434.6699999997256,0.004448391,434.6699999997256,4.212548e-05,434.6699999997256,2.864769e-05
434.68499999972556,8.562483e-05,434.68499999972556,0.004665414,434.68499999972556,4.068709e-05,434.68499999972556,3.05398e-05
434.69999999972555,8.584861e-05,434.69999999972555,0.00481995,434.69999999972555,4.184634e-05,434.69999999972555,3.226593e-05
434.71499999972553,8.617208e-05,434.71499999972553,0.00496051,434.71499999972553,4.423616e-05,434.71499999972553,3.247352e-05
434.7299999997255,8.601893e-05,434.7299999997255,0.005091317,434.7299999997255,4.226902e-05,434.7299999997255,3.334248e-05
434.7449999997255,8.630406e-05,434.7449999997255,0.005058688,434.7449999997255,4.309282e-05,434.7449999997255,3.584908e-05
434.7599999997255,7.441176e-05,434.7599999997255,0.004861467,434.7599999997255,4.42804e-05,434.7599999997255,3.631018e-05
434.7749999997255,6.795242e-05,434.7749999997255,0.004694673,434.7749999997255,4.049378e-05,434.7749999997255,3.655146e-05
434.78999999972547,5.842263e-05,434.78999999972547,0.004635588,434.78999999972547,3.631173e-05,434.78999999972547,3.684817e-05
434.80499999972545,4.196332e-05,434.80499999972545,0.004611445,434.80499999972545,3.825637e-05,434.80499999972545,3.934159e-05
434.81999999972544,3.691844e-05,434.81999999972544,0.004574457,434.81999999972544,4.376168e-05,434.81999999972544,4.041474e-05
434.8349999997254,3.643411e-05,434.8349999997254,0.004578113,434.8349999997254,4.720743e-05,434.8349999997254,4.093423e-05
434.8499999997254,3.281742e-05,434.8499999997254,0.004530461,434.8499999997254,5.03433e-05,434.8499999997254,4.114635e-05
434.8649999997254,2.887153e-05,434.8649999997254,0.004301905,434.8649999997254,5.49316e-05,434.8649999997254,4.402004e-05
434.8799999997254,4.456073e-05,434.8799999997254,0.004213669,434.8799999997254,5.921392e-05,434.8799999997254,4.310851e-05
434.89499999972537,5.678467e-05,434.89499999972537,0.00431665,434.89499999972537,0.000113508,434.89499999972537,4.144823e-05
434.90999999972536,0.0001266959,434.90999999972536,0.004364429,434.90999999972536,0.0001583176,434.90999999972536,3.972712e-05
434.92499999972534,0.0001413174,434.92499999972534,0.004323503,434.92499999972534,0.0001755327,434.92499999972534,3.818045e-05
434.93999999972533,0.0001536486,434.93999999972533,0.004263998,434.93999999972533,0.0001934278,434.93999999972533,3.728747e-05
434.9549999997253,0.0001586053,434.9549999997253,0.004147389,434.9549999997253,0.0002343198,434.9549999997253,3.724514e-05
434.9699999997253,0.0001601738,434.9699999997253,0.004107618,434.9699999997253,0.0002454532,434.9699999997253,3.74695e-05
434.9849999997253,0.0001603964,434.9849999997253,0.004147542,434.9849999997253,0.0002595125,434.9849999997253,3.595933e-05
434.9999999997253,0.0001602772,434.9999999997253,0.00424878,434.9999999997253,0.0002610247,434.9999999997253,3.312291e-05
435.01499999972526,0.0001601929,435.01499999972526,0.004213909,435.01499999972526,0.0002650783,435.01499999972526,3.498922e-05
435.02999999972525,0.0001601606,435.02999999972525,0.004159709,435.02999999972525,0.0002684369,435.02999999972525,3.674864e-05
435.04499999972523,0.0001600749,435.04499999972523,0.004118739,435.04499999972523,0.0002689048,435.04499999972523,3.568484e-05
435.0599999997252,0.0001599265,435.0599999997252,0.004122799,435.0599999997252,0.0002687191,435.0599999997252,3.419885e-05
435.0749999997252,0.0001640308,435.0749999997252,0.004011553,435.0749999997252,0.0002673867,435.0749999997252,3.449169e-05
435.0899999997252,0.0001659457,435.0899999997252,0.003780623,435.0899999997252,0.0002671696,435.0899999997252,3.378651e-05
435.1049999997252,0.0001711192,435.1049999997252,0.003727773,435.1049999997252,0.0002667072,435.1049999997252,3.205964e-05
435.11999999972517,0.0001806762,435.11999999972517,0.003779349,435.11999999972517,0.0002654027,435.11999999972517,3.062547e-05
435.13499999972515,0.0001816537,435.13499999972515,0.003562201,435.13499999972515,0.0002642781,435.13499999972515,3.06503e-05
435.14999999972514,0.0001756493,435.14999999972514,0.003272507,435.14999999972514,0.0002382811,435.14999999972514,2.944259e-05
435.1649999997251,0.0001329905,435.1649999997251,0.003117091,435.1649999997251,0.0002136196,435.1649999997251,2.967088e-05
435.1799999997251,0.000127374,435.1799999997251,0.003048568,435.1799999997251,0.0002055093,435.1799999997251,3.042519e-05
435.1949999997251,0.000110918,435.1949999997251,0.002735708,435.1949999997251,0.0001521147,435.1949999997251,2.937937e-05
435.2099999997251,0.0001086829,435.2099999997251,0.002602514,435.2099999997251,0.0001328406,435.2099999997251,2.807602e-05
435.22499999972507,0.0001084166,435.22499999972507,0.002334489,435.22499999972507,0.000100365,435.22499999972507,2.765899e-05
435.23999999972506,0.0001095105,435.23999999972506,0.002081183,435.23999999972506,6.850265e-05,435.23999999972506,2.767324e-05
435.25499999972504,0.0001098531,435.25499999972504,0.001818684,435.25499999972504,6.403861e-05,435.25499999972504,2.869682e-05
435.26999999972503,0.0001103554,435.26999999972503,0.001802093,435.26999999972503,4.529909e-05,435.26999999972503,2.83541e-05
435.284999999725,0.0001108815,435.284999999725,0.001737029,435.284999999725,2.852252e-05,435.284999999725,2.763708e-05
435.299999999725,0.000111044,435.299999999725,0.001768138,435.299999999725,2.701695e-05,435.299999999725,2.720401e-05
435.314999999725,0.0001112321,435.314999999725,0.001678306,435.314999999725,2.460581e-05,435.314999999725,2.612739e-05
435.329999999725,0.0001026554,435.329999999725,0.001729318,435.329999999725,2.355637e-05,435.329999999725,2.541461e-05
435.34499999972496,9.936746e-05,435.34499999972496,0.001803215,435.34499999972496,2.336845e-05,435.34499999972496,2.620599e-05
435.35999999972495,8.302007e-05,435.35999999972495,0.001635119,435.35999999972495,2.324818e-05,435.35999999972495,2.489154e-05
435.37499999972493,6.861237e-05,435.37499999972493,0.001648594,435.37499999972493,2.208669e-05,435.37499999972493,2.487569e-05
435.3899999997249,5.497697e-05,435.3899999997249,0.001648632,435.3899999997249,2.203689e-05,435.3899999997249,2.516116e-05
435.4049999997249,4.297826e-05,435.4049999997249,0.001626467,435.4049999997249,1.814636e-05,435.4049999997249,2.535079e-05
435.4199999997249,4.012475e-05,435.4199999997249,0.00164944,435.4199999997249,1.360822e-05,435.4199999997249,2.533356e-05
435.4349999997249,3.99453e-05,435.4349999997249,0.001615288,435.4349999997249,1.301129e-05,435.4349999997249,2.450312e-05
435.44999999972487,3.950488e-05,435.44999999972487,0.001808738,435.44999999972487,1.194917e-05,435.44999999972487,2.522936e-05
435.46499999972485,3.872446e-05,435.46499999972485,0.002008018,435.46499999972485,1.074366e-05,435.46499999972485,2.559577e-05
435.47999999972484,3.298868e-05,435.47999999972484,0.002403976,435.47999999972484,9.876042e-06,435.47999999972484,2.617695e-05
435.4949999997248,3.014238e-05,435.4949999997248,0.002584111,435.4949999997248,9.928676e-06,435.4949999997248,2.513987e-05
435.5099999997248,2.828696e-05,435.5099999997248,0.002729884,435.5099999997248,1.001063e-05,435.5099999997248,2.50658e-05
435.5249999997248,2.645104e-05,435.5249999997248,0.00282965,435.5249999997248,9.457824e-06,435.5249999997248,2.234981e-05
435.5399999997248,2.552302e-05,435.5399999997248,0.003118986,435.5399999997248,1.015592e-05,435.5399999997248,2.219104e-05
435.55499999972477,2.581879e-05,435.55499999972477,0.003295694,435.55499999972477,1.021263e-05,435.55499999972477,2.269009e-05
435.56999999972476,4.834787e-05,435.56999999972476,0.003464911,435.56999999972476,1.026765e-05,435.56999999972476,2.356713e-05
435.58499999972474,5.260514e-05,435.58499999972474,0.003719968,435.58499999972474,1.061041e-05,435.58499999972474,2.398248e-05
435.59999999972473,6.606717e-05,435.59999999972473,0.003846874,435.59999999972473,1.079859e-05,435.59999999972473,2.419359e-05
435.6149999997247,6.940074e-05,435.6149999997247,0.003996203,435.6149999997247,1.117301e-05,435.6149999997247,2.377719e-05
435.6299999997247,6.975726e-05,435.6299999997247,0.004156096,435.6299999997247,1.142485e-05,435.6299999997247,2.809708e-05
435.6449999997247,7.151284e-05,435.6449999997247,0.004372836,435.6449999997247,1.167126e-05,435.6449999997247,2.763249e-05
435.6599999997247,7.930428e-05,435.6599999997247,0.004528463,435.6599999997247,1.286102e-05,435.6599999997247,2.746888e-05
435.67499999972466,8.014551e-05,435.67499999972466,0.004595925,435.67499999972466,1.580905e-05,435.67499999972466,2.736355e-05
435.68999999972465,8.381965e-05,435.68999999972465,0.004732538,435.68999999972465,1.572148e-05,435.68999999972465,2.695588e-05
435.70499999972463,8.493719e-05,435.70499999972463,0.00482303,435.70499999972463,1.573402e-05,435.70499999972463,2.708205e-05
435.7199999997246,8.480939e-05,435.7199999997246,0.004828427,435.7199999997246,1.59845e-05,435.7199999997246,2.804991e-05
435.7349999997246,8.520081e-05,435.7349999997246,0.0047437,435.7349999997246,1.575817e-05,435.7349999997246,3.172972e-05
435.7499999997246,8.560048e-05,435.7499999997246,0.004641983,435.7499999997246,1.572417e-05,435.7499999997246,3.199675e-05
435.7649999997246,8.575043e-05,435.7649999997246,0.004569757,435.7649999997246,1.605397e-05,435.7649999997246,3.253203e-05
435.77999999972457,8.553133e-05,435.77999999972457,0.004641823,435.77999999972457,1.617896e-05,435.77999999972457,3.539868e-05
435.79499999972455,8.541267e-05,435.79499999972455,0.004670335,435.79499999972455,1.605923e-05,435.79499999972455,3.728823e-05
435.80999999972454,8.455404e-05,435.80999999972454,0.004654708,435.80999999972454,1.63194e-05,435.80999999972454,4.172126e-05
435.8249999997245,7.060071e-05,435.8249999997245,0.004656959,435.8249999997245,1.7142e-05,435.8249999997245,4.139007e-05
435.8399999997245,6.666088e-05,435.8399999997245,0.004529848,435.8399999997245,1.801312e-05,435.8399999997245,4.100334e-05
435.8549999997245,5.559815e-05,435.8549999997245,0.00450673,435.8549999997245,1.838007e-05,435.8549999997245,4.179042e-05
435.8699999997245,5.359072e-05,435.8699999997245,0.004387611,435.8699999997245,1.814714e-05,435.8699999997245,4.189545e-05
435.88499999972447,5.269584e-05,435.88499999972447,0.004482056,435.88499999972447,1.831096e-05,435.88499999972447,3.946956e-05
435.89999999972446,5.08586e-05,435.89999999972446,0.004496675,435.89999999972446,1.829018e-05,435.89999999972446,4.007908e-05
435.91499999972444,3.672486e-05,435.91499999972444,0.004451917,435.91499999972444,1.623025e-05,435.91499999972444,4.0302e-05
435.92999999972443,3.451578e-05,435.92999999972443,0.004416523,435.92999999972443,1.533044e-05,435.92999999972443,4.015282e-05
435.9449999997244,2.708569e-05,435.9449999997244,0.004279609,435.9449999997244,1.598979e-05,435.9449999997244,4.033763e-05
435.9599999997244,2.70133e-05,435.9599999997244,0.004233106,435.9599999997244,1.674627e-05,435.9599999997244,4.009208e-05
435.9749999997244,2.884761e-05,435.9749999997244,0.004228075,435.9749999997244,1.662724e-05,435.9749999997244,4.585173e-05
435.9899999997244,2.828845e-05,435.9899999997244,0.004315385,435.9899999997244,1.821454e-05,435.9899999997244,4.371949e-05
436.00499999972436,2.729035e-05,436.00499999972436,0.004480457,436.00499999972436,1.812927e-05,436.00499999972436,4.440049e-05
436.01999999972435,2.787005e-05,436.01999999972435,0.004551136,436.01999999972435,1.857826e-05,436.01999999972435,4.478871e-05
436.03499999972433,2.878651e-05,436.03499999972433,0.004594513,436.03499999972433,1.861992e-05,436.03499999972433,4.447086e-05
436.0499999997243,2.955481e-05,436.0499999997243,0.004445562,436.0499999997243,1.84451e-05,436.0499999997243,4.649121e-05
436.0649999997243,2.99995e-05,436.0649999997243,0.004241444,436.0649999997243,1.866149e-05,436.0649999997243,4.434144e-05
436.0799999997243,3.017881e-05,436.0799999997243,0.004147673,436.0799999997243,1.873456e-05,436.0799999997243,4.401684e-05
436.0949999997243,3.050103e-05,436.0949999997243,0.004094938,436.0949999997243,1.795752e-05,436.0949999997243,4.357006e-05
436.10999999972427,2.97387e-05,436.10999999972427,0.003948562,436.10999999972427,1.756172e-05,436.10999999972427,4.303689e-05
436.12499999972425,2.90767e-05,436.12499999972425,0.003820091,436.12499999972425,1.754647e-05,436.12499999972425,4.350826e-05
436.13999999972424,2.836404e-05,436.13999999972424,0.003626917,436.13999999972424,1.744502e-05,436.13999999972424,4.324456e-05
436.1549999997242,2.857137e-05,436.1549999997242,0.003371767,436.1549999997242,1.743937e-05,436.1549999997242,4.266211e-05
436.1699999997242,2.953861e-05,436.1699999997242,0.003070301,436.1699999997242,1.694529e-05,436.1699999997242,4.252851e-05
436.1849999997242,2.975764e-05,436.1849999997242,0.003002138,436.1849999997242,1.675216e-05,436.1849999997242,4.364597e-05
436.1999999997242,2.868307e-05,436.1999999997242,0.002889887,436.1999999997242,1.621114e-05,436.1999999997242,4.280156e-05
436.21499999972417,2.531687e-05,436.21499999972417,0.00255948,436.21499999972417,1.576622e-05,436.21499999972417,4.2867e-05
436.22999999972416,2.319783e-05,436.22999999972416,0.002357647,436.22999999972416,1.542661e-05,436.22999999972416,3.494813e-05
436.24499999972414,2.291373e-05,436.24499999972414,0.002373274,436.24499999972414,1.458358e-05,436.24499999972414,3.522436e-05
436.25999999972413,2.301984e-05,436.25999999972413,0.002241334,436.25999999972413,1.423556e-05,436.25999999972413,3.213601e-05
436.2749999997241,2.227467e-05,436.2749999997241,0.001927058,436.2749999997241,1.360925e-05,436.2749999997241,3.143086e-05
436.2899999997241,2.107427e-05,436.2899999997241,0.001761672,436.2899999997241,1.344995e-05,436.2899999997241,2.868258e-05
436.3049999997241,1.952903e-05,436.3049999997241,0.002141037,436.3049999997241,1.361443e-05,436.3049999997241,1.978771e-05
436.3199999997241,1.845578e-05,436.3199999997241,0.00245863,436.3199999997241,1.136675e-05,436.3199999997241,2.000859e-05
436.33499999972406,1.835322e-05,436.33499999972406,0.002638599,436.33499999972406,1.154749e-05,436.33499999972406,1.999168e-05
436.34999999972405,1.826629e-05,436.34999999972405,0.003014768,436.34999999972405,1.179492e-05,436.34999999972405,1.947196e-05
436.36499999972403,1.794182e-05,436.36499999972403,0.003306326,436.36499999972403,1.185211e-05,436.36499999972403,1.786234e-05
436.379999999724,1.689868e-05,436.379999999724,0.003549802,436.379999999724,1.208981e-05,436.379999999724,1.744179e-05
436.394999999724,1.782208e-05,436.394999999724,0.003605365,436.394999999724,1.2134e-05,436.394999999724,1.751191e-05
436.409999999724,1.6882e-05,436.409999999724,0.003614985,436.409999999724,1.197978e-05,436.409999999724,1.74934e-05
436.424999999724,1.644666e-05,436.424999999724,0.003659352,436.424999999724,1.197625e-05,436.424999999724,1.640378e-05
436.43999999972397,1.726156e-05,436.43999999972397,0.003668539,436.43999999972397,1.192202e-05,436.43999999972397,1.354076e-05
436.45499999972395,1.710992e-05,436.45499999972395,0.003740371,436.45499999972395,1.156212e-05,436.45499999972395,1.35116e-05
436.46999999972394,1.624239e-05,436.46999999972394,0.003926675,436.46999999972394,1.158281e-05,436.46999999972394,1.314807e-05
436.4849999997239,1.659841e-05,436.4849999997239,0.004077696,436.4849999997239,1.243218e-05,436.4849999997239,1.297552e-05
436.4999999997239,1.751433e-05,436.4999999997239,0.00411589,436.4999999997239,1.288947e-05,436.4999999997239,1.12909e-05
436.5149999997239,1.821918e-05,436.5149999997239,0.004146697,436.5149999997239,1.304589e-05,436.5149999997239,1.121831e-05
436.5299999997239,2.012162e-05,436.5299999997239,0.004147011,436.5299999997239,1.273554e-05,436.5299999997239,1.123713e-05
436.54499999972387,2.073737e-05,436.54499999972387,0.004308749,436.54499999972387,1.288072e-05,436.54499999972387,1.157186e-05
436.55999999972386,2.197031e-05,436.55999999972386,0.004301116,436.55999999972386,1.402922e-05,436.55999999972386,1.140511e-05
436.57499999972384,2.185008e-05,436.57499999972384,0.004192961,436.57499999972384,1.425039e-05,436.57499999972384,1.139027e-05
436.58999999972383,2.161935e-05,436.58999999972383,0.004201112,436.58999999972383,1.46904e-05,436.58999999972383,1.201149e-05
436.6049999997238,2.174603e-05,436.6049999997238,0.004080747,436.6049999997238,1.545034e-05,436.6049999997238,1.186873e-05
436.6199999997238,2.244164e-05,436.6199999997238,0.003923021,436.6199999997238,1.551494e-05,436.6199999997238,1.145071e-05
436.6349999997238,2.231953e-05,436.6349999997238,0.003765508,436.6349999997238,1.541383e-05,436.6349999997238,1.147161e-05
436.6499999997238,2.240897e-05,436.6499999997238,0.003774489,436.6499999997238,1.533227e-05,436.6499999997238,1.346984e-05
436.66499999972376,2.222529e-05,436.66499999972376,0.003774482,436.66499999972376,1.53387e-05,436.66499999972376,1.367018e-05
436.67999999972375,2.325484e-05,436.67999999972375,0.003735988,436.67999999972375,1.552129e-05,436.67999999972375,1.376773e-05
436.69499999972373,2.280836e-05,436.69499999972373,0.00368746,436.69499999972373,1.547858e-05,436.69499999972373,1.398598e-05
436.7099999997237,2.326211e-05,436.7099999997237,0.003509142,436.7099999997237,1.540285e-05,436.7099999997237,1.493387e-05
436.7249999997237,2.362206e-05,436.7249999997237,0.003203513,436.7249999997237,1.56847e-05,436.7249999997237,1.570086e-05
436.7399999997237,2.425349e-05,436.7399999997237,0.002831243,436.7399999997237,1.551221e-05,436.7399999997237,1.603905e-05
436.7549999997237,2.405345e-05,436.7549999997237,0.002740416,436.7549999997237,1.66069e-05,436.7549999997237,1.652527e-05
436.76999999972367,2.244164e-05,436.76999999972367,0.002727993,436.76999999972367,1.752237e-05,436.76999999972367,1.74781e-05
436.78499999972365,2.250119e-05,436.78499999972365,0.002576636,436.78499999972365,1.768322e-05,436.78499999972365,1.746923e-05
436.79999999972364,2.157695e-05,436.79999999972364,0.002284329,436.79999999972364,2.253685e-05,436.79999999972364,1.746036e-05
436.8149999997236,2.238444e-05,436.8149999997236,0.001888801,436.8149999997236,2.402766e-05,436.8149999997236,1.722562e-05
436.8299999997236,2.310535e-05,436.8299999997236,0.001345584,436.8299999997236,3.13429e-05,436.8299999997236,1.707613e-05
436.8449999997236,2.355577e-05,436.8449999997236,0.0007443561,436.8449999997236,3.641594e-05,436.8449999997236,1.653549e-05
436.8599999997236,2.470522e-05,436.8599999997236,0.0005284775,436.8599999997236,3.64882e-05,436.8599999997236,1.699676e-05
436.87499999972357,2.429643e-05,436.87499999972357,0.0008636251,436.87499999972357,3.813356e-05,436.87499999972357,1.717238e-05
436.88999999972356,2.43896e-05,436.88999999972356,0.0008831186,436.88999999972356,3.899452e-05,436.88999999972356,1.747729e-05
436.90499999972354,2.438151e-05,436.90499999972354,0.0008681552,436.90499999972354,3.978416e-05,436.90499999972354,2.004235e-05
436.91999999972353,6.048864e-05,436.91999999972353,0.001070248,436.91999999972353,4.020611e-05,436.91999999972353,2.015449e-05
436.9349999997235,7.036307e-05,436.9349999997235,0.001083215,436.9349999997235,4.032716e-05,436.9349999997235,2.044112e-05
436.9499999997235,8.450571e-05,436.9499999997235,0.001116363,436.9499999997235,4.040498e-05,436.9499999997235,2.07231e-05
436.9649999997235,9.102878e-05,436.9649999997235,0.001150609,436.9649999997235,4.27795e-05,436.9649999997235,1.980834e-05
436.9799999997235,9.162524e-05,436.9799999997235,0.001231032,436.9799999997235,4.58505e-05,436.9799999997235,1.985948e-05
436.99499999972346,9.86201e-05,436.99499999972346,0.001340247,436.99499999972346,5.399843e-05,436.99499999972346,1.966918e-05
437.00999999972345,9.994968e-05,437.00999999972345,0.00141779,437.00999999972345,6.513827e-05,437.00999999972345,1.941835e-05
437.02499999972343,0.0001002338,437.02499999972343,0.001570109,437.02499999972343,6.647126e-05,437.02499999972343,1.988642e-05
437.0399999997234,0.0001005317,437.0399999997234,0.001604368,437.0399999997234,6.77633e-05,437.0399999997234,2.01929e-05
437.0549999997234,0.0001009356,437.0549999997234,0.001624007,437.0549999997234,6.840181e-05,437.0549999997234,2.069452e-05
437.0699999997234,0.0001035769,437.0699999997234,0.001644128,437.0699999997234,6.980874e-05,437.0699999997234,2.096974e-05
437.0849999997234,0.0001060726,437.0849999997234,0.001653139,437.0849999997234,6.725688e-05,437.0849999997234,2.080924e-05
437.09999999972337,0.0001062198,437.09999999972337,0.001895398,437.09999999972337,6.499451e-05,437.09999999972337,2.068227e-05
437.11499999972335,0.0001060685,437.11499999972335,0.002027007,437.11499999972335,6.528947e-05,437.11499999972335,2.025698e-05
437.12999999972334,0.0001061808,437.12999999972334,0.001985589,437.12999999972334,6.518842e-05,437.12999999972334,2.05778e-05
437.1449999997233,0.0001062693,437.1449999997233,0.002020487,437.1449999997233,6.552294e-05,437.1449999997233,1.952975e-05
437.1599999997233,0.000106772,437.1599999997233,0.002016754,437.1599999997233,6.514562e-05,437.1599999997233,1.882907e-05
437.1749999997233,8.396539e-05,437.1749999997233,0.001979036,437.1749999997233,6.48235e-05,437.1749999997233,1.977489e-05
437.1899999997233,8.038805e-05,437.1899999997233,0.002028276,437.1899999997233,6.463395e-05,437.1899999997233,1.960965e-05
437.20499999972327,6.811433e-05,437.20499999972327,0.002097101,437.20499999972327,6.44552e-05,437.20499999972327,1.982967e-05
437.21999999972326,6.325222e-05,437.21999999972326,0.002131962,437.21999999972326,6.249742e-05,437.21999999972326,1.932163e-05
437.23499999972324,5.483226e-05,437.23499999972324,0.002054623,437.23499999972324,5.983961e-05,437.23499999972324,2.032085e-05
437.24999999972323,5.016053e-05,437.24999999972323,0.002019204,437.24999999972323,5.16193e-05,437.24999999972323,2.00304e-05
437.2649999997232,6.088371e-05,437.2649999997232,0.002139273,437.2649999997232,3.82258e-05,437.2649999997232,1.923907e-05
437.2799999997232,6.614644e-05,437.2799999997232,0.002076701,437.2799999997232,3.252336e-05,437.2799999997232,1.83701e-05
437.2949999997232,7.677557e-05,437.2949999997232,0.002137262,437.2949999997232,2.961956e-05,437.2949999997232,1.761458e-05
437.3099999997232,7.9324e-05,437.3099999997232,0.00214232,437.3099999997232,2.568806e-05,437.3099999997232,1.859267e-05
437.32499999972316,7.46416e-05,437.32499999972316,0.002140603,437.32499999972316,1.992887e-05,437.32499999972316,2.054423e-05
437.33999999972315,7.239149e-05,437.33999999972315,0.002112527,437.33999999972315,1.56856e-05,437.33999999972315,2.079638e-05
437.35499999972313,7.31532e-05,437.35499999972313,0.00193278,437.35499999972313,1.535064e-05,437.35499999972313,2.07896e-05
437.3699999997231,7.362347e-05,437.3699999997231,0.001813657,437.3699999997231,1.436656e-05,437.3699999997231,2.196966e-05
437.3849999997231,7.429145e-05,437.3849999997231,0.001862167,437.3849999997231,1.251462e-05,437.3849999997231,2.172335e-05
437.3999999997231,7.418804e-05,437.3999999997231,0.001839693,437.3999999997231,1.094629e-05,437.3999999997231,2.328632e-05
437.4149999997231,7.38073e-05,437.4149999997231,0.001943465,437.4149999997231,1.264897e-05,437.4149999997231,2.632987e-05
437.42999999972307,7.261978e-05,437.42999999972307,0.002146293,437.42999999972307,1.321859e-05,437.42999999972307,2.64052e-05
437.44499999972305,7.206286e-05,437.44499999972305,0.002497996,437.44499999972305,1.313628e-05,437.44499999972305,2.840523e-05
437.45999999972304,7.12982e-05,437.45999999972304,0.002539606,437.45999999972304,1.34667e-05,437.45999999972304,2.998682e-05
437.474999999723,7.089619e-05,437.474999999723,0.002647911,437.474999999723,1.391024e-05,437.474999999723,3.121815e-05
437.489999999723,7.084968e-05,437.489999999723,0.002692191,437.489999999723,1.358853e-05,437.489999999723,3.153244e-05
437.504999999723,6.963984e-05,437.504999999723,0.002637072,437.504999999723,1.354284e-05,437.504999999723,3.265735e-05
437.519999999723,5.29255e-05,437.519999999723,0.00278196,437.519999999723,1.403525e-05,437.519999999723,3.337204e-05
437.53499999972297,4.762158e-05,437.53499999972297,0.002884405,437.53499999972297,1.391125e-05,437.53499999972297,3.362184e-05
437.54999999972296,3.269185e-05,437.54999999972296,0.002888444,437.54999999972296,1.429678e-05,437.54999999972296,3.356775e-05
437.56499999972294,2.691456e-05,437.56499999972294,0.002911461,437.56499999972294,1.36444e-05,437.56499999972294,3.265865e-05
437.57999999972293,2.682281e-05,437.57999999972293,0.003065181,437.57999999972293,1.365988e-05,437.57999999972293,3.248566e-05
437.5949999997229,2.476615e-05,437.5949999997229,0.003213337,437.5949999997229,1.353452e-05,437.5949999997229,3.267116e-05
437.6099999997229,2.288789e-05,437.6099999997229,0.003270984,437.6099999997229,1.334692e-05,437.6099999997229,3.266296e-05
437.6249999997229,2.206372e-05,437.6249999997229,0.003300252,437.6249999997229,1.350117e-05,437.6249999997229,3.243575e-05
437.6399999997229,1.926029e-05,437.6399999997229,0.003445578,437.6399999997229,1.361236e-05,437.6399999997229,3.317645e-05
437.65499999972286,1.959024e-05,437.65499999972286,0.003705355,437.65499999972286,1.268789e-05,437.65499999972286,3.044371e-05
437.66999999972285,1.936387e-05,437.66999999972285,0.003825347,437.66999999972285,1.128841e-05,437.66999999972285,2.836702e-05
437.68499999972283,1.878037e-05,437.68499999972283,0.003879982,437.68499999972283,1.108695e-05,437.68499999972283,2.726969e-05
437.6999999997228,1.915762e-05,437.6999999997228,0.003904506,437.6999999997228,1.119065e-05,437.6999999997228,2.616349e-05
437.7149999997228,1.782998e-05,437.7149999997228,0.003872675,437.7149999997228,1.118057e-05,437.7149999997228,2.528458e-05
437.7299999997228,2.195106e-05,437.7299999997228,0.003970353,437.7299999997228,1.104749e-05,437.7299999997228,2.561778e-05
437.7449999997228,2.154102e-05,437.7449999997228,0.004118763,437.7449999997228,1.282043e-05,437.7449999997228,2.574394e-05
437.75999999972277,2.141706e-05,437.75999999972277,0.004346358,437.75999999972277,1.33796e-05,437.75999999972277,2.523383e-05
437.77499999972275,2.095361e-05,437.77499999972275,0.004364724,437.77499999972275,1.41223e-05,437.77499999972275,2.642226e-05
437.78999999972274,2.082278e-05,437.78999999972274,0.004482703,437.78999999972274,1.394362e-05,437.78999999972274,2.740059e-05
437.8049999997227,2.055177e-05,437.8049999997227,0.004588627,437.8049999997227,1.382797e-05,437.8049999997227,2.906507e-05
437.8199999997227,2.102542e-05,437.8199999997227,0.00463567,437.8199999997227,1.382695e-05,437.8199999997227,2.937601e-05
437.8349999997227,2.11763e-05,437.8349999997227,0.004587358,437.8349999997227,1.385849e-05,437.8349999997227,2.928139e-05
437.8499999997227,2.115167e-05,437.8499999997227,0.004666524,437.8499999997227,1.410932e-05,437.8499999997227,2.985217e-05
437.86499999972267,2.180684e-05,437.86499999972267,0.004667173,437.86499999972267,1.425533e-05,437.86499999972267,3.181972e-05
437.87999999972266,2.180619e-05,437.87999999972266,0.004622096,437.87999999972266,1.421278e-05,437.87999999972266,3.282472e-05
437.89499999972264,2.190931e-05,437.89499999972264,0.004461008,437.89499999972264,1.457392e-05,437.89499999972264,3.256967e-05
437.90999999972263,2.862752e-05,437.90999999972263,0.004248336,437.90999999972263,1.442723e-05,437.90999999972263,3.30258e-05
437.9249999997226,3.216668e-05,437.9249999997226,0.00399484,437.9249999997226,1.452163e-05,437.9249999997226,3.290701e-05
437.9399999997226,3.704604e-05,437.9399999997226,0.003693308,437.9399999997226,1.450318e-05,437.9399999997226,3.27663e-05
437.9549999997226,3.942457e-05,437.9549999997226,0.003508722,437.9549999997226,1.439203e-05,437.9549999997226,3.245659e-05
437.9699999997226,3.910887e-05,437.9699999997226,0.003445944,437.9699999997226,1.370415e-05,437.9699999997226,3.195093e-05
437.98499999972256,3.816938e-05,437.98499999972256,0.003267532,437.98499999972256,1.236173e-05,437.98499999972256,3.089657e-05
437.99999999972255,3.814944e-05,437.99999999972255,0.003046854,437.99999999972255,1.177938e-05,437.99999999972255,3.113502e-05
438.01499999972253,3.842465e-05,438.01499999972253,0.002780078,438.01499999972253,1.052242e-05,438.01499999972253,3.128757e-05
438.0299999997225,3.857284e-05,438.0299999997225,0.002500181,438.0299999997225,9.580649e-06,438.0299999997225,3.138512e-05
438.0449999997225,3.880804e-05,438.0449999997225,0.002135812,438.0449999997225,9.690296e-06,438.0449999997225,3.204602e-05
438.0599999997225,3.941528e-05,438.0599999997225,0.001720199,438.0599999997225,1.017809e-05,438.0599999997225,3.143221e-05
438.0749999997225,3.912652e-05,438.0749999997225,0.001619484,438.0749999997225,1.038768e-05,438.0749999997225,3.141203e-05
438.08999999972247,3.8886e-05,438.08999999972247,0.001483559,438.08999999972247,1.037004e-05,438.08999999972247,3.163413e-05
438.10499999972245,3.902161e-05,438.10499999972245,0.001034924,438.10499999972245,1.019468e-05,438.10499999972245,2.948897e-05
438.11999999972244,3.897537e-05,438.11999999972244,0.0009351203,438.11999999972244,9.700467e-06,438.11999999972244,2.833273e-05
438.1349999997224,3.873464e-05,438.1349999997224,0.0009470456,438.1349999997224,9.480139e-06,438.1349999997224,2.665106e-05
438.1499999997224,3.847667e-05,438.1499999997224,0.0009261425,438.1499999997224,8.367247e-06,438.1499999997224,2.570396e-05
438.1649999997224,3.012041e-05,438.1649999997224,0.0009249205,438.1649999997224,8.405879e-06,438.1649999997224,2.572806e-05
438.1799999997224,2.719676e-05,438.1799999997224,0.0009078571,438.1799999997224,8.456004e-06,438.1799999997224,2.565789e-05
438.19499999972237,2.049755e-05,438.19499999972237,0.000913628,438.19499999972237,8.647087e-06,438.19499999972237,2.550756e-05
438.20999999972236,1.721007e-05,438.20999999972236,0.0009086722,438.20999999972236,8.973265e-06,438.20999999972236,2.566776e-05
438.22499999972234,1.655763e-05,438.22499999972234,0.0008410383,438.22499999972234,8.960697e-06,438.22499999972234,2.450656e-05
438.23999999972233,1.63004e-05,438.23999999972233,0.0008081642,438.23999999972233,9.407047e-06,438.23999999972233,2.423315e-05
438.2549999997223,1.616502e-05,438.2549999997223,0.0007282642,438.2549999997223,9.384559e-06,438.2549999997223,2.4374e-05
438.2699999997223,1.51055e-05,438.2699999997223,0.0006508402,438.2699999997223,9.295575e-06,438.2699999997223,2.311571e-05
438.2849999997223,1.905588e-05,438.2849999997223,0.000762114,438.2849999997223,9.580649e-06,438.2849999997223,2.08221e-05
438.2999999997223,1.899517e-05,438.2999999997223,0.0008594187,438.2999999997223,9.480139e-06,438.2999999997223,1.764973e-05
438.31499999972226,1.965772e-05,438.31499999972226,0.0008894381,438.31499999972226,8.629149e-06,438.31499999972226,1.657633e-05
438.32999999972225,2.02688e-05,438.32999999972225,0.0009254724,438.32999999972225,8.439329e-06,438.32999999972225,1.512134e-05
438.34499999972223,1.893947e-05,438.34499999972223,0.0009219595,438.34499999972223,8.333508e-06,438.34499999972223,1.522995e-05
438.3599999997222,1.974067e-05,438.3599999997222,0.0009072436,438.3599999997222,8.269024e-06,438.3599999997222,1.511203e-05
438.3749999997222,1.971425e-05,438.3749999997222,0.0008954301,438.3749999997222,8.451005e-06,438.3749999997222,1.545398e-05
438.3899999997222,1.987224e-05,438.3899999997222,0.000906357,438.3899999997222,9.696108e-06,438.3899999997222,1.52281e-05
438.4049999997222,1.9979e-05,438.4049999997222,0.0009234279,438.4049999997222,9.941437e-06,438.4049999997222,1.511948e-05
438.41999999972217,2.007536e-05,438.41999999972217,0.0009273998,438.41999999972217,9.639282e-06,438.41999999972217,1.504289e-05
438.43499999972215,2.025141e-05,438.43499999972215,0.0009268639,438.43499999972215,1.000922e-05,438.43499999972215,1.533503e-05
438.44999999972214,2.044732e-05,438.44999999972214,0.000919157,438.44999999972214,9.873189e-06,438.44999999972214,1.542205e-05
438.4649999997221,2.270126e-05,438.4649999997221,0.0009196913,438.4649999997221,1.008214e-05,438.4649999997221,1.6347e-05
438.4799999997221,2.374755e-05,438.4799999997221,0.0009194938,438.4799999997221,9.90026e-06,438.4799999997221,1.634441e-05
438.4949999997221,2.433061e-05,438.4949999997221,0.0009271356,438.4949999997221,9.496471e-06,438.4949999997221,1.518641e-05
438.5099999997221,3.964726e-05,438.5099999997221,0.001045231,438.5099999997221,9.49202e-06,438.5099999997221,1.458937e-05
438.52499999972207,4.7925e-05,438.52499999972207,0.001351641,438.52499999972207,9.468245e-06,438.52499999972207,1.570176e-05
438.53999999972206,5.247699e-05,438.53999999972206,0.001206032,438.53999999972206,9.246955e-06,438.53999999972206,1.693199e-05
438.55499999972204,5.217007e-05,438.55499999972204,0.001313702,438.55499999972204,9.227129e-06,438.55499999972204,1.968565e-05
438.56999999972203,5.216089e-05,438.56999999972203,0.00137255,438.56999999972203,9.557095e-06,438.56999999972203,1.988075e-05
438.584999999722,5.3047e-05,438.584999999722,0.001341975,438.584999999722,9.729466e-06,438.584999999722,2.06775e-05
438.599999999722,5.346651e-05,438.599999999722,0.001428026,438.599999999722,1.02333e-05,438.599999999722,2.050167e-05
438.614999999722,5.332906e-05,438.614999999722,0.001894418,438.614999999722,1.196448e-05,438.614999999722,2.03049e-05
438.629999999722,5.329656e-05,438.629999999722,0.002231732,438.629999999722,1.30707e-05,438.629999999722,2.126525e-05
438.64499999972196,5.383253e-05,438.64499999972196,0.002579927,438.64499999972196,1.388794e-05,438.64499999972196,2.082278e-05
438.65999999972195,5.408888e-05,438.65999999972195,0.002754316,438.65999999972195,1.583931e-05,438.65999999972195,2.090919e-05
438.67499999972193,5.403885e-05,438.67499999972193,0.003062819,438.67499999972193,1.590233e-05,438.67499999972193,2.106023e-05
438.6899999997219,5.400078e-05,438.6899999997219,0.00329619,438.6899999997219,1.580905e-05,438.6899999997219,2.130363e-05
438.7049999997219,5.421115e-05,438.7049999997219,0.003552905,438.7049999997219,1.640378e-05,438.7049999997219,2.022357e-05
438.7199999997219,5.285599e-05,438.7199999997219,0.003799067,438.7199999997219,1.626839e-05,438.7199999997219,2.023193e-05
438.7349999997219,5.308416e-05,438.7349999997219,0.004000883,438.7349999997219,1.635992e-05,438.7349999997219,2.12573e-05
438.74999999972187,4.885047e-05,438.74999999972187,0.004117386,438.74999999972187,1.631508e-05,438.74999999972187,2.291619e-05
438.76499999972185,4.27604e-05,438.76499999972185,0.004083366,438.76499999972185,1.672944e-05,438.76499999972185,2.325424e-05
438.77999999972184,3.563665e-05,438.77999999972184,0.003993649,438.77999999972184,1.684273e-05,438.77999999972184,2.261048e-05
438.7949999997218,3.780858e-05,438.7949999997218,0.004027196,438.7949999997218,1.775398e-05,438.7949999997218,2.065705e-05
438.8099999997218,3.790978e-05,438.8099999997218,0.00407179,438.8099999997218,1.758656e-05,438.8099999997218,2.069793e-05
438.8249999997218,3.70905e-05,438.8249999997218,0.00411409,438.8249999997218,1.741026e-05,438.8249999997218,2.054971e-05
438.8399999997218,3.634973e-05,438.8399999997218,0.004144955,438.8399999997218,1.751352e-05,438.8399999997218,2.046109e-05
438.85499999972177,3.675093e-05,438.85499999972177,0.004032423,438.85499999972177,1.705467e-05,438.85499999972177,2.071698e-05
438.86999999972176,3.682178e-05,438.86999999972176,0.003923709,438.86999999972176,1.475928e-05,438.86999999972176,2.00557e-05
438.88499999972174,3.694667e-05,438.88499999972174,0.003800418,438.88499999972174,1.518549e-05,438.88499999972174,2.010831e-05
438.89999999972173,4.150393e-05,438.89999999972173,0.003718069,438.89999999972173,1.376057e-05,438.89999999972173,2.025906e-05
438.9149999997217,4.650575e-05,438.9149999997217,0.003696627,438.9149999997217,1.224724e-05,438.9149999997217,2.102542e-05
438.9299999997217,4.984642e-05,438.9299999997217,0.003542614,438.9299999997217,1.239814e-05,438.9299999997217,2.256933e-05
438.9449999997217,7.402361e-05,438.9449999997217,0.003348949,438.9449999997217,1.181043e-05,438.9449999997217,2.318265e-05
438.9599999997217,7.780007e-05,438.9599999997217,0.003156782,438.9599999997217,1.246274e-05,438.9599999997217,2.338532e-05
438.97499999972166,8.373272e-05,438.97499999972166,0.002895141,438.97499999972166,1.293638e-05,438.97499999972166,2.32118e-05
438.98999999972165,8.500052e-05,438.98999999972165,0.002735336,438.98999999972165,1.294073e-05,438.98999999972165,2.196389e-05
439.00499999972163,8.452572e-05,439.00499999972163,0.002542084,439.00499999972163,1.32058e-05,439.00499999972163,2.000295e-05
439.0199999997216,8.404086e-05,439.0199999997216,0.002399702,439.0199999997216,1.344471e-05,439.0199999997216,2.079706e-05
439.0349999997216,8.001692e-05,439.0349999997216,0.002401279,439.0349999997216,1.245934e-05,439.0349999997216,2.148405e-05
439.0499999997216,7.979603e-05,439.0499999997216,0.00239123,439.0499999997216,1.441844e-05,439.0499999997216,2.155344e-05
439.0649999997216,7.973969e-05,439.0649999997216,0.002590986,439.0649999997216,1.518178e-05,439.0649999997216,1.98687e-05
439.07999999972157,7.966387e-05,439.07999999972157,0.002644325,439.07999999972157,1.591207e-05,439.07999999972157,2.029241e-05
439.09499999972155,7.946097e-05,439.09499999972155,0.002919967,439.09499999972155,1.739083e-05,439.09499999972155,2.057574e-05
439.10999999972154,8.542108e-05,439.10999999972154,0.003163683,439.10999999972154,1.885971e-05,439.10999999972154,2.101939e-05
439.1249999997215,8.7693e-05,439.1249999997215,0.003288831,439.1249999997215,2.196838e-05,439.1249999997215,2.138415e-05
439.1399999997215,9.865467e-05,439.1399999997215,0.0033753,439.1399999997215,2.965664e-05,439.1399999997215,2.067069e-05
439.1549999997215,9.715687e-05,439.1549999997215,0.003468482,439.1549999997215,3.226113e-05,439.1549999997215,2.042595e-05
439.1699999997215,9.647215e-05,439.1699999997215,0.003373714,439.1699999997215,3.265779e-05,439.1699999997215,2.067478e-05
439.18499999972147,9.147738e-05,439.18499999972147,0.003433211,439.18499999972147,3.572351e-05,439.18499999972147,2.158674e-05
439.19999999972146,7.984633e-05,439.19999999972146,0.003378339,439.19999999972146,3.700648e-05,439.19999999972146,2.155213e-05
439.21499999972144,7.584316e-05,439.21499999972144,0.003432115,439.21499999972144,3.757425e-05,439.21499999972144,2.146305e-05
439.22999999972143,7.687367e-05,439.22999999972143,0.003450556,439.22999999972143,3.769776e-05,439.22999999972143,2.152531e-05
439.2449999997214,7.717287e-05,439.2449999997214,0.003374277,439.2449999997214,3.770374e-05,439.2449999997214,2.156585e-05
439.2599999997214,7.926751e-05,439.2599999997214,0.003422427,439.2599999997214,3.749393e-05,439.2599999997214,2.155017e-05
439.2749999997214,8.040767e-05,439.2749999997214,0.003484971,439.2749999997214,3.736446e-05,439.2749999997214,2.077605e-05
439.2899999997214,8.060207e-05,439.2899999997214,0.003548396,439.2899999997214,3.673829e-05,439.2899999997214,2.070609e-05
439.30499999972136,8.122308e-05,439.30499999972136,0.003539199,439.30499999972136,3.658421e-05,439.30499999972136,2.208159e-05
439.31999999972135,8.179375e-05,439.31999999972135,0.003292507,439.31999999972135,3.635748e-05,439.31999999972135,2.30724e-05
439.33499999972133,8.198933e-05,439.33499999972133,0.003241838,439.33499999972133,3.601765e-05,439.33499999972133,2.276447e-05
439.3499999997213,8.250349e-05,439.3499999997213,0.003055008,439.3499999997213,3.555077e-05,439.3499999997213,2.248491e-05
439.3649999997213,7.326883e-05,439.3649999997213,0.002945244,439.3649999997213,3.331078e-05,439.3649999997213,2.189194e-05
439.3799999997213,6.972232e-05,439.3799999997213,0.002643171,439.3799999997213,3.127496e-05,439.3799999997213,2.147487e-05
439.3949999997213,8.198744e-05,439.3949999997213,0.002696607,439.3949999997213,2.342444e-05,439.3949999997213,2.13261e-05
439.40999999972126,8.557217e-05,439.40999999972126,0.002421517,439.40999999972126,2.131289e-05,439.40999999972126,2.118428e-05
439.42499999972125,9.628286e-05,439.42499999972125,0.002432783,439.42499999972125,2.017545e-05,439.42499999972125,1.945024e-05
439.43999999972124,9.8056e-05,439.43999999972124,0.002447462,439.43999999972124,1.420683e-05,439.43999999972124,1.758897e-05
439.4549999997212,9.516963e-05,439.4549999997212,0.002506124,439.4549999997212,1.010307e-05,439.4549999997212,1.751031e-05
439.4699999997212,9.492583e-05,439.4699999997212,0.002518792,439.4699999997212,1.357298e-05,439.4699999997212,1.817816e-05
439.4849999997212,9.229129e-05,439.4849999997212,0.002681335,439.4849999997212,1.440377e-05,439.4849999997212,1.812772e-05
439.4999999997212,9.077882e-05,439.4999999997212,0.002696852,439.4999999997212,1.548767e-05,439.4999999997212,1.774445e-05
439.51499999972117,8.890942e-05,439.51499999972117,0.002640304,439.51499999972117,1.774207e-05,439.51499999972117,1.766808e-05
439.52999999972116,8.853646e-05,439.52999999972116,0.002605838,439.52999999972116,1.764015e-05,439.52999999972116,2.215483e-05
439.54499999972114,8.827529e-05,439.54499999972114,0.002576209,439.54499999972114,1.754005e-05,439.54499999972114,2.558421e-05
439.55999999972113,8.793506e-05,439.55999999972113,0.002549598,439.55999999972113,1.75545e-05,439.55999999972113,3.015826e-05
439.5749999997211,8.798503e-05,439.5749999997211,0.002526636,439.5749999997211,1.778568e-05,439.5749999997211,3.4254e-05
439.5899999997211,8.815713e-05,439.5899999997211,0.002486131,439.5899999997211,1.859191e-05,439.5899999997211,3.757837e-05
439.6049999997211,8.778997e-05,439.6049999997211,0.002417221,439.6049999997211,1.833787e-05,439.6049999997211,4.058482e-05
439.6199999997211,8.786038e-05,439.6199999997211,0.002501189,439.6199999997211,1.914438e-05,439.6199999997211,4.149171e-05
439.63499999972106,8.330786e-05,439.63499999972106,0.002433729,439.63499999972106,2.056479e-05,439.63499999972106,4.165367e-05
439.64999999972105,5.868462e-05,439.64999999972105,0.002361725,439.64999999972105,2.078283e-05,439.64999999972105,4.187898e-05
439.66499999972103,4.781641e-05,439.66499999972103,0.002407493,439.66499999972103,2.131619e-05,439.66499999972103,4.194586e-05
439.679999999721,3.210311e-05,439.679999999721,0.002407748,439.679999999721,2.17564e-05,439.679999999721,4.288967e-05
439.694999999721,2.830139e-05,439.694999999721,0.002178573,439.694999999721,2.181782e-05,439.694999999721,4.369532e-05
439.709999999721,2.883589e-05,439.709999999721,0.002119884,439.709999999721,2.116032e-05,439.709999999721,4.425749e-05
439.724999999721,2.671124e-05,439.724999999721,0.001875627,439.724999999721,2.812464e-05,439.724999999721,4.477424e-05
439.73999999972096,2.480934e-05,439.73999999972096,0.001953002,439.73999999972096,3.592758e-05,439.73999999972096,4.540159e-05
439.75499999972095,2.429121e-05,439.75499999972095,0.001970519,439.75499999972095,3.96206e-05,439.75499999972095,4.567258e-05
439.76999999972094,2.362981e-05,439.76999999972094,0.001979777,439.76999999972094,3.886643e-05,439.76999999972094,4.573761e-05
439.7849999997209,2.806347e-05,439.7849999997209,0.001983006,439.7849999997209,3.957222e-05,439.7849999997209,4.406674e-05
439.7999999997209,3.594914e-05,439.7999999997209,0.002078025,439.7999999997209,4.033658e-05,439.7999999997209,3.894573e-05
439.8149999997209,4.11419e-05,439.8149999997209,0.002178729,439.8149999997209,4.059732e-05,439.8149999997209,3.656379e-05
439.8299999997209,4.503649e-05,439.8299999997209,0.002632854,439.8299999997209,4.041474e-05,439.8299999997209,3.318367e-05
439.84499999972087,4.556604e-05,439.84499999972087,0.002848484,439.84499999972087,4.006502e-05,439.84499999972087,3.105256e-05
439.85999999972086,4.556233e-05,439.85999999972086,0.002984389,439.85999999972086,4.018018e-05,439.85999999972086,2.877476e-05
439.87499999972084,4.570341e-05,439.87499999972084,0.003227003,439.87499999972084,3.972854e-05,439.87499999972084,2.867374e-05
439.8899999997208,4.604396e-05,439.8899999997208,0.00331021,439.8899999997208,3.907103e-05,439.8899999997208,2.91343e-05
439.9049999997208,4.586402e-05,439.9049999997208,0.003521057,439.9049999997208,3.909014e-05,439.9049999997208,2.884761e-05
439.9199999997208,4.598242e-05,439.9199999997208,0.00369353,439.9199999997208,3.887586e-05,439.9199999997208,2.91517e-05
439.9349999997208,4.555584e-05,439.9349999997208,0.003763427,439.9349999997208,3.888093e-05,439.9349999997208,2.803032e-05
439.9499999997208,4.504525e-05,439.9499999997208,0.003965448,439.9499999997208,3.906851e-05,439.9499999997208,2.613656e-05
439.96499999972076,4.463243e-05,439.96499999972076,0.004027218,439.96499999972076,3.667688e-05,439.96499999972076,2.69088e-05
439.97999999972075,4.483429e-05,439.97999999972075,0.004244004,439.97999999972075,3.063789e-05,439.97999999972075,2.587983e-05
439.99499999972073,4.496105e-05,439.99499999972073,0.00434128,439.99499999972073,2.083495e-05,439.99499999972073,2.524165e-05
440.0099999997207,4.552707e-05,440.0099999997207,0.004406083,440.0099999997207,1.859191e-05,440.0099999997207,2.463842e-05
440.0249999997207,4.548622e-05,440.0249999997207,0.004404004,440.0249999997207,2.262045e-05,440.0249999997207,2.599388e-05
440.0399999997207,3.658035e-05,440.0399999997207,0.004338843,440.0399999997207,2.157042e-05,440.0399999997207,2.542071e-05
440.0549999997207,3.436772e-05,440.0549999997207,0.004284656,440.0549999997207,2.092401e-05,440.0549999997207,2.57691e-05
440.06999999972066,2.697364e-05,440.06999999972066,0.004162254,440.06999999972066,2.117696e-05,440.06999999972066,2.776827e-05
440.08499999972065,2.052364e-05,440.08499999972065,0.00396097,440.08499999972065,2.18204e-05,440.08499999972065,2.709089e-05
440.09999999972064,1.93209e-05,440.09999999972064,0.003921126,440.09999999972064,2.182879e-05,440.09999999972064,2.66098e-05
440.1149999997206,1.910018e-05,440.1149999997206,0.003716843,440.1149999997206,2.15384e-05,440.1149999997206,2.784882e-05
440.1299999997206,1.795673e-05,440.1299999997206,0.003416168,440.1299999997206,2.171427e-05,440.1299999997206,2.788369e-05
440.1449999997206,2.12394e-05,440.1449999997206,0.003370313,440.1449999997206,2.186232e-05,440.1449999997206,2.792307e-05
440.1599999997206,2.95324e-05,440.1599999997206,0.003229104,440.1599999997206,2.179198e-05,440.1599999997206,2.816418e-05
440.17499999972057,3.354928e-05,440.17499999972057,0.003054349,440.17499999972057,2.162195e-05,440.17499999972057,2.743193e-05
440.18999999972056,3.756e-05,440.18999999972056,0.003162119,440.18999999972056,2.147683e-05,440.18999999972056,2.726917e-05
440.20499999972054,3.768019e-05,440.20499999972054,0.003130627,440.20499999972054,2.150436e-05,440.20499999972054,2.66389e-05
440.2199999997205,3.77366e-05,440.2199999997205,0.003255507,440.2199999997205,2.209179e-05,440.2199999997205,2.6028e-05
440.2349999997205,3.789603e-05,440.2349999997205,0.003234755,440.2349999997205,2.235422e-05,440.2349999997205,2.62452e-05
440.2499999997205,3.791201e-05,440.2499999997205,0.00308403,440.2499999997205,2.210199e-05,440.2499999997205,2.69109e-05
440.2649999997205,3.742699e-05,440.2649999997205,0.003047595,440.2649999997205,1.800061e-05,440.2649999997205,2.68606e-05
440.2799999997205,3.744167e-05,440.2799999997205,0.003102213,440.2799999997205,1.656443e-05,440.2799999997205,2.521875e-05
440.29499999972046,3.745897e-05,440.29499999972046,0.00311777,440.29499999972046,1.709922e-05,440.29499999972046,2.564965e-05
440.30999999972045,3.867131e-05,440.30999999972045,0.003117394,440.30999999972045,1.72485e-05,440.30999999972045,2.605613e-05
440.32499999972043,3.871682e-05,440.32499999972043,0.003102842,440.32499999972043,1.703649e-05,440.32499999972043,2.396662e-05
440.3399999997204,3.90977e-05,440.3399999997204,0.00306278,440.3399999997204,1.615107e-05,440.3399999997204,2.373925e-05
440.3549999997204,3.898875e-05,440.3549999997204,0.00302323,440.3549999997204,1.617983e-05,440.3549999997204,2.242091e-05
440.3699999997204,3.886136e-05,440.3699999997204,0.003019329,440.3699999997204,1.643552e-05,440.3699999997204,2.166881e-05
440.3849999997204,3.915567e-05,440.3849999997204,0.003004854,440.3849999997204,1.619028e-05,440.3849999997204,2.09986e-05
440.39999999972036,3.193285e-05,440.39999999972036,0.002999727,440.39999999972036,1.627618e-05,440.39999999972036,2.055862e-05
440.41499999972035,2.976285e-05,440.41499999972035,0.002951754,440.41499999972035,1.655933e-05,440.41499999972035,2.029657e-05
440.42999999972034,2.35492e-05,440.42999999972034,0.002745549,440.42999999972034,1.642866e-05,440.42999999972034,2.016847e-05
440.4449999997203,2.0102e-05,440.4449999997203,0.002431479,440.4449999997203,1.626493e-05,440.4449999997203,2.144007e-05
440.4599999997203,1.99119e-05,440.4599999997203,0.002069948,440.4599999997203,1.648003e-05,440.4599999997203,2.116299e-05
440.4749999997203,1.928222e-05,440.4749999997203,0.001565097,440.4749999997203,1.585442e-05,440.4749999997203,2.080383e-05
440.4899999997203,1.899591e-05,440.4899999997203,0.0009780537,440.4899999997203,1.399706e-05,440.4899999997203,2.065296e-05
440.50499999972027,1.898478e-05,440.50499999972027,0.0009561083,440.50499999972027,1.392137e-05,440.50499999972027,1.972782e-05
440.51999999972026,1.877212e-05,440.51999999972026,0.0008317782,440.51999999972026,1.373598e-05,440.51999999972026,1.961324e-05
440.53499999972024,1.868864e-05,440.53499999972024,0.0006284027,440.53499999972024,1.37892e-05,440.53499999972024,1.963477e-05
440.5499999997202,1.949076e-05,440.5499999997202,0.0004937447,440.5499999997202,1.300155e-05,440.5499999997202,1.952037e-05
440.5649999997202,1.737868e-05,440.5649999997202,0.0003666377,440.5649999997202,1.264897e-05,440.5649999997202,1.911493e-05
440.5799999997202,1.710992e-05,440.5799999997202,0.0003023949,440.5799999997202,1.329934e-05,440.5799999997202,1.898552e-05
440.5949999997202,1.685026e-05,440.5949999997202,0.0002889969,440.5949999997202,1.333108e-05,440.5949999997202,1.822228e-05
440.6099999997202,1.992463e-05,440.6099999997202,0.0002879606,440.6099999997202,1.406733e-05,440.6099999997202,1.759777e-05
440.62499999972016,2.012582e-05,440.62499999972016,0.0001866253,440.62499999972016,1.488758e-05,440.62499999972016,1.761298e-05
440.63999999972015,1.932746e-05,440.63999999972015,0.0001863563,440.63999999972015,1.578051e-05,440.63999999972015,1.778648e-05
440.65499999972013,2.01503e-05,440.65499999972013,0.0001673339,440.65499999972013,1.774445e-05,440.65499999972013,1.768401e-05
440.6699999997201,2.013911e-05,440.6699999997201,0.0001487111,440.6699999997201,1.756573e-05,440.6699999997201,1.754647e-05
440.6849999997201,1.980977e-05,440.6849999997201,0.0001899621,440.6849999997201,1.788363e-05,440.6849999997201,1.70621e-05
440.6999999997201,2.078418e-05,440.6999999997201,0.0001921356,440.6999999997201,1.809038e-05,440.6999999997201,1.629867e-05
440.7149999997201,2.121285e-05,440.7149999997201,0.0002791576,440.7149999997201,1.823078e-05,440.7149999997201,1.59651e-05
440.72999999972006,2.130562e-05,440.72999999972006,0.0004177299,440.72999999972006,1.834094e-05,440.72999999972006,1.578229e-05
440.74499999972005,2.174344e-05,440.74499999972005,0.001161702,440.74499999972005,1.888658e-05,440.74499999972005,1.554306e-05
440.75999999972004,2.170843e-05,440.75999999972004,0.001676686,440.75999999972004,1.955426e-05,440.75999999972004,1.560456e-05
440.77499999972,2.190481e-05,440.77499999972,0.002175613,440.77499999972,1.927564e-05,440.77499999972,1.567122e-05
440.78999999972,2.175057e-05,440.78999999972,0.002283579,440.78999999972,1.894913e-05,440.78999999972,1.528166e-05
440.80499999972,2.228669e-05,440.80499999972,0.002614711,440.80499999972,1.877512e-05,440.80499999972,1.386154e-05
440.81999999972,2.170194e-05,440.81999999972,0.002971593,440.81999999972,1.881559e-05,440.81999999972,1.329934e-05
440.83499999971997,2.149126e-05,440.83499999971997,0.003238367,440.83499999971997,1.906992e-05,440.83499999971997,1.303509e-05
440.84999999971996,2.123011e-05,440.84999999971996,0.003433325,440.84999999971996,1.942778e-05,440.84999999971996,1.330781e-05
440.86499999971994,1.989633e-05,440.86499999971994,0.003693925,440.86499999971994,1.783077e-05,440.86499999971994,1.359372e-05
440.8799999997199,2.050236e-05,440.8799999997199,0.003940421,440.8799999997199,1.747648e-05,440.8799999997199,1.186636e-05
440.8949999997199,2.046316e-05,440.8949999997199,0.004142038,440.8949999997199,1.658738e-05,440.8949999997199,1.292875e-05
440.9099999997199,1.957442e-05,440.9099999997199,0.004254587,440.9099999997199,1.562261e-05,440.9099999997199,1.34489e-05
440.9249999997199,1.977347e-05,440.9249999997199,0.004311316,440.9249999997199,1.596775e-05,440.9249999997199,1.37062e-05
440.9399999997199,2.084577e-05,440.9399999997199,0.004315194,440.9399999997199,1.595716e-05,440.9399999997199,1.378716e-05
440.95499999971986,2.100062e-05,440.95499999971986,0.004340409,440.95499999971986,1.589081e-05,440.95499999971986,1.3497e-05
440.96999999971985,2.368519e-05,440.96999999971985,0.004365504,440.96999999971985,1.569637e-05,440.96999999971985,1.436656e-05
440.98499999971983,2.399951e-05,440.98499999971983,0.00437777,440.98499999971983,1.537081e-05,440.98499999971983,1.425533e-05
440.9999999997198,2.375348e-05,440.9999999997198,0.004141263,440.9999999997198,1.614759e-05,440.9999999997198,1.420385e-05
441.0149999997198,2.430339e-05,441.0149999997198,0.004008196,441.0149999997198,1.595804e-05,441.0149999997198,1.438812e-05
441.0299999997198,2.404876e-05,441.0299999997198,0.003881269,441.0299999997198,1.541931e-05,441.0299999997198,1.416711e-05
441.0449999997198,2.317839e-05,441.0449999997198,0.003736448,441.0449999997198,1.543757e-05,441.0449999997198,1.410932e-05
441.05999999971976,2.343947e-05,441.05999999971976,0.003473229,441.05999999971976,1.547312e-05,441.05999999971976,1.452066e-05
441.07499999971975,2.388655e-05,441.07499999971975,0.003275136,441.07499999971975,1.791275e-05,441.07499999971975,1.547402e-05
441.08999999971974,2.40675e-05,441.08999999971974,0.003056024,441.08999999971974,1.947992e-05,441.08999999971974,1.570803e-05
441.1049999997197,2.362802e-05,441.1049999997197,0.002932171,441.1049999997197,1.944807e-05,441.1049999997197,1.59845e-05
441.1199999997197,2.334613e-05,441.1199999997197,0.00266467,441.1199999997197,2.07652e-05,441.1199999997197,1.580726e-05
441.1349999997197,2.298983e-05,441.1349999997197,0.002480264,441.1349999997197,2.264721e-05,441.1349999997197,1.528074e-05
441.1499999997197,2.287866e-05,441.1499999997197,0.00233023,441.1499999997197,2.289343e-05,441.1499999997197,1.451581e-05
441.16499999971967,2.349949e-05,441.16499999971967,0.002212693,441.16499999971967,2.255809e-05,441.16499999971967,1.475642e-05
441.17999999971966,2.355338e-05,441.17999999971966,0.002432637,441.17999999971966,2.288666e-05,441.17999999971966,1.57814e-05
441.19499999971964,2.278488e-05,441.19499999971964,0.002535336,441.19499999971964,2.275147e-05,441.19499999971964,1.634786e-05
441.2099999997196,1.873983e-05,441.2099999997196,0.002596583,441.2099999997196,2.226898e-05,441.2099999997196,1.668644e-05
441.2249999997196,1.868864e-05,441.2249999997196,0.002609706,441.2249999997196,2.203561e-05,441.2249999997196,0.0001486606
441.2399999997196,1.817196e-05,441.2399999997196,0.002620845,441.2399999997196,2.169155e-05,441.2399999997196,0.0001995114
441.2549999997196,1.72583e-05,441.2549999997196,0.002682457,441.2549999997196,2.108964e-05,441.2549999997196,0.0003411529
441.2699999997196,1.713214e-05,441.2699999997196,0.002689894,441.2699999997196,2.152008e-05,441.2699999997196,0.0004760045
441.28499999971956,1.689701e-05,441.28499999971956,0.002781889,441.28499999971956,2.193501e-05,441.28499999971956,0.00048358
441.29999999971955,1.671933e-05,441.29999999971955,0.002837493,441.29999999971955,2.356952e-05,441.29999999971955,0.000529505
441.31499999971953,1.597833e-05,441.31499999971953,0.002818073,441.31499999971953,6.339348e-05,441.31499999971953,0.0005591388
441.3299999997195,2.291311e-05,441.3299999997195,0.002927057,441.3299999997195,6.778679e-05,441.3299999997195,0.0005610231
441.3449999997195,2.533523e-05,441.3449999997195,0.002908191,441.3449999997195,9.507974e-05,441.3449999997195,0.0005664867
441.3599999997195,4.096037e-05,441.3599999997195,0.002943079,441.3599999997195,0.0001115978,441.3599999997195,0.0005685175
441.3749999997195,4.496261e-05,441.3749999997195,0.002971874,441.3749999997195,0.0001118523,441.3749999997195,0.0005686542
441.38999999971946,4.825629e-05,441.38999999971946,0.002896755,441.38999999971946,0.0001121426,441.38999999971946,0.0005687937
441.40499999971945,5.069797e-05,441.40499999971945,0.002820472,441.40499999971945,0.0001160636,441.40499999971945,0.0005690369
441.41999999971944,5.104825e-05,441.41999999971944,0.002711565,441.41999999971944,0.0001208105,441.41999999971944,0.0005692539
441.4349999997194,5.11227e-05,441.4349999997194,0.002516219,441.4349999997194,0.0001217517,441.4349999997194,0.0005692357
441.4499999997194,5.110038e-05,441.4499999997194,0.0025572,441.4499999997194,0.0001217754,441.4499999997194,0.0005692289
441.4649999997194,5.245738e-05,441.4649999997194,0.002516554,441.4649999997194,0.0001220332,441.4649999997194,0.0005692096
