X[s],a: EMG RMS 1-1,X[s].1,a: EMG RMS 1-2,X[s].2,a: EMG RMS 1-3,X[s].3,a: EMG RMS 1-4
192.01499999994624,4.745446e-05,192.01499999994624,0.0001489088,192.01499999994624,1.474592e-05,192.01499999994624,7.762914e-06
192.02999999994623,4.646636e-05,192.02999999994623,0.0001613217,192.02999999994623,1.485537e-05,192.02999999994623,7.878193e-06
192.0449999999462,4.643088e-05,192.0449999999462,0.0001717695,192.0449999999462,1.491593e-05,192.0449999999462,7.961788e-06
192.0599999999462,4.694681e-05,192.0599999999462,0.0001600582,192.0599999999462,1.501946e-05,192.0599999999462,7.8585e-06
192.0749999999462,4.710258e-05,192.0749999999462,0.000156753,192.0749999999462,1.497908e-05,192.0749999999462,7.790086e-06
192.08999999994617,4.629263e-05,192.08999999994617,0.0001626236,192.08999999994617,1.463565e-05,192.08999999994617,7.766543e-06
192.10499999994616,4.683114e-05,192.10499999994616,0.000163995,192.10499999994616,1.443601e-05,192.10499999994616,7.678988e-06
192.11999999994615,4.664125e-05,192.11999999994615,0.0001651289,192.11999999994615,1.424545e-05,192.11999999994615,7.383459e-06
192.13499999994613,4.627132e-05,192.13499999994613,0.0001640946,192.13499999994613,1.410433e-05,192.13499999994613,7.205797e-06
192.14999999994612,4.625335e-05,192.14999999994612,0.0001635678,192.14999999994612,1.240268e-05,192.14999999994612,7.254505e-06
192.1649999999461,4.640447e-05,192.1649999999461,0.0001641253,192.1649999999461,1.212471e-05,192.1649999999461,6.803591e-06
192.1799999999461,4.566949e-05,192.1799999999461,0.0001632234,192.1799999999461,1.214445e-05,192.1799999999461,5.790191e-06
192.19499999994608,3.352324e-05,192.19499999994608,0.000141949,192.19499999994608,9.90026e-06,192.19499999994608,5.664756e-06
192.20999999994606,2.597436e-05,192.20999999994606,0.0001436291,192.20999999994606,9.857482e-06,192.20999999994606,6.016875e-06
192.22499999994605,2.577893e-05,192.22499999994605,0.0001459669,192.22499999994605,9.75838e-06,192.22499999994605,5.649817e-06
192.23999999994604,2.390128e-05,192.23999999994604,0.0001453097,192.23999999994604,9.230183e-06,192.23999999994604,5.652309e-06
192.25499999994602,2.389539e-05,192.25499999994602,0.0001438323,192.25499999994602,8.981111e-06,192.25499999994602,5.642331e-06
192.269999999946,2.704145e-05,192.269999999946,0.0001417542,192.269999999946,9.205732e-06,192.269999999946,5.654801e-06
192.284999999946,2.727692e-05,192.284999999946,0.0001176895,192.284999999946,9.29406e-06,192.284999999946,5.667242e-06
192.29999999994598,2.764218e-05,192.29999999994598,0.0001128938,192.29999999994598,9.1289e-06,192.29999999994598,6.226279e-06
192.31499999994597,2.633094e-05,192.31499999994597,0.0001090922,192.31499999994597,9.265217e-06,192.31499999994597,6.304968e-06
192.32999999994595,2.654673e-05,192.32999999994595,0.000105978,192.32999999994595,9.191949e-06,192.32999999994595,6.291548e-06
192.34499999994594,2.644838e-05,192.34499999994594,0.0001023868,192.34499999994594,9.210321e-06,192.34499999994594,6.266871e-06
192.35999999994593,2.551695e-05,192.35999999994593,0.0001065621,192.35999999994593,9.188883e-06,192.35999999994593,6.4921e-06
192.3749999999459,2.704509e-05,192.3749999999459,0.0001120007,192.3749999999459,9.274335e-06,192.3749999999459,7.105398e-06
192.3899999999459,2.737075e-05,192.3899999999459,0.0001128802,192.3899999999459,8.328435e-06,192.3899999999459,7.05566e-06
192.4049999999459,2.720504e-05,192.4049999999459,0.0001133092,192.4049999999459,8.197163e-06,192.4049999999459,6.977362e-06
192.41999999994587,2.678918e-05,192.41999999994587,0.0001173425,192.41999999994587,8.279239e-06,192.41999999994587,7.547619e-06
192.43499999994586,2.672179e-05,192.43499999994586,0.0001217177,192.43499999994586,7.845942e-06,192.43499999994586,8.692581e-06
192.44999999994585,2.668592e-05,192.44999999994585,0.000120159,192.44999999994585,7.087532e-06,192.44999999994585,8.792481e-06
192.46499999994583,2.603017e-05,192.46499999994583,0.0001238095,192.46499999994583,6.642251e-06,192.46499999994583,8.444335e-06
192.47999999994582,3.052181e-05,192.47999999994582,0.0001238416,192.47999999994582,7.739288e-06,192.47999999994582,8.487596e-06
192.4949999999458,3.153958e-05,192.4949999999458,0.0001263981,192.4949999999458,8.023475e-06,192.4949999999458,8.70068e-06
192.5099999999458,3.022825e-05,192.5099999999458,0.000127597,192.5099999999458,7.83696e-06,192.5099999999458,8.51411e-06
192.52499999994578,2.756563e-05,192.52499999994578,0.0001281958,192.52499999994578,7.349037e-06,192.52499999994578,8.517419e-06
192.53999999994576,2.863195e-05,192.53999999994576,0.0001452991,192.53999999994576,7.077588e-06,192.53999999994576,9.327345e-06
192.55499999994575,2.941196e-05,192.55499999994575,0.0001462597,192.55499999994575,6.936866e-06,192.55499999994575,9.225602e-06
192.56999999994574,2.909559e-05,192.56999999994574,0.0001471307,192.56999999994574,6.820134e-06,192.56999999994574,9.173541e-06
192.58499999994572,2.901414e-05,192.58499999994572,0.000145421,192.58499999994572,7.03967e-06,192.58499999994572,9.246955e-06
192.5999999999457,3.386231e-05,192.5999999999457,0.0001453217,192.5999999999457,7.322153e-06,192.5999999999457,9.219493e-06
192.6149999999457,3.314502e-05,192.6149999999457,0.0001456125,192.6149999999457,7.358615e-06,192.6149999999457,8.736227e-06
192.62999999994568,3.19377e-05,192.62999999994568,0.000145775,192.62999999994568,6.920602e-06,192.62999999994568,8.744285e-06
192.64499999994567,3.218638e-05,192.64499999994567,0.0001466368,192.64499999994567,7.013608e-06,192.64499999994567,9.248478e-06
192.65999999994565,3.34079e-05,192.65999999994565,0.0001490002,192.65999999994565,7.027653e-06,192.65999999994565,9.430977e-06
192.67499999994564,3.271726e-05,192.67499999994564,0.0001418783,192.67499999994564,6.987449e-06,192.67499999994564,8.568535e-06
192.68999999994563,3.287489e-05,192.68999999994563,0.0001451215,192.68999999994563,6.985433e-06,192.68999999994563,7.913874e-06
192.7049999999456,3.381985e-05,192.7049999999456,0.0001443174,192.7049999999456,7.077588e-06,192.7049999999456,8.08469e-06
192.7199999999456,3.397569e-05,192.7199999999456,0.000141792,192.7199999999456,7.125195e-06,192.7199999999456,8.193725e-06
192.7349999999456,2.766815e-05,192.7349999999456,0.0001439928,192.7349999999456,5.541568e-06,192.7349999999456,8.193725e-06
192.74999999994557,2.753751e-05,192.74999999994557,0.0001438115,192.74999999994557,5.503306e-06,192.74999999994557,8.205751e-06
192.76499999994556,2.787258e-05,192.76499999994556,0.0001457952,192.76499999994556,6.125922e-06,192.76499999994556,8.248557e-06
192.77999999994555,2.781389e-05,192.77999999994555,0.0001195466,192.77999999994555,6.158032e-06,192.77999999994555,7.360529e-06
192.79499999994553,2.558972e-05,192.79499999994553,0.0001170775,192.79499999994553,6.16489e-06,192.79499999994553,6.713969e-06
192.80999999994552,2.497854e-05,192.80999999994552,0.0001179581,192.80999999994552,6.174023e-06,192.80999999994552,6.673986e-06
192.8249999999455,2.601068e-05,192.8249999999455,0.0001196945,192.8249999999455,6.384893e-06,192.8249999999455,6.58688e-06
192.8399999999455,2.579751e-05,192.8399999999455,0.0001202926,192.8399999999455,6.338393e-06,192.8399999999455,6.580461e-06
192.85499999994548,1.892533e-05,192.85499999994548,0.0001203072,192.85499999994548,6.242096e-06,192.85499999994548,6.667651e-06
192.86999999994546,1.891416e-05,192.86999999994546,0.0001125295,192.86999999994546,6.369431e-06,192.86999999994546,6.638008e-06
192.88499999994545,1.929536e-05,192.88499999994545,0.0001077272,192.88499999994545,6.417902e-06,192.88499999994545,6.455107e-06
192.89999999994544,1.812772e-05,192.89999999994544,0.0001081087,192.89999999994544,6.417902e-06,192.89999999994544,6.123622e-06
192.91499999994542,1.918334e-05,192.91499999994542,0.0001048162,192.91499999994542,6.509435e-06,192.91499999994542,6.026232e-06
192.9299999999454,2.257681e-05,192.9299999999454,0.0001027821,192.9299999999454,6.728641e-06,192.9299999999454,6.089019e-06
192.9449999999454,2.206755e-05,192.9449999999454,9.966939e-05,192.9449999999454,6.757886e-06,192.9449999999454,6.051891e-06
192.95999999994538,2.12447e-05,192.95999999994538,9.942528e-05,192.95999999994538,6.678206e-06,192.95999999994538,5.860319e-06
192.97499999994537,2.130099e-05,192.97499999994537,9.737816e-05,192.97499999994537,6.703471e-06,192.97499999994537,5.711809e-06
192.98999999994535,2.167726e-05,192.98999999994535,9.652688e-05,192.98999999994535,7.131124e-06,192.98999999994535,5.802342e-06
193.00499999994534,2.113701e-05,193.00499999994534,9.312245e-05,193.00499999994534,6.959168e-06,193.00499999994534,5.692045e-06
193.01999999994533,2.081331e-05,193.01999999994533,9.125119e-05,193.01999999994533,6.591156e-06,193.01999999994533,5.721665e-06
193.0349999999453,2.832627e-05,193.0349999999453,8.935714e-05,193.0349999999453,7.71559e-06,193.0349999999453,5.782887e-06
193.0499999999453,3.290316e-05,193.0499999999453,8.986959e-05,193.0499999999453,7.755652e-06,193.0499999999453,6.107498e-06
193.0649999999453,3.234965e-05,193.0649999999453,8.858895e-05,193.0649999999453,7.697311e-06,193.0649999999453,6.237581e-06
193.07999999994527,3.18644e-05,193.07999999994527,8.513167e-05,193.07999999994527,7.577422e-06,193.07999999994527,6.11211e-06
193.09499999994526,3.257357e-05,193.09499999994526,8.650459e-05,193.09499999994526,7.392992e-06,193.09499999994526,6.144291e-06
193.10999999994525,3.27706e-05,193.10999999994525,8.67105e-05,193.10999999994525,7.335607e-06,193.10999999994525,6.06584e-06
193.12499999994523,3.265908e-05,193.12499999994523,8.769605e-05,193.12499999994523,7.168558e-06,193.12499999994523,6.095956e-06
193.13999999994522,3.245789e-05,193.13999999994522,8.449421e-05,193.13999999994522,7.21166e-06,193.13999999994522,5.726587e-06
193.1549999999452,3.308206e-05,193.1549999999452,8.978381e-05,193.1549999999452,7.463159e-06,193.1549999999452,5.972226e-06
193.1699999999452,3.272458e-05,193.1699999999452,9.503217e-05,193.1699999999452,7.607108e-06,193.1699999999452,5.862722e-06
193.18499999994518,3.192844e-05,193.18499999994518,9.48427e-05,193.18499999994518,7.463159e-06,193.18499999994518,5.579567e-06
193.19999999994516,3.20513e-05,193.19999999994516,9.502105e-05,193.19999999994516,7.678988e-06,193.19999999994516,5.696992e-06
193.21499999994515,3.262067e-05,193.21499999994515,9.55988e-05,193.21499999994515,7.757469e-06,193.21499999994515,5.993417e-06
193.22999999994514,3.365158e-05,193.22999999994514,9.524199e-05,193.22999999994514,7.440475e-06,193.22999999994514,6.137409e-06
193.24499999994512,3.345762e-05,193.24499999994512,9.481343e-05,193.24499999994512,7.345202e-06,193.24499999994512,6.070483e-06
193.2599999999451,3.382318e-05,193.2599999999451,9.419947e-05,193.2599999999451,7.295169e-06,193.2599999999451,6.148874e-06
193.2749999999451,3.398356e-05,193.2749999999451,9.583795e-05,193.2749999999451,6.757886e-06,193.2749999999451,6.242096e-06
193.28999999994508,2.294567e-05,193.28999999994508,9.970612e-05,193.28999999994508,6.242096e-06,193.28999999994508,5.903427e-06
193.30499999994507,2.337568e-05,193.30499999994507,9.951903e-05,193.30499999994507,6.269119e-06,193.30499999994507,6.208153e-06
193.31999999994505,2.411661e-05,193.31999999994505,9.83078e-05,193.31999999994505,6.42229e-06,193.31999999994505,6.21269e-06
193.33499999994504,2.418253e-05,193.33499999994504,0.0001031799,193.33499999994504,6.398117e-06,193.33499999994504,6.273611e-06
193.34999999994503,2.289466e-05,193.34999999994503,0.0001005676,193.34999999994503,6.533196e-06,193.34999999994503,6.320588e-06
193.364999999945,2.307912e-05,193.364999999945,0.0001032201,193.364999999945,6.496438e-06,193.364999999945,6.618881e-06
193.379999999945,2.323606e-05,193.379999999945,0.0001052123,193.379999999945,6.654963e-06,193.379999999945,6.747456e-06
193.394999999945,2.438209e-05,193.394999999945,0.0001094941,193.394999999945,6.537507e-06,193.394999999945,6.828391e-06
193.40999999994497,2.363994e-05,193.40999999994497,0.0001155115,193.40999999994497,6.282586e-06,193.40999999994497,6.606099e-06
193.42499999994496,2.246924e-05,193.42499999994496,0.000113675,193.42499999994496,6.426676e-06,193.42499999994496,6.589018e-06
193.43999999994494,2.084104e-05,193.43999999994494,0.0001130108,193.43999999994494,6.169459e-06,193.43999999994494,6.565459e-06
193.45499999994493,2.077266e-05,193.45499999994493,0.0001133593,193.45499999994493,6.077441e-06,193.45499999994493,6.389304e-06
193.46999999994492,1.867582e-05,193.46999999994492,0.0001143609,193.46999999994492,6.049562e-06,193.46999999994492,6.061194e-06
193.4849999999449,1.788914e-05,193.4849999999449,0.0001183375,193.4849999999449,6.08439e-06,193.4849999999449,6.01219e-06
193.4999999999449,1.821454e-05,193.4999999999449,0.0001194201,193.4999999999449,6.217223e-06,193.4999999999449,5.972226e-06
193.51499999994488,1.775239e-05,193.51499999994488,0.0001175792,193.51499999994488,6.144291e-06,193.51499999994488,6.077441e-06
193.52999999994486,1.848096e-05,193.52999999994486,0.0001160332,193.52999999994486,6.135114e-06,193.52999999994486,6.296025e-06
193.54499999994485,1.841452e-05,193.54499999994485,0.0001164417,193.54499999994485,6.002811e-06,193.54499999994485,6.102884e-06
193.55999999994484,1.752558e-05,193.55999999994484,0.0001176224,193.55999999994484,6.109804e-06,193.55999999994484,6.262374e-06
193.57499999994482,1.690618e-05,193.57499999994482,0.000120352,193.57499999994482,5.877121e-06,193.57499999994482,6.309435e-06
193.5899999999448,1.683186e-05,193.5899999999448,0.0001175103,193.5899999999448,5.920107e-06,193.5899999999448,6.325044e-06
193.6049999999448,1.703649e-05,193.6049999999448,0.0001164605,193.6049999999448,5.969867e-06,193.6049999999448,6.233063e-06
193.61999999994478,1.771346e-05,193.61999999994478,0.0001172564,193.61999999994478,5.733962e-06,193.61999999994478,6.082075e-06
193.63499999994477,1.793946e-05,193.63499999994477,0.0001145815,193.63499999994477,5.927241e-06,193.63499999994477,5.795054e-06
193.64999999994475,1.828016e-05,193.64999999994475,0.0001180946,193.64999999994475,6.387099e-06,193.64999999994475,5.564399e-06
193.66499999994474,1.698017e-05,193.66499999994474,0.0001114525,193.66499999994474,6.11902e-06,193.66499999994474,5.75603e-06
193.67999999994473,1.693532e-05,193.67999999994473,0.0001085026,193.67999999994473,5.908198e-06,193.67999999994473,5.857914e-06
193.6949999999447,1.796849e-05,193.6949999999447,0.0001115033,193.6949999999447,6.042573e-06,193.6949999999447,5.881913e-06
193.7099999999447,2.016567e-05,193.7099999999447,0.000109957,193.7099999999447,6.210422e-06,193.7099999999447,5.809621e-06
193.72499999994469,2.013491e-05,193.72499999994469,0.0001076957,193.72499999994469,6.160319e-06,193.72499999994469,5.785323e-06
193.73999999994467,2.008237e-05,193.73999999994467,0.0001009131,193.73999999994467,6.203613e-06,193.73999999994467,5.836232e-06
193.75499999994466,2.010271e-05,193.75499999994466,0.0001017309,193.75499999994466,6.093644e-06,193.75499999994466,5.753582e-06
193.76999999994464,1.902999e-05,193.76999999994464,0.0001090276,193.76999999994464,6.016875e-06,193.76999999994464,5.765811e-06
193.78499999994463,1.845731e-05,193.78499999994463,0.0001107079,193.78499999994463,6.33617e-06,193.78499999994463,6.054217e-06
193.79999999994462,1.937623e-05,193.79999999994462,0.0001087023,193.79999999994462,6.356147e-06,193.79999999994462,6.360578e-06
193.8149999999446,1.982896e-05,193.8149999999446,0.0001087905,193.8149999999446,6.275856e-06,193.8149999999446,6.353931e-06
193.8299999999446,1.954273e-05,193.8299999999446,0.00010529,193.8299999999446,6.360578e-06,193.8299999999446,6.264623e-06
193.84499999994458,1.994301e-05,193.84499999994458,0.0001037792,193.84499999994458,6.271365e-06,193.84499999994458,6.331722e-06
193.85999999994456,1.920976e-05,193.85999999994456,0.0001050775,193.85999999994456,6.513761e-06,193.85999999994456,6.362793e-06
193.87499999994455,1.908912e-05,193.87499999994455,0.0001102007,193.87499999994455,6.686639e-06,193.87499999994455,6.345057e-06
193.88999999994454,1.825394e-05,193.88999999994454,0.0001088369,193.88999999994454,6.287069e-06,193.88999999994454,6.505105e-06
193.90499999994452,1.708108e-05,193.90499999994452,0.0001000281,193.90499999994452,6.171741e-06,193.90499999994452,6.395915e-06
193.9199999999445,1.72901e-05,193.9199999999445,9.959784e-05,193.9199999999445,6.226279e-06,193.9199999999445,6.459471e-06
193.9349999999445,1.771505e-05,193.9349999999445,0.0001002012,193.9349999999445,6.561167e-06,193.9349999999445,6.450741e-06
193.94999999994448,1.427311e-05,193.94999999994448,9.886106e-05,193.94999999994448,6.298262e-06,193.94999999994448,6.455107e-06
193.96499999994447,1.429382e-05,193.96499999994447,0.0001130496,193.96499999994447,6.351713e-06,193.96499999994447,6.692956e-06
193.97999999994445,1.469424e-05,193.97999999994445,0.000116177,193.97999999994445,6.468188e-06,193.97999999994445,6.74119e-06
193.99499999994444,1.485916e-05,193.99499999994444,0.0001190667,193.99499999994444,6.345057e-06,193.99499999994444,6.599699e-06
194.00999999994443,1.539279e-05,194.00999999994443,0.0001286645,194.00999999994443,6.537507e-06,194.00999999994443,6.776621e-06
194.0249999999444,1.550676e-05,194.0249999999444,0.0001231026,194.0249999999444,6.784931e-06,194.0249999999444,6.091332e-06
194.0399999999444,1.563883e-05,194.0399999999444,0.0001268064,194.0399999999444,6.320588e-06,194.0399999999444,6.244353e-06
194.05499999994439,1.584465e-05,194.05499999994439,0.0001291864,194.05499999994439,6.616753e-06,194.05499999994439,5.804769e-06
194.06999999994437,1.607326e-05,194.06999999994437,0.0001309501,194.06999999994437,6.816002e-06,194.06999999994437,6.016875e-06
194.08499999994436,1.628916e-05,194.08499999994436,0.0001360765,194.08499999994436,6.799448e-06,194.08499999994436,6.063518e-06
194.09999999994434,1.617112e-05,194.09999999994434,0.0001365854,194.09999999994434,6.659195e-06,194.09999999994434,6.037908e-06
194.11499999994433,1.738354e-05,194.11499999994433,0.0001379831,194.11499999994433,6.345057e-06,194.11499999994433,6.116717e-06
194.12999999994432,1.794025e-05,194.12999999994432,0.000133393,194.12999999994432,6.855157e-06,194.12999999994432,6.01219e-06
194.1449999999443,1.859039e-05,194.1449999999443,0.0001332887,194.1449999999443,6.869526e-06,194.1449999999443,5.843468e-06
194.1599999999443,1.869919e-05,194.1599999999443,0.000134554,194.1599999999443,6.776621e-06,194.1599999999443,5.941484e-06
194.17499999994428,1.941835e-05,194.17499999994428,0.000134128,194.17499999994428,6.784931e-06,194.17499999994428,5.659781e-06
194.18999999994426,1.921196e-05,194.18999999994426,0.0001328297,194.18999999994426,6.780777e-06,194.18999999994426,5.669728e-06
194.20499999994425,1.916644e-05,194.20499999994425,0.0001303779,194.20499999994425,7.109361e-06,194.20499999994425,5.53139e-06
194.21999999994424,2.0055e-05,194.21999999994424,0.0001218952,194.21999999994424,7.087532e-06,194.21999999994424,5.363302e-06
194.23499999994422,1.972568e-05,194.23499999994422,0.0001226746,194.23499999994422,7.085544e-06,194.23499999994422,5.500745e-06
194.2499999999442,1.929536e-05,194.2499999999442,0.0001136246,194.2499999999442,7.087532e-06,194.2499999999442,5.389503e-06
194.2649999999442,1.927564e-05,194.2649999999442,0.0001089336,194.2649999999442,6.932803e-06,194.2649999999442,5.729046e-06
194.27999999994418,1.951893e-05,194.27999999994418,0.0001093392,194.27999999994418,6.809799e-06,194.27999999994418,5.790191e-06
194.29499999994417,1.943648e-05,194.29499999994417,0.0001064839,194.29499999994417,6.846933e-06,194.29499999994417,5.604757e-06
194.30999999994415,1.810283e-05,194.30999999994415,0.0001102224,194.30999999994415,6.528882e-06,194.30999999994415,5.412975e-06
194.32499999994414,1.831481e-05,194.32499999994414,0.0001090692,194.32499999994414,6.360578e-06,194.32499999994414,5.148897e-06
194.33999999994413,1.929463e-05,194.33999999994413,0.0001030499,194.33999999994413,6.665538e-06,194.33999999994413,5.14616e-06
194.3549999999441,1.896474e-05,194.3549999999441,0.0001053115,194.3549999999441,6.686639e-06,194.3549999999441,5.170737e-06
194.3699999999441,1.902259e-05,194.3699999999441,0.000102703,194.3699999999441,6.747456e-06,194.3699999999441,4.998978e-06
194.38499999994409,1.837163e-05,194.38499999994409,0.0001292423,194.38499999994409,6.309435e-06,194.38499999994409,5.227635e-06
194.39999999994407,1.801469e-05,194.39999999994407,0.0001410756,194.39999999994407,6.307202e-06,194.39999999994407,5.176183e-06
194.41499999994406,1.769994e-05,194.41499999994406,0.0001388586,194.41499999994406,6.426676e-06,194.41499999994406,5.373798e-06
194.42999999994404,1.807324e-05,194.42999999994404,0.0001392085,194.42999999994404,6.176305e-06,194.42999999994404,5.493057e-06
194.44499999994403,1.813549e-05,194.44499999994403,0.0001398063,194.44499999994403,5.802342e-06,194.44499999994403,5.536481e-06
194.45999999994402,1.717566e-05,194.45999999994402,0.0001395559,194.45999999994402,5.61731e-06,194.45999999994402,5.850696e-06
194.474999999944,1.775318e-05,194.474999999944,0.0001361704,194.474999999944,6.151165e-06,194.474999999944,5.953326e-06
194.489999999944,1.794103e-05,194.489999999944,0.0001368464,194.489999999944,6.772462e-06,194.489999999944,5.915346e-06
194.50499999994398,1.802407e-05,194.50499999994398,0.0001374822,194.50499999994398,7.137048e-06,194.50499999994398,6.023894e-06
194.51999999994396,1.798495e-05,194.51999999994396,0.0001360325,194.51999999994396,7.392992e-06,194.51999999994396,5.833818e-06
194.53499999994395,2.023193e-05,194.53499999994395,0.0001386491,194.53499999994395,7.354785e-06,194.53499999994395,6.054217e-06
194.54999999994394,2.300392e-05,194.54999999994394,0.0001318655,194.54999999994394,7.757469e-06,194.54999999994394,6.743279e-06
194.56499999994392,2.429005e-05,194.56499999994392,0.0001301689,194.56499999994392,7.913874e-06,194.56499999994392,7.087532e-06
194.5799999999439,2.989979e-05,194.5799999999439,0.0001289351,194.5799999999439,8.625883e-06,194.5799999999439,7.079578e-06
194.5949999999439,3.554245e-05,194.5949999999439,0.0001268246,194.5949999999439,9.0374e-06,194.5949999999439,7.209706e-06
194.60999999994388,3.52803e-05,194.60999999994388,0.000130185,194.60999999994388,9.274335e-06,194.60999999994388,7.268085e-06
194.62499999994387,3.57026e-05,194.62499999994387,0.0001276413,194.62499999994387,9.35449e-06,194.62499999994387,7.22532e-06
194.63999999994385,3.564732e-05,194.63999999994385,0.0001018781,194.63999999994385,9.325834e-06,194.63999999994385,7.075597e-06
194.65499999994384,3.533735e-05,194.65499999994384,9.62991e-05,194.65499999994384,9.331874e-06,194.65499999994384,7.069622e-06
194.66999999994383,3.516151e-05,194.66999999994383,0.0001085454,194.66999999994383,9.309204e-06,194.66999999994383,7.031661e-06
194.6849999999438,3.580504e-05,194.6849999999438,0.0001095828,194.6849999999438,9.459313e-06,194.6849999999438,7.170523e-06
194.6999999999438,3.590836e-05,194.6999999999438,0.0001116586,194.6999999999438,9.433964e-06,194.6999999999438,7.158726e-06
194.71499999994379,3.759935e-05,194.71499999994379,0.0001152528,194.71499999994379,9.46378e-06,194.71499999994379,7.049668e-06
194.72999999994377,3.766524e-05,194.72999999994377,0.0001315038,194.72999999994377,9.398059e-06,194.72999999994377,7.101431e-06
194.74499999994376,3.80881e-05,194.74499999994376,0.0001350453,194.74499999994376,8.981111e-06,194.74499999994376,7.083556e-06
194.75999999994374,3.838136e-05,194.75999999994374,0.0001391973,194.75999999994374,8.66011e-06,194.75999999994374,6.875675e-06
194.77499999994373,3.831524e-05,194.77499999994373,0.0001390203,194.77499999994373,8.472646e-06,194.77499999994373,6.795303e-06
194.78999999994372,3.709962e-05,194.78999999994372,0.0001365668,194.78999999994372,8.390783e-06,194.78999999994372,6.167175e-06
194.8049999999437,3.584829e-05,194.8049999999437,0.0001540368,194.8049999999437,8.115992e-06,194.8049999999437,5.920107e-06
194.8199999999437,3.614336e-05,194.8199999999437,0.000158605,194.8199999999437,7.797315e-06,194.8199999999437,5.716739e-06
194.83499999994368,3.229386e-05,194.83499999994368,0.0001584329,194.83499999994368,7.085544e-06,194.83499999994368,5.841057e-06
194.84999999994366,2.850276e-05,194.84999999994366,0.0001582581,194.84999999994366,6.398117e-06,194.84999999994366,5.785323e-06
194.86499999994365,2.806347e-05,194.86499999994365,0.000154377,194.86499999994365,6.176305e-06,194.86499999994365,5.716739e-06
194.87999999994364,2.756461e-05,194.87999999994364,0.000157436,194.87999999994364,6.313899e-06,194.87999999994364,5.910582e-06
194.89499999994362,2.757942e-05,194.89499999994362,0.0001620165,194.89499999994362,6.644371e-06,194.89499999994362,6.180865e-06
194.9099999999436,2.765542e-05,194.9099999999436,0.0001594998,194.9099999999436,6.906339e-06,194.9099999999436,6.266871e-06
194.9249999999436,2.772308e-05,194.9249999999436,0.0001596228,194.9249999999436,7.049668e-06,194.9249999999436,6.180865e-06
194.93999999994358,2.723351e-05,194.93999999994358,0.0001605949,194.93999999994358,6.832516e-06,194.93999999994358,5.931993e-06
194.95499999994357,2.70628e-05,194.95499999994357,0.0001591975,194.95499999994357,6.66131e-06,194.95499999994357,5.903427e-06
194.96999999994355,2.498305e-05,194.96999999994355,0.0001549489,194.96999999994355,6.389304e-06,194.96999999994355,6.091332e-06
194.98499999994354,2.607018e-05,194.98499999994354,0.0001402924,194.98499999994354,6.4921e-06,194.98499999994354,6.208153e-06
194.99999999994353,2.718121e-05,194.99999999994353,0.000139119,194.99999999994353,7.073606e-06,194.99999999994353,6.205884e-06
195.0149999999435,3.01335e-05,195.0149999999435,0.0001392763,195.0149999999435,8.166172e-06,195.0149999999435,6.498606e-06
195.0299999999435,3.151277e-05,195.0299999999435,0.0001375376,195.0299999999435,8.703918e-06,195.0299999999435,6.382687e-06
195.04499999994349,3.240316e-05,195.04499999994349,0.0001381288,195.04499999994349,8.814882e-06,195.04499999994349,6.342836e-06
195.05999999994347,3.090341e-05,195.05999999994347,0.0001191011,195.05999999994347,8.619349e-06,195.05999999994347,6.235322e-06
195.07499999994346,2.878602e-05,195.07499999994346,0.0001193979,195.07499999994346,8.68934e-06,195.07499999994346,6.442001e-06
195.08999999994344,2.727176e-05,195.08999999994344,0.0001194437,195.08999999994344,8.625883e-06,195.08999999994344,6.576178e-06
195.10499999994343,2.793871e-05,195.10499999994343,0.000120879,195.10499999994343,8.635676e-06,195.10499999994343,6.797376e-06
195.11999999994342,3.068016e-05,195.11999999994342,0.0001229744,195.11999999994342,8.58824e-06,195.11999999994342,6.753716e-06
195.1349999999434,3.075949e-05,195.1349999999434,0.0001169084,195.1349999999434,8.697441e-06,195.1349999999434,6.496438e-06
195.1499999999434,3.077689e-05,195.1499999999434,0.00011835,195.1499999999434,8.571823e-06,195.1499999999434,6.616753e-06
195.16499999994338,3.071458e-05,195.16499999994338,0.000113558,195.16499999994338,8.533942e-06,195.16499999994338,6.591156e-06
195.17999999994336,2.998541e-05,195.17999999994336,0.0001090874,195.17999999994336,8.581677e-06,195.17999999994336,6.688745e-06
195.19499999994335,3.386605e-05,195.19499999994335,0.0001074079,195.19499999994335,8.629149e-06,195.19499999994335,6.898175e-06
195.20999999994334,3.388892e-05,195.20999999994334,0.0001077107,195.20999999994334,8.763595e-06,195.20999999994334,6.780777e-06
195.22499999994332,3.300447e-05,195.22499999994332,0.0001054698,195.22499999994332,8.829253e-06,195.22499999994332,6.329497e-06
195.2399999999433,3.124792e-05,195.2399999999433,0.0001042832,195.2399999999433,8.604628e-06,195.2399999999433,6.509435e-06
195.2549999999433,3.203195e-05,195.2549999999433,0.0001044333,195.2549999999433,8.169621e-06,195.2549999999433,6.552573e-06
195.26999999994328,2.957721e-05,195.26999999994328,0.0001117219,195.26999999994328,6.680315e-06,195.26999999994328,6.362793e-06
195.28499999994327,2.7633e-05,195.28499999994327,0.0001128162,195.28499999994327,6.610363e-06,195.28499999994327,6.417902e-06
195.29999999994325,2.791248e-05,195.29999999994325,0.0001081791,195.29999999994325,6.589018e-06,195.29999999994325,6.431058e-06
195.31499999994324,2.950139e-05,195.31499999994324,0.000108767,195.31499999994324,6.580461e-06,195.31499999994324,6.187698e-06
195.32999999994323,2.978698e-05,195.32999999994323,0.0001079036,195.32999999994323,6.522406e-06,195.32999999994323,5.934367e-06
195.3449999999432,2.987198e-05,195.3449999999432,0.0001136432,195.3449999999432,6.877724e-06,195.3449999999432,5.677176e-06
195.3599999999432,2.873705e-05,195.3599999999432,0.0001222308,195.3599999999432,6.832516e-06,195.3599999999432,5.592176e-06
195.37499999994319,2.695431e-05,195.37499999994319,0.0001182124,195.37499999994319,6.74119e-06,195.37499999994319,5.510979e-06
195.38999999994317,2.716877e-05,195.38999999994317,0.0001150984,195.38999999994317,6.428867e-06,195.38999999994317,5.423375e-06
195.40499999994316,2.716151e-05,195.40499999994316,0.0001187425,195.40499999994316,6.550423e-06,195.40499999994316,5.184341e-06
195.41999999994314,2.748836e-05,195.41999999994314,0.0001208358,195.41999999994314,6.318359e-06,195.41999999994314,5.262549e-06
195.43499999994313,2.974912e-05,195.43499999994313,0.0001184941,195.43499999994313,6.360578e-06,195.43499999994313,4.902232e-06
195.44999999994312,2.555667e-05,195.44999999994312,0.0001169644,195.44999999994312,6.360578e-06,195.44999999994312,5.187057e-06
195.4649999999431,2.56502e-05,195.4649999999431,0.000116691,195.4649999999431,6.342836e-06,195.4649999999431,5.321112e-06
195.4799999999431,2.570615e-05,195.4799999999431,0.0001191366,195.4799999999431,6.235322e-06,195.4799999999431,5.339611e-06
195.49499999994308,2.410551e-05,195.49499999994308,0.0001249928,195.49499999994308,6.244353e-06,195.49499999994308,4.956529e-06
195.50999999994306,2.292786e-05,195.50999999994306,0.0001257629,195.50999999994306,6.360578e-06,195.50999999994306,4.841512e-06
195.52499999994305,2.295304e-05,195.52499999994305,0.0001161608,195.52499999994305,6.442001e-06,195.52499999994305,4.702775e-06
195.53999999994303,2.332742e-05,195.53999999994303,0.0001151119,195.53999999994303,6.311667e-06,195.53999999994303,4.660651e-06
195.55499999994302,2.053943e-05,195.55499999994302,0.0001117701,195.55499999994302,6.711871e-06,195.55499999994302,4.535037e-06
195.569999999943,2.052776e-05,195.569999999943,0.0001163437,195.569999999943,6.652846e-06,195.569999999943,5.118714e-06
195.584999999943,2.019778e-05,195.584999999943,0.0001143531,195.584999999943,6.616753e-06,195.584999999943,5.233022e-06
195.59999999994298,1.998182e-05,195.59999999994298,0.000104591,195.59999999994298,6.233063e-06,195.59999999994298,5.299891e-06
195.61499999994297,1.979625e-05,195.61499999994297,0.0001047563,195.61499999994297,6.450741e-06,195.61499999994297,5.510979e-06
195.62999999994295,1.949871e-05,195.62999999994295,0.0001027887,195.62999999994295,6.313899e-06,195.62999999994295,5.684616e-06
195.64499999994294,2.026601e-05,195.64499999994294,0.0001021788,195.64499999994294,6.116717e-06,195.64499999994294,5.809621e-06
195.65999999994293,2.266027e-05,195.65999999994293,9.866652e-05,195.65999999994293,6.201342e-06,195.65999999994293,5.828986e-06
195.6749999999429,2.083495e-05,195.6749999999429,0.0001051283,195.6749999999429,6.287069e-06,195.6749999999429,5.599728e-06
195.6899999999429,1.869693e-05,195.6899999999429,0.0001095388,195.6899999999429,6.049562e-06,195.6899999999429,5.582091e-06
195.70499999994288,1.860176e-05,195.70499999994288,0.0001115109,195.70499999994288,6.068162e-06,195.70499999994288,5.289249e-06
195.71999999994287,1.849162e-05,195.71999999994287,0.000110598,195.71999999994287,6.070483e-06,195.71999999994287,5.291911e-06
195.73499999994286,1.835092e-05,195.73499999994286,0.000109748,195.73499999994286,5.865124e-06,195.73499999994286,5.48279e-06
195.74999999994284,2.251746e-05,195.74999999994284,0.0001071746,195.74999999994284,5.981653e-06,195.74999999994284,5.571988e-06
195.76499999994283,2.289281e-05,195.76499999994283,0.0001074855,195.76499999994283,6.056544e-06,195.76499999994283,5.609782e-06
195.77999999994282,2.281083e-05,195.77999999994282,0.0001062927,195.77999999994282,6.158032e-06,195.77999999994282,5.920107e-06
195.7949999999428,2.212874e-05,195.7949999999428,0.0001063821,195.7949999999428,6.384893e-06,195.7949999999428,6.056544e-06
195.8099999999428,2.104016e-05,195.8099999999428,0.0001053621,195.8099999999428,5.924864e-06,195.8099999999428,5.867525e-06
195.82499999994278,2.096302e-05,195.82499999994278,0.0001019168,195.82499999994278,5.8867e-06,195.82499999994278,5.604757e-06
195.83999999994276,2.157826e-05,195.83999999994276,0.000107069,195.83999999994276,5.81689e-06,195.83999999994276,5.510979e-06
195.85499999994275,2.15469e-05,195.85499999994275,0.0001052156,195.85499999994275,5.833818e-06,195.85499999994275,5.61731e-06
195.86999999994273,2.383755e-05,195.86999999994273,0.000102812,195.86999999994273,5.614802e-06,195.86999999994273,5.389503e-06
195.88499999994272,2.257182e-05,195.88499999994272,0.0001144216,195.88499999994272,5.972226e-06,195.88499999994272,5.410373e-06
195.8999999999427,2.149847e-05,195.8999999999427,0.0001174639,195.8999999999427,6.548272e-06,195.8999999999427,5.410373e-06
195.9149999999427,2.017475e-05,195.9149999999427,0.0001087615,195.9149999999427,6.435437e-06,195.9149999999427,5.682137e-06
195.92999999994268,2.044732e-05,195.92999999994268,0.0001062939,195.92999999994268,6.526725e-06,195.92999999994268,5.746233e-06
195.94499999994267,2.090582e-05,195.94499999994267,0.000105266,195.94499999994267,6.580461e-06,195.94499999994267,5.773135e-06
195.95999999994265,2.104819e-05,195.95999999994265,0.0001078942,195.95999999994265,6.345057e-06,195.95999999994265,5.814468e-06
195.97499999994264,2.529071e-05,195.97499999994264,0.0001223917,195.97499999994264,6.360578e-06,195.97499999994264,5.922486e-06
195.98999999994263,2.52316e-05,195.98999999994263,0.0001331923,195.98999999994263,6.338393e-06,195.98999999994263,5.657291e-06
196.0049999999426,2.165255e-05,196.0049999999426,0.000130752,196.0049999999426,6.151165e-06,196.0049999999426,5.61731e-06
196.0199999999426,2.265965e-05,196.0199999999426,0.000131499,196.0199999999426,6.089019e-06,196.0199999999426,5.785323e-06
196.03499999994258,2.263166e-05,196.03499999994258,0.0001307313,196.03499999994258,5.927241e-06,196.03499999994258,5.824151e-06
196.04999999994257,2.319723e-05,196.04999999994257,0.0001353627,196.04999999994257,5.931993e-06,196.04999999994257,5.824151e-06
196.06499999994256,2.359163e-05,196.06499999994256,0.0001354139,196.06499999994256,5.877121e-06,196.06499999994256,5.941484e-06
196.07999999994254,2.31352e-05,196.07999999994254,0.0001351822,196.07999999994254,6.005157e-06,196.07999999994254,5.865124e-06
196.09499999994253,2.29512e-05,196.09499999994253,0.0001326868,196.09499999994253,6.180865e-06,196.09499999994253,6.047233e-06
196.10999999994252,2.110767e-05,196.10999999994252,0.000132684,196.10999999994252,6.137409e-06,196.10999999994252,5.807196e-06
196.1249999999425,2.199402e-05,196.1249999999425,0.0001331642,196.1249999999425,6.047233e-06,196.1249999999425,5.877121e-06
196.1399999999425,2.499094e-05,196.1399999999425,0.000120966,196.1399999999425,5.110451e-06,196.1399999999425,6.148874e-06
196.15499999994248,2.497967e-05,196.15499999994248,0.0001244481,196.15499999994248,5.096651e-06,196.15499999994248,5.934367e-06
196.16999999994246,2.509164e-05,196.16999999994246,0.0001321762,196.16999999994246,5.216845e-06,196.16999999994246,5.948592e-06
196.18499999994245,2.426104e-05,196.18499999994245,0.0001299632,196.18499999994245,5.074491e-06,196.18499999994245,5.946224e-06
196.19999999994243,2.45829e-05,196.19999999994243,0.0001312537,196.19999999994243,5.115961e-06,196.19999999994243,5.927241e-06
196.21499999994242,2.442365e-05,196.21499999994242,0.0001238983,196.21499999994242,5.2679e-06,196.21499999994242,5.953326e-06
196.2299999999424,2.105086e-05,196.2299999999424,0.0001141671,196.2299999999424,5.551726e-06,196.2299999999424,5.768253e-06
196.2449999999424,2.157238e-05,196.2449999999424,0.0001018696,196.2449999999424,5.719203e-06,196.2449999999424,5.960421e-06
196.25999999994238,2.005711e-05,196.25999999994238,0.0001008467,196.25999999994238,5.584614e-06,196.25999999994238,5.915346e-06
196.27499999994237,2.14473e-05,196.27499999994237,0.0001002992,196.27499999994237,5.647323e-06,196.27499999994237,5.768253e-06
196.28999999994235,2.195748e-05,196.28999999994235,0.0001041075,196.28999999994235,5.642331e-06,196.28999999994235,5.711809e-06
196.30499999994234,2.419708e-05,196.30499999994234,0.0001021296,196.30499999994234,5.425972e-06,196.30499999994234,5.684616e-06
196.31999999994233,2.41172e-05,196.31999999994233,0.0001021434,196.31999999994233,5.469929e-06,196.31999999994233,5.677176e-06
196.3349999999423,2.420989e-05,196.3349999999423,0.0001025121,196.3349999999423,5.53139e-06,196.3349999999423,6.061194e-06
196.3499999999423,2.429005e-05,196.3499999999423,0.0001098137,196.3499999999423,5.912964e-06,196.3499999999423,6.049562e-06
196.36499999994228,2.441788e-05,196.36499999994228,0.0001104313,196.36499999994228,6.070483e-06,196.36499999994228,6.537507e-06
196.37999999994227,2.356295e-05,196.37999999994227,0.0001118081,196.37999999994227,6.054217e-06,196.37999999994227,6.621009e-06
196.39499999994226,2.239199e-05,196.39499999994226,0.0001106346,196.39499999994226,6.061194e-06,196.39499999994226,7.41962e-06
196.40999999994224,2.245231e-05,196.40999999994224,0.0001056307,196.40999999994224,6.132817e-06,196.40999999994224,7.764728e-06
196.42499999994223,2.250933e-05,196.42499999994223,0.0001043802,196.42499999994223,6.629514e-06,196.42499999994223,7.558809e-06
196.43999999994222,2.287866e-05,196.43999999994222,0.0001049007,196.43999999994222,7.22142e-06,196.43999999994222,7.564397e-06
196.4549999999422,2.481105e-05,196.4549999999422,0.0001019291,196.4549999999422,7.176414e-06,196.4549999999422,7.59228e-06
196.4699999999422,2.551916e-05,196.4699999999422,0.0001025754,196.4699999999422,7.316379e-06,196.4699999999422,7.833364e-06
196.48499999994218,2.868504e-05,196.48499999994218,0.0001086769,196.48499999994218,8.405879e-06,196.48499999994218,8.487596e-06
196.49999999994216,3.307524e-05,196.49999999994216,0.0001109562,196.49999999994216,9.640744e-06,196.49999999994216,8.475971e-06
196.51499999994215,3.414237e-05,196.51499999994215,0.0001109175,196.51499999994215,9.954182e-06,196.51499999994215,8.515764e-06
196.52999999994213,3.415763e-05,196.52999999994213,0.0001074037,196.52999999994213,1.009889e-05,196.52999999994213,8.673113e-06
196.54499999994212,3.421985e-05,196.54499999994212,0.0001041167,196.54499999994212,1.018777e-05,196.54499999994212,8.888089e-06
196.5599999999421,3.271381e-05,196.5599999999421,0.0001064733,196.5599999999421,1.021677e-05,196.5599999999421,9.024921e-06
196.5749999999421,3.279509e-05,196.5749999999421,0.0001075487,196.5749999999421,1.008493e-05,196.5749999999421,8.869049e-06
196.58999999994208,3.30386e-05,196.58999999994208,0.0001062201,196.58999999994208,1.004154e-05,196.58999999994208,8.637307e-06
196.60499999994207,3.337373e-05,196.60499999994207,9.876655e-05,196.60499999994207,1.00975e-05,196.60499999994207,8.616079e-06
196.61999999994205,3.319428e-05,196.61999999994205,0.0001006876,196.61999999994205,1.010307e-05,196.61999999994205,8.341955e-06
196.63499999994204,3.254847e-05,196.63499999994204,9.915231e-05,196.63499999994204,1.020573e-05,196.63499999994204,8.049767e-06
196.64999999994203,3.229561e-05,196.64999999994203,0.0001064641,196.64999999994203,1.012536e-05,196.64999999994203,7.237009e-06
196.664999999942,3.236402e-05,196.664999999942,0.0001168489,196.664999999942,9.979622e-06,196.664999999942,7.485775e-06
196.679999999942,3.234878e-05,196.679999999942,0.0001148463,196.679999999942,9.560042e-06,196.679999999942,7.510198e-06
196.69499999994198,3.219425e-05,196.69499999994198,0.0001262401,196.69499999994198,9.343943e-06,196.69499999994198,7.945849e-06
196.70999999994197,3.088517e-05,196.70999999994197,0.0001320186,196.70999999994197,9.348464e-06,196.70999999994197,7.71011e-06
196.72499999994196,2.942345e-05,196.72499999994196,0.0001274607,196.72499999994196,8.957552e-06,196.72499999994196,7.425313e-06
196.73999999994194,2.661668e-05,196.73999999994194,0.0001308164,196.73999999994194,7.616361e-06,196.73999999994194,7.15282e-06
196.75499999994193,2.283552e-05,196.75499999994193,0.0001309377,196.75499999994193,6.395915e-06,196.75499999994193,7.075597e-06
196.76999999994192,2.065091e-05,196.76999999994192,0.000134886,196.76999999994192,5.910582e-06,196.76999999994192,6.863372e-06
196.7849999999419,2.197031e-05,196.7849999999419,0.0001347242,196.7849999999419,5.838645e-06,196.7849999999419,6.690851e-06
196.7999999999419,2.151288e-05,196.7999999999419,0.000140114,196.7999999999419,5.814468e-06,196.7999999999419,6.699267e-06
196.81499999994188,2.111634e-05,196.81499999994188,0.0001389454,196.81499999994188,5.751133e-06,196.81499999994188,6.50294e-06
196.82999999994186,2.092805e-05,196.82999999994186,0.0001388932,196.82999999994186,5.879517e-06,196.82999999994186,6.463831e-06
196.84499999994185,2.20017e-05,196.84499999994185,0.0001404941,196.84499999994185,5.571988e-06,196.84499999994185,6.543968e-06
196.85999999994183,2.16011e-05,196.85999999994183,0.0001418175,196.85999999994183,5.472503e-06,196.85999999994183,7.129148e-06
196.87499999994182,2.171232e-05,196.87499999994182,0.0001469421,196.87499999994182,5.459618e-06,196.87499999994182,7.15282e-06
196.8899999999418,2.176546e-05,196.8899999999418,0.0001543396,196.8899999999418,5.394728e-06,196.8899999999418,7.34712e-06
196.9049999999418,2.158674e-05,196.9049999999418,0.0001427295,196.9049999999418,5.551726e-06,196.9049999999418,7.129148e-06
196.91999999994178,2.122945e-05,196.91999999994178,0.0001391512,196.91999999994178,5.627332e-06,196.91999999994178,7.616361e-06
196.93499999994177,2.132478e-05,196.93499999994177,0.0001365556,196.93499999994177,5.768253e-06,196.93499999994177,7.901403e-06
196.94999999994175,2.201514e-05,196.94999999994175,0.0001273866,196.94999999994175,5.799914e-06,196.94999999994175,7.887128e-06
196.96499999994174,2.241777e-05,196.96499999994174,0.0001400621,196.96499999994174,5.869926e-06,196.96499999994174,7.931653e-06
196.97999999994173,2.192088e-05,196.97999999994173,0.0001404459,196.97999999994173,5.995767e-06,196.97999999994173,8.166172e-06
196.9949999999417,2.1396e-05,196.9949999999417,0.0001367013,196.9949999999417,6.153455e-06,196.9949999999417,8.234882e-06
197.0099999999417,2.02173e-05,197.0099999999417,0.0001373733,197.0099999999417,6.079758e-06,197.0099999999417,8.36051e-06
197.02499999994168,1.933693e-05,197.02499999994168,0.0001349778,197.02499999994168,6.158032e-06,197.02499999994168,8.462665e-06
197.03999999994167,1.840993e-05,197.03999999994167,0.0001330627,197.03999999994167,6.11211e-06,197.03999999994167,8.173069e-06
197.05499999994166,2.141377e-05,197.05499999994166,0.000130093,197.05499999994166,6.16489e-06,197.05499999994166,8.17996e-06
197.06999999994164,2.163498e-05,197.06999999994164,0.000128889,197.06999999994164,6.158032e-06,197.06999999994164,8.188566e-06
197.08499999994163,2.133271e-05,197.08499999994163,0.0001292316,197.08499999994163,7.860292e-06,197.08499999994163,8.174792e-06
197.09999999994162,1.966274e-05,197.09999999994162,0.0001280291,197.09999999994162,8.474309e-06,197.09999999994162,7.944076e-06
197.1149999999416,2.434161e-05,197.1149999999416,0.0001252394,197.1149999999416,9.066966e-06,197.1149999999416,7.704628e-06
197.1299999999416,2.556603e-05,197.1299999999416,0.0001165043,197.1299999999416,9.480139e-06,197.1299999999416,7.693649e-06
197.14499999994158,2.927562e-05,197.14499999994158,0.0001085283,197.14499999994158,9.612942e-06,197.14499999994158,7.519571e-06
197.15999999994156,3.259216e-05,197.15999999994156,0.0001105094,197.15999999994156,1.037276e-05,197.15999999994156,7.293238e-06
197.17499999994155,3.348161e-05,197.17499999994155,0.0001108603,197.17499999994155,1.061306e-05,197.17499999994155,7.250621e-06
197.18999999994153,3.51126e-05,197.18999999994153,0.0001100365,197.18999999994153,1.111233e-05,197.18999999994153,6.963215e-06
197.20499999994152,3.584122e-05,197.20499999994152,0.000108076,197.20499999994152,1.098996e-05,197.20499999994152,6.809799e-06
197.2199999999415,3.576489e-05,197.2199999999415,9.590495e-05,197.2199999999415,1.09102e-05,197.2199999999415,6.97938e-06
197.2349999999415,3.5641e-05,197.2349999999415,9.67585e-05,197.2349999999415,1.076593e-05,197.2349999999415,6.627389e-06
197.24999999994148,3.562084e-05,197.24999999994148,9.781263e-05,197.24999999994148,1.080381e-05,197.24999999994148,6.724452e-06
197.26499999994147,3.585143e-05,197.26499999994147,0.0001031495,197.26499999994147,1.075677e-05,197.26499999994147,6.580461e-06
197.27999999994145,3.563546e-05,197.27999999994145,0.0001157497,197.27999999994145,1.077508e-05,197.27999999994145,6.413511e-06
197.29499999994144,3.473952e-05,197.29499999994144,0.0001271944,197.29499999994144,1.079598e-05,197.29499999994144,6.563313e-06
197.30999999994143,3.573533e-05,197.30999999994143,0.0001292058,197.30999999994143,1.081032e-05,197.30999999994143,6.616753e-06
197.3249999999414,3.579638e-05,197.3249999999414,0.0001289176,197.3249999999414,1.022641e-05,197.3249999999414,6.66131e-06
197.3399999999414,3.583689e-05,197.3399999999414,0.000129174,197.3399999999414,9.257612e-06,197.3399999999414,6.663425e-06
197.35499999994138,3.594365e-05,197.35499999994138,0.0001305123,197.35499999994138,9.227129e-06,197.35499999994138,6.646491e-06
197.36999999994137,3.288903e-05,197.36999999994137,0.0001314048,197.36999999994137,8.325052e-06,197.36999999994137,6.684531e-06
197.38499999994136,3.169019e-05,197.38499999994136,0.0001362045,197.38499999994136,7.997096e-06,197.38499999994136,6.863372e-06
197.39999999994134,2.826404e-05,197.39999999994134,0.0001362802,197.39999999994134,7.320229e-06,197.39999999994134,6.498606e-06
197.41499999994133,2.593909e-05,197.41499999994133,0.000136825,197.41499999994133,6.671875e-06,197.41499999994133,6.233063e-06
197.42999999994132,2.443922e-05,197.42999999994132,0.0001374108,197.42999999994132,6.128222e-06,197.42999999994132,5.903427e-06
197.4449999999413,2.194721e-05,197.4449999999413,0.0001398028,197.4449999999413,5.629835e-06,197.4449999999413,5.577042e-06
197.4599999999413,2.139798e-05,197.4599999999413,0.0001448016,197.4599999999413,5.709342e-06,197.4599999999413,5.948592e-06
197.47499999994128,2.135779e-05,197.47499999994128,0.0001631261,197.47499999994128,5.828986e-06,197.47499999994128,6.01219e-06
197.48999999994126,2.182621e-05,197.48999999994126,0.0001641724,197.48999999994126,5.809621e-06,197.48999999994126,6.178585e-06
197.50499999994125,2.302962e-05,197.50499999994125,0.0001601462,197.50499999994125,5.924864e-06,197.50499999994125,6.061194e-06
197.51999999994123,2.304247e-05,197.51999999994123,0.0001586299,197.51999999994123,6.000464e-06,197.51999999994123,6.086705e-06
197.53499999994122,2.318143e-05,197.53499999994122,0.0001487747,197.53499999994122,6.089019e-06,197.53499999994122,6.146583e-06
197.5499999999412,2.16935e-05,197.5499999999412,0.0001467625,197.5499999999412,6.100575e-06,197.5499999999412,6.077441e-06
197.5649999999412,1.942125e-05,197.5649999999412,0.000147152,197.5649999999412,6.082075e-06,197.5649999999412,6.114414e-06
197.57999999994118,1.931142e-05,197.57999999994118,0.0001503632,197.57999999994118,6.203613e-06,197.57999999994118,6.037908e-06
197.59499999994117,2.028408e-05,197.59499999994117,0.0001514092,197.59499999994117,6.16489e-06,197.59499999994117,6.072803e-06
197.60999999994115,2.022287e-05,197.60999999994115,0.0001561652,197.60999999994115,6.06584e-06,197.60999999994115,6.014533e-06
197.62499999994114,2.02938e-05,197.62499999994114,0.0001535347,197.62499999994114,5.988714e-06,197.62499999994114,5.976941e-06
197.63999999994112,1.762497e-05,197.63999999994112,0.0001525063,197.63999999994112,5.862722e-06,197.63999999994112,5.931993e-06
197.6549999999411,1.869693e-05,197.6549999999411,0.0001538558,197.6549999999411,5.526294e-06,197.6549999999411,6.787006e-06
197.6699999999411,1.857675e-05,197.6699999999411,0.0001558506,197.6699999999411,5.559333e-06,197.6699999999411,6.822199e-06
197.68499999994108,1.88836e-05,197.68499999994108,0.0001543041,197.68499999994108,5.597212e-06,197.68499999994108,6.934835e-06
197.69999999994107,1.771903e-05,197.69999999994107,0.0001546179,197.69999999994107,5.564399e-06,197.69999999994107,7.103415e-06
197.71499999994106,1.870823e-05,197.71499999994106,0.0001300876,197.71499999994106,5.891484e-06,197.71499999994106,6.747456e-06
197.72999999994104,2.061678e-05,197.72999999994104,0.0001164822,197.72999999994104,5.929618e-06,197.72999999994104,6.539662e-06
197.74499999994103,2.00957e-05,197.74499999994103,0.0001161465,197.74499999994103,5.751133e-06,197.74499999994103,6.426676e-06
197.75999999994102,1.863656e-05,197.75999999994102,0.0001154394,197.75999999994102,5.672212e-06,197.75999999994102,6.509435e-06
197.774999999941,1.827477e-05,197.774999999941,0.0001166442,197.774999999941,5.694519e-06,197.774999999941,6.494269e-06
197.789999999941,1.9151e-05,197.789999999941,0.0001173323,197.789999999941,5.662269e-06,197.789999999941,6.561167e-06
197.80499999994097,1.918114e-05,197.80499999994097,0.0001118151,197.80499999994097,6.007502e-06,197.80499999994097,6.431058e-06
197.81999999994096,2.212429e-05,197.81999999994096,0.0001270351,197.81999999994096,6.08439e-06,197.81999999994096,6.563313e-06
197.83499999994095,2.34731e-05,197.83499999994095,0.000131563,197.83499999994095,6.444187e-06,197.83499999994095,6.803591e-06
197.84999999994093,2.286018e-05,197.84999999994093,0.0001292212,197.84999999994093,6.663425e-06,197.84999999994093,6.701369e-06
197.86499999994092,2.356235e-05,197.86499999994092,0.0001236074,197.86499999994092,6.69506e-06,197.86499999994092,6.699267e-06
197.8799999999409,2.443576e-05,197.8799999999409,0.0001243723,197.8799999999409,6.809799e-06,197.8799999999409,6.920602e-06
197.8949999999409,2.492208e-05,197.8949999999409,0.0001256453,197.8949999999409,6.855157e-06,197.8949999999409,6.902258e-06
197.90999999994088,2.916281e-05,197.90999999994088,0.0001247765,197.90999999994088,7.03967e-06,197.90999999994088,6.262374e-06
197.92499999994087,3.011573e-05,197.92499999994087,0.0001209857,197.92499999994087,7.168558e-06,197.92499999994087,6.171741e-06
197.93999999994085,3.07572e-05,197.93999999994085,0.0001208953,197.93999999994085,7.174451e-06,197.93999999994085,6.093644e-06
197.95499999994084,3.096534e-05,197.95499999994084,0.0001210888,197.95499999994084,7.262268e-06,197.95499999994084,6.028569e-06
197.96999999994082,2.960292e-05,197.96999999994082,0.0001245153,197.96999999994082,7.013608e-06,197.96999999994082,5.998116e-06
197.9849999999408,2.948371e-05,197.9849999999408,0.0001243671,197.9849999999408,7.04567e-06,197.9849999999408,5.976941e-06
197.9999999999408,2.987952e-05,197.9999999999408,0.0001265786,197.9999999999408,7.287441e-06,197.9999999999408,5.848288e-06
198.01499999994078,3.036448e-05,198.01499999994078,0.000133084,198.01499999994078,7.560672e-06,198.01499999994078,5.901041e-06
198.02999999994077,3.038535e-05,198.02999999994077,0.0001339131,198.02999999994077,7.489538e-06,198.02999999994077,5.841057e-06
198.04499999994076,3.001875e-05,198.04499999994076,0.0001341119,198.04499999994076,7.480127e-06,198.04499999994076,5.8867e-06
198.05999999994074,3.056193e-05,198.05999999994074,0.0001367718,198.05999999994074,8.207468e-06,198.05999999994074,5.929618e-06
198.07499999994073,2.774543e-05,198.07499999994073,0.0001501385,198.07499999994073,8.517419e-06,198.07499999994073,5.495621e-06
198.08999999994072,2.777081e-05,198.08999999994072,0.0001535718,198.08999999994072,8.747506e-06,198.08999999994072,6.455107e-06
198.1049999999407,2.778703e-05,198.1049999999407,0.000156803,198.1049999999407,9.094889e-06,198.1049999999407,6.244353e-06
198.1199999999407,2.968655e-05,198.1199999999407,0.0001580396,198.1199999999407,9.15971e-06,198.1199999999407,6.262374e-06
198.13499999994067,3.000279e-05,198.13499999994067,0.0001587729,198.13499999994067,9.313742e-06,198.13499999994067,6.141998e-06
198.14999999994066,2.870958e-05,198.14999999994066,0.0001720073,198.14999999994066,9.494987e-06,198.14999999994066,6.08439e-06
198.16499999994065,3.351021e-05,198.16499999994065,0.0001799626,198.16499999994065,1.003171e-05,198.16499999994065,6.091332e-06
198.17999999994063,3.343361e-05,198.17999999994063,0.0001835794,198.17999999994063,1.018224e-05,198.17999999994063,6.151165e-06
198.19499999994062,3.302964e-05,198.19499999994062,0.0001828021,198.19499999994062,1.036189e-05,198.19499999994062,6.155743e-06
198.2099999999406,3.444429e-05,198.2099999999406,0.0001833436,198.2099999999406,1.030053e-05,198.2099999999406,6.228541e-06
198.2249999999406,3.441401e-05,198.2249999999406,0.0001830319,198.2249999999406,1.044449e-05,198.2249999999406,7.521444e-06
198.23999999994058,3.442751e-05,198.23999999994058,0.0001836289,198.23999999994058,1.059181e-05,198.23999999994058,7.540149e-06
198.25499999994057,3.435132e-05,198.25499999994057,0.0001842095,198.25499999994057,1.116544e-05,198.25499999994057,7.551351e-06
198.26999999994055,3.572903e-05,198.26999999994055,0.0001791676,198.26999999994055,1.121077e-05,198.26999999994055,7.451826e-06
198.28499999994054,3.786926e-05,198.28499999994054,0.0001773341,198.28499999994054,1.172424e-05,198.28499999994054,7.487657e-06
198.29999999994052,3.788488e-05,198.29999999994052,0.0001765121,198.29999999994052,1.183069e-05,198.29999999994052,7.603404e-06
198.3149999999405,3.754612e-05,198.3149999999405,0.0001714696,198.3149999999405,1.132703e-05,198.3149999999405,7.671647e-06
198.3299999999405,3.927923e-05,198.3299999999405,0.0001390318,198.3299999999405,1.113639e-05,198.3299999999405,7.764728e-06
198.34499999994048,3.958752e-05,198.34499999994048,0.0001399633,198.34499999994048,1.146301e-05,198.34499999994048,7.22337e-06
198.35999999994047,4.270997e-05,198.35999999994047,0.0001396965,198.35999999994047,1.277089e-05,198.35999999994047,7.262268e-06
198.37499999994046,4.986027e-05,198.37499999994046,0.0001381065,198.37499999994046,1.490932e-05,198.37499999994046,7.349037e-06
198.38999999994044,5.086912e-05,198.38999999994044,0.0001328802,198.38999999994044,1.52281e-05,198.38999999994044,7.364355e-06
198.40499999994043,5.177081e-05,198.40499999994043,0.0001090757,198.40499999994043,1.505131e-05,198.40499999994043,7.362442e-06
198.41999999994042,4.741942e-05,198.41999999994042,0.0001115958,198.41999999994042,1.46395e-05,198.41999999994042,7.463159e-06
198.4349999999404,4.740575e-05,198.4349999999404,0.0001108918,198.4349999999404,1.465296e-05,198.4349999999404,7.47636e-06
198.4499999999404,4.787353e-05,198.4499999999404,0.0001114582,198.4499999999404,1.477169e-05,198.4499999999404,7.406318e-06
198.46499999994037,4.752565e-05,198.46499999994037,0.0001141137,198.46499999994037,1.483924e-05,198.46499999994037,7.235062e-06
198.47999999994036,4.749511e-05,198.47999999994036,0.0001179468,198.47999999994036,1.494801e-05,198.47999999994036,5.910582e-06
198.49499999994035,4.739535e-05,198.49499999994035,0.0001203802,198.49499999994035,1.498754e-05,198.49499999994035,5.995767e-06
198.50999999994033,4.740783e-05,198.50999999994033,0.000119227,198.50999999994033,1.450318e-05,198.50999999994033,6.056544e-06
198.52499999994032,4.878613e-05,198.52499999994032,0.0001175808,198.52499999994032,1.418798e-05,198.52499999994032,6.251117e-06
198.5399999999403,4.792324e-05,198.5399999999403,0.0001195374,198.5399999999403,1.406833e-05,198.5399999999403,6.325044e-06
198.5549999999403,4.769312e-05,198.5549999999403,0.0001281347,198.5549999999403,1.398195e-05,198.5549999999403,6.627389e-06
198.56999999994028,4.861431e-05,198.56999999994028,0.0001285859,198.56999999994028,1.410233e-05,198.56999999994028,6.603967e-06
198.58499999994027,4.739535e-05,198.58499999994027,0.0001297886,198.58499999994027,1.358024e-05,198.58499999994027,6.669763e-06
198.59999999994025,4.732694e-05,198.59999999994025,0.0001251216,198.59999999994025,1.316734e-05,198.59999999994025,6.759971e-06
198.61499999994024,3.654221e-05,198.61499999994024,0.0001313159,198.61499999994024,1.008493e-05,198.61499999994024,7.190141e-06
198.62999999994022,3.857466e-05,198.62999999994022,0.0001394406,198.62999999994022,1.007235e-05,198.62999999994022,7.2971e-06
198.6449999999402,3.751459e-05,198.6449999999402,0.0001496734,198.6449999999402,9.771364e-06,198.6449999999402,7.515824e-06
198.6599999999402,3.622551e-05,198.6599999999402,0.0001482725,198.6599999999402,9.921579e-06,198.6599999999402,7.483893e-06
198.67499999994018,3.626593e-05,198.67499999994018,0.0001414897,198.67499999994018,9.780009e-06,198.67499999994018,7.704628e-06
198.68999999994017,3.648473e-05,198.68999999994017,0.0001424757,198.68999999994017,9.68448e-06,198.68999999994017,8.15236e-06
198.70499999994016,3.543925e-05,198.70499999994016,0.0001475781,198.70499999994016,9.404052e-06,198.70499999994016,8.171345e-06
198.71999999994014,3.469448e-05,198.71999999994014,0.0001429793,198.71999999994014,9.425e-06,198.71999999994014,8.200599e-06
198.73499999994013,3.540107e-05,198.73499999994013,0.0001476349,198.73499999994013,9.0374e-06,198.73499999994013,8.323359e-06
198.74999999994012,3.534971e-05,198.74999999994012,0.0001465607,198.74999999994012,8.922889e-06,198.74999999994012,8.323359e-06
198.7649999999401,3.347109e-05,198.7649999999401,0.000146547,198.7649999999401,8.802089e-06,198.7649999999401,8.601352e-06
198.7799999999401,3.286889e-05,198.7799999999401,0.0001492744,198.7799999999401,8.653601e-06,198.7799999999401,8.530639e-06
198.79499999994007,3.309994e-05,198.79499999994007,0.0001421813,198.79499999994007,8.594799e-06,198.79499999994007,8.480955e-06
198.80999999994006,3.302026e-05,198.80999999994006,0.0001367273,198.80999999994006,8.345331e-06,198.80999999994006,8.079462e-06
198.82499999994005,3.224279e-05,198.82499999994005,0.0001350627,198.82499999994005,8.231461e-06,198.82499999994005,8.178238e-06
198.83999999994003,3.302069e-05,198.83999999994003,0.0001386848,198.83999999994003,8.475971e-06,198.83999999994003,8.03926e-06
198.85499999994002,3.33074e-05,198.85499999994002,0.0001446125,198.85499999994002,8.425965e-06,198.85499999994002,7.804539e-06
198.86999999994,3.022825e-05,198.86999999994,0.0001506818,198.86999999994,7.180339e-06,198.86999999994,7.551351e-06
198.88499999994,2.785741e-05,198.88499999994,0.0001487696,198.88499999994,7.025649e-06,198.88499999994,7.577422e-06
198.89999999993998,2.597111e-05,198.89999999993998,0.0001616626,198.89999999993998,7.069622e-06,198.89999999993998,7.523317e-06
198.91499999993997,2.566667e-05,198.91499999993997,0.0001638231,198.91499999993997,6.94904e-06,198.91499999993997,7.726537e-06
198.92999999993995,2.552854e-05,198.92999999993995,0.0001648407,198.92999999993995,7.41962e-06,198.92999999993995,8.044515e-06
198.94499999993994,2.668697e-05,198.94499999993994,0.0001649552,198.94499999993994,7.410121e-06,198.94499999993994,7.730182e-06
198.95999999993992,3.05278e-05,198.95999999993992,0.000166789,198.95999999993992,7.62006e-06,198.95999999993992,7.669811e-06
198.9749999999399,3.064478e-05,198.9749999999399,0.0001770761,198.9749999999399,7.410121e-06,198.9749999999399,7.66246e-06
198.9899999999399,3.083313e-05,198.9899999999399,0.0001721091,198.9899999999399,7.510198e-06,198.9899999999399,7.354785e-06
199.00499999993988,3.077734e-05,199.00499999993988,0.0001910528,199.00499999993988,7.582997e-06,199.00499999993988,7.629297e-06
199.01999999993987,2.948897e-05,199.01999999993987,0.0002135961,199.01999999993987,7.568121e-06,199.01999999993987,7.34712e-06
199.03499999993986,2.815067e-05,199.03499999993986,0.0002360209,199.03499999993986,7.542018e-06,199.03499999993986,7.768356e-06
199.04999999993984,2.785943e-05,199.04999999993984,0.0002359803,199.04999999993984,7.487657e-06,199.04999999993984,8.129866e-06
199.06499999993983,2.814717e-05,199.06499999993983,0.0002374304,199.06499999993983,7.532673e-06,199.06499999993983,8.622616e-06
199.07999999993982,2.681073e-05,199.07999999993982,0.0002354404,199.07999999993982,7.48201e-06,199.07999999993982,8.622616e-06
199.0949999999398,3.074987e-05,199.0949999999398,0.0002351021,199.0949999999398,7.768356e-06,199.0949999999398,8.459336e-06
199.1099999999398,3.009233e-05,199.1099999999398,0.0002314577,199.1099999999398,8.049767e-06,199.1099999999398,8.576751e-06
199.12499999993977,2.969461e-05,199.12499999993977,0.0002257605,199.12499999993977,8.309809e-06,199.12499999993977,8.58496e-06
199.13999999993976,2.995439e-05,199.13999999993976,0.00021076,199.13999999993976,8.462665e-06,199.13999999993976,8.484277e-06
199.15499999993975,3.124927e-05,199.15499999993975,0.0002096064,199.15499999993975,8.620983e-06,199.15499999993975,8.519072e-06
199.16999999993973,3.223973e-05,199.16999999993973,0.0002079856,199.16999999993973,9.233234e-06,199.16999999993973,8.141986e-06
199.18499999993972,3.276115e-05,199.18499999993972,0.0002080725,199.18499999993972,8.914992e-06,199.18499999993972,7.733825e-06
199.1999999999397,3.155477e-05,199.1999999999397,0.0002078795,199.1999999999397,9.085591e-06,199.1999999999397,7.656943e-06
199.2149999999397,3.170929e-05,199.2149999999397,0.0001951018,199.2149999999397,8.95598e-06,199.2149999999397,7.730182e-06
199.22999999993968,3.592288e-05,199.22999999993968,0.0001928377,199.22999999993968,9.596809e-06,199.22999999993968,7.862084e-06
199.24499999993967,3.927995e-05,199.24499999993967,0.0001957429,199.24499999993967,1.029779e-05,199.24499999993967,7.775606e-06
199.25999999993965,4.040079e-05,199.25999999993965,0.0001835394,199.25999999993965,1.044853e-05,199.25999999993965,7.766543e-06
199.27499999993964,4.071719e-05,199.27499999993964,0.0001417061,199.27499999993964,1.0762e-05,199.27499999993964,7.708283e-06
199.28999999993962,4.073034e-05,199.28999999993962,0.0001347523,199.28999999993962,1.067131e-05,199.28999999993962,7.29903e-06
199.3049999999396,4.066769e-05,199.3049999999396,0.0001402597,199.3049999999396,1.082985e-05,199.3049999999396,7.154789e-06
199.3199999999396,4.037777e-05,199.3199999999396,0.0001477137,199.3199999999396,1.093342e-05,199.3199999999396,6.770382e-06
199.33499999993958,3.78886e-05,199.33499999993958,0.000149577,199.33499999993958,1.080381e-05,199.33499999993958,6.766219e-06
199.34999999993957,3.725988e-05,199.34999999993957,0.0001490519,199.34999999993957,1.077116e-05,199.34999999993957,7.137048e-06
199.36499999993956,3.734787e-05,199.36499999993956,0.0001440591,199.36499999993956,1.071083e-05,199.36499999993956,7.057657e-06
199.37999999993954,3.806664e-05,199.37999999993954,0.0001392149,199.37999999993954,1.056917e-05,199.37999999993954,7.15085e-06
199.39499999993953,3.748604e-05,199.39499999993953,0.0001397721,199.39499999993953,1.034147e-05,199.39499999993953,7.634834e-06
199.40999999993952,3.704985e-05,199.40999999993952,0.0001410278,199.40999999993952,1.024843e-05,199.40999999993952,7.799122e-06
199.4249999999395,3.473384e-05,199.4249999999395,0.0001406368,199.4249999999395,9.677204e-06,199.4249999999395,7.806343e-06
199.4399999999395,3.538794e-05,199.4399999999395,0.0001417019,199.4399999999395,9.68157e-06,199.4399999999395,7.784659e-06
199.45499999993947,3.600043e-05,199.45499999993947,0.000141944,199.45499999993947,9.564462e-06,199.45499999993947,8.03926e-06
199.46999999993946,3.771382e-05,199.46999999993946,0.0001418656,199.46999999993946,9.441426e-06,199.46999999993946,8.331817e-06
199.48499999993945,3.370929e-05,199.48499999993945,0.0001389632,199.48499999993945,9.080939e-06,199.48499999993945,8.21433e-06
199.49999999993943,3.058727e-05,199.49999999993943,0.0001119956,199.49999999993943,8.402527e-06,199.49999999993943,8.005899e-06
199.51499999993942,2.869829e-05,199.51499999993942,0.0001158422,199.51499999993942,8.325052e-06,199.51499999993942,7.845942e-06
199.5299999999394,2.876252e-05,199.5299999999394,0.0001155461,199.5299999999394,8.173069e-06,199.5299999999394,7.915653e-06
199.5449999999394,2.887056e-05,199.5449999999394,0.000111775,199.5449999999394,8.183403e-06,199.5449999999394,8.016449e-06
199.55999999993938,2.899714e-05,199.55999999993938,0.0001001741,199.55999999993938,8.188566e-06,199.55999999993938,7.956479e-06
199.57499999993937,2.898062e-05,199.57499999993937,9.938674e-05,199.57499999993937,8.129866e-06,199.57499999993937,7.845942e-06
199.58999999993935,2.875077e-05,199.58999999993935,0.000106581,199.58999999993935,7.974164e-06,199.58999999993935,7.961788e-06
199.60499999993934,2.865507e-05,199.60499999993934,0.0001072726,199.60499999993934,7.656943e-06,199.60499999993934,7.449935e-06
199.61999999993932,2.824609e-05,199.61999999993932,0.0001097776,199.61999999993932,7.329844e-06,199.61999999993932,7.664298e-06
199.6349999999393,2.778805e-05,199.6349999999393,0.0001122413,199.6349999999393,7.231167e-06,199.6349999999393,7.343284e-06
199.6499999999393,2.809006e-05,199.6499999999393,0.0001098874,199.6499999999393,7.166593e-06,199.6499999999393,6.571893e-06
199.66499999993928,2.934819e-05,199.66499999993928,0.0001104135,199.66499999993928,7.480127e-06,199.66499999993928,6.803591e-06
199.67999999993927,3.03422e-05,199.67999999993927,0.0001289802,199.67999999993927,7.691819e-06,199.67999999993927,7.190141e-06
199.69499999993926,2.982148e-05,199.69499999993926,0.0001318209,199.69499999993926,7.647739e-06,199.69499999993926,7.1921e-06
199.70999999993924,2.60745e-05,199.70999999993924,0.0001319206,199.70999999993924,7.48201e-06,199.70999999993924,6.900217e-06
199.72499999993923,2.184299e-05,199.72499999993923,0.0001346858,199.72499999993923,7.135074e-06,199.72499999993923,7.095478e-06
199.73999999993922,2.545781e-05,199.73999999993922,0.0001345727,199.73999999993922,6.942956e-06,199.73999999993922,7.117283e-06
199.7549999999392,2.80082e-05,199.7549999999392,0.0001337335,199.7549999999392,6.955118e-06,199.7549999999392,7.283574e-06
199.7699999999392,2.928139e-05,199.7699999999392,0.0001329386,199.7699999999392,6.688745e-06,199.7699999999392,7.385367e-06
199.78499999993917,2.927033e-05,199.78499999993917,0.0001317048,199.78499999993917,6.789081e-06,199.78499999993917,7.291306e-06
199.79999999993916,2.863343e-05,199.79999999993916,0.0001336188,199.79999999993916,6.834577e-06,199.79999999993916,7.079578e-06
199.81499999993915,2.884273e-05,199.81499999993915,0.0001339103,199.81499999993915,1.498378e-05,199.81499999993915,7.15282e-06
199.82999999993913,2.88398e-05,199.82999999993913,0.0001332501,199.82999999993913,1.496025e-05,199.82999999993913,6.987449e-06
199.84499999993912,2.904228e-05,199.84499999993912,0.0001397407,199.84499999993912,1.523087e-05,199.84499999993912,6.94904e-06
199.8599999999391,3.393586e-05,199.8599999999391,0.0001407464,199.8599999999391,1.535614e-05,199.8599999999391,6.918566e-06
199.8749999999391,3.376941e-05,199.8749999999391,0.0001379696,199.8749999999391,1.539828e-05,199.8749999999391,6.684531e-06
199.88999999993908,3.277791e-05,199.88999999993908,0.0001357913,199.88999999993908,1.536623e-05,199.88999999993908,6.686639e-06
199.90499999993906,3.278264e-05,199.90499999993906,0.0001375881,199.90499999993906,1.517621e-05,199.90499999993906,6.599699e-06
199.91999999993905,3.243054e-05,199.91999999993905,0.0001306405,199.91999999993905,1.517899e-05,199.91999999993905,6.367219e-06
199.93499999993904,3.03974e-05,199.93499999993904,0.0001183385,199.93499999993904,1.511482e-05,199.93499999993904,5.986361e-06
199.94999999993902,3.134964e-05,199.94999999993902,0.0001221003,199.94999999993902,1.511296e-05,199.94999999993902,6.235322e-06
199.964999999939,3.140172e-05,199.964999999939,0.0001170585,199.964999999939,1.515206e-05,199.964999999939,6.2781e-06
199.979999999939,3.098262e-05,199.979999999939,0.0001181637,199.979999999939,1.521607e-05,199.979999999939,5.881913e-06
199.99499999993898,2.701643e-05,199.99499999993898,0.0001199111,199.99499999993898,1.516414e-05,199.99499999993898,5.848288e-06
200.00999999993897,2.502474e-05,200.00999999993897,0.0001182325,200.00999999993897,1.521514e-05,200.00999999993897,5.721665e-06
200.02499999993896,2.483261e-05,200.02499999993896,0.0001179295,200.02499999993896,1.519476e-05,200.02499999993896,5.561867e-06
200.03999999993894,2.517739e-05,200.03999999993894,0.0001178526,200.03999999993894,1.51827e-05,200.03999999993894,5.602244e-06
200.05499999993893,2.7537e-05,200.05499999993893,0.0001182529,200.05499999993893,1.506348e-05,200.05499999993893,5.394728e-06
200.06999999993891,2.740624e-05,200.06999999993891,0.0001177224,200.06999999993891,7.011599e-06,200.06999999993891,5.376418e-06
200.0849999999389,2.724023e-05,200.0849999999389,0.0001154889,200.0849999999389,6.928738e-06,200.0849999999389,5.431162e-06
200.0999999999389,2.497741e-05,200.0999999999389,0.0001120322,200.0999999999389,6.593293e-06,200.0999999999389,5.475077e-06
200.11499999993887,2.30901e-05,200.11499999993887,0.0001182398,200.11499999993887,6.387099e-06,200.11499999993887,5.441526e-06
200.12999999993886,2.40347e-05,200.12999999993886,0.0001188088,200.12999999993886,6.384893e-06,200.12999999993886,5.554263e-06
200.14499999993885,2.551198e-05,200.14499999993885,0.0001192361,200.14499999993885,6.470365e-06,200.14499999993885,5.521194e-06
200.15999999993883,2.410201e-05,200.15999999993883,0.0001182563,200.15999999993883,6.287069e-06,200.15999999993883,5.649817e-06
200.17499999993882,2.417321e-05,200.17499999993882,0.0001205015,200.17499999993882,6.340615e-06,200.17499999993882,5.549188e-06
200.1899999999388,2.454677e-05,200.1899999999388,0.000121965,200.1899999999388,6.382687e-06,200.1899999999388,5.642331e-06
200.2049999999388,2.322575e-05,200.2049999999388,0.000117412,200.2049999999388,6.269119e-06,200.2049999999388,5.352786e-06
200.21999999993878,2.506692e-05,200.21999999993878,0.0001186649,200.21999999993878,6.030905e-06,200.21999999993878,5.352786e-06
200.23499999993876,2.463441e-05,200.23499999993876,0.0001165605,200.23499999993876,5.948592e-06,200.23499999993876,4.899358e-06
200.24999999993875,2.477127e-05,200.24999999993875,0.0001163475,200.24999999993875,6.219488e-06,200.24999999993875,4.947995e-06
200.26499999993874,2.47451e-05,200.26499999993874,0.0001153049,200.26499999993874,6.185421e-06,200.26499999993874,4.893604e-06
200.27999999993872,2.471092e-05,200.27999999993872,0.0001138576,200.27999999993872,6.320588e-06,200.27999999993872,4.93374e-06
200.2949999999387,2.37256e-05,200.2949999999387,0.0001131456,200.2949999999387,6.755802e-06,200.2949999999387,4.876302e-06
200.3099999999387,2.190416e-05,200.3099999999387,0.0001111526,200.3099999999387,9.494987e-06,200.3099999999387,5.032679e-06
200.32499999993868,2.197415e-05,200.32499999993868,0.000110181,200.32499999993868,1.352411e-05,200.32499999993868,5.60727e-06
200.33999999993867,2.579532e-05,200.33999999993867,0.0001089947,200.33999999993867,1.350013e-05,200.33999999993867,6.400318e-06
200.35499999993866,2.516563e-05,200.35499999993866,9.230381e-05,200.35499999993866,1.351473e-05,200.35499999993866,6.446372e-06
200.36999999993864,2.390835e-05,200.36999999993864,9.36164e-05,200.36999999993864,1.349074e-05,200.36999999993864,6.774542e-06
200.38499999993863,2.292172e-05,200.38499999993863,9.357907e-05,200.38499999993863,1.364956e-05,200.38499999993863,7.442368e-06
200.39999999993861,2.545781e-05,200.39999999993861,9.844984e-05,200.39999999993861,1.372161e-05,200.39999999993861,7.750201e-06
200.4149999999386,2.756665e-05,200.4149999999386,0.0001118027,200.4149999999386,1.426521e-05,200.4149999999386,7.795508e-06
200.4299999999386,2.900928e-05,200.4299999999386,0.000112331,200.4299999999386,1.441257e-05,200.4299999999386,7.99181e-06
200.44499999993857,3.046776e-05,200.44499999993857,0.0001089991,200.44499999993857,1.443796e-05,200.44499999993857,7.872827e-06
200.45999999993856,3.349507e-05,200.45999999993856,0.0001199513,200.45999999993856,1.491688e-05,200.45999999993856,8.009417e-06
200.47499999993855,3.288903e-05,200.47499999993855,0.0001407648,200.47499999993855,1.498472e-05,200.47499999993855,8.296236e-06
200.48999999993853,3.312504e-05,200.48999999993853,0.0001561574,200.48999999993853,1.495837e-05,200.48999999993853,8.382385e-06
200.50499999993852,3.338639e-05,200.50499999993852,0.0001573559,200.50499999993852,1.488663e-05,200.50499999993852,8.340267e-06
200.5199999999385,3.348792e-05,200.5199999999385,0.0001626209,200.5199999999385,1.487811e-05,200.5199999999385,8.380704e-06
200.5349999999385,3.367794e-05,200.5349999999385,0.0001620756,200.5349999999385,1.493858e-05,200.5349999999385,8.390783e-06
200.54999999993848,3.391427e-05,200.54999999993848,0.0001654924,200.54999999993848,1.464334e-05,200.54999999993848,8.45767e-06
200.56499999993846,3.407257e-05,200.56499999993846,0.000172804,200.56499999993846,1.105896e-05,200.56499999993846,8.54384e-06
200.57999999993845,3.4468e-05,200.57999999993845,0.0001728348,200.57999999993845,9.407047e-06,200.57999999993845,7.894269e-06
200.59499999993844,3.179713e-05,200.59499999993844,0.0001704499,200.59499999993844,9.502402e-06,200.59499999993844,7.568121e-06
200.60999999993842,3.182414e-05,200.60999999993842,0.000171311,200.60999999993842,9.716427e-06,200.60999999993842,7.547619e-06
200.6249999999384,3.276802e-05,200.6249999999384,0.000171702,200.6249999999384,9.680115e-06,200.6249999999384,7.42721e-06
200.6399999999384,3.315862e-05,200.6399999999384,0.000168901,200.6399999999384,9.683024e-06,200.6399999999384,6.439814e-06
200.65499999993838,3.153601e-05,200.65499999993838,0.0001653951,200.65499999993838,9.67866e-06,200.65499999993838,6.25337e-06
200.66999999993837,2.898694e-05,200.66999999993837,0.0001610414,200.66999999993837,8.750726e-06,200.66999999993837,6.044903e-06
200.68499999993836,2.85763e-05,200.68499999993836,0.0001598246,200.68499999993836,8.568535e-06,200.68499999993836,6.139704e-06
200.69999999993834,2.520143e-05,200.69999999993834,0.0001648579,200.69999999993834,8.335198e-06,200.69999999993834,6.19225e-06
200.71499999993833,2.333587e-05,200.71499999993833,0.0001593198,200.71499999993833,7.586711e-06,200.71499999993833,6.349495e-06
200.72999999993831,2.29168e-05,200.72999999993831,0.0001405807,200.72999999993831,7.579281e-06,200.72999999993831,6.042573e-06
200.7449999999383,2.25306e-05,200.7449999999383,0.0001270405,200.7449999999383,7.607108e-06,200.7449999999383,6.214957e-06
200.7599999999383,2.226392e-05,200.7599999999383,0.0001281655,200.7599999999383,7.649581e-06,200.7599999999383,6.340615e-06
200.77499999993827,2.215483e-05,200.77499999993827,0.0001411086,200.77499999993827,7.699141e-06,200.77499999993827,6.834577e-06
200.78999999993826,2.150502e-05,200.78999999993826,0.0001403635,200.78999999993826,6.865424e-06,200.78999999993826,7.270023e-06
200.80499999993825,2.313277e-05,200.80499999993825,0.0001330193,200.80499999993825,6.494269e-06,200.80499999993825,7.560672e-06
200.81999999993823,2.210327e-05,200.81999999993823,0.0001288058,200.81999999993823,6.48993e-06,200.81999999993823,7.768356e-06
200.83499999993822,2.23643e-05,200.83499999993822,0.0001526147,200.83499999993822,6.593293e-06,200.83499999993822,7.711938e-06
200.8499999999382,2.322332e-05,200.8499999999382,0.000152613,200.8499999999382,6.428867e-06,200.8499999999382,7.899621e-06
200.8649999999382,2.265903e-05,200.8649999999382,0.0001517476,200.8649999999382,6.362793e-06,200.8649999999382,8.089915e-06
200.87999999993818,2.064477e-05,200.87999999993818,0.0001556558,200.87999999993818,6.063518e-06,200.87999999993818,7.878193e-06
200.89499999993816,1.987579e-05,200.89499999993816,0.0001558758,200.89499999993816,5.860319e-06,200.89499999993816,7.847737e-06
200.90999999993815,1.950304e-05,200.90999999993815,0.0001615627,200.90999999993815,5.795054e-06,200.90999999993815,8.109047e-06
200.92499999993814,1.885672e-05,200.92499999993814,0.0001661477,200.92499999993814,5.743781e-06,200.92499999993814,8.074229e-06
200.93999999993812,1.854791e-05,200.93999999993812,0.0001671186,200.93999999993812,5.682137e-06,200.93999999993812,8.216045e-06
200.9549999999381,1.736408e-05,200.9549999999381,0.0001639095,200.9549999999381,5.694519e-06,200.9549999999381,8.379024e-06
200.9699999999381,1.711733e-05,200.9699999999381,0.0001694621,200.9699999999381,5.689569e-06,200.9699999999381,8.456004e-06
200.98499999993808,1.83225e-05,200.98499999993808,0.0001668736,200.98499999993808,5.634837e-06,200.98499999993808,8.46433e-06
200.99999999993807,1.896474e-05,200.99999999993807,0.0001663116,200.99999999993807,5.706874e-06,200.99999999993807,8.202317e-06
201.01499999993806,2.029241e-05,201.01499999993806,0.000153528,201.01499999993806,5.696992e-06,201.01499999993806,8.096878e-06
201.02999999993804,2.109432e-05,201.02999999993804,0.0001509506,201.02999999993804,5.711809e-06,201.02999999993804,7.27196e-06
201.04499999993803,2.026671e-05,201.04499999993803,0.0001508929,201.04499999993803,7.061647e-06,201.04499999993803,7.103415e-06
201.05999999993801,1.95665e-05,201.05999999993801,0.0001505382,201.05999999993801,7.809951e-06,201.05999999993801,6.625263e-06
201.074999999938,2.139732e-05,201.074999999938,0.0001285012,201.074999999938,7.739288e-06,201.074999999938,6.797376e-06
201.089999999938,2.19985e-05,201.089999999938,0.0001244526,201.089999999938,7.773794e-06,201.089999999938,6.989465e-06
201.10499999993797,2.090245e-05,201.10499999993797,0.0001241067,201.10499999993797,8.021719e-06,201.10499999993797,6.780777e-06
201.11999999993796,2.085523e-05,201.11999999993796,0.0001234638,201.11999999993796,9.735256e-06,201.11999999993796,6.74119e-06
201.13499999993795,2.076859e-05,201.13499999993795,0.0001213484,201.13499999993795,9.913058e-06,201.13499999993795,6.922637e-06
201.14999999993793,2.293155e-05,201.14999999993793,0.000123528,201.14999999993793,1.01684e-05,201.14999999993793,7.00557e-06
201.16499999993792,2.649201e-05,201.16499999993792,0.0001137176,201.16499999993792,1.044044e-05,201.16499999993792,6.851046e-06
201.1799999999379,2.835013e-05,201.1799999999379,0.0001123458,201.1799999999379,1.078684e-05,201.1799999999379,6.669763e-06
201.1949999999379,2.881341e-05,201.1949999999379,0.0001087254,201.1949999999379,1.113133e-05,201.1949999999379,6.678206e-06
201.20999999993788,2.983234e-05,201.20999999993788,0.0001287418,201.20999999993788,1.115156e-05,201.20999999993788,6.481242e-06
201.22499999993786,3.086829e-05,201.22499999993786,0.0001285364,201.22499999993786,1.121203e-05,201.22499999993786,6.239839e-06
201.23999999993785,3.068521e-05,201.23999999993785,0.0001289828,201.23999999993785,1.121328e-05,201.23999999993785,6.183143e-06
201.25499999993784,3.003423e-05,201.25499999993784,0.0001293299,201.25499999993784,1.127967e-05,201.25499999993784,6.237581e-06
201.26999999993782,3.109291e-05,201.26999999993782,0.0001332795,201.26999999993782,1.137171e-05,201.26999999993782,6.358363e-06
201.2849999999378,3.165816e-05,201.2849999999378,0.0001474799,201.2849999999378,1.125216e-05,201.2849999999378,6.420096e-06
201.2999999999378,3.290402e-05,201.2999999999378,0.000148805,201.2999999999378,1.032648e-05,201.2999999999378,6.437625e-06
201.31499999993778,3.270822e-05,201.31499999993778,0.0001500935,201.31499999993778,1.028684e-05,201.31499999993778,6.171741e-06
201.32999999993777,3.11626e-05,201.32999999993777,0.0001500615,201.32999999993777,1.07476e-05,201.32999999993777,6.452925e-06
201.34499999993776,3.103578e-05,201.34499999993776,0.0001495135,201.34499999993776,1.222307e-05,201.34499999993776,6.2781e-06
201.35999999993774,3.38186e-05,201.35999999993774,0.0001498756,201.35999999993774,1.225644e-05,201.35999999993774,6.54612e-06
201.37499999993773,3.396532e-05,201.37499999993773,0.0001510566,201.37499999993773,1.158281e-05,201.37499999993773,6.468188e-06
201.38999999993771,3.365702e-05,201.38999999993771,0.0001455145,201.38999999993771,1.242538e-05,201.38999999993771,6.178585e-06
201.4049999999377,3.25874e-05,201.4049999999377,0.0001415503,201.4049999999377,1.314057e-05,201.4049999999377,6.304968e-06
201.4199999999377,3.186794e-05,201.4199999999377,0.0001411376,201.4199999999377,1.332051e-05,201.4199999999377,6.439814e-06
201.43499999993767,3.074667e-05,201.43499999993767,0.0001417704,201.43499999993767,1.304589e-05,201.43499999993767,6.338393e-06
201.44999999993766,3.126099e-05,201.44999999993766,0.0001371507,201.44999999993766,1.300371e-05,201.44999999993766,6.167175e-06
201.46499999993765,3.251426e-05,201.46499999993765,0.0001102364,201.46499999993765,1.331627e-05,201.46499999993765,7.115304e-06
201.47999999993763,3.256881e-05,201.47999999993763,0.0001198614,201.47999999993763,1.343318e-05,201.47999999993763,7.264208e-06
201.49499999993762,3.316796e-05,201.49499999993762,0.0001236204,201.49499999993762,1.350326e-05,201.49499999993762,7.62006e-06
201.5099999999376,3.428811e-05,201.5099999999376,0.0001230312,201.5099999999376,1.362994e-05,201.5099999999376,7.582997e-06
201.5249999999376,3.384192e-05,201.5249999999376,0.0001161328,201.5249999999376,1.371031e-05,201.5249999999376,7.555081e-06
201.53999999993758,3.189224e-05,201.53999999993758,0.0001060913,201.53999999993758,1.371442e-05,201.53999999993758,7.869248e-06
201.55499999993756,3.209346e-05,201.55499999993756,0.0001034635,201.55499999993756,1.372982e-05,201.55499999993756,7.806343e-06
201.56999999993755,3.20996e-05,201.56999999993755,0.0001040592,201.56999999993755,1.379941e-05,201.56999999993755,7.582997e-06
201.58499999993754,3.283373e-05,201.58499999993754,0.0001076559,201.58499999993754,1.316199e-05,201.58499999993754,7.513949e-06
201.59999999993752,3.319386e-05,201.59999999993752,0.0001091565,201.59999999993752,1.192911e-05,201.59999999993752,7.2409e-06
201.6149999999375,3.056976e-05,201.6149999999375,0.0001170601,201.6149999999375,1.156577e-05,201.6149999999375,7.073606e-06
201.6299999999375,3.085323e-05,201.6299999999375,0.0001278042,201.6299999999375,1.104366e-05,201.6299999999375,7.168558e-06
201.64499999993748,3.110514e-05,201.64499999993748,0.0001274439,201.64499999993748,9.807338e-06,201.64499999993748,7.188182e-06
201.65999999993747,3.077414e-05,201.65999999993747,0.0001275862,201.65999999993747,8.872225e-06,201.65999999993747,6.885912e-06
201.67499999993746,2.902336e-05,201.67499999993746,0.0001290481,201.67499999993746,8.792481e-06,201.67499999993746,6.816002e-06
201.68999999993744,2.864523e-05,201.68999999993744,0.0001276749,201.68999999993744,8.829253e-06,201.68999999993744,6.838698e-06
201.70499999993743,2.672284e-05,201.70499999993743,0.0001259355,201.70499999993743,8.253678e-06,201.70499999993743,6.500773e-06
201.71999999993741,2.40347e-05,201.71999999993741,0.0001248329,201.71999999993741,8.36051e-06,201.71999999993741,5.451871e-06
201.7349999999374,2.537245e-05,201.7349999999374,0.000115361,201.7349999999374,8.212614e-06,201.7349999999374,5.203327e-06
201.7499999999374,2.425407e-05,201.7499999999374,0.0001165565,201.7499999999374,8.36051e-06,201.7499999999374,5.355417e-06
201.76499999993737,2.230059e-05,201.76499999993737,0.0001157502,201.76499999993737,8.620983e-06,201.76499999993737,5.462197e-06
201.77999999993736,2.146305e-05,201.77999999993736,0.0001161871,201.77999999993736,8.749116e-06,201.77999999993736,5.235713e-06
201.79499999993735,2.249618e-05,201.79499999993735,0.0001161351,201.79499999993735,8.60299e-06,201.79499999993735,5.143422e-06
201.80999999993733,2.450656e-05,201.80999999993733,0.0001202978,201.80999999993733,8.609537e-06,201.80999999993733,5.402556e-06
201.82499999993732,2.548325e-05,201.82499999993732,0.000118929,201.82499999993732,8.530639e-06,201.82499999993732,5.559333e-06
201.8399999999373,2.661721e-05,201.8399999999373,0.0001208355,201.8399999999373,8.492574e-06,201.8399999999373,5.677176e-06
201.8549999999373,2.764014e-05,201.8549999999373,0.0001157067,201.8549999999373,8.570179e-06,201.8549999999373,5.879517e-06
201.86999999993728,2.934291e-05,201.86999999993728,0.0001119977,201.86999999993728,9.257612e-06,201.86999999993728,5.855509e-06
201.88499999993726,2.955338e-05,201.88499999993726,0.000102407,201.88499999993726,9.122726e-06,201.88499999993726,5.733962e-06
201.89999999993725,2.985783e-05,201.89999999993725,0.0001094781,201.89999999993725,9.136613e-06,201.89999999993725,5.706874e-06
201.91499999993724,3.114361e-05,201.91499999993724,0.0001116882,201.91499999993724,9.08404e-06,201.91499999993724,5.785323e-06
201.92999999993722,3.210926e-05,201.92999999993722,0.0001096433,201.92999999993722,8.948112e-06,201.92999999993722,5.746233e-06
201.9449999999372,3.178295e-05,201.9449999999372,0.0001175791,201.9449999999372,8.880161e-06,201.9449999999372,5.714275e-06
201.9599999999372,3.142728e-05,201.9599999999372,0.0001198529,201.9599999999372,8.713623e-06,201.9599999999372,5.773135e-06
201.97499999993718,3.118023e-05,201.97499999993718,0.0001204206,201.97499999993718,8.365563e-06,201.97499999993718,5.802342e-06
201.98999999993717,2.978319e-05,201.98999999993717,0.00011937,201.98999999993717,8.296236e-06,201.98999999993717,5.795054e-06
202.00499999993716,3.106299e-05,202.00499999993716,0.0001195136,202.00499999993716,7.849532e-06,202.00499999993716,5.869926e-06
202.01999999993714,3.102488e-05,202.01999999993714,0.0001181253,202.01999999993714,7.16266e-06,202.01999999993714,5.687093e-06
202.03499999993713,3.096625e-05,202.03499999993713,0.000119524,202.03499999993713,7.103415e-06,202.03499999993713,5.741327e-06
202.0499999999371,3.114768e-05,202.0499999999371,0.000118531,202.0499999999371,7.14888e-06,202.0499999999371,5.758477e-06
202.0649999999371,2.939759e-05,202.0649999999371,0.0001200249,202.0649999999371,7.019631e-06,202.0649999999371,5.528843e-06
202.0799999999371,2.745349e-05,202.0799999999371,0.0001217682,202.0799999999371,7.111343e-06,202.0799999999371,5.397339e-06
202.09499999993707,2.65515e-05,202.09499999993707,0.0001291763,202.09499999993707,7.099447e-06,202.09499999993707,5.526294e-06
202.10999999993706,2.572752e-05,202.10999999993706,0.0001310543,202.10999999993706,6.940926e-06,202.10999999993706,5.446701e-06
202.12499999993705,2.330326e-05,202.12499999993705,0.0001293778,202.12499999993705,6.061194e-06,202.12499999993705,5.677176e-06
202.13999999993703,2.397132e-05,202.13999999993703,0.0001280661,202.13999999993703,6.25337e-06,202.13999999993703,5.699464e-06
202.15499999993702,2.237311e-05,202.15499999993702,0.0001213838,202.15499999993702,6.047233e-06,202.15499999993702,5.677176e-06
202.169999999937,1.937187e-05,202.169999999937,0.0001216663,202.169999999937,6.273611e-06,202.169999999937,5.677176e-06
202.184999999937,1.960749e-05,202.184999999937,0.0001154637,202.184999999937,6.316129e-06,202.184999999937,5.741327e-06
202.19999999993698,2.051609e-05,202.19999999993698,0.0001142589,202.19999999993698,6.280343e-06,202.19999999993698,5.967507e-06
202.21499999993696,2.081128e-05,202.21499999993696,0.0001141546,202.21499999993696,6.284828e-06,202.21499999993696,5.962784e-06
202.22999999993695,2.122878e-05,202.22999999993695,0.0001133734,202.22999999993695,6.563313e-06,202.22999999993695,6.05887e-06
202.24499999993694,2.128577e-05,202.24499999993694,0.000110392,202.24499999993694,6.737009e-06,202.24499999993694,5.775575e-06
202.25999999993692,2.002899e-05,202.25999999993692,0.0001095899,202.25999999993692,6.805661e-06,202.25999999993692,5.724127e-06
202.2749999999369,2.022705e-05,202.2749999999369,0.0001129997,202.2749999999369,6.663425e-06,202.2749999999369,5.731505e-06
202.2899999999369,1.986515e-05,202.2899999999369,0.0001121727,202.2899999999369,6.894089e-06,202.2899999999369,5.597212e-06
202.30499999993688,1.95593e-05,202.30499999993688,0.0001155516,202.30499999993688,6.830453e-06,202.30499999993688,5.61731e-06
202.31999999993687,2.020127e-05,202.31999999993687,0.0001135417,202.31999999993687,6.709772e-06,202.31999999993687,5.632336e-06
202.33499999993685,2.040732e-05,202.33499999993685,0.0001071918,202.33499999993685,6.797376e-06,202.33499999993685,5.639834e-06
202.34999999993684,2.059422e-05,202.34999999993684,9.619387e-05,202.34999999993684,6.869526e-06,202.34999999993684,5.513535e-06
202.36499999993683,2.000929e-05,202.36499999993683,9.600625e-05,202.36499999993683,6.877724e-06,202.36499999993683,5.407768e-06
202.3799999999368,2.021033e-05,202.3799999999368,9.949978e-05,202.3799999999368,6.851046e-06,202.3799999999368,5.446701e-06
202.3949999999368,2.031253e-05,202.3949999999368,9.985139e-05,202.3949999999368,6.753716e-06,202.3949999999368,5.513535e-06
202.4099999999368,2.084982e-05,202.4099999999368,0.0001009829,202.4099999999368,6.737009e-06,202.4099999999368,5.554263e-06
202.42499999993677,2.086198e-05,202.42499999993677,0.0001046763,202.42499999993677,6.877724e-06,202.42499999993677,5.743781e-06
202.43999999993676,2.113368e-05,202.43999999993676,0.0001045608,202.43999999993676,7.067629e-06,202.43999999993676,5.682137e-06
202.45499999993675,2.132544e-05,202.45499999993675,0.0001067955,202.45499999993675,7.246734e-06,202.45499999993675,5.696992e-06
202.46999999993673,2.142495e-05,202.46999999993673,0.0001047944,202.46999999993673,7.678988e-06,202.46999999993673,5.857914e-06
202.48499999993672,2.198248e-05,202.48499999993672,0.0001053054,202.48499999993672,7.597844e-06,202.48499999993672,5.775575e-06
202.4999999999367,2.306447e-05,202.4999999999367,0.0001043945,202.4999999999367,7.711938e-06,202.4999999999367,5.862722e-06
202.5149999999367,2.622211e-05,202.5149999999367,0.000100901,202.5149999999367,7.915653e-06,202.5149999999367,5.857914e-06
202.52999999993668,3.100126e-05,202.52999999993668,9.935555e-05,202.52999999993668,8.39414e-06,202.52999999993668,6.068162e-06
202.54499999993666,3.22489e-05,202.54499999993666,9.387876e-05,202.54499999993666,8.900759e-06,202.54499999993666,6.176305e-06
202.55999999993665,3.2694e-05,202.55999999993665,9.386915e-05,202.55999999993665,8.937085e-06,202.55999999993665,6.244353e-06
202.57499999993664,3.297501e-05,202.57499999993664,0.0001034922,202.57499999993664,8.857925e-06,202.57499999993664,6.08439e-06
202.58999999993662,3.319895e-05,202.58999999993662,0.0001069844,202.58999999993662,8.924467e-06,202.58999999993662,6.08439e-06
202.6049999999366,3.281957e-05,202.6049999999366,0.0001297738,202.6049999999366,8.867461e-06,202.6049999999366,6.075122e-06
202.6199999999366,3.285518e-05,202.6199999999366,0.0001369172,202.6199999999366,8.941813e-06,202.6199999999366,6.271365e-06
202.63499999993658,3.210487e-05,202.63499999993658,0.0001401458,202.63499999993658,8.999913e-06,202.63499999993658,6.061194e-06
202.64999999993657,3.23949e-05,202.64999999993657,0.0001380615,202.64999999993657,9.049861e-06,202.64999999993657,6.171741e-06
202.66499999993655,3.251773e-05,202.66499999993655,0.0001389947,202.66499999993655,9.46378e-06,202.66499999993655,6.799448e-06
202.67999999993654,3.269141e-05,202.67999999993654,0.0001367039,202.67999999993654,9.448883e-06,202.67999999993654,6.770382e-06
202.69499999993653,3.151322e-05,202.69499999993653,0.0001360301,202.69499999993653,9.304663e-06,202.69499999993653,6.840758e-06
202.7099999999365,3.144923e-05,202.7099999999365,0.0001357273,202.7099999999365,9.141237e-06,202.7099999999365,6.892046e-06
202.7249999999365,3.420379e-05,202.7249999999365,0.0001363502,202.7249999999365,9.315255e-06,202.7249999999365,6.912455e-06
202.7399999999365,3.449945e-05,202.7399999999365,0.0001360171,202.7399999999365,9.407047e-06,202.7399999999365,7.111343e-06
202.75499999993647,3.409902e-05,202.75499999993647,0.0001377004,202.75499999993647,9.324323e-06,202.75499999993647,7.003558e-06
202.76999999993646,3.445205e-05,202.76999999993646,0.0001389546,202.76999999993646,9.231709e-06,202.76999999993646,7.015617e-06
202.78499999993645,3.412421e-05,202.78499999993645,0.0001494217,202.78499999993645,8.883333e-06,202.78499999993645,6.848989e-06
202.79999999993643,3.600943e-05,202.79999999993643,0.0001544392,202.79999999993643,9.257612e-06,202.79999999993643,7.071614e-06
202.81499999993642,3.588285e-05,202.81499999993642,0.0001496749,202.81499999993642,9.515735e-06,202.81499999993642,7.246734e-06
202.8299999999364,3.547223e-05,202.8299999999364,0.0001460661,202.8299999999364,9.574765e-06,202.8299999999364,7.168558e-06
202.8449999999364,3.524954e-05,202.8449999999364,0.0001408351,202.8449999999364,9.637821e-06,202.8449999999364,7.325999e-06
202.85999999993638,3.540386e-05,202.85999999993638,0.0001436552,202.85999999993638,9.586528e-06,202.85999999993638,7.349037e-06
202.87499999993636,3.542375e-05,202.87499999993636,0.0001460404,202.87499999993636,9.958426e-06,202.87499999993636,7.360529e-06
202.88999999993635,3.52815e-05,202.88999999993635,0.0001448156,202.88999999993635,1.009052e-05,202.88999999993635,7.415822e-06
202.90499999993634,3.572272e-05,202.90499999993634,0.0001484755,202.90499999993634,9.755493e-06,202.90499999993634,7.289374e-06
202.91999999993632,3.586558e-05,202.91999999993632,0.0001476918,202.91999999993632,9.96691e-06,202.91999999993632,6.869526e-06
202.9349999999363,3.590091e-05,202.9349999999363,0.0001489734,202.9349999999363,9.97821e-06,202.9349999999363,7.233115e-06
202.9499999999363,3.632259e-05,202.9499999999363,0.0001529489,202.9499999999363,9.831725e-06,202.9499999999363,7.049668e-06
202.96499999993628,3.73818e-05,202.96499999993628,0.0001524944,202.96499999993628,9.730914e-06,202.96499999993628,7.027653e-06
202.97999999993627,3.651714e-05,202.97999999993627,0.0001551786,202.97999999993627,9.780009e-06,202.97999999993627,7.21166e-06
202.99499999993625,3.654105e-05,202.99499999993625,0.0001575605,202.99499999993625,9.861767e-06,202.99499999993625,7.19993e-06
203.00999999993624,3.581409e-05,203.00999999993624,0.0001581255,203.00999999993624,9.917319e-06,203.00999999993624,7.215565e-06
203.02499999993623,3.278779e-05,203.02499999993623,0.000164184,203.02499999993623,1.009889e-05,203.02499999993623,7.2971e-06
203.0399999999362,2.823362e-05,203.0399999999362,0.0001628309,203.0399999999362,9.532005e-06,203.0399999999362,7.231167e-06
203.0549999999362,2.646382e-05,203.0549999999362,0.0001610832,203.0549999999362,9.225602e-06,203.0549999999362,6.820134e-06
203.0699999999362,2.594995e-05,203.0699999999362,0.0001597548,203.0699999999362,9.024921e-06,203.0699999999362,6.757886e-06
203.08499999993617,2.631328e-05,203.08499999993617,0.0001611648,203.08499999993617,8.973265e-06,203.08499999993617,6.734918e-06
203.09999999993616,2.639559e-05,203.09999999993616,0.0001638572,203.09999999993616,8.805288e-06,203.09999999993616,6.54612e-06
203.11499999993615,2.645636e-05,203.11499999993615,0.0001462434,203.11499999993615,8.913411e-06,203.11499999993615,6.552573e-06
203.12999999993613,2.664736e-05,203.12999999993613,0.0001680771,203.12999999993613,8.540542e-06,203.12999999993613,6.345057e-06
203.14499999993612,2.862211e-05,203.14499999993612,0.0001647461,203.14499999993612,8.380704e-06,203.14499999993612,6.307202e-06
203.1599999999361,2.901948e-05,203.1599999999361,0.0001643895,203.1599999999361,8.198881e-06,203.1599999999361,6.2781e-06
203.1749999999361,2.913671e-05,203.1749999999361,0.0001646663,203.1749999999361,8.060259e-06,203.1749999999361,6.178585e-06
203.18999999993608,2.935827e-05,203.18999999993608,0.0001622173,203.18999999993608,8.282642e-06,203.18999999993608,5.934367e-06
203.20499999993606,2.854819e-05,203.20499999993606,0.0001629214,203.20499999993606,8.447671e-06,203.20499999993606,6.309435e-06
203.21999999993605,2.47525e-05,203.21999999993605,0.0001687444,203.21999999993605,8.053266e-06,203.21999999993605,6.040241e-06
203.23499999993604,2.619631e-05,203.23499999993604,0.0001685062,203.23499999993604,7.782849e-06,203.23499999993604,5.770695e-06
203.24999999993602,2.576855e-05,203.24999999993602,0.0001649063,203.24999999993602,7.597844e-06,203.24999999993602,5.521194e-06
203.264999999936,2.669384e-05,203.264999999936,0.0001622201,203.264999999936,7.22532e-06,203.264999999936,5.659781e-06
203.279999999936,2.626237e-05,203.279999999936,0.0001486214,203.279999999936,7.125195e-06,203.279999999936,5.554263e-06
203.29499999993598,2.662779e-05,203.29499999993598,0.0001480799,203.29499999993598,6.932803e-06,203.29499999993598,5.614802e-06
203.30999999993597,2.662409e-05,203.30999999993597,0.0001493618,203.30999999993597,7.186222e-06,203.30999999993597,5.850696e-06
203.32499999993595,2.689257e-05,203.32499999993595,0.000148354,203.32499999993595,7.337527e-06,203.32499999993595,5.792623e-06
203.33999999993594,2.702112e-05,203.33999999993594,0.0001473427,203.33999999993594,8.159269e-06,203.33999999993594,5.924864e-06
203.35499999993593,2.692817e-05,203.35499999993593,0.0001414821,203.35499999993593,8.451005e-06,203.35499999993593,5.979298e-06
203.3699999999359,2.677866e-05,203.3699999999359,0.0001270081,203.3699999999359,8.794083e-06,203.3699999999359,6.155743e-06
203.3849999999359,2.589017e-05,203.3849999999359,0.0001125633,203.3849999999359,8.78607e-06,203.3849999999359,6.511599e-06
203.3999999999359,2.588636e-05,203.3999999999359,0.0001126475,203.3999999999359,9.272816e-06,203.3999999999359,6.528882e-06
203.41499999993587,2.676235e-05,203.41499999993587,0.0001098145,203.41499999993587,9.31223e-06,203.41499999993587,6.659195e-06
203.42999999993586,2.697468e-05,203.42999999993586,0.0001102996,203.42999999993586,9.486082e-06,203.42999999993586,6.934835e-06
203.44499999993585,2.782604e-05,203.44499999993585,0.0001107166,203.44499999993585,9.245431e-06,203.44499999993585,6.420096e-06
203.45999999993583,2.819368e-05,203.45999999993583,0.0001068559,203.45999999993583,9.274335e-06,203.45999999993583,6.353931e-06
203.47499999993582,2.798707e-05,203.47499999993582,0.0001001351,203.47499999993582,9.262176e-06,203.47499999993582,6.398117e-06
203.4899999999358,2.586894e-05,203.4899999999358,0.000102869,203.4899999999358,9.268258e-06,203.4899999999358,6.548272e-06
203.5049999999358,2.691037e-05,203.5049999999358,0.0001060474,203.5049999999358,9.161248e-06,203.5049999999358,6.53104e-06
203.51999999993578,2.532744e-05,203.51999999993578,0.0001049737,203.51999999993578,9.272816e-06,203.51999999993578,6.373853e-06
203.53499999993576,2.48224e-05,203.53499999993576,0.0001050154,203.53499999993576,9.21185e-06,203.53499999993576,6.367219e-06
203.54999999993575,2.488418e-05,203.54999999993575,0.0001064784,203.54999999993575,9.257612e-06,203.54999999993575,6.384893e-06
203.56499999993574,2.499545e-05,203.56499999993574,0.0001046847,203.56499999993574,9.074732e-06,203.56499999993574,6.221753e-06
203.57999999993572,2.398013e-05,203.57999999993572,0.0001310274,203.57999999993572,8.439329e-06,203.57999999993572,6.507271e-06
203.5949999999357,2.387062e-05,203.5949999999357,0.0001374505,203.5949999999357,8.091657e-06,203.5949999999357,6.859265e-06
203.6099999999357,2.422327e-05,203.6099999999357,0.0001419346,203.6099999999357,7.41962e-06,203.6099999999357,7.023643e-06
203.62499999993568,2.412537e-05,203.62499999993568,0.0001447945,203.62499999993568,7.372003e-06,203.62499999993568,6.824264e-06
203.63999999993567,2.146174e-05,203.63999999993567,0.0001461139,203.63999999993567,6.797376e-06,203.63999999993567,6.953093e-06
203.65499999993565,2.308705e-05,203.65499999993565,0.0001518704,203.65499999993565,7.14888e-06,203.65499999993565,7.24479e-06
203.66999999993564,2.128114e-05,203.66999999993564,0.0001501281,203.66999999993564,7.057657e-06,203.66999999993564,7.231167e-06
203.68499999993563,2.01468e-05,203.68499999993563,0.0001494168,203.68499999993563,6.753716e-06,203.68499999993563,6.720261e-06
203.6999999999356,2.34773e-05,203.6999999999356,0.000157895,203.6999999999356,6.832516e-06,203.6999999999356,6.914493e-06
203.7149999999356,3.142997e-05,203.7149999999356,0.0001631192,203.7149999999356,7.05566e-06,203.7149999999356,7.455606e-06
203.7299999999356,3.135727e-05,203.7299999999356,0.000162289,203.7299999999356,7.154789e-06,203.7299999999356,7.532673e-06
203.74499999993557,3.09435e-05,203.74499999993557,0.0001634875,203.74499999993557,7.154789e-06,203.74499999993557,7.506446e-06
203.75999999993556,3.047562e-05,203.75999999993556,0.0001627074,203.75999999993556,6.995509e-06,203.75999999993556,7.788277e-06
203.77499999993555,3.170041e-05,203.77499999993555,0.0001641354,203.77499999993555,7.05566e-06,203.77499999993555,7.779228e-06
203.78999999993553,3.162433e-05,203.78999999993553,0.0001632049,203.78999999993553,6.997522e-06,203.78999999993553,7.735647e-06
203.80499999993552,3.135323e-05,203.80499999993552,0.0001632026,203.80499999993552,7.077588e-06,203.80499999993552,7.741108e-06
203.8199999999355,3.133615e-05,203.8199999999355,0.000162946,203.8199999999355,7.105398e-06,203.8199999999355,7.697311e-06
203.8349999999355,3.162433e-05,203.8349999999355,0.0001384472,203.8349999999355,7.295169e-06,203.8349999999355,7.463159e-06
203.84999999993548,3.155655e-05,203.84999999993548,0.000133443,203.84999999993548,7.059652e-06,203.84999999993548,6.813935e-06
203.86499999993546,3.141383e-05,203.86499999993546,0.0001290644,203.86499999993546,6.985433e-06,203.86499999993546,7.085544e-06
203.87999999993545,3.185069e-05,203.87999999993545,0.0001278856,203.87999999993545,7.03967e-06,203.87999999993545,6.94904e-06
203.89499999993544,3.258092e-05,203.89499999993544,0.000125215,203.89499999993544,6.951067e-06,203.89499999993544,6.705572e-06
203.90999999993542,3.054579e-05,203.90999999993542,0.0001219152,203.90999999993542,6.69506e-06,203.90999999993542,7.621908e-06
203.9249999999354,3.072742e-05,203.9249999999354,0.0001261788,203.9249999999354,6.828391e-06,203.9249999999354,8.167896e-06
203.9399999999354,3.095078e-05,203.9399999999354,0.0001312765,203.9399999999354,6.842817e-06,203.9399999999354,8.178238e-06
203.95499999993538,2.046178e-05,203.95499999993538,0.0001164599,203.95499999993538,6.384893e-06,203.95499999993538,7.903186e-06
203.96999999993537,1.853652e-05,203.96999999993537,0.0001253072,203.96999999993537,6.196798e-06,203.96999999993537,8.018206e-06
203.98499999993535,1.867356e-05,203.98499999993535,0.0001274454,203.98499999993535,6.376062e-06,203.98499999993535,7.919212e-06
203.99999999993534,1.89922e-05,203.99999999993534,0.000121357,203.99999999993534,6.404719e-06,203.99999999993534,8.02523e-06
204.01499999993533,1.68653e-05,204.01499999993533,0.0001227819,204.01499999993533,6.500773e-06,204.01499999993533,7.713764e-06
204.0299999999353,1.66611e-05,204.0299999999353,0.000121132,204.0299999999353,6.541815e-06,204.0299999999353,7.761099e-06
204.0449999999353,1.70431e-05,204.0449999999353,0.000119417,204.0449999999353,6.524566e-06,204.0449999999353,7.851327e-06
204.0599999999353,1.69727e-05,204.0599999999353,0.0001209596,204.0599999999353,6.293787e-06,204.0599999999353,7.899621e-06
204.07499999993527,1.723625e-05,204.07499999993527,0.000119229,204.07499999993527,6.21269e-06,204.07499999993527,8.176516e-06
204.08999999993526,1.696772e-05,204.08999999993526,0.000119676,204.08999999993526,6.452925e-06,204.08999999993526,8.348708e-06
204.10499999993525,1.697851e-05,204.10499999993525,0.0001276562,204.10499999993525,6.574036e-06,204.10499999993525,8.363879e-06
204.11999999993523,1.729417e-05,204.11999999993523,0.0001295797,204.11999999993523,6.623136e-06,204.11999999993523,8.02874e-06
204.13499999993522,1.667547e-05,204.13499999993522,0.0001288921,204.13499999993522,6.428867e-06,204.13499999993522,8.29284e-06
204.1499999999352,1.583486e-05,204.1499999999352,0.0001288819,204.1499999999352,6.33617e-06,204.1499999999352,7.781039e-06
204.1649999999352,1.852815e-05,204.1649999999352,0.0001266848,204.1649999999352,6.246608e-06,204.1649999999352,6.728641e-06
204.17999999993518,1.878787e-05,204.17999999993518,0.0001240657,204.17999999993518,6.395915e-06,204.17999999993518,6.559019e-06
204.19499999993516,1.829018e-05,204.19499999993516,0.0001212606,204.19499999993516,6.329497e-06,204.19499999993516,6.576178e-06
204.20999999993515,1.717894e-05,204.20999999993515,0.0001104277,204.20999999993515,6.470365e-06,204.20999999993515,6.151165e-06
204.22499999993514,1.71198e-05,204.22499999993514,0.0001087717,204.22499999993514,6.384893e-06,204.22499999993514,6.049562e-06
204.23999999993512,1.754888e-05,204.23999999993512,0.0001102955,204.23999999993512,6.226279e-06,204.23999999993512,6.100575e-06
204.2549999999351,1.778885e-05,204.2549999999351,0.0001127045,204.2549999999351,6.226279e-06,204.2549999999351,5.872325e-06
204.2699999999351,1.779914e-05,204.2699999999351,0.0001168456,204.2699999999351,6.077441e-06,204.2699999999351,6.002811e-06
204.28499999993508,1.801078e-05,204.28499999993508,0.0001192514,204.28499999993508,5.974584e-06,204.28499999993508,6.116717e-06
204.29999999993507,1.785761e-05,204.29999999993507,0.0001228606,204.29999999993507,5.962784e-06,204.29999999993507,6.287069e-06
204.31499999993505,1.790409e-05,204.31499999993505,0.0001198385,204.31499999993505,6.148874e-06,204.31499999993505,6.369431e-06
204.32999999993504,1.747487e-05,204.32999999993504,0.0001189364,204.32999999993504,6.063518e-06,204.32999999993504,6.556871e-06
204.34499999993503,1.750226e-05,204.34499999993503,0.0001156554,204.34499999993503,5.758477e-06,204.34499999993503,6.2781e-06
204.359999999935,1.767684e-05,204.359999999935,0.0001064572,204.359999999935,5.787757e-06,204.359999999935,6.671875e-06
204.374999999935,1.721416e-05,204.374999999935,0.0001066157,204.374999999935,5.724127e-06,204.374999999935,6.7391e-06
204.389999999935,1.837317e-05,204.389999999935,0.0001044067,204.389999999935,5.721665e-06,204.389999999935,6.470365e-06
204.40499999993497,1.824005e-05,204.40499999993497,0.0001047276,204.40499999993497,5.905813e-06,204.40499999993497,6.413511e-06
204.41999999993496,1.527981e-05,204.41999999993496,0.0001062134,204.41999999993496,5.804769e-06,204.41999999993496,6.404719e-06
204.43499999993494,1.508123e-05,204.43499999993494,0.0001054145,204.43499999993494,5.405162e-06,204.43499999993494,6.479067e-06
204.44999999993493,1.806622e-05,204.44999999993493,0.000111437,204.44999999993493,5.920107e-06,204.44999999993493,6.985433e-06
204.46499999993492,1.834017e-05,204.46499999993492,0.0001085957,204.46499999993492,5.743781e-06,204.46499999993492,6.848989e-06
204.4799999999349,1.839156e-05,204.4799999999349,0.0001079791,204.4799999999349,5.984008e-06,204.4799999999349,6.926705e-06
204.4949999999349,1.766967e-05,204.4949999999349,0.0001066724,204.4949999999349,6.098266e-06,204.4949999999349,7.019631e-06
204.50999999993488,1.745229e-05,204.50999999993488,0.0001083643,204.50999999993488,5.931993e-06,204.50999999993488,7.097463e-06
204.52499999993486,1.713049e-05,204.52499999993486,9.961976e-05,204.52499999993486,6.007502e-06,204.52499999993486,6.969281e-06
204.53999999993485,1.701581e-05,204.53999999993485,9.680726e-05,204.53999999993485,5.972226e-06,204.53999999993485,6.684531e-06
204.55499999993484,1.700173e-05,204.55499999993484,9.607343e-05,204.55499999993484,5.995767e-06,204.55499999993484,6.887957e-06
204.56999999993482,1.722398e-05,204.56999999993482,9.640232e-05,204.56999999993482,5.943854e-06,204.56999999993482,6.709772e-06
204.5849999999348,1.84237e-05,204.5849999999348,9.817559e-05,204.5849999999348,5.819312e-06,204.5849999999348,6.437625e-06
204.5999999999348,2.040939e-05,204.5999999999348,9.734243e-05,204.5999999999348,5.855509e-06,204.5999999999348,6.603967e-06
204.61499999993478,2.000718e-05,204.61499999993478,9.629077e-05,204.61499999993478,5.782887e-06,204.61499999993478,6.203613e-06
204.62999999993477,2.02166e-05,204.62999999993477,9.712759e-05,204.62999999993477,6.019215e-06,204.62999999993477,6.300498e-06
204.64499999993475,1.863958e-05,204.64499999993475,0.0001022865,204.64499999993475,6.037908e-06,204.64499999993475,6.338393e-06
204.65999999993474,1.855019e-05,204.65999999993474,0.0001018406,204.65999999993474,5.743781e-06,204.65999999993474,6.384893e-06
204.67499999993473,1.900851e-05,204.67499999993473,0.0001036924,204.67499999993473,5.726587e-06,204.67499999993473,6.599699e-06
204.6899999999347,1.913776e-05,204.6899999999347,0.0001008073,204.6899999999347,5.521194e-06,204.6899999999347,6.293787e-06
204.7049999999347,1.709015e-05,204.7049999999347,9.552583e-05,204.7049999999347,5.459618e-06,204.7049999999347,5.850696e-06
204.71999999993469,1.760578e-05,204.71999999993469,9.633918e-05,204.71999999993469,5.677176e-06,204.71999999993469,5.853103e-06
204.73499999993467,1.762817e-05,204.73499999993467,9.73349e-05,204.73499999993467,1.236287e-05,204.73499999993467,5.741327e-06
204.74999999993466,1.732754e-05,204.74999999993466,9.514225e-05,204.74999999993466,1.358335e-05,204.74999999993466,5.551726e-06
204.76499999993464,1.715022e-05,204.76499999993464,9.08618e-05,204.76499999993464,1.368152e-05,204.76499999993464,5.503306e-06
204.77999999993463,1.902036e-05,204.77999999993463,9.104209e-05,204.77999999993463,1.372366e-05,204.77999999993463,5.969867e-06
204.79499999993462,2.355219e-05,204.79499999993462,9.202471e-05,204.79499999993462,1.384833e-05,204.79499999993462,6.711871e-06
204.8099999999346,2.598467e-05,204.8099999999346,9.649711e-05,204.8099999999346,1.404729e-05,204.8099999999346,6.373853e-06
204.8249999999346,2.602638e-05,204.8249999999346,9.897642e-05,204.8249999999346,1.408634e-05,204.8249999999346,6.528882e-06
204.83999999993458,2.675814e-05,204.83999999993458,0.0001035922,204.83999999993458,1.409634e-05,204.83999999993458,6.778699e-06
204.85499999993456,2.952763e-05,204.85499999993456,0.0001103818,204.85499999993456,1.464815e-05,204.85499999993456,6.612493e-06
204.86999999993455,3.113683e-05,204.86999999993455,0.0001203151,204.86999999993455,1.499224e-05,204.86999999993455,6.58688e-06
204.88499999993454,3.153601e-05,204.88499999993454,0.0001169838,204.88499999993454,1.490554e-05,204.88499999993454,6.450741e-06
204.89999999993452,3.163413e-05,204.89999999993452,0.0001162922,204.89999999993452,1.495931e-05,204.89999999993452,6.53104e-06
204.9149999999345,3.144386e-05,204.9149999999345,0.0001162811,204.9149999999345,1.496308e-05,204.9149999999345,6.476893e-06
204.9299999999345,3.153869e-05,204.9299999999345,0.0001152202,204.9299999999345,1.503352e-05,204.9299999999345,6.318359e-06
204.94499999993448,3.137434e-05,204.94499999993448,0.0001179883,204.94499999993448,1.503071e-05,204.94499999993448,6.448557e-06
204.95999999993447,3.080571e-05,204.95999999993447,0.0001201389,204.95999999993447,1.489987e-05,204.95999999993447,6.599699e-06
204.97499999993445,3.073613e-05,204.97499999993445,0.0001217239,204.97499999993445,1.358646e-05,204.97499999993445,6.623136e-06
204.98999999993444,3.07155e-05,204.98999999993444,0.000125339,204.98999999993444,8.311504e-06,204.98999999993444,6.640129e-06
205.00499999993443,3.201392e-05,205.00499999993443,0.0001251497,205.00499999993443,8.140256e-06,205.00499999993443,6.686639e-06
205.0199999999344,3.180732e-05,205.0199999999344,0.0001257942,205.0199999999344,8.065501e-06,205.0199999999344,6.711871e-06
205.0349999999344,3.0721e-05,205.0349999999344,0.0001276083,205.0349999999344,8.270727e-06,205.0349999999344,6.21269e-06
205.04999999993439,2.759015e-05,205.04999999993439,0.0001268827,205.04999999993439,8.224612e-06,205.04999999993439,5.410373e-06
205.06499999993437,2.612416e-05,205.06499999993437,0.0001285823,205.06499999993437,7.979462e-06,205.06499999993437,5.503306e-06
205.07999999993436,2.715166e-05,205.07999999993436,0.0001306385,205.07999999993436,7.952937e-06,205.07999999993436,5.526294e-06
205.09499999993434,2.501292e-05,205.09499999993434,0.0001255795,205.09499999993434,7.808148e-06,205.09499999993434,5.782887e-06
205.10999999993433,1.961898e-05,205.10999999993433,0.0001185517,205.10999999993433,6.307202e-06,205.10999999993433,5.836232e-06
205.12499999993432,1.950882e-05,205.12499999993432,0.0001164943,205.12499999993432,6.262374e-06,205.12499999993432,5.884307e-06
205.1399999999343,1.88739e-05,205.1399999999343,0.0001240955,205.1399999999343,6.565459e-06,205.1399999999343,5.812045e-06
205.1549999999343,1.922149e-05,205.1549999999343,0.0001228924,205.1549999999343,6.4921e-06,205.1549999999343,6.298262e-06
205.16999999993428,2.054148e-05,205.16999999993428,0.0001207244,205.16999999993428,6.571893e-06,205.16999999993428,6.533196e-06
205.18499999993426,2.034649e-05,205.18499999993426,0.0001199677,205.18499999993426,6.470365e-06,205.18499999993426,6.768301e-06
205.19999999993425,2.071833e-05,205.19999999993425,0.000117394,205.19999999993425,6.522406e-06,205.19999999993425,6.667651e-06
205.21499999993424,2.106491e-05,205.21499999993424,0.0001176287,205.21499999993424,6.759971e-06,205.21499999993424,6.646491e-06
205.22999999993422,2.158217e-05,205.22999999993422,0.0001206319,205.22999999993422,6.770382e-06,205.22999999993422,6.671875e-06
205.2449999999342,2.161153e-05,205.2449999999342,0.0001189643,205.2449999999342,6.805661e-06,205.2449999999342,6.816002e-06
205.2599999999342,2.070541e-05,205.2599999999342,0.0001190153,205.2599999999342,6.66131e-06,205.2599999999342,6.745368e-06
205.27499999993418,2.053257e-05,205.27499999993418,0.000118619,205.27499999993418,6.871577e-06,205.27499999993418,6.680315e-06
205.28999999993417,1.990412e-05,205.28999999993417,0.0001245374,205.28999999993417,6.404719e-06,205.28999999993417,6.770382e-06
205.30499999993415,1.955858e-05,205.30499999993415,0.0001221521,205.30499999993415,6.280343e-06,205.30499999993415,6.799448e-06
205.31999999993414,1.962257e-05,205.31999999993414,0.0001212242,205.31999999993414,6.061194e-06,205.31999999993414,6.778699e-06
205.33499999993413,1.824236e-05,205.33499999993413,0.0001227337,205.33499999993413,6.25337e-06,205.33499999993413,6.275856e-06
205.3499999999341,1.855398e-05,205.3499999999341,0.000122162,205.3499999999341,6.500773e-06,205.3499999999341,6.233063e-06
205.3649999999341,1.874959e-05,205.3649999999341,0.0001215182,205.3649999999341,6.296025e-06,205.3649999999341,6.811867e-06
205.37999999993409,1.831788e-05,205.37999999993409,0.0001152805,205.37999999993409,6.505105e-06,205.37999999993409,6.981399e-06
205.39499999993407,1.838466e-05,205.39499999993407,0.0001121193,205.39499999993407,6.571893e-06,205.39499999993407,7.196016e-06
205.40999999993406,1.704889e-05,205.40999999993406,0.0001116247,205.40999999993406,6.470365e-06,205.40999999993406,6.782854e-06
205.42499999993404,1.810984e-05,205.42499999993404,0.0001137795,205.42499999993404,6.567604e-06,205.42499999993404,6.803591e-06
205.43999999993403,1.898775e-05,205.43999999993403,0.0001148423,205.43999999993403,6.766219e-06,205.43999999993403,6.737009e-06
205.45499999993402,1.86909e-05,205.45499999993402,0.0001111502,205.45499999993402,6.853102e-06,205.45499999993402,6.789081e-06
205.469999999934,1.869994e-05,205.469999999934,0.000107778,205.469999999934,6.851046e-06,205.469999999934,6.774542e-06
205.484999999934,1.871425e-05,205.484999999934,0.0001025761,205.484999999934,6.934835e-06,205.484999999934,6.724452e-06
205.49999999993398,1.774286e-05,205.49999999993398,0.0001004974,205.49999999993398,6.867475e-06,205.49999999993398,6.582601e-06
205.51499999993396,1.755369e-05,205.51499999993396,0.0001015267,205.51499999993396,7.021637e-06,205.51499999993396,6.584741e-06
205.52999999993395,1.772539e-05,205.52999999993395,0.0001023861,205.52999999993395,7.011599e-06,205.52999999993395,6.569749e-06
205.54499999993394,1.770392e-05,205.54499999993394,9.316707e-05,205.54499999993394,7.057657e-06,205.54499999993394,6.426676e-06
205.55999999993392,1.726483e-05,205.55999999993392,9.368619e-05,205.55999999993392,7.46882e-06,205.55999999993392,6.242096e-06
205.5749999999339,1.668729e-05,205.5749999999339,9.07394e-05,205.5749999999339,7.304818e-06,205.5749999999339,6.298262e-06
205.5899999999339,1.648772e-05,205.5899999999339,9.143101e-05,205.5899999999339,7.091506e-06,205.5899999999339,6.387099e-06
205.60499999993388,1.643809e-05,205.60499999993388,9.540336e-05,205.60499999993388,7.385367e-06,205.60499999993388,6.461651e-06
205.61999999993387,1.658993e-05,205.61999999993387,9.808903e-05,205.61999999993387,7.618211e-06,205.61999999993387,5.649817e-06
205.63499999993385,1.718714e-05,205.63499999993385,0.0001011784,205.63499999993385,7.584854e-06,205.63499999993385,5.485359e-06
205.64999999993384,1.962832e-05,205.64999999993384,9.984575e-05,205.64999999993384,7.766543e-06,205.64999999993384,5.457037e-06
205.66499999993383,2.056821e-05,205.66499999993383,9.909974e-05,205.66499999993383,7.711938e-06,205.66499999993383,5.222243e-06
205.6799999999338,1.975208e-05,205.6799999999338,9.758178e-05,205.6799999999338,7.779228e-06,205.6799999999338,5.594695e-06
205.6949999999338,1.979483e-05,205.6949999999338,9.904699e-05,205.6949999999338,7.788277e-06,205.6949999999338,5.541568e-06
205.70999999993379,2.360536e-05,205.70999999993379,9.896232e-05,205.70999999993379,7.97593e-06,205.70999999993379,5.321112e-06
205.72499999993377,2.398013e-05,205.72499999993377,0.0001022891,205.72499999993377,7.833364e-06,205.72499999993377,5.556798e-06
205.73999999993376,2.38204e-05,205.73999999993376,0.0001023875,205.73999999993376,7.938755e-06,205.73999999993376,5.564399e-06
205.75499999993374,2.390305e-05,205.75499999993374,0.0001022943,205.75499999993374,8.049767e-06,205.75499999993374,5.659781e-06
205.76999999993373,2.444844e-05,205.76999999993373,0.0001014546,205.76999999993373,7.887128e-06,205.76999999993373,5.741327e-06
205.78499999993372,2.45634e-05,205.78499999993372,9.835177e-05,205.78499999993372,8.004139e-06,205.78499999993372,5.903427e-06
205.7999999999337,2.464471e-05,205.7999999999337,9.674583e-05,205.7999999999337,8.000618e-06,205.7999999999337,6.109804e-06
205.8149999999337,2.493112e-05,205.8149999999337,9.123884e-05,205.8149999999337,7.752019e-06,205.8149999999337,6.320588e-06
205.82999999993368,2.518466e-05,205.82999999993368,8.900838e-05,205.82999999993368,8.067247e-06,205.82999999993368,6.302733e-06
205.84499999993366,2.549099e-05,205.84499999993366,8.790911e-05,205.84499999993366,7.998858e-06,205.84499999993366,6.711871e-06
205.85999999993365,2.525281e-05,205.85999999993365,8.834516e-05,205.85999999993365,7.842351e-06,205.85999999993365,6.574036e-06
205.87499999993364,2.484169e-05,205.87499999993364,8.394141e-05,205.87499999993364,7.562535e-06,205.87499999993364,6.680315e-06
205.88999999993362,2.434856e-05,205.88999999993362,8.215256e-05,205.88999999993362,7.750201e-06,205.88999999993362,6.64861e-06
205.9049999999336,2.201898e-05,205.9049999999336,0.0001169973,205.9049999999336,7.759284e-06,205.9049999999336,6.665538e-06
205.9199999999336,2.221769e-05,205.9199999999336,0.0001206065,205.9199999999336,8.58824e-06,205.9199999999336,6.494269e-06
205.93499999993358,2.261733e-05,205.93499999993358,0.0001231908,205.93499999993358,8.790878e-06,205.93499999993358,6.603967e-06
205.94999999993357,2.494468e-05,205.94999999993357,0.0001290574,205.94999999993357,9.099535e-06,205.94999999993357,7.164627e-06
205.96499999993355,2.419184e-05,205.96499999993355,0.0001282911,205.96499999993355,9.142777e-06,205.96499999993355,7.327922e-06
205.97999999993354,3.392216e-05,205.97999999993354,0.0001342873,205.97999999993354,1.067394e-05,205.97999999993354,7.375824e-06
205.99499999993353,3.455779e-05,205.99499999993353,0.0001393739,205.99499999993353,1.096686e-05,205.99499999993353,7.406318e-06
206.0099999999335,3.460504e-05,206.0099999999335,0.0001422346,206.0099999999335,1.09643e-05,206.0099999999335,7.62006e-06
206.0249999999335,3.486217e-05,206.0249999999335,0.0001443951,206.0249999999335,1.096815e-05,206.0249999999335,7.590424e-06
206.03999999993349,3.523395e-05,206.03999999993349,0.0001457715,206.03999999993349,1.093599e-05,206.03999999993349,7.457495e-06
206.05499999993347,3.687644e-05,206.05499999993347,0.0001465104,206.05499999993347,1.092439e-05,206.05499999993347,7.555081e-06
206.06999999993346,3.666498e-05,206.06999999993346,0.0001464019,206.06999999993346,1.128217e-05,206.06999999993346,7.410121e-06
206.08499999993344,3.717321e-05,206.08499999993344,0.0001497239,206.08499999993344,1.146792e-05,206.08499999993344,7.560672e-06
206.09999999993343,3.708975e-05,206.09999999993343,0.0001484762,206.09999999993343,1.152673e-05,206.09999999993343,7.137048e-06
206.11499999993342,3.762594e-05,206.11499999993342,0.0001490513,206.11499999993342,1.143964e-05,206.11499999993342,7.099447e-06
206.1299999999334,3.812912e-05,206.1299999999334,0.0001563471,206.1299999999334,1.142855e-05,206.1299999999334,7.071614e-06
206.1449999999334,3.810917e-05,206.1449999999334,0.0001544639,206.1449999999334,1.119065e-05,206.1449999999334,6.940926e-06
206.15999999993338,3.837292e-05,206.15999999993338,0.0001332928,206.15999999993338,1.140264e-05,206.15999999993338,7.113323e-06
206.17499999993336,3.802443e-05,206.17499999993336,0.0001334349,206.17499999993336,1.093342e-05,206.17499999993336,6.995509e-06
206.18999999993335,3.765027e-05,206.18999999993335,0.0001306829,206.18999999993335,1.079598e-05,206.18999999993335,6.824264e-06
206.20499999993334,3.593738e-05,206.20499999993334,0.0001277067,206.20499999993334,1.037547e-05,206.20499999993334,6.121322e-06
206.21999999993332,3.254761e-05,206.21999999993332,0.0001283411,206.21999999993332,1.014621e-05,206.21999999993332,6.347276e-06
206.2349999999333,2.570561e-05,206.2349999999333,0.0001189599,206.2349999999333,8.661737e-06,206.2349999999333,6.627389e-06
