X[s],a: EMG RMS 1-1,X[s].1,a: EMG RMS 1-2,X[s].2,a: EMG RMS 1-3,X[s].3,a: EMG RMS 1-4
13.005000000000114,1.133697e-05,13.005000000000114,0.0004504785,13.005000000000114,4.289197e-06,13.005000000000114,4.101159e-06
13.020000000000115,1.136427e-05,13.020000000000115,0.0004340949,13.020000000000115,3.797995e-06,13.020000000000115,3.975583e-06
13.035000000000116,1.143594e-05,13.035000000000116,0.0004578511,13.035000000000116,4.444044e-06,13.035000000000116,4.059732e-06
13.050000000000116,1.156577e-05,13.050000000000116,0.0004848555,13.050000000000116,4.587538e-06,13.050000000000116,4.038859e-06
13.065000000000117,1.171102e-05,13.065000000000117,0.0004800631,13.065000000000117,4.636408e-06,13.065000000000117,3.801702e-06
13.080000000000117,1.16797e-05,13.080000000000117,0.0004886822,13.080000000000117,4.68176e-06,13.080000000000117,3.856882e-06
13.095000000000118,1.136923e-05,13.095000000000118,0.0004976015,13.095000000000118,4.702775e-06,13.095000000000118,3.975583e-06
13.110000000000118,1.125341e-05,13.110000000000118,0.0005374353,13.110000000000118,4.69378e-06,13.110000000000118,4.31539e-06
13.125000000000119,1.085065e-05,13.125000000000119,0.000612167,13.125000000000119,4.720713e-06,13.125000000000119,4.376973e-06
13.14000000000012,9.910215e-06,13.14000000000012,0.0006485924,13.14000000000012,4.618143e-06,13.14000000000012,4.488202e-06
13.15500000000012,9.275854e-06,13.15500000000012,0.0006595475,13.15500000000012,4.596741e-06,13.15500000000012,4.444044e-06
13.17000000000012,9.699014e-06,13.17000000000012,0.0007014627,13.17000000000012,4.608983e-06,13.17000000000012,4.383405e-06
13.185000000000121,9.815953e-06,13.185000000000121,0.0007761007,13.185000000000121,4.687774e-06,13.185000000000121,4.262842e-06
13.200000000000122,1.001485e-05,13.200000000000122,0.0008039649,13.200000000000122,4.756387e-06,13.200000000000122,4.266145e-06
13.215000000000122,1.00289e-05,13.215000000000122,0.0007937727,13.215000000000122,4.791795e-06,13.215000000000122,4.334932e-06
13.230000000000123,9.73815e-06,13.230000000000123,0.0007959244,13.230000000000123,4.861837e-06,13.230000000000123,4.630328e-06
13.245000000000124,1.015315e-05,13.245000000000124,0.0007997756,13.245000000000124,4.83569e-06,13.245000000000124,4.488202e-06
13.260000000000124,9.858911e-06,13.260000000000124,0.0008027285,13.260000000000124,4.876302e-06,13.260000000000124,4.522595e-06
13.275000000000125,9.844612e-06,13.275000000000125,0.0008038774,13.275000000000125,4.702775e-06,13.275000000000125,4.497608e-06
13.290000000000125,9.973975e-06,13.290000000000125,0.000821484,13.290000000000125,4.219664e-06,13.290000000000125,4.569077e-06
13.305000000000126,1.070031e-05,13.305000000000126,0.0008590609,13.305000000000126,4.114875e-06,13.305000000000126,4.565993e-06
13.320000000000126,1.158646e-05,13.320000000000126,0.001068772,13.320000000000126,4.723696e-06,13.320000000000126,4.584466e-06
13.335000000000127,1.166764e-05,13.335000000000127,0.00144511,13.335000000000127,5.013047e-06,13.335000000000127,4.902232e-06
13.350000000000128,1.140387e-05,13.350000000000128,0.001486722,13.350000000000128,5.371176e-06,13.350000000000128,4.838602e-06
13.365000000000128,1.160104e-05,13.365000000000128,0.001556666,13.365000000000128,5.436346e-06,13.365000000000128,4.660651e-06
13.380000000000129,1.231378e-05,13.380000000000129,0.001582131,13.380000000000129,5.574516e-06,13.380000000000129,4.612038e-06
13.39500000000013,1.477073e-05,13.39500000000013,0.0016076,13.39500000000013,6.105191e-06,13.39500000000013,4.777073e-06
13.41000000000013,1.63401e-05,13.41000000000013,0.001963953,13.41000000000013,6.082075e-06,13.41000000000013,5.102175e-06
13.42500000000013,1.624239e-05,13.42500000000013,0.002237884,13.42500000000013,6.894089e-06,13.42500000000013,5.34752e-06
13.440000000000131,1.703567e-05,13.440000000000131,0.002671916,13.440000000000131,8.818078e-06,13.440000000000131,6.009847e-06
13.455000000000132,1.726972e-05,13.455000000000132,0.002999698,13.455000000000132,9.105725e-06,13.455000000000132,6.054217e-06
13.470000000000132,1.776111e-05,13.470000000000132,0.003218665,13.470000000000132,9.598277e-06,13.470000000000132,6.468188e-06
13.485000000000133,1.928003e-05,13.485000000000133,0.003310311,13.485000000000133,1.021401e-05,13.485000000000133,6.360578e-06
13.500000000000133,1.975565e-05,13.500000000000133,0.003344244,13.500000000000133,1.037683e-05,13.500000000000133,6.420096e-06
13.515000000000134,2.011041e-05,13.515000000000134,0.003411768,13.515000000000134,1.045258e-05,13.515000000000134,6.659195e-06
13.530000000000134,2.008869e-05,13.530000000000134,0.003453105,13.530000000000134,1.049561e-05,13.530000000000134,6.676097e-06
13.545000000000135,2.111301e-05,13.545000000000135,0.003457884,13.545000000000135,1.077508e-05,13.545000000000135,6.944984e-06
13.560000000000136,2.326393e-05,13.560000000000136,0.003568921,13.560000000000136,1.104494e-05,13.560000000000136,7.053663e-06
13.575000000000136,2.293278e-05,13.575000000000136,0.003714029,13.575000000000136,1.114398e-05,13.575000000000136,7.341366e-06
13.590000000000137,2.302167e-05,13.590000000000137,0.003734129,13.590000000000137,1.132951e-05,13.590000000000137,7.451826e-06
13.605000000000137,2.293953e-05,13.605000000000137,0.003754439,13.605000000000137,1.140634e-05,13.605000000000137,7.498936e-06
13.620000000000138,2.308156e-05,13.620000000000138,0.003812853,13.620000000000138,1.164346e-05,13.620000000000138,7.542018e-06
13.635000000000138,2.125796e-05,13.635000000000138,0.003964007,13.635000000000138,1.165072e-05,13.635000000000138,7.555081e-06
13.650000000000139,2.121883e-05,13.650000000000139,0.003979232,13.650000000000139,1.177699e-05,13.650000000000139,7.354785e-06
13.66500000000014,2.04225e-05,13.66500000000014,0.003770087,13.66500000000014,1.22507e-05,13.66500000000014,7.341366e-06
13.68000000000014,2.097578e-05,13.68000000000014,0.003726632,13.68000000000014,1.186873e-05,13.68000000000014,7.089519e-06
13.69500000000014,2.006202e-05,13.69500000000014,0.003500015,13.69500000000014,1.088564e-05,13.69500000000014,6.69506e-06
13.710000000000141,1.996207e-05,13.710000000000141,0.003304089,13.710000000000141,1.066734e-05,13.710000000000141,6.734918e-06
13.725000000000142,1.798025e-05,13.725000000000142,0.003114311,13.725000000000142,1.022504e-05,13.725000000000142,6.365006e-06
13.740000000000142,1.785998e-05,13.740000000000142,0.003082125,13.740000000000142,1.03714e-05,13.740000000000142,6.610363e-06
13.755000000000143,1.72738e-05,13.755000000000143,0.003057273,13.755000000000143,1.035509e-05,13.755000000000143,6.930771e-06
13.770000000000143,1.851142e-05,13.770000000000143,0.002993884,13.770000000000143,1.076462e-05,13.770000000000143,6.885912e-06
13.785000000000144,1.945024e-05,13.785000000000144,0.00297049,13.785000000000144,1.092955e-05,13.785000000000144,6.782854e-06
13.800000000000145,1.599067e-05,13.800000000000145,0.002971098,13.800000000000145,1.132081e-05,13.800000000000145,6.576178e-06
13.815000000000145,1.501383e-05,13.815000000000145,0.00268704,13.815000000000145,1.165556e-05,13.815000000000145,6.19225e-06
13.830000000000146,1.494518e-05,13.830000000000146,0.002354085,13.830000000000146,1.32154e-05,13.830000000000146,6.505105e-06
13.845000000000146,1.457488e-05,13.845000000000146,0.002266762,13.845000000000146,1.32026e-05,13.845000000000146,6.402519e-06
13.860000000000147,1.453423e-05,13.860000000000147,0.00221896,13.860000000000147,1.322925e-05,13.860000000000147,6.411314e-06
13.875000000000147,1.439595e-05,13.875000000000147,0.002054563,13.875000000000147,1.339643e-05,13.875000000000147,7.748384e-06
13.890000000000148,1.406032e-05,13.890000000000148,0.001882547,13.890000000000148,1.361236e-05,13.890000000000148,7.818965e-06
13.905000000000149,1.37892e-05,13.905000000000149,0.001750677,13.905000000000149,1.378511e-05,13.905000000000149,8.25709e-06
13.92000000000015,1.357194e-05,13.92000000000015,0.001520946,13.92000000000015,1.416115e-05,13.92000000000015,8.171345e-06
13.93500000000015,1.271783e-05,13.93500000000015,0.001361565,13.93500000000015,1.490271e-05,13.93500000000015,8.645458e-06
13.95000000000015,1.309977e-05,13.95000000000015,0.001372683,13.95000000000015,1.800843e-05,13.95000000000015,1.077116e-05
13.96500000000015,1.317483e-05,13.96500000000015,0.001305739,13.96500000000015,1.923833e-05,13.96500000000015,1.090374e-05
13.980000000000151,1.37288e-05,13.980000000000151,0.001214128,13.980000000000151,1.95888e-05,13.980000000000151,1.088823e-05
13.995000000000152,1.342164e-05,13.995000000000152,0.001200714,13.995000000000152,1.978486e-05,13.995000000000152,1.435675e-05
14.010000000000153,1.366091e-05,14.010000000000153,0.001191465,14.010000000000153,1.982682e-05,14.010000000000153,1.420683e-05
14.025000000000153,1.042018e-05,14.025000000000153,0.001155211,14.025000000000153,1.99119e-05,14.025000000000153,1.46318e-05
14.040000000000154,1.156334e-05,14.040000000000154,0.001099107,14.040000000000154,2.034856e-05,14.040000000000154,1.615195e-05
14.055000000000154,1.187704e-05,14.055000000000154,0.001113534,14.055000000000154,2.029866e-05,14.055000000000154,1.639089e-05
14.070000000000155,1.534513e-05,14.070000000000155,0.00102425,14.070000000000155,2.008728e-05,14.070000000000155,1.680254e-05
14.085000000000155,1.699593e-05,14.085000000000155,0.0008875498,14.085000000000155,1.909059e-05,14.085000000000155,1.690868e-05
14.100000000000156,1.710745e-05,14.100000000000156,0.0008059191,14.100000000000156,1.916938e-05,14.100000000000156,1.736895e-05
14.115000000000157,1.722398e-05,14.115000000000157,0.0008004552,14.115000000000157,1.900629e-05,14.115000000000157,1.762896e-05
14.130000000000157,2.003954e-05,14.130000000000157,0.0007941229,14.130000000000157,1.880286e-05,14.130000000000157,1.708521e-05
14.145000000000158,2.095832e-05,14.145000000000158,0.0006575413,14.145000000000158,1.86426e-05,14.145000000000158,1.711404e-05
14.160000000000158,2.160892e-05,14.160000000000158,0.0006471925,14.160000000000158,1.841529e-05,14.160000000000158,1.780706e-05
14.175000000000159,2.226202e-05,14.175000000000159,0.0006481336,14.175000000000159,1.801547e-05,14.175000000000159,1.912966e-05
14.19000000000016,2.253622e-05,14.19000000000016,0.0006259547,14.19000000000016,1.674375e-05,14.19000000000016,1.893054e-05
14.20500000000016,2.32209e-05,14.20500000000016,0.0005699235,14.20500000000016,1.256405e-05,14.20500000000016,1.846723e-05
14.22000000000016,2.926503e-05,14.22000000000016,0.0004810577,14.22000000000016,1.32951e-05,14.22000000000016,1.84451e-05
14.235000000000161,3.191741e-05,14.235000000000161,0.0003955322,14.235000000000161,1.355428e-05,14.235000000000161,1.843211e-05
14.250000000000162,3.615778e-05,14.250000000000162,0.0003944057,14.250000000000162,1.565504e-05,14.250000000000162,1.667378e-05
14.265000000000162,3.622706e-05,14.265000000000162,0.0003920657,14.265000000000162,1.606888e-05,14.265000000000162,1.747407e-05
14.280000000000163,3.642135e-05,14.280000000000163,0.0003842882,14.280000000000163,1.584998e-05,14.280000000000163,1.703153e-05
14.295000000000163,3.717851e-05,14.295000000000163,0.0003794989,14.295000000000163,1.503821e-05,14.295000000000163,1.638057e-05
14.310000000000164,3.917941e-05,14.310000000000164,0.0003736469,14.310000000000164,1.532032e-05,14.310000000000164,1.629694e-05
14.325000000000164,4.199016e-05,14.325000000000164,0.0003739408,14.325000000000164,1.553852e-05,14.325000000000164,1.724687e-05
14.340000000000165,4.973495e-05,14.340000000000165,0.0003789196,14.340000000000165,1.702077e-05,14.340000000000165,1.802016e-05
14.355000000000166,5.037575e-05,14.355000000000166,0.0003732828,14.355000000000166,1.827631e-05,14.355000000000166,1.820449e-05
14.370000000000166,5.072464e-05,14.370000000000166,0.0003790738,14.370000000000166,1.856385e-05,14.370000000000166,1.8629e-05
14.385000000000167,5.026265e-05,14.385000000000167,0.0003787684,14.385000000000167,1.882981e-05,14.385000000000167,1.88328e-05
14.400000000000167,4.998555e-05,14.400000000000167,0.0003722812,14.400000000000167,1.921196e-05,14.400000000000167,2.075909e-05
14.415000000000168,4.956131e-05,14.415000000000168,0.000370304,14.415000000000168,1.90869e-05,14.415000000000168,1.983464e-05
14.430000000000168,4.938078e-05,14.430000000000168,0.0003651616,14.430000000000168,1.997053e-05,14.430000000000168,2.039282e-05
14.445000000000169,4.927883e-05,14.445000000000169,0.0003608046,14.445000000000169,2.125133e-05,14.445000000000169,2.023193e-05
14.46000000000017,4.833009e-05,14.46000000000017,0.0003649543,14.46000000000017,2.215419e-05,14.46000000000017,1.99797e-05
14.47500000000017,4.419856e-05,14.47500000000017,0.000357296,14.47500000000017,2.131487e-05,14.47500000000017,1.995007e-05
14.49000000000017,4.23639e-05,14.49000000000017,0.0003611928,14.49000000000017,1.993382e-05,14.49000000000017,1.995289e-05
14.505000000000171,4.017281e-05,14.505000000000171,0.0003671277,14.505000000000171,1.926248e-05,14.505000000000171,1.967061e-05
14.520000000000172,3.992554e-05,14.520000000000172,0.0003547943,14.520000000000172,2.032986e-05,14.520000000000172,1.932017e-05
14.535000000000172,3.965152e-05,14.535000000000172,0.000358087,14.535000000000172,2.159131e-05,14.535000000000172,1.950087e-05
14.550000000000173,3.818007e-05,14.550000000000173,0.0003659524,14.550000000000173,2.15299e-05,14.550000000000173,1.924639e-05
14.565000000000174,3.62566e-05,14.565000000000174,0.0003617154,14.565000000000174,2.163042e-05,14.565000000000174,1.895954e-05
14.580000000000174,2.379082e-05,14.580000000000174,0.0003568371,14.580000000000174,2.117031e-05,14.580000000000174,1.976705e-05
14.595000000000175,1.489231e-05,14.595000000000175,0.0003373355,14.595000000000175,1.925078e-05,14.595000000000175,1.906918e-05
14.610000000000175,1.215488e-05,14.610000000000175,0.0003377536,14.610000000000175,1.97699e-05,14.610000000000175,1.857978e-05
14.625000000000176,1.018777e-05,14.625000000000176,0.0003476389,14.625000000000176,2.035687e-05,14.625000000000176,1.981688e-05
14.640000000000176,9.06075e-06,14.640000000000176,0.0003492695,14.640000000000176,2.00985e-05,14.640000000000176,2.003602e-05
14.655000000000177,8.472646e-06,14.655000000000177,0.0003556408,14.655000000000177,2.041905e-05,14.655000000000177,1.813859e-05
14.670000000000178,8.160995e-06,14.670000000000178,0.0003546173,14.670000000000178,2.04356e-05,14.670000000000178,1.72958e-05
14.685000000000178,7.851327e-06,14.685000000000178,0.0003521555,14.685000000000178,1.94198e-05,14.685000000000178,1.694529e-05
14.700000000000179,7.551351e-06,14.700000000000179,0.0003591856,14.700000000000179,1.809583e-05,14.700000000000179,1.810128e-05
14.71500000000018,7.538281e-06,14.71500000000018,0.0003549184,14.71500000000018,1.709922e-05,14.71500000000018,1.981901e-05
14.73000000000018,7.863876e-06,14.73000000000018,0.0003579132,14.73000000000018,1.756011e-05,14.73000000000018,2.000507e-05
14.74500000000018,8.402527e-06,14.74500000000018,0.0003608254,14.74500000000018,1.728684e-05,14.74500000000018,1.997829e-05
14.760000000000181,8.367247e-06,14.760000000000181,0.000365662,14.760000000000181,1.692616e-05,14.760000000000181,2.017755e-05
14.775000000000182,8.723317e-06,14.775000000000182,0.0003616234,14.775000000000182,1.431745e-05,14.775000000000182,2.056753e-05
14.790000000000182,8.758771e-06,14.790000000000182,0.0003688888,14.790000000000182,1.389605e-05,14.790000000000182,2.025211e-05
14.805000000000183,8.676361e-06,14.805000000000183,0.0003655623,14.805000000000183,1.330781e-05,14.805000000000183,2.009219e-05
14.820000000000183,8.889673e-06,14.820000000000183,0.0003655763,14.820000000000183,1.35989e-05,14.820000000000183,2.07163e-05
14.835000000000184,8.827657e-06,14.835000000000184,0.000365339,14.835000000000184,1.350222e-05,14.835000000000184,2.016288e-05
14.850000000000184,9.318279e-06,14.850000000000184,0.0003762257,14.850000000000184,1.322818e-05,14.850000000000184,2.120687e-05
14.865000000000185,9.571822e-06,14.865000000000185,0.0003716865,14.865000000000185,1.169778e-05,14.865000000000185,2.106625e-05
14.880000000000186,9.303149e-06,14.880000000000186,0.0003545207,14.880000000000186,9.853194e-06,14.880000000000186,1.938713e-05
14.895000000000186,1.604695e-05,14.895000000000186,0.0003695787,14.895000000000186,9.374045e-06,14.895000000000186,1.902184e-05
14.910000000000187,1.851522e-05,14.910000000000187,0.000377228,14.910000000000187,8.439329e-06,14.910000000000187,1.91304e-05
14.925000000000187,1.907952e-05,14.925000000000187,0.000384883,14.925000000000187,8.390783e-06,14.925000000000187,2.028408e-05
14.940000000000188,2.166556e-05,14.940000000000188,0.000398487,14.940000000000188,8.45767e-06,14.940000000000188,1.901296e-05
14.955000000000188,2.259365e-05,14.955000000000188,0.0003934856,14.955000000000188,8.176516e-06,14.955000000000188,1.735516e-05
14.970000000000189,2.331111e-05,14.970000000000189,0.0004062898,14.970000000000189,8.2229e-06,14.970000000000189,1.685778e-05
14.98500000000019,2.601122e-05,14.98500000000019,0.0004125716,14.98500000000019,6.975343e-06,14.98500000000019,1.66247e-05
15.00000000000019,2.642066e-05,15.00000000000019,0.0004218546,15.00000000000019,7.446153e-06,15.00000000000019,1.701415e-05
15.01500000000019,2.655946e-05,15.01500000000019,0.00044086,15.01500000000019,7.762914e-06,15.01500000000019,1.767366e-05
15.030000000000191,2.676656e-05,15.030000000000191,0.0004494349,15.030000000000191,7.755652e-06,15.030000000000191,1.73381e-05
15.045000000000192,2.785943e-05,15.045000000000192,0.0004582522,15.045000000000192,8.397496e-06,15.045000000000192,1.730964e-05
15.060000000000192,3.393213e-05,15.060000000000192,0.0004729319,15.060000000000192,8.661737e-06,15.060000000000192,1.726238e-05
15.075000000000193,3.501659e-05,15.075000000000193,0.0004823429,15.075000000000193,8.353768e-06,15.075000000000193,1.868789e-05
15.090000000000193,3.580071e-05,15.090000000000193,0.0005133533,15.090000000000193,9.004607e-06,15.090000000000193,1.849391e-05
15.105000000000194,3.686498e-05,15.105000000000194,0.0005610164,15.105000000000194,9.031162e-06,15.105000000000194,1.749904e-05
15.120000000000195,3.691195e-05,15.120000000000195,0.0006545961,15.120000000000195,9.056085e-06,15.120000000000195,1.759777e-05
15.135000000000195,3.682445e-05,15.135000000000195,0.0006958713,15.135000000000195,9.81021e-06,15.135000000000195,1.805999e-05
15.150000000000196,3.344372e-05,15.150000000000196,0.0006903932,15.150000000000196,1.05505e-05,15.150000000000196,2.063522e-05
15.165000000000196,3.424783e-05,15.165000000000196,0.0007304294,15.165000000000196,1.158403e-05,15.165000000000196,2.112768e-05
15.180000000000197,3.377275e-05,15.180000000000197,0.0007506773,15.180000000000197,1.183426e-05,15.180000000000197,2.102877e-05
15.195000000000197,3.358956e-05,15.195000000000197,0.0007479953,15.195000000000197,1.2527e-05,15.195000000000197,2.166556e-05
15.210000000000198,3.495821e-05,15.210000000000198,0.0007511394,15.210000000000198,1.328238e-05,15.210000000000198,2.177193e-05
15.225000000000199,4.237487e-05,15.225000000000199,0.0007543769,15.225000000000199,1.488474e-05,15.225000000000199,2.494016e-05
15.2400000000002,4.292545e-05,15.2400000000002,0.0007671361,15.2400000000002,1.49612e-05,15.2400000000002,2.459263e-05
15.2550000000002,4.511212e-05,15.2550000000002,0.0007667938,15.2550000000002,1.478789e-05,15.2550000000002,2.412479e-05
15.2700000000002,4.575762e-05,15.2700000000002,0.0007774044,15.2700000000002,1.592269e-05,15.2700000000002,2.383991e-05
15.2850000000002,4.6942e-05,15.2850000000002,0.000774812,15.2850000000002,1.618592e-05,15.2850000000002,2.386767e-05
15.300000000000201,4.688014e-05,15.300000000000201,0.0007803889,15.300000000000201,1.680589e-05,15.300000000000201,2.397602e-05
15.315000000000202,4.422979e-05,15.315000000000202,0.0007835212,15.315000000000202,1.711075e-05,15.315000000000202,2.656847e-05
15.330000000000203,4.451424e-05,15.330000000000203,0.0007747741,15.330000000000203,1.733729e-05,15.330000000000203,2.562217e-05
15.345000000000203,4.435446e-05,15.345000000000203,0.0007639928,15.345000000000203,1.764813e-05,15.345000000000203,2.599659e-05
15.360000000000204,4.45601e-05,15.360000000000204,0.0006864165,15.360000000000204,1.82215e-05,15.360000000000204,2.605072e-05
15.375000000000204,4.673208e-05,15.375000000000204,0.000635303,15.375000000000204,1.881335e-05,15.375000000000204,2.611337e-05
15.390000000000205,4.791647e-05,15.390000000000205,0.0006201674,15.390000000000205,1.950882e-05,15.390000000000205,2.613332e-05
15.405000000000205,4.803451e-05,15.405000000000205,0.0006144631,15.405000000000205,1.942488e-05,15.405000000000205,2.362027e-05
15.420000000000206,4.81663e-05,15.420000000000206,0.0006062365,15.420000000000206,1.956362e-05,15.420000000000206,2.375586e-05
15.435000000000207,4.992577e-05,15.435000000000207,0.0005841698,15.435000000000207,2.204264e-05,15.435000000000207,2.365781e-05
15.450000000000207,5.035253e-05,15.450000000000207,0.0005908741,15.450000000000207,2.284785e-05,15.450000000000207,2.328995e-05
15.465000000000208,4.976779e-05,15.465000000000208,0.0005965194,15.465000000000208,2.271801e-05,15.465000000000208,2.477355e-05
15.480000000000208,4.441476e-05,15.480000000000208,0.0006028942,15.480000000000208,2.26273e-05,15.480000000000208,2.318933e-05
15.495000000000209,4.660983e-05,15.495000000000209,0.000589071,15.495000000000209,2.29002e-05,15.495000000000209,2.294751e-05
15.51000000000021,4.599283e-05,15.51000000000021,0.000583739,15.51000000000021,2.262045e-05,15.51000000000021,2.283058e-05
15.52500000000021,4.713875e-05,15.52500000000021,0.0005747653,15.52500000000021,2.337568e-05,15.52500000000021,2.256496e-05
15.54000000000021,5.400052e-05,15.54000000000021,0.0005738116,15.54000000000021,2.406223e-05,15.54000000000021,2.255434e-05
15.555000000000211,6.393095e-05,15.555000000000211,0.0005689418,15.555000000000211,2.398835e-05,15.555000000000211,2.025628e-05
15.570000000000212,6.526919e-05,15.570000000000212,0.000582758,15.570000000000212,2.387416e-05,15.570000000000212,1.860857e-05
15.585000000000212,6.507314e-05,15.585000000000212,0.0006001278,15.585000000000212,2.401594e-05,15.585000000000212,2.245607e-05
15.600000000000213,6.529098e-05,15.600000000000213,0.0006066324,15.600000000000213,2.389775e-05,15.600000000000213,2.20145e-05
15.615000000000213,6.591818e-05,15.615000000000213,0.0006105142,15.615000000000213,2.368876e-05,15.615000000000213,2.184814e-05
15.630000000000214,6.796547e-05,15.630000000000214,0.000603727,15.630000000000214,2.292356e-05,15.630000000000214,2.152401e-05
15.645000000000215,6.832495e-05,15.645000000000215,0.0006037512,15.645000000000215,2.268326e-05,15.645000000000215,2.116565e-05
15.660000000000215,6.945451e-05,15.660000000000215,0.0006005636,15.660000000000215,2.456914e-05,15.660000000000215,2.084779e-05
15.675000000000216,6.939039e-05,15.675000000000216,0.0006091475,15.675000000000216,2.449909e-05,15.675000000000216,2.052845e-05
15.690000000000216,6.933048e-05,15.690000000000216,0.0006093089,15.690000000000216,2.139403e-05,15.690000000000216,2.093209e-05
15.705000000000217,7.073626e-05,15.705000000000217,0.0006557973,15.705000000000217,2.103011e-05,15.705000000000217,2.025837e-05
15.720000000000217,7.161008e-05,15.720000000000217,0.0006837056,15.720000000000217,2.274404e-05,15.720000000000217,1.781338e-05
15.735000000000218,6.954997e-05,15.735000000000218,0.001019663,15.735000000000218,2.29045e-05,15.735000000000218,1.891416e-05
15.750000000000218,7.149648e-05,15.750000000000218,0.001204658,15.750000000000218,2.478208e-05,15.750000000000218,1.997053e-05
15.765000000000219,7.298451e-05,15.765000000000219,0.00120347,15.765000000000219,2.507366e-05,15.765000000000219,2.027574e-05
15.78000000000022,7.455492e-05,15.78000000000022,0.001212089,15.78000000000022,2.481332e-05,15.78000000000022,2.052227e-05
15.79500000000022,6.325467e-05,15.79500000000022,0.00121945,15.79500000000022,2.378786e-05,15.79500000000022,2.075366e-05
15.81000000000022,6.333902e-05,15.81000000000022,0.00123604,15.81000000000022,2.554729e-05,15.81000000000022,2.277622e-05
15.825000000000221,6.384805e-05,15.825000000000221,0.001268102,15.825000000000221,2.823112e-05,15.825000000000221,2.077673e-05
15.840000000000222,6.544915e-05,15.840000000000222,0.001267823,15.840000000000222,2.823013e-05,15.840000000000222,1.999168e-05
15.855000000000222,6.79806e-05,15.855000000000222,0.001260901,15.855000000000222,2.843299e-05,15.855000000000222,2.059764e-05
15.870000000000223,6.873954e-05,15.870000000000223,0.00126522,15.870000000000223,2.870271e-05,15.870000000000223,2.099055e-05
15.885000000000224,6.827112e-05,15.885000000000224,0.001262985,15.885000000000224,2.909753e-05,15.885000000000224,2.102609e-05
15.900000000000224,7.232744e-05,15.900000000000224,0.00127023,15.900000000000224,2.757074e-05,15.900000000000224,2.125995e-05
15.915000000000225,7.716849e-05,15.915000000000225,0.001269179,15.915000000000225,3.022638e-05,15.915000000000225,2.109365e-05
15.930000000000225,7.825663e-05,15.930000000000225,0.001274853,15.930000000000225,3.037932e-05,15.930000000000225,2.138744e-05
15.945000000000226,7.991017e-05,15.945000000000226,0.001267864,15.945000000000226,3.060799e-05,15.945000000000226,2.142956e-05
15.960000000000226,8.249137e-05,15.960000000000226,0.001271077,15.960000000000226,3.054164e-05,15.960000000000226,2.20081e-05
15.975000000000227,8.29041e-05,15.975000000000227,0.00123468,15.975000000000227,2.969841e-05,15.975000000000227,2.325848e-05
15.990000000000228,8.567022e-05,15.990000000000228,0.0009139444,15.990000000000228,2.973822e-05,15.990000000000228,2.267829e-05
16.005000000000226,8.447054e-05,16.005000000000226,0.0007071652,16.005000000000226,2.839084e-05,16.005000000000226,2.257245e-05
16.020000000000227,8.440648e-05,16.020000000000227,0.0007427209,16.020000000000227,2.945981e-05,16.020000000000227,2.24824e-05
16.035000000000228,8.830944e-05,16.035000000000228,0.000749257,16.035000000000228,2.891103e-05,16.035000000000228,2.280033e-05
16.050000000000228,8.887502e-05,16.050000000000228,0.0007297968,16.050000000000228,2.838142e-05,16.050000000000228,2.266462e-05
16.06500000000023,9.111462e-05,16.06500000000023,0.0008589139,16.06500000000023,2.832677e-05,16.06500000000023,2.122546e-05
16.08000000000023,9.550592e-05,16.08000000000023,0.0009812961,16.08000000000023,2.685693e-05,16.08000000000023,2.100866e-05
16.09500000000023,9.756388e-05,16.09500000000023,0.001209281,16.09500000000023,2.847507e-05,16.09500000000023,2.023193e-05
16.11000000000023,9.78669e-05,16.11000000000023,0.001212036,16.11000000000023,2.82994e-05,16.11000000000023,2.139666e-05
16.12500000000023,9.895991e-05,16.12500000000023,0.001268963,16.12500000000023,2.823562e-05,16.12500000000023,2.14473e-05
16.14000000000023,0.0001034341,16.14000000000023,0.001269475,16.14000000000023,2.851709e-05,16.14000000000023,2.193052e-05
16.155000000000232,9.992839e-05,16.155000000000232,0.001263039,16.155000000000232,2.678287e-05,16.155000000000232,2.184943e-05
16.170000000000233,9.837899e-05,16.170000000000233,0.001289218,16.170000000000233,2.562987e-05,16.170000000000233,2.330749e-05
16.185000000000233,9.893969e-05,16.185000000000233,0.001292828,16.185000000000233,2.549651e-05,16.185000000000233,2.310413e-05
16.200000000000234,9.593741e-05,16.200000000000234,0.001301518,16.200000000000234,2.559687e-05,16.200000000000234,2.407511e-05
16.215000000000234,9.435128e-05,16.215000000000234,0.001283009,16.215000000000234,2.486209e-05,16.215000000000234,2.34689e-05
16.230000000000235,9.755579e-05,16.230000000000235,0.001372472,16.230000000000235,2.571109e-05,16.230000000000235,2.249743e-05
16.245000000000235,0.0001032364,16.245000000000235,0.001460824,16.245000000000235,2.855115e-05,16.245000000000235,2.201578e-05
16.260000000000236,0.0001017161,16.260000000000236,0.001463469,16.260000000000236,2.771445e-05,16.260000000000236,2.343947e-05
16.275000000000237,9.985704e-05,16.275000000000237,0.001480834,16.275000000000237,2.688524e-05,16.275000000000237,2.368638e-05
16.290000000000237,9.76333e-05,16.290000000000237,0.001508822,16.290000000000237,2.676498e-05,16.290000000000237,2.443115e-05
16.305000000000238,9.983475e-05,16.305000000000238,0.001477327,16.305000000000238,2.711376e-05,16.305000000000238,2.409148e-05
16.32000000000024,9.622506e-05,16.32000000000024,0.001456617,16.32000000000024,2.681073e-05,16.32000000000024,2.412421e-05
16.33500000000024,9.336885e-05,16.33500000000024,0.001362549,16.33500000000024,2.469324e-05,16.33500000000024,2.395838e-05
16.35000000000024,9.092534e-05,16.35000000000024,0.001267754,16.35000000000024,2.479117e-05,16.35000000000024,2.410785e-05
16.36500000000024,9.0398e-05,16.36500000000024,0.001272937,16.36500000000024,2.46921e-05,16.36500000000024,2.247739e-05
16.38000000000024,8.607246e-05,16.38000000000024,0.001257195,16.38000000000024,2.437053e-05,16.38000000000024,2.287681e-05
16.39500000000024,9.028292e-05,16.39500000000024,0.001257476,16.39500000000024,2.588364e-05,16.39500000000024,2.273289e-05
16.41000000000024,9.516001e-05,16.41000000000024,0.00127357,16.41000000000024,2.650796e-05,16.41000000000024,2.361729e-05
16.425000000000242,9.959954e-05,16.425000000000242,0.001263237,16.425000000000242,2.844438e-05,16.425000000000242,2.240772e-05
16.440000000000243,9.768134e-05,16.440000000000243,0.001276427,16.440000000000243,2.838787e-05,16.440000000000243,2.276261e-05
16.455000000000243,9.720196e-05,16.455000000000243,0.00128435,16.455000000000243,2.809307e-05,16.455000000000243,2.114168e-05
16.470000000000244,9.770296e-05,16.470000000000244,0.00124023,16.470000000000244,2.798556e-05,16.470000000000244,2.130363e-05
16.485000000000245,9.574486e-05,16.485000000000245,0.001180563,16.485000000000245,2.722212e-05,16.485000000000245,2.191381e-05
16.500000000000245,0.0001047818,16.500000000000245,0.001479026,16.500000000000245,3.513707e-05,16.500000000000245,2.761107e-05
16.515000000000246,0.0001114198,16.515000000000246,0.001980346,16.515000000000246,3.751496e-05,16.515000000000246,2.728673e-05
16.530000000000246,0.0001111428,16.530000000000246,0.002346187,16.530000000000246,3.802072e-05,16.530000000000246,2.772105e-05
16.545000000000247,0.0001099703,16.545000000000247,0.002542587,16.545000000000247,3.809031e-05,16.545000000000247,2.760801e-05
16.560000000000247,0.0001077929,16.560000000000247,0.002815007,16.560000000000247,3.837072e-05,16.560000000000247,2.783262e-05
16.575000000000248,0.0001071315,16.575000000000248,0.003093874,16.575000000000248,3.792093e-05,16.575000000000248,2.764778e-05
16.59000000000025,0.0001065174,16.59000000000025,0.003329398,16.59000000000025,3.756e-05,16.59000000000025,2.750885e-05
16.60500000000025,0.0001064314,16.60500000000025,0.003538992,16.60500000000025,3.785847e-05,16.60500000000025,2.727589e-05
16.62000000000025,0.0001062677,16.62000000000025,0.00362186,16.62000000000025,3.785921e-05,16.62000000000025,2.768699e-05
16.63500000000025,0.0001023282,16.63500000000025,0.0037687,16.63500000000025,3.704414e-05,16.63500000000025,2.722419e-05
16.65000000000025,0.0001011328,16.65000000000025,0.003898411,16.65000000000025,3.669148e-05,16.65000000000025,2.648723e-05
16.66500000000025,9.35211e-05,16.66500000000025,0.003933839,16.66500000000025,3.476789e-05,16.66500000000025,2.591518e-05
16.680000000000252,9.444947e-05,16.680000000000252,0.003932003,16.680000000000252,3.44921e-05,16.680000000000252,2.598304e-05
16.695000000000253,9.480035e-05,16.695000000000253,0.003931995,16.695000000000253,3.459853e-05,16.695000000000253,2.627471e-05
16.710000000000253,9.453504e-05,16.710000000000253,0.003930189,16.710000000000253,3.447249e-05,16.710000000000253,2.598629e-05
16.725000000000254,9.208684e-05,16.725000000000254,0.003929435,16.725000000000254,3.394375e-05,16.725000000000254,2.559247e-05
16.740000000000254,8.902294e-05,16.740000000000254,0.003925316,16.740000000000254,3.366371e-05,16.740000000000254,2.588854e-05
16.755000000000255,7.355283e-05,16.755000000000255,0.003701453,16.755000000000255,2.278673e-05,16.755000000000255,2.032224e-05
16.770000000000255,6.455828e-05,16.770000000000255,0.003487447,16.770000000000255,1.882607e-05,16.770000000000255,1.799826e-05
16.785000000000256,6.699729e-05,16.785000000000256,0.003259993,16.785000000000256,1.951243e-05,16.785000000000256,1.749984e-05
16.800000000000257,6.78275e-05,16.800000000000257,0.003171534,16.800000000000257,1.844204e-05,16.800000000000257,1.669404e-05
16.815000000000257,6.900237e-05,16.815000000000257,0.002990899,16.815000000000257,1.734216e-05,16.815000000000257,1.975565e-05
16.830000000000258,6.970979e-05,16.830000000000258,0.002713612,16.830000000000258,1.724197e-05,16.830000000000258,2.005781e-05
16.845000000000258,7.32773e-05,16.845000000000258,0.002345562,16.845000000000258,1.82215e-05,16.845000000000258,2.053943e-05
16.86000000000026,7.6154e-05,16.86000000000026,0.001886965,16.86000000000026,1.847486e-05,16.86000000000026,2.098451e-05
16.87500000000026,7.672859e-05,16.87500000000026,0.001785477,16.87500000000026,1.88126e-05,16.87500000000026,2.057437e-05
16.89000000000026,7.624791e-05,16.89000000000026,0.001582672,16.89000000000026,1.882981e-05,16.89000000000026,2.04893e-05
16.90500000000026,7.869874e-05,16.90500000000026,0.001372159,16.90500000000026,1.871575e-05,16.90500000000026,2.051335e-05
16.92000000000026,7.895251e-05,16.92000000000026,0.001313911,16.92000000000026,2.057027e-05,16.92000000000026,2.055793e-05
16.93500000000026,8.691512e-05,16.93500000000026,0.001306739,16.93500000000026,2.134129e-05,16.93500000000026,2.058396e-05
16.950000000000262,9.108756e-05,16.950000000000262,0.001306684,16.950000000000262,2.165841e-05,16.950000000000262,2.026393e-05
16.965000000000263,9.093077e-05,16.965000000000263,0.001327879,16.965000000000263,2.186812e-05,16.965000000000263,2.011742e-05
16.980000000000263,9.277479e-05,16.980000000000263,0.001329641,16.980000000000263,2.150502e-05,16.980000000000263,2.009359e-05
16.995000000000264,9.585132e-05,16.995000000000264,0.001321545,16.995000000000264,2.262543e-05,16.995000000000264,1.841376e-05
17.010000000000264,9.610025e-05,17.010000000000264,0.00130215,17.010000000000264,2.262792e-05,17.010000000000264,1.816963e-05
17.025000000000265,9.707971e-05,17.025000000000265,0.001297414,17.025000000000265,2.288297e-05,17.025000000000265,1.827014e-05
17.040000000000266,9.840476e-05,17.040000000000266,0.001165614,17.040000000000266,2.202985e-05,17.040000000000266,1.824391e-05
17.055000000000266,9.612341e-05,17.055000000000266,0.001067849,17.055000000000266,2.281083e-05,17.055000000000266,1.698764e-05
17.070000000000267,9.803229e-05,17.070000000000267,0.0006461766,17.070000000000267,2.321544e-05,17.070000000000267,1.720189e-05
17.085000000000267,9.830106e-05,17.085000000000267,0.0005576221,17.085000000000267,2.378134e-05,17.085000000000267,1.679248e-05
17.100000000000268,9.465477e-05,17.100000000000268,0.0005556485,17.100000000000268,2.31084e-05,17.100000000000268,1.695194e-05
17.11500000000027,9.802928e-05,17.11500000000027,0.0005336727,17.11500000000027,2.269133e-05,17.11500000000027,1.762497e-05
17.13000000000027,9.84228e-05,17.13000000000027,0.0004391261,17.13000000000027,2.271925e-05,17.13000000000027,1.745471e-05
17.14500000000027,9.884268e-05,17.14500000000027,0.0003980758,17.14500000000027,2.366912e-05,17.14500000000027,1.743371e-05
17.16000000000027,9.794762e-05,17.16000000000027,0.0003678058,17.16000000000027,2.225886e-05,17.16000000000027,1.796536e-05
17.17500000000027,9.076625e-05,17.17500000000027,0.0003406088,17.17500000000027,2.157761e-05,17.17500000000027,1.823232e-05
17.19000000000027,8.770119e-05,17.19000000000027,0.0003189136,17.19000000000027,2.156977e-05,17.19000000000027,1.818281e-05
17.205000000000272,8.954438e-05,17.205000000000272,0.0002637443,17.205000000000272,2.33799e-05,17.205000000000272,1.805687e-05
17.220000000000272,9.106143e-05,17.220000000000272,0.0001885528,17.220000000000272,2.325303e-05,17.220000000000272,1.874734e-05
17.235000000000273,8.692662e-05,17.235000000000273,0.0001577127,17.235000000000273,2.329177e-05,17.235000000000273,1.924639e-05
17.250000000000274,8.629182e-05,17.250000000000274,0.0001660704,17.250000000000274,2.249305e-05,17.250000000000274,1.875861e-05
17.265000000000274,8.505304e-05,17.265000000000274,0.0001602462,17.265000000000274,2.265281e-05,17.265000000000274,1.866601e-05
17.280000000000275,8.399727e-05,17.280000000000275,0.0001621818,17.280000000000275,2.244478e-05,17.280000000000275,1.871801e-05
17.295000000000275,8.229835e-05,17.295000000000275,0.0001627867,17.295000000000275,2.268885e-05,17.295000000000275,1.879762e-05
17.310000000000276,8.148022e-05,17.310000000000276,0.0001650547,17.310000000000276,2.180038e-05,17.310000000000276,1.812539e-05
17.325000000000276,7.980345e-05,17.325000000000276,0.0001652248,17.325000000000276,2.161283e-05,17.325000000000276,1.62554e-05
17.340000000000277,8.272805e-05,17.340000000000277,0.0001644981,17.340000000000277,2.091323e-05,17.340000000000277,1.628397e-05
17.355000000000278,8.008713e-05,17.355000000000278,0.0001660081,17.355000000000278,2.105622e-05,17.355000000000278,1.610128e-05
17.370000000000278,8.152999e-05,17.370000000000278,0.000163045,17.370000000000278,2.224683e-05,17.370000000000278,1.559553e-05
17.38500000000028,8.893792e-05,17.38500000000028,0.0001631694,17.38500000000028,2.209243e-05,17.38500000000028,1.557294e-05
17.40000000000028,8.778965e-05,17.40000000000028,0.0001640603,17.40000000000028,2.210518e-05,17.40000000000028,1.688784e-05
17.41500000000028,8.817375e-05,17.41500000000028,0.0001648619,17.41500000000028,2.216055e-05,17.41500000000028,1.656953e-05
17.43000000000028,8.98315e-05,17.43000000000028,0.0001615802,17.43000000000028,2.230122e-05,17.43000000000028,1.636853e-05
17.44500000000028,9.12674e-05,17.44500000000028,0.0001613439,17.44500000000028,2.141575e-05,17.44500000000028,1.603378e-05
17.46000000000028,9.003715e-05,17.46000000000028,0.0001624751,17.46000000000028,2.140983e-05,17.46000000000028,1.620158e-05
17.475000000000282,9.10181e-05,17.475000000000282,0.0001633511,17.475000000000282,2.151091e-05,17.475000000000282,1.584732e-05
17.490000000000283,9.24345e-05,17.490000000000283,0.0001664014,17.490000000000283,2.113035e-05,17.490000000000283,1.578408e-05
17.505000000000283,9.495491e-05,17.505000000000283,0.0001648836,17.505000000000283,2.146437e-05,17.505000000000283,1.583309e-05
17.520000000000284,9.673098e-05,17.520000000000284,0.0001655334,17.520000000000284,2.123343e-05,17.520000000000284,1.565953e-05
17.535000000000284,9.490298e-05,17.535000000000284,0.0001626104,17.535000000000284,2.242845e-05,17.535000000000284,1.699013e-05
17.550000000000285,9.481997e-05,17.550000000000285,0.0001640551,17.550000000000285,2.307668e-05,17.550000000000285,1.686614e-05
17.565000000000285,9.626706e-05,17.565000000000285,0.0001648604,17.565000000000285,2.427323e-05,17.565000000000285,1.687699e-05
17.580000000000286,9.419887e-05,17.580000000000286,0.0001667127,17.580000000000286,2.519584e-05,17.580000000000286,1.69727e-05
17.595000000000287,9.38735e-05,17.595000000000287,0.0001666763,17.595000000000287,2.587166e-05,17.595000000000287,1.710251e-05
17.610000000000287,9.487314e-05,17.610000000000287,0.0001717483,17.610000000000287,2.537023e-05,17.610000000000287,1.595009e-05
17.625000000000288,9.157711e-05,17.625000000000288,0.0001712846,17.625000000000288,2.522713e-05,17.625000000000288,1.613362e-05
17.64000000000029,8.875671e-05,17.64000000000029,0.0001730221,17.64000000000029,2.56738e-05,17.64000000000029,1.760818e-05
17.65500000000029,8.539815e-05,17.65500000000029,0.000169419,17.65500000000029,2.573025e-05,17.65500000000029,1.614671e-05
17.67000000000029,8.387274e-05,17.67000000000029,0.0001725287,17.67000000000029,2.581552e-05,17.67000000000029,1.612663e-05
17.68500000000029,8.20096e-05,17.68500000000029,0.0001708525,17.68500000000029,2.616618e-05,17.68500000000029,1.631854e-05
17.70000000000029,8.202643e-05,17.70000000000029,0.0001686568,17.70000000000029,2.506524e-05,17.70000000000029,1.663995e-05
17.71500000000029,8.266605e-05,17.71500000000029,0.0001770843,17.71500000000029,2.510511e-05,17.71500000000029,1.686029e-05
17.73000000000029,8.4607e-05,17.73000000000029,0.0001775781,17.73000000000029,2.580133e-05,17.73000000000029,1.686112e-05
17.745000000000292,8.130039e-05,17.745000000000292,0.0001750446,17.745000000000292,2.715788e-05,17.745000000000292,1.679583e-05
17.760000000000293,8.115281e-05,17.760000000000293,0.0001712156,17.760000000000293,2.729396e-05,17.760000000000293,1.68193e-05
17.775000000000293,7.979939e-05,17.775000000000293,0.0001730333,17.775000000000293,2.804791e-05,17.775000000000293,1.713871e-05
17.790000000000294,8.083331e-05,17.790000000000294,0.0001723435,17.790000000000294,2.708413e-05,17.790000000000294,1.62632e-05
17.805000000000295,8.448771e-05,17.805000000000295,0.0001728569,17.805000000000295,2.678497e-05,17.805000000000295,1.667884e-05
17.820000000000295,8.454588e-05,17.820000000000295,0.0001772994,17.820000000000295,2.66912e-05,17.820000000000295,1.662555e-05
17.835000000000296,8.383074e-05,17.835000000000296,0.0001769283,17.835000000000296,2.536412e-05,17.835000000000296,1.590056e-05
17.850000000000296,8.503134e-05,17.850000000000296,0.0001792794,17.850000000000296,2.610906e-05,17.850000000000296,1.664672e-05
17.865000000000297,8.492475e-05,17.865000000000297,0.0001832939,17.865000000000297,2.650371e-05,17.865000000000297,1.704724e-05
17.880000000000297,8.030915e-05,17.880000000000297,0.0001879501,17.880000000000297,2.598142e-05,17.880000000000297,1.641064e-05
17.895000000000298,8.093572e-05,17.895000000000298,0.0001898904,17.895000000000298,2.493225e-05,17.895000000000298,1.472488e-05
17.9100000000003,8.137279e-05,17.9100000000003,0.0001880243,17.9100000000003,2.568148e-05,17.9100000000003,1.495555e-05
17.9250000000003,8.007447e-05,17.9250000000003,0.0001886474,17.9250000000003,2.618179e-05,17.9250000000003,1.503258e-05
17.9400000000003,8.131546e-05,17.9400000000003,0.0001866569,17.9400000000003,2.571328e-05,17.9400000000003,1.545672e-05
17.9550000000003,8.440697e-05,17.9550000000003,0.0001894501,17.9550000000003,2.714024e-05,17.9550000000003,1.480598e-05
17.9700000000003,8.420864e-05,17.9700000000003,0.0001827003,17.9700000000003,2.74699e-05,17.9700000000003,1.436068e-05
17.9850000000003,8.476802e-05,17.9850000000003,0.0001876771,17.9850000000003,2.689309e-05,17.9850000000003,1.390112e-05
18.000000000000302,8.381376e-05,18.000000000000302,0.0001913778,18.000000000000302,2.842456e-05,18.000000000000302,1.407534e-05
18.015000000000303,8.442633e-05,18.015000000000303,0.0002024867,18.015000000000303,2.851511e-05,18.015000000000303,1.514648e-05
18.030000000000303,8.766102e-05,18.030000000000303,0.0001992349,18.030000000000303,2.993322e-05,18.030000000000303,1.50943e-05
18.045000000000304,0.0001054133,18.045000000000304,0.0002028002,18.045000000000304,3.153824e-05,18.045000000000304,1.424149e-05
18.060000000000304,0.0001027263,18.060000000000304,0.0002042571,18.060000000000304,3.136132e-05,18.060000000000304,1.416612e-05
18.075000000000305,0.0001027915,18.075000000000305,0.0001976064,18.075000000000305,3.181618e-05,18.075000000000305,1.653805e-05
18.090000000000305,0.0001025809,18.090000000000305,0.0001992686,18.090000000000305,3.131907e-05,18.090000000000305,1.766489e-05
18.105000000000306,0.0001044842,18.105000000000306,0.000199648,18.105000000000306,3.082125e-05,18.105000000000306,1.700339e-05
18.120000000000307,0.0001038649,18.120000000000307,0.0002018698,18.120000000000307,3.188119e-05,18.120000000000307,1.671259e-05
18.135000000000307,0.0001052542,18.135000000000307,0.0002040704,18.135000000000307,3.219557e-05,18.135000000000307,1.657633e-05
18.150000000000308,0.0001052304,18.150000000000308,0.0002097768,18.150000000000308,3.150383e-05,18.150000000000308,1.930777e-05
18.16500000000031,0.0001053397,18.16500000000031,0.0002147151,18.16500000000031,3.145416e-05,18.16500000000031,2.127187e-05
18.18000000000031,0.0001090822,18.18000000000031,0.000227462,18.18000000000031,3.153646e-05,18.18000000000031,2.147683e-05
18.19500000000031,0.000109077,18.19500000000031,0.0002301647,18.19500000000031,3.192888e-05,18.19500000000031,2.088425e-05
18.21000000000031,0.0001055521,18.21000000000031,0.0002385245,18.21000000000031,3.16172e-05,18.21000000000031,2.087345e-05
18.22500000000031,0.0001032307,18.22500000000031,0.0002448239,18.22500000000031,3.162878e-05,18.22500000000031,2.162716e-05
18.24000000000031,0.0001037857,18.24000000000031,0.0002415621,18.24000000000031,3.129612e-05,18.24000000000031,2.369113e-05
18.25500000000031,0.0001035322,18.25500000000031,0.0002455657,18.25500000000031,2.914445e-05,18.25500000000031,2.32306e-05
18.270000000000312,0.000100133,18.270000000000312,0.0002483331,18.270000000000312,2.777334e-05,18.270000000000312,2.296776e-05
18.285000000000313,9.571072e-05,18.285000000000313,0.0002525533,18.285000000000313,2.655415e-05,18.285000000000313,2.294076e-05
18.300000000000313,8.201046e-05,18.300000000000313,0.0002540722,18.300000000000313,2.536746e-05,18.300000000000313,2.329298e-05
18.315000000000314,8.002678e-05,18.315000000000314,0.0002588079,18.315000000000314,2.42651e-05,18.315000000000314,2.878749e-05
18.330000000000314,7.868944e-05,18.330000000000314,0.0002552966,18.330000000000314,2.504781e-05,18.330000000000314,2.886128e-05
18.345000000000315,7.823954e-05,18.345000000000315,0.0002656767,18.345000000000315,2.458175e-05,18.345000000000315,2.873803e-05
18.360000000000316,7.226509e-05,18.360000000000316,0.0002665422,18.360000000000316,2.483999e-05,18.360000000000316,2.900685e-05
18.375000000000316,7.151678e-05,18.375000000000316,0.0002576584,18.375000000000316,2.320937e-05,18.375000000000316,2.949327e-05
18.390000000000317,6.854068e-05,18.390000000000317,0.0002645223,18.390000000000317,2.303635e-05,18.390000000000317,3.129072e-05
18.405000000000317,6.690998e-05,18.405000000000317,0.0002642223,18.405000000000317,2.300943e-05,18.405000000000317,3.024967e-05
18.420000000000318,6.484175e-05,18.420000000000318,0.0002589131,18.420000000000318,2.297574e-05,18.420000000000318,2.986302e-05
18.43500000000032,5.821321e-05,18.43500000000032,0.000258798,18.43500000000032,2.263663e-05,18.43500000000032,3.129252e-05
18.45000000000032,5.379588e-05,18.45000000000032,0.0002686047,18.45000000000032,2.210135e-05,18.45000000000032,3.221438e-05
18.46500000000032,5.160839e-05,18.46500000000032,0.0002683626,18.46500000000032,2.164604e-05,18.46500000000032,3.659421e-05
18.48000000000032,5.03503e-05,18.48000000000032,0.0002671956,18.48000000000032,2.205605e-05,18.48000000000032,3.591464e-05
18.49500000000032,4.755587e-05,18.49500000000032,0.0002783846,18.49500000000032,2.19363e-05,18.49500000000032,3.539669e-05
18.51000000000032,4.717937e-05,18.51000000000032,0.0002779322,18.51000000000032,2.191895e-05,18.51000000000032,3.805516e-05
18.525000000000322,4.63738e-05,18.525000000000322,0.0002817043,18.525000000000322,2.150043e-05,18.525000000000322,4.012404e-05
18.540000000000322,4.308105e-05,18.540000000000322,0.0002823423,18.540000000000322,2.366734e-05,18.540000000000322,4.132502e-05
18.555000000000323,4.193007e-05,18.555000000000323,0.0003252844,18.555000000000323,2.598575e-05,18.555000000000323,4.317414e-05
18.570000000000324,4.609899e-05,18.570000000000324,0.0003352276,18.570000000000324,2.673391e-05,18.570000000000324,4.029675e-05
18.585000000000324,5.571735e-05,18.585000000000324,0.0003477887,18.585000000000324,2.928188e-05,18.585000000000324,4.415297e-05
18.600000000000325,6.052007e-05,18.600000000000325,0.0003712936,18.600000000000325,3.028737e-05,18.600000000000325,4.42769e-05
18.615000000000325,7.496099e-05,18.615000000000325,0.0003801101,18.615000000000325,3.253852e-05,18.615000000000325,4.415424e-05
18.630000000000326,8.504956e-05,18.630000000000326,0.0003922759,18.630000000000326,3.313992e-05,18.630000000000326,4.420781e-05
18.645000000000326,9.433859e-05,18.645000000000326,0.0003965795,18.645000000000326,3.66373e-05,18.645000000000326,4.438399e-05
18.660000000000327,0.0001023864,18.660000000000327,0.0004076072,18.660000000000327,3.699734e-05,18.660000000000327,4.552181e-05
18.675000000000328,0.0001100629,18.675000000000328,0.0004104378,18.675000000000328,3.82998e-05,18.675000000000328,4.448955e-05
18.690000000000328,0.0001213844,18.690000000000328,0.0004125461,18.690000000000328,3.94117e-05,18.690000000000328,4.389731e-05
18.70500000000033,0.0001272071,18.70500000000033,0.0004117922,18.70500000000033,4.027158e-05,18.70500000000033,4.299136e-05
18.72000000000033,0.0001334371,18.72000000000033,0.0004386524,18.72000000000033,4.080601e-05,18.72000000000033,4.167937e-05
18.73500000000033,0.0001356095,18.73500000000033,0.0004441003,18.73500000000033,4.161511e-05,18.73500000000033,4.162188e-05
18.75000000000033,0.0001367615,18.75000000000033,0.0004487738,18.75000000000033,4.142681e-05,18.75000000000033,4.070681e-05
18.76500000000033,0.0001527489,18.76500000000033,0.0004460205,18.76500000000033,4.26076e-05,18.76500000000033,3.958823e-05
18.78000000000033,0.0001536784,18.78000000000033,0.00045118,18.78000000000033,4.308105e-05,18.78000000000033,3.638072e-05
18.795000000000332,0.0001577269,18.795000000000332,0.0006671153,18.795000000000332,4.27571e-05,18.795000000000332,3.6201e-05
18.810000000000333,0.0001573323,18.810000000000333,0.0007063024,18.810000000000333,4.154803e-05,18.810000000000333,3.549009e-05
18.825000000000333,0.0001585558,18.825000000000333,0.000738695,18.825000000000333,4.0353e-05,18.825000000000333,3.43464e-05
18.840000000000334,0.0001580279,18.840000000000334,0.0008426254,18.840000000000334,3.970974e-05,18.840000000000334,2.888031e-05
18.855000000000334,0.0001574277,18.855000000000334,0.0008343959,18.855000000000334,3.899706e-05,18.855000000000334,2.85763e-05
18.870000000000335,0.000147587,18.870000000000335,0.0008377351,18.870000000000335,3.664115e-05,18.870000000000335,2.838092e-05
18.885000000000336,0.0001471632,18.885000000000336,0.0008607676,18.885000000000336,3.665883e-05,18.885000000000336,2.958483e-05
18.900000000000336,0.000146857,18.900000000000336,0.0008645854,18.900000000000336,3.316074e-05,18.900000000000336,2.660927e-05
18.915000000000337,0.0001444852,18.915000000000337,0.0008574016,18.915000000000337,3.368881e-05,18.915000000000337,2.619147e-05
18.930000000000337,0.000143208,18.930000000000337,0.0008575238,18.930000000000337,3.254458e-05,18.930000000000337,2.55506e-05
18.945000000000338,0.0001314683,18.945000000000338,0.0008553598,18.945000000000338,3.10707e-05,18.945000000000338,2.487909e-05
18.96000000000034,0.0001348723,18.96000000000034,0.0008446581,18.96000000000034,3.115763e-05,18.96000000000034,2.429353e-05
18.97500000000034,0.000133679,18.97500000000034,0.0008436401,18.97500000000034,3.005205e-05,18.97500000000034,2.375052e-05
18.99000000000034,0.000142661,18.99000000000034,0.0008430586,18.99000000000034,3.124927e-05,18.99000000000034,2.319783e-05
19.00500000000034,0.0001408979,19.00500000000034,0.0008360118,19.00500000000034,3.107116e-05,19.00500000000034,2.22069e-05
19.02000000000034,0.0001264769,19.02000000000034,0.0008354185,19.02000000000034,3.18175e-05,19.02000000000034,2.20388e-05
19.03500000000034,0.0001249942,19.03500000000034,0.0008090442,19.03500000000034,3.040898e-05,19.03500000000034,2.233026e-05
19.05000000000034,0.000136143,19.05000000000034,0.00064198,19.05000000000034,3.343235e-05,19.05000000000034,2.263477e-05
19.065000000000342,0.0001408763,19.065000000000342,0.0005943319,19.065000000000342,3.432096e-05,19.065000000000342,2.036586e-05
19.080000000000343,0.0001434562,19.080000000000343,0.0004807257,19.080000000000343,3.434271e-05,19.080000000000343,1.976777e-05
19.095000000000343,0.0001411756,19.095000000000343,0.000380671,19.095000000000343,3.375648e-05,19.095000000000343,1.980763e-05
19.110000000000344,0.0001413277,19.110000000000344,0.0003671033,19.110000000000344,3.41048e-05,19.110000000000344,1.991119e-05
19.125000000000345,0.00014307,19.125000000000345,0.000356378,19.125000000000345,3.424125e-05,19.125000000000345,1.878712e-05
19.140000000000345,0.0001436249,19.140000000000345,0.0003277836,19.140000000000345,3.455004e-05,19.140000000000345,1.61109e-05
19.155000000000346,0.0001418392,19.155000000000346,0.0003055153,19.155000000000346,3.42914e-05,19.155000000000346,2.097377e-05
19.170000000000346,0.0001396764,19.170000000000346,0.0003138945,19.170000000000346,3.335515e-05,19.170000000000346,2.090784e-05
19.185000000000347,0.0001400507,19.185000000000347,0.0003141218,19.185000000000347,3.358747e-05,19.185000000000347,2.098988e-05
19.200000000000347,0.0001403936,19.200000000000347,0.0003196413,19.200000000000347,3.348876e-05,19.200000000000347,2.109432e-05
19.215000000000348,0.0001444712,19.215000000000348,0.0003309942,19.215000000000348,3.366915e-05,19.215000000000348,2.008237e-05
19.23000000000035,0.0001488949,19.23000000000035,0.0003656314,19.23000000000035,3.47233e-05,19.23000000000035,1.973995e-05
19.24500000000035,0.0001404325,19.24500000000035,0.0003685892,19.24500000000035,3.295963e-05,19.24500000000035,2.049755e-05
19.26000000000035,0.0001397893,19.26000000000035,0.000381621,19.26000000000035,3.45529e-05,19.26000000000035,2.066932e-05
19.27500000000035,0.0001413751,19.27500000000035,0.0003810239,19.27500000000035,3.353374e-05,19.27500000000035,2.076927e-05
19.29000000000035,0.0001400943,19.29000000000035,0.0003833264,19.29000000000035,3.406843e-05,19.29000000000035,1.988075e-05
19.30500000000035,0.0001252339,19.30500000000035,0.000381643,19.30500000000035,3.061765e-05,19.30500000000035,1.929536e-05
19.320000000000352,0.0001218005,19.320000000000352,0.00037942,19.320000000000352,3.058128e-05,19.320000000000352,1.936023e-05
19.335000000000353,0.0001206555,19.335000000000353,0.0003828191,19.335000000000353,3.045943e-05,19.335000000000353,1.942343e-05
19.350000000000353,0.0001215647,19.350000000000353,0.0003764786,19.350000000000353,3.067557e-05,19.350000000000353,1.95629e-05
19.365000000000354,0.0001211948,19.365000000000354,0.0003826452,19.365000000000354,3.14743e-05,19.365000000000354,1.94401e-05
19.380000000000354,0.0001175032,19.380000000000354,0.0003767178,19.380000000000354,3.199058e-05,19.380000000000354,1.929098e-05
19.395000000000355,0.0001161577,19.395000000000355,0.000377133,19.395000000000355,3.174659e-05,19.395000000000355,1.686948e-05
19.410000000000355,0.0001139819,19.410000000000355,0.0005685773,19.410000000000355,3.165149e-05,19.410000000000355,1.405731e-05
19.425000000000356,0.0001166413,19.425000000000356,0.0006461754,19.425000000000356,3.226986e-05,19.425000000000356,1.407334e-05
19.440000000000357,0.0001171757,19.440000000000357,0.0007032463,19.440000000000357,3.300916e-05,19.440000000000357,1.396784e-05
19.455000000000357,0.0001146441,19.455000000000357,0.0007021301,19.455000000000357,3.281571e-05,19.455000000000357,1.41203e-05
19.470000000000358,9.589188e-05,19.470000000000358,0.0006964661,19.470000000000358,3.184715e-05,19.470000000000358,1.477645e-05
19.48500000000036,9.1864e-05,19.48500000000036,0.0006911755,19.48500000000036,3.090159e-05,19.48500000000036,1.503821e-05
19.50000000000036,9.538239e-05,19.50000000000036,0.0006890297,19.50000000000036,3.110061e-05,19.50000000000036,1.631854e-05
19.51500000000036,9.568437e-05,19.51500000000036,0.0006799074,19.51500000000036,3.007173e-05,19.51500000000036,1.622244e-05
19.53000000000036,9.715876e-05,19.53000000000036,0.0006766652,19.53000000000036,3.045805e-05,19.53000000000036,1.617548e-05
19.54500000000036,9.599143e-05,19.54500000000036,0.0006750571,19.54500000000036,2.953431e-05,19.54500000000036,1.618767e-05
19.56000000000036,9.522571e-05,19.56000000000036,0.0006760425,19.56000000000036,2.982573e-05,19.56000000000036,1.627792e-05
19.57500000000036,9.950317e-05,19.57500000000036,0.0006787247,19.57500000000036,3.312717e-05,19.57500000000036,1.603641e-05
19.590000000000362,0.0001000756,19.590000000000362,0.0006796197,19.590000000000362,3.317603e-05,19.590000000000362,1.607151e-05
19.605000000000363,0.0001008627,19.605000000000363,0.0006823646,19.605000000000363,3.38111e-05,19.605000000000363,1.602323e-05
19.620000000000363,0.0001017279,19.620000000000363,0.0006825241,19.620000000000363,3.210838e-05,19.620000000000363,1.616154e-05
19.635000000000364,0.0001006562,19.635000000000364,0.0006787767,19.635000000000364,3.232307e-05,19.635000000000364,1.553218e-05
19.650000000000365,0.0001032763,19.650000000000365,0.0006756869,19.650000000000365,3.315989e-05,19.650000000000365,1.583486e-05
19.665000000000365,0.0001063764,19.665000000000365,0.0005060118,19.665000000000365,3.348792e-05,19.665000000000365,1.595892e-05
19.680000000000366,0.0001029014,19.680000000000366,0.0003610739,19.680000000000366,3.329428e-05,19.680000000000366,1.615456e-05
19.695000000000366,0.000105723,19.695000000000366,0.0005877249,19.695000000000366,3.307098e-05,19.695000000000366,1.569727e-05
19.710000000000367,0.0001088423,19.710000000000367,0.0007140646,19.710000000000367,3.278178e-05,19.710000000000367,1.569727e-05
19.725000000000367,0.0001100897,19.725000000000367,0.0007722669,19.725000000000367,3.290744e-05,19.725000000000367,1.48942e-05
19.740000000000368,0.0001079333,19.740000000000368,0.0007680488,19.740000000000368,3.306971e-05,19.740000000000368,1.462024e-05
19.75500000000037,0.0001114299,19.75500000000037,0.0007701291,19.75500000000037,3.448066e-05,19.75500000000037,1.217341e-05
19.77000000000037,0.0001125689,19.77000000000037,0.000773513,19.77000000000037,3.481891e-05,19.77000000000037,1.21572e-05
19.78500000000037,0.0001134938,19.78500000000037,0.0007735142,19.78500000000037,3.396947e-05,19.78500000000037,1.232292e-05
19.80000000000037,0.0001132134,19.80000000000037,0.0007726942,19.80000000000037,3.393669e-05,19.80000000000037,1.364853e-05
19.81500000000037,0.0001103109,19.81500000000037,0.0007670535,19.81500000000037,3.285475e-05,19.81500000000037,1.347402e-05
19.83000000000037,0.0001093068,19.83000000000037,0.0007611446,19.83000000000037,2.968939e-05,19.83000000000037,1.336696e-05
19.845000000000372,0.0001078441,19.845000000000372,0.0007608696,19.845000000000372,3.00736e-05,19.845000000000372,1.34667e-05
19.860000000000372,0.0001046147,19.860000000000372,0.0007638554,19.860000000000372,2.983659e-05,19.860000000000372,1.338381e-05
19.875000000000373,0.0001041907,19.875000000000373,0.0007609546,19.875000000000373,2.926792e-05,19.875000000000373,1.400913e-05
19.890000000000374,0.000105074,19.890000000000374,0.0007626131,19.890000000000374,2.878945e-05,19.890000000000374,1.471149e-05
19.905000000000374,0.0001038855,19.905000000000374,0.0007645502,19.905000000000374,2.870124e-05,19.905000000000374,1.393149e-05
19.920000000000375,0.0001095404,19.920000000000375,0.0007652361,19.920000000000375,3.099626e-05,19.920000000000375,1.351994e-05
19.935000000000375,0.0001115199,19.935000000000375,0.0007653665,19.935000000000375,3.072237e-05,19.935000000000375,1.365369e-05
19.950000000000376,0.0001091158,19.950000000000376,0.0005147062,19.950000000000376,3.076956e-05,19.950000000000376,1.354284e-05
19.965000000000376,0.0001080638,19.965000000000376,0.0003355328,19.965000000000376,3.061259e-05,19.965000000000376,1.373085e-05
19.980000000000377,0.0001077005,19.980000000000377,0.0002717046,19.980000000000377,3.048486e-05,19.980000000000377,1.410133e-05
19.995000000000378,0.0001053703,19.995000000000378,0.0002783341,19.995000000000378,2.733316e-05,19.995000000000378,1.418798e-05
20.010000000000378,0.0001063158,20.010000000000378,0.0002773326,20.010000000000378,2.749758e-05,20.010000000000378,1.417904e-05
20.02500000000038,0.0001047527,20.02500000000038,0.0002812748,20.02500000000038,2.952668e-05,20.02500000000038,1.413127e-05
20.04000000000038,0.0001050547,20.04000000000038,0.0002908772,20.04000000000038,3.056147e-05,20.04000000000038,1.363097e-05
20.05500000000038,0.0001061744,20.05500000000038,0.0007897193,20.05500000000038,3.095397e-05,20.05500000000038,1.283141e-05
20.07000000000038,0.0001076259,20.07000000000038,0.0009871153,20.07000000000038,3.153914e-05,20.07000000000038,1.268234e-05
20.08500000000038,0.000108669,20.08500000000038,0.001102774,20.08500000000038,3.131862e-05,20.08500000000038,1.266456e-05
20.10000000000038,0.0001108724,20.10000000000038,0.001108017,20.10000000000038,3.206492e-05,20.10000000000038,1.261887e-05
20.115000000000382,0.0001152749,20.115000000000382,0.001111464,20.115000000000382,3.268279e-05,20.115000000000382,1.284239e-05
20.130000000000383,0.0001188841,20.130000000000383,0.001114552,20.130000000000383,3.32155e-05,20.130000000000383,1.18164e-05
20.145000000000383,0.000115722,20.145000000000383,0.001116753,20.145000000000383,3.294338e-05,20.145000000000383,1.147897e-05
20.160000000000384,0.0001126896,20.160000000000384,0.001114538,20.160000000000384,3.20614e-05,20.160000000000384,1.156334e-05
20.175000000000384,0.0001058587,20.175000000000384,0.00111204,20.175000000000384,3.02082e-05,20.175000000000384,1.131707e-05
20.190000000000385,0.000107693,20.190000000000385,0.001111102,20.190000000000385,2.971358e-05,20.190000000000385,1.284348e-05
20.205000000000386,0.0001074382,20.205000000000386,0.001110119,20.205000000000386,2.944594e-05,20.205000000000386,1.292548e-05
20.220000000000386,0.0001095519,20.220000000000386,0.001107518,20.220000000000386,3.096898e-05,20.220000000000386,1.231606e-05
20.235000000000387,0.0001126468,20.235000000000387,0.001107569,20.235000000000387,3.219557e-05,20.235000000000387,1.28665e-05
20.250000000000387,0.0001117155,20.250000000000387,0.001104267,20.250000000000387,3.238273e-05,20.250000000000387,1.339538e-05
20.265000000000388,0.000109646,20.265000000000388,0.001103668,20.265000000000388,3.237011e-05,20.265000000000388,1.360511e-05
20.28000000000039,0.000111557,20.28000000000039,0.001102386,20.28000000000039,3.043815e-05,20.28000000000039,1.37411e-05
20.29500000000039,0.0001117094,20.29500000000039,0.001099876,20.29500000000039,3.001781e-05,20.29500000000039,1.404428e-05
20.31000000000039,0.0001218405,20.31000000000039,0.0007286109,20.31000000000039,3.014705e-05,20.31000000000039,1.405831e-05
20.32500000000039,0.0001163166,20.32500000000039,0.0004198421,20.32500000000039,2.994216e-05,20.32500000000039,1.414422e-05
20.34000000000039,0.0001144444,20.34000000000039,0.0002199635,20.34000000000039,2.868946e-05,20.34000000000039,1.4185e-05
20.35500000000039,0.0001090742,20.35500000000039,0.000208804,20.35500000000039,2.891395e-05,20.35500000000039,1.38035e-05
20.370000000000392,0.000109864,20.370000000000392,0.0001808095,20.370000000000392,2.918985e-05,20.370000000000392,1.366709e-05
20.385000000000392,0.0001078653,20.385000000000392,0.0001691316,20.385000000000392,2.969604e-05,20.385000000000392,1.539462e-05
20.400000000000393,0.0001098115,20.400000000000393,0.0001593585,20.400000000000393,3.02082e-05,20.400000000000393,1.565144e-05
20.415000000000393,0.0001204693,20.415000000000393,0.0001596261,20.415000000000393,3.062639e-05,20.415000000000393,1.545945e-05
20.430000000000394,0.0001192936,20.430000000000394,0.0001534513,20.430000000000394,3.104167e-05,20.430000000000394,1.539737e-05
20.445000000000395,0.0001214193,20.445000000000395,0.0001533184,20.445000000000395,3.240403e-05,20.445000000000395,1.540011e-05
20.460000000000395,0.0001223223,20.460000000000395,0.0001493749,20.460000000000395,3.245659e-05,20.460000000000395,1.507095e-05
20.475000000000396,0.0001152737,20.475000000000396,0.0001526924,20.475000000000396,3.052134e-05,20.475000000000396,1.484873e-05
20.490000000000396,0.0001127751,20.490000000000396,0.000163901,20.490000000000396,3.017601e-05,20.490000000000396,1.397288e-05
20.505000000000397,0.0001175969,20.505000000000397,0.0001754027,20.505000000000397,2.999715e-05,20.505000000000397,1.352619e-05
20.520000000000397,0.0001174651,20.520000000000397,0.0001983729,20.520000000000397,3.117119e-05,20.520000000000397,1.665602e-05
20.535000000000398,0.0001158163,20.535000000000398,0.0001994822,20.535000000000398,3.157172e-05,20.535000000000398,1.662555e-05
20.5500000000004,0.0001127084,20.5500000000004,0.0002024325,20.5500000000004,3.08208e-05,20.5500000000004,1.616677e-05
20.5650000000004,0.0001065473,20.5650000000004,0.0002050489,20.5650000000004,3.131592e-05,20.5650000000004,1.614148e-05
20.5800000000004,0.0001078095,20.5800000000004,0.0002116176,20.5800000000004,3.146938e-05,20.5800000000004,1.59041e-05
20.5950000000004,0.0001084574,20.5950000000004,0.0002066142,20.5950000000004,3.119739e-05,20.5950000000004,1.60074e-05
20.6100000000004,0.000107495,20.6100000000004,0.0002075329,20.6100000000004,3.108929e-05,20.6100000000004,1.751272e-05
20.6250000000004,0.0001067293,20.6250000000004,0.0002045907,20.6250000000004,2.9266e-05,20.6250000000004,1.704972e-05
20.640000000000402,0.0001049498,20.640000000000402,0.0002043444,20.640000000000402,2.960006e-05,20.640000000000402,1.685945e-05
20.655000000000403,0.0001000615,20.655000000000403,0.0002044403,20.655000000000403,2.957911e-05,20.655000000000403,1.676057e-05
20.670000000000403,9.010862e-05,20.670000000000403,0.0002111047,20.670000000000403,2.945025e-05,20.670000000000403,1.675636e-05
20.685000000000404,9.133976e-05,20.685000000000404,0.000214746,20.685000000000404,2.831234e-05,20.685000000000404,1.673449e-05
20.700000000000404,9.042542e-05,20.700000000000404,0.0002143854,20.700000000000404,2.93904e-05,20.700000000000404,1.562892e-05
20.715000000000405,9.225129e-05,20.715000000000405,0.0002256415,20.715000000000405,2.913043e-05,20.715000000000405,2.021103e-05
20.730000000000405,9.709553e-05,20.730000000000405,0.0002108289,20.730000000000405,3.019887e-05,20.730000000000405,2.046109e-05
20.745000000000406,9.679503e-05,20.745000000000406,0.0002056495,20.745000000000406,3.070311e-05,20.745000000000406,2.066796e-05
20.760000000000407,9.023735e-05,20.760000000000407,0.0001860941,20.760000000000407,2.907331e-05,20.760000000000407,2.026601e-05
20.775000000000407,9.173372e-05,20.775000000000407,0.0001775451,20.775000000000407,2.925203e-05,20.775000000000407,1.809349e-05
20.790000000000408,9.313818e-05,20.790000000000408,0.0001767166,20.790000000000408,3.028179e-05,20.790000000000408,1.813393e-05
20.80500000000041,9.251082e-05,20.80500000000041,0.0001646692,20.80500000000041,3.171418e-05,20.80500000000041,1.853728e-05
20.82000000000041,9.274578e-05,20.82000000000041,0.0001677215,20.82000000000041,3.088153e-05,20.82000000000041,1.880361e-05
20.83500000000041,9.242642e-05,20.83500000000041,0.0001578005,20.83500000000041,3.073475e-05,20.83500000000041,1.930339e-05
20.85000000000041,9.057858e-05,20.85000000000041,0.0001606248,20.85000000000041,3.092483e-05,20.85000000000041,1.91304e-05
20.86500000000041,9.207767e-05,20.86500000000041,0.0001605385,20.86500000000041,3.095397e-05,20.86500000000041,1.752558e-05
20.88000000000041,9.195305e-05,20.88000000000041,0.0001603342,20.88000000000041,3.104848e-05,20.88000000000041,1.676477e-05
20.89500000000041,9.212324e-05,20.89500000000041,0.0001577401,20.89500000000041,3.06549e-05,20.89500000000041,1.715925e-05
20.910000000000412,9.235522e-05,20.910000000000412,0.0001539164,20.910000000000412,3.114949e-05,20.910000000000412,1.729417e-05
20.925000000000413,9.228488e-05,20.925000000000413,0.0001477947,20.925000000000413,3.141876e-05,20.925000000000413,1.746923e-05
20.940000000000413,8.625916e-05,20.940000000000413,0.0001444553,20.940000000000413,3.187147e-05,20.940000000000413,1.752799e-05
20.955000000000414,8.325306e-05,20.955000000000414,0.0001418624,20.955000000000414,3.281528e-05,20.955000000000414,1.582063e-05
20.970000000000415,8.694088e-05,20.970000000000415,0.0001335762,20.970000000000415,3.272371e-05,20.970000000000415,1.136055e-05
20.985000000000415,8.266485e-05,20.985000000000415,0.000127209,20.985000000000415,3.294552e-05,20.985000000000415,1.216762e-05
21.000000000000416,8.367264e-05,21.000000000000416,0.0001321046,21.000000000000416,3.313141e-05,21.000000000000416,1.254048e-05
21.015000000000416,8.570804e-05,21.015000000000416,0.0001310506,21.015000000000416,3.351651e-05,21.015000000000416,1.279954e-05
21.030000000000417,8.484244e-05,21.030000000000417,0.0001288976,21.030000000000417,3.192138e-05,21.030000000000417,1.29342e-05
21.045000000000417,8.229184e-05,21.045000000000417,0.00013217,21.045000000000417,3.228601e-05,21.045000000000417,1.212355e-05
21.060000000000418,8.200668e-05,21.060000000000418,0.0001347309,21.060000000000418,3.117526e-05,21.060000000000418,1.178177e-05
21.07500000000042,8.375526e-05,21.07500000000042,0.0001304085,21.07500000000042,3.146401e-05,21.07500000000042,1.126217e-05
21.09000000000042,8.740272e-05,21.09000000000042,0.0001301603,21.09000000000042,3.242533e-05,21.09000000000042,1.121077e-05
21.10500000000042,8.608113e-05,21.10500000000042,0.0001304831,21.10500000000042,3.211014e-05,21.10500000000042,1.162288e-05
21.12000000000042,8.437443e-05,21.12000000000042,0.0001329609,21.12000000000042,3.18971e-05,21.12000000000042,1.176742e-05
21.13500000000042,8.184884e-05,21.13500000000042,0.0001318108,21.13500000000042,3.219032e-05,21.13500000000042,1.164951e-05
21.15000000000042,8.222181e-05,21.15000000000042,0.0001346244,21.15000000000042,3.138466e-05,21.15000000000042,1.087399e-05
21.165000000000422,8.069378e-05,21.165000000000422,0.0001315634,21.165000000000422,3.096534e-05,21.165000000000422,1.032102e-05
21.180000000000422,7.859235e-05,21.180000000000422,0.0001317042,21.180000000000422,3.027016e-05,21.180000000000422,1.053179e-05
21.195000000000423,7.839799e-05,21.195000000000423,0.0001525544,21.195000000000423,2.716255e-05,21.195000000000423,1.156577e-05
21.210000000000424,7.74862e-05,21.210000000000424,0.0001511549,21.210000000000424,2.818818e-05,21.210000000000424,1.171583e-05
21.225000000000424,7.227075e-05,21.225000000000424,0.0001510836,21.225000000000424,2.658331e-05,21.225000000000424,1.162288e-05
21.240000000000425,7.250738e-05,21.240000000000425,0.0001552612,21.240000000000425,2.64196e-05,21.240000000000425,9.985267e-06
21.255000000000425,6.867557e-05,21.255000000000425,0.0001541253,21.255000000000425,2.611607e-05,21.255000000000425,9.521654e-06
21.270000000000426,6.641954e-05,21.270000000000426,0.0001545258,21.270000000000426,2.55787e-05,21.270000000000426,9.844612e-06
21.285000000000426,6.6667e-05,21.285000000000426,0.0001549569,21.285000000000426,2.562822e-05,21.285000000000426,9.996546e-06
21.300000000000427,6.626199e-05,21.300000000000427,0.0001528418,21.300000000000427,2.43896e-05,21.300000000000427,1.031966e-05
21.315000000000428,6.637074e-05,21.315000000000428,0.0001507249,21.315000000000428,2.373094e-05,21.315000000000428,1.038362e-05
21.330000000000428,6.165827e-05,21.330000000000428,0.0001520145,21.330000000000428,2.188808e-05,21.330000000000428,1.022504e-05
21.34500000000043,5.574617e-05,21.34500000000043,0.0001538114,21.34500000000043,2.182556e-05,21.34500000000043,9.658262e-06
21.36000000000043,5.774063e-05,21.36000000000043,0.0001516792,21.36000000000043,2.256933e-05,21.36000000000043,9.23781e-06
21.37500000000043,6.073917e-05,21.37500000000043,0.0001525735,21.37500000000043,2.261671e-05,21.37500000000043,9.530527e-06
21.39000000000043,6.09852e-05,21.39000000000043,0.0001527856,21.39000000000043,2.159718e-05,21.39000000000043,1.030873e-05
21.40500000000043,6.008698e-05,21.40500000000043,0.0001520436,21.40500000000043,2.106692e-05,21.40500000000043,1.059048e-05
21.42000000000043,6.172997e-05,21.42000000000043,0.0001504624,21.42000000000043,2.273103e-05,21.42000000000043,1.092568e-05
21.435000000000432,6.481459e-05,21.435000000000432,0.0001467504,21.435000000000432,2.405052e-05,21.435000000000432,1.064619e-05
21.450000000000433,6.443443e-05,21.450000000000433,0.0001391416,21.450000000000433,2.310413e-05,21.450000000000433,9.579178e-06
21.465000000000433,6.338149e-05,21.465000000000433,0.0001373862,21.465000000000433,2.197479e-05,21.465000000000433,9.585059e-06
21.480000000000434,6.492772e-05,21.480000000000434,0.0001366253,21.480000000000434,2.277993e-05,21.480000000000434,1.016978e-05
21.495000000000434,6.654815e-05,21.495000000000434,0.0001363431,21.495000000000434,2.250745e-05,21.495000000000434,1.019745e-05
21.510000000000435,6.815961e-05,21.510000000000435,0.0001395548,21.510000000000435,2.223923e-05,21.510000000000435,1.004855e-05
21.525000000000436,6.648589e-05,21.525000000000436,0.0001397447,21.525000000000436,2.192602e-05,21.525000000000436,9.549722e-06
21.540000000000436,6.336992e-05,21.540000000000436,0.0001401586,21.540000000000436,2.202666e-05,21.540000000000436,9.389061e-06
21.555000000000437,6.472193e-05,21.555000000000437,0.0001391904,21.555000000000437,2.186039e-05,21.555000000000437,9.50833e-06
21.570000000000437,6.492295e-05,21.570000000000437,0.0001439482,21.570000000000437,2.206244e-05,21.570000000000437,1.013092e-05
21.585000000000438,6.49223e-05,21.585000000000438,0.0001408851,21.585000000000438,2.174085e-05,21.585000000000438,1.008354e-05
21.60000000000044,6.412149e-05,21.60000000000044,0.0001431029,21.60000000000044,2.156389e-05,21.60000000000044,1.010029e-05
21.61500000000044,6.366887e-05,21.61500000000044,0.0001452978,21.61500000000044,2.062634e-05,21.61500000000044,1.00289e-05
21.63000000000044,6.366267e-05,21.63000000000044,0.000145127,21.63000000000044,2.139996e-05,21.63000000000044,9.582119e-06
21.64500000000044,6.573265e-05,21.64500000000044,0.000146334,21.64500000000044,2.199658e-05,21.64500000000044,1.005836e-05
21.66000000000044,6.666447e-05,21.66000000000044,0.0001439744,21.66000000000044,2.34695e-05,21.66000000000044,1.055584e-05
21.67500000000044,6.80622e-05,21.67500000000044,0.0001489635,21.67500000000044,2.541351e-05,21.67500000000044,1.041883e-05
21.690000000000442,6.809778e-05,21.690000000000442,0.0001455625,21.690000000000442,2.433061e-05,21.690000000000442,1.046739e-05
21.705000000000442,7.271825e-05,21.705000000000442,0.0001467431,21.705000000000442,2.466813e-05,21.705000000000442,1.046335e-05
21.720000000000443,7.278447e-05,21.720000000000443,0.000146986,21.720000000000443,2.51023e-05,21.720000000000443,9.75838e-06
21.735000000000444,7.291712e-05,21.735000000000444,0.0001464567,21.735000000000444,2.506805e-05,21.735000000000444,1.001766e-05
21.750000000000444,7.019029e-05,21.750000000000444,0.0001462196,21.750000000000444,2.494016e-05,21.750000000000444,1.055317e-05
21.765000000000445,7.373398e-05,21.765000000000445,0.0001374996,21.765000000000445,2.52634e-05,21.765000000000445,1.077508e-05
21.780000000000445,7.49375e-05,21.780000000000445,0.0001428115,21.780000000000445,2.554619e-05,21.780000000000445,1.079729e-05
21.795000000000446,7.419753e-05,21.795000000000446,0.0001408422,21.795000000000446,2.666955e-05,21.795000000000446,1.065016e-05
21.810000000000446,7.349612e-05,21.810000000000446,0.0001399616,21.810000000000446,2.770326e-05,21.810000000000446,9.937185e-06
21.825000000000447,7.242359e-05,21.825000000000447,0.0001404116,21.825000000000447,2.797146e-05,21.825000000000447,1.090633e-05
21.840000000000447,7.22647e-05,21.840000000000447,0.0001412725,21.840000000000447,2.840573e-05,21.840000000000447,1.095787e-05
21.855000000000448,7.706053e-05,21.855000000000448,0.0001440152,21.855000000000448,2.925107e-05,21.855000000000448,1.1125e-05
21.87000000000045,8.907387e-05,21.87000000000045,0.0001420751,21.87000000000045,2.992757e-05,21.87000000000045,1.113006e-05
21.88500000000045,8.867906e-05,21.88500000000045,0.0001510292,21.88500000000045,2.944164e-05,21.88500000000045,1.020435e-05
21.90000000000045,8.881557e-05,21.90000000000045,0.0001600857,21.90000000000045,2.92684e-05,21.90000000000045,9.360511e-06
21.91500000000045,8.831534e-05,21.91500000000045,0.0001638876,21.91500000000045,2.913768e-05,21.91500000000045,1.167488e-05
21.93000000000045,8.867985e-05,21.93000000000045,0.0001643435,21.93000000000045,2.79629e-05,21.93000000000045,1.226104e-05
21.94500000000045,8.534371e-05,21.94500000000045,0.0001685329,21.94500000000045,2.858764e-05,21.94500000000045,1.230119e-05
21.960000000000452,8.547252e-05,21.960000000000452,0.0001704231,21.960000000000452,2.862998e-05,21.960000000000452,1.233092e-05
21.975000000000453,8.789004e-05,21.975000000000453,0.0001663452,21.975000000000453,2.982053e-05,21.975000000000453,1.215024e-05
21.990000000000453,8.782895e-05,21.990000000000453,0.0001630748,21.990000000000453,3.007969e-05,21.990000000000453,1.166522e-05
22.005000000000454,8.756761e-05,22.005000000000454,0.0001622939,22.005000000000454,3.113773e-05,22.005000000000454,1.247064e-05
22.020000000000454,8.516625e-05,22.020000000000454,0.0001639928,22.020000000000454,3.088426e-05,22.020000000000454,1.310944e-05
22.035000000000455,8.552096e-05,22.035000000000455,0.0001643668,22.035000000000455,3.198442e-05,22.035000000000455,1.319086e-05
22.050000000000455,8.561923e-05,22.050000000000455,0.0001667372,22.050000000000455,3.196724e-05,22.050000000000455,1.310515e-05
22.065000000000456,8.736436e-05,22.065000000000456,0.0001619063,22.065000000000456,3.211671e-05,22.065000000000456,1.273886e-05
22.080000000000457,8.84368e-05,22.080000000000457,0.0001620653,22.080000000000457,3.265735e-05,22.080000000000457,1.272891e-05
22.095000000000457,8.885885e-05,22.095000000000457,0.0001634529,22.095000000000457,3.22288e-05,22.095000000000457,1.272669e-05
22.110000000000458,7.999879e-05,22.110000000000458,0.00016382,22.110000000000458,3.199191e-05,22.110000000000458,1.286978e-05
22.12500000000046,7.579931e-05,22.12500000000046,0.0001656476,22.12500000000046,3.309611e-05,22.12500000000046,1.28993e-05
22.14000000000046,7.889397e-05,22.14000000000046,0.0001691671,22.14000000000046,3.284274e-05,22.14000000000046,1.294399e-05
22.15500000000046,8.005582e-05,22.15500000000046,0.0001727266,22.15500000000046,3.473303e-05,22.15500000000046,1.193619e-05
22.17000000000046,7.817325e-05,22.17000000000046,0.000183971,22.17000000000046,3.25225e-05,22.17000000000046,1.077247e-05
22.18500000000046,8.285618e-05,22.18500000000046,0.0001775962,22.18500000000046,3.602273e-05,22.18500000000046,1.248306e-05
22.20000000000046,8.550893e-05,22.20000000000046,0.000173769,22.20000000000046,3.736936e-05,22.20000000000046,1.2669e-05
22.21500000000046,8.733694e-05,22.21500000000046,0.0001812608,22.21500000000046,3.694895e-05,22.21500000000046,1.305021e-05
22.230000000000462,9.168118e-05,22.230000000000462,0.0001842896,22.230000000000462,3.709278e-05,22.230000000000462,1.307932e-05
22.245000000000463,9.508181e-05,22.245000000000463,0.0001852245,22.245000000000463,3.715122e-05,22.245000000000463,1.298962e-05
22.260000000000463,9.486735e-05,22.260000000000463,0.0001883418,22.260000000000463,3.801406e-05,22.260000000000463,1.135683e-05
22.275000000000464,9.582192e-05,22.275000000000464,0.0001926701,22.275000000000464,3.807367e-05,22.275000000000464,1.161682e-05
22.290000000000465,9.533098e-05,22.290000000000465,0.0001947357,22.290000000000465,3.694476e-05,22.290000000000465,1.212123e-05
22.305000000000465,9.43583e-05,22.305000000000465,0.0001934414,22.305000000000465,3.699277e-05,22.305000000000465,1.238677e-05
22.320000000000466,9.396934e-05,22.320000000000466,0.0001962373,22.320000000000466,3.667151e-05,22.320000000000466,1.218382e-05
22.335000000000466,9.454994e-05,22.335000000000466,0.0001967633,22.335000000000466,3.687263e-05,22.335000000000466,1.168694e-05
22.350000000000467,9.523474e-05,22.350000000000467,0.0002134365,22.350000000000467,3.634275e-05,22.350000000000467,1.153895e-05
22.365000000000467,9.520559e-05,22.365000000000467,0.0002231662,22.365000000000467,3.64658e-05,22.365000000000467,1.184973e-05
22.380000000000468,9.220074e-05,22.380000000000468,0.0002287273,22.380000000000468,3.521595e-05,22.380000000000468,1.335219e-05
22.39500000000047,8.932466e-05,22.39500000000047,0.0002157147,22.39500000000047,3.534691e-05,22.39500000000047,1.337749e-05
22.41000000000047,8.974443e-05,22.41000000000047,0.0002046464,22.41000000000047,3.460138e-05,22.41000000000047,1.374828e-05
22.42500000000047,9.216146e-05,22.42500000000047,0.0002009049,22.42500000000047,3.5588e-05,22.42500000000047,1.119065e-05
22.44000000000047,9.099952e-05,22.44000000000047,0.0002028572,22.44000000000047,3.208995e-05,22.44000000000047,1.117301e-05
22.45500000000047,8.809303e-05,22.45500000000047,0.0002140806,22.45500000000047,3.102806e-05,22.45500000000047,1.08947e-05
22.47000000000047,8.710114e-05,22.47000000000047,0.0002213506,22.47000000000047,3.082491e-05,22.47000000000047,1.17026e-05
22.485000000000472,8.660387e-05,22.485000000000472,0.0002206236,22.485000000000472,3.154316e-05,22.485000000000472,1.206064e-05
22.500000000000473,8.24321e-05,22.500000000000473,0.0002252147,22.500000000000473,3.045805e-05,22.500000000000473,1.210843e-05
22.515000000000473,8.780521e-05,22.515000000000473,0.0002254939,22.515000000000473,3.064249e-05,22.515000000000473,1.213632e-05
22.530000000000474,8.595061e-05,22.530000000000474,0.0002247462,22.530000000000474,3.041408e-05,22.530000000000474,1.169417e-05
22.545000000000474,8.466243e-05,22.545000000000474,0.0002243608,22.545000000000474,3.034499e-05,22.545000000000474,1.146055e-05
22.560000000000475,8.339726e-05,22.560000000000475,0.0002286771,22.560000000000475,2.964666e-05,22.560000000000475,1.143101e-05
22.575000000000475,8.130195e-05,22.575000000000475,0.0002285291,22.575000000000475,2.913526e-05,22.575000000000475,1.164951e-05
22.590000000000476,7.728615e-05,22.590000000000476,0.0002262571,22.590000000000476,2.873459e-05,22.590000000000476,1.171703e-05
22.605000000000476,7.509223e-05,22.605000000000476,0.0002192881,22.605000000000476,2.826454e-05,22.605000000000476,1.205597e-05
22.620000000000477,7.368925e-05,22.620000000000477,0.0002123018,22.620000000000477,2.823162e-05,22.620000000000477,1.136427e-05
22.635000000000478,7.305878e-05,22.635000000000478,0.0002070898,22.635000000000478,2.865064e-05,22.635000000000478,1.136799e-05
22.650000000000478,7.259727e-05,22.650000000000478,0.0002087146,22.650000000000478,2.777994e-05,22.650000000000478,1.159983e-05
22.66500000000048,6.796464e-05,22.66500000000048,0.0002089375,22.66500000000048,2.679391e-05,22.66500000000048,1.169296e-05
22.68000000000048,6.457551e-05,22.68000000000048,0.0002097396,22.68000000000048,2.507648e-05,22.68000000000048,1.184854e-05
22.69500000000048,5.881889e-05,22.69500000000048,0.0002131718,22.69500000000048,2.47451e-05,22.69500000000048,1.40513e-05
22.71000000000048,5.517825e-05,22.71000000000048,0.0002062237,22.71000000000048,2.385113e-05,22.71000000000048,1.787575e-05
22.72500000000048,4.6556e-05,22.72500000000048,0.0001920007,22.72500000000048,2.3659e-05,22.72500000000048,1.741431e-05
22.74000000000048,4.197104e-05,22.74000000000048,0.0001925589,22.74000000000048,2.063863e-05,22.74000000000048,1.736814e-05
22.755000000000482,3.285989e-05,22.755000000000482,0.0001928238,22.755000000000482,1.835092e-05,22.755000000000482,1.777776e-05
22.770000000000483,2.643452e-05,22.770000000000483,0.0001893724,22.770000000000483,1.713707e-05,22.770000000000483,1.886643e-05
22.785000000000483,2.589996e-05,22.785000000000483,0.0001908696,22.785000000000483,1.673281e-05,22.785000000000483,1.951748e-05
22.800000000000484,2.616887e-05,22.800000000000484,0.0001890345,22.800000000000484,1.637627e-05,22.800000000000484,2.004235e-05
22.815000000000484,2.901268e-05,22.815000000000484,0.0001765599,22.815000000000484,1.5433e-05,22.815000000000484,2.003532e-05
22.830000000000485,3.08984e-05,22.830000000000485,0.0001777941,22.830000000000485,1.496873e-05,22.830000000000485,2.015799e-05
22.845000000000486,3.102533e-05,22.845000000000486,0.0001782319,22.845000000000486,1.497155e-05,22.845000000000486,2.185459e-05
22.860000000000486,3.089429e-05,22.860000000000486,0.0001718599,22.860000000000486,1.498284e-05,22.860000000000486,2.172983e-05
22.875000000000487,3.144072e-05,22.875000000000487,0.0001798367,22.875000000000487,1.433712e-05,22.875000000000487,2.135383e-05
22.890000000000487,3.304414e-05,22.890000000000487,0.0001766106,22.890000000000487,1.323244e-05,22.890000000000487,2.110767e-05
22.905000000000488,3.346267e-05,22.905000000000488,0.0001793639,22.905000000000488,1.318445e-05,22.905000000000488,2.146305e-05
22.92000000000049,3.208556e-05,22.92000000000049,0.0001798512,22.92000000000049,1.269566e-05,22.92000000000049,2.277375e-05
22.93500000000049,2.977515e-05,22.93500000000049,0.0001781029,22.93500000000049,1.299179e-05,22.93500000000049,2.473998e-05
22.95000000000049,2.95491e-05,22.95000000000049,0.0001827403,22.95000000000049,1.3602e-05,22.95000000000049,2.315164e-05
22.96500000000049,2.926696e-05,22.96500000000049,0.0001825913,22.96500000000049,1.319086e-05,22.96500000000049,2.149716e-05
22.98000000000049,2.934531e-05,22.98000000000049,0.0001812539,22.98000000000049,1.291676e-05,22.98000000000049,2.165385e-05
22.99500000000049,3.043769e-05,22.99500000000049,0.0001759729,22.99500000000049,1.276758e-05,22.99500000000049,2.263415e-05
23.010000000000492,3.023058e-05,23.010000000000492,0.0001764505,23.010000000000492,1.297335e-05,23.010000000000492,2.214783e-05
23.025000000000492,2.772563e-05,23.025000000000492,0.0001754663,23.025000000000492,1.292984e-05,23.025000000000492,2.134657e-05
23.040000000000493,2.826852e-05,23.040000000000493,0.0001749066,23.040000000000493,1.297552e-05,23.040000000000493,2.223797e-05
23.055000000000494,2.698043e-05,23.055000000000494,0.0001771443,23.055000000000494,1.524289e-05,23.055000000000494,2.274032e-05
23.070000000000494,3.363357e-05,23.070000000000494,0.0001801641,23.070000000000494,1.527151e-05,23.070000000000494,2.286018e-05
23.085000000000495,3.406141e-05,23.085000000000495,0.0001870565,23.085000000000495,1.535889e-05,23.085000000000495,2.366912e-05
23.100000000000495,3.449169e-05,23.100000000000495,0.0001854449,23.100000000000495,1.483259e-05,23.100000000000495,2.261733e-05
23.115000000000496,3.569156e-05,23.115000000000496,0.0001845167,23.115000000000496,1.489041e-05,23.115000000000496,2.295672e-05
23.130000000000496,3.628534e-05,23.130000000000496,0.0001801757,23.130000000000496,1.481264e-05,23.130000000000496,2.403177e-05
23.145000000000497,3.559591e-05,23.145000000000497,0.000178405,23.145000000000497,1.550586e-05,23.145000000000497,2.458977e-05
23.160000000000498,3.69337e-05,23.160000000000498,0.0001852617,23.160000000000498,1.56181e-05,23.160000000000498,2.440576e-05
23.175000000000498,3.753599e-05,23.175000000000498,0.0001970469,23.175000000000498,1.611965e-05,23.175000000000498,2.241275e-05
23.1900000000005,3.793319e-05,23.1900000000005,0.0001906957,23.1900000000005,1.672776e-05,23.1900000000005,2.282688e-05
23.2050000000005,3.927421e-05,23.2050000000005,0.00019599,23.2050000000005,1.752156e-05,23.2050000000005,2.482921e-05
23.2200000000005,3.942671e-05,23.2200000000005,0.0002020263,23.2200000000005,1.805452e-05,23.2200000000005,2.544951e-05
23.2350000000005,3.918983e-05,23.2350000000005,0.0002047211,23.2350000000005,1.800296e-05,23.2350000000005,2.548325e-05
23.2500000000005,3.952449e-05,23.2500000000005,0.0002098687,23.2500000000005,1.793946e-05,23.2500000000005,2.583134e-05
23.2650000000005,4.099715e-05,23.2650000000005,0.0002107708,23.2650000000005,1.782208e-05,23.2650000000005,2.7718e-05
23.280000000000502,4.137339e-05,23.280000000000502,0.000229779,23.280000000000502,1.882757e-05,23.280000000000502,3.642909e-05
23.295000000000503,4.121032e-05,23.295000000000503,0.0002274209,23.295000000000503,1.792061e-05,23.295000000000503,3.533854e-05
23.310000000000503,4.087741e-05,23.310000000000503,0.000243332,23.310000000000503,1.64595e-05,23.310000000000503,3.534971e-05
23.325000000000504,3.796919e-05,23.325000000000504,0.0002437419,23.325000000000504,1.604783e-05,23.325000000000504,3.493725e-05
23.340000000000504,3.757574e-05,23.340000000000504,0.0002445891,23.340000000000504,1.590942e-05,23.340000000000504,3.537161e-05
23.355000000000505,3.798403e-05,23.355000000000505,0.0002507516,23.355000000000505,1.631249e-05,23.355000000000505,3.524874e-05
23.370000000000505,3.792502e-05,23.370000000000505,0.0002509386,23.370000000000505,1.641494e-05,23.370000000000505,3.664345e-05
23.385000000000506,3.745145e-05,23.385000000000506,0.000288123,23.385000000000506,1.590587e-05,23.385000000000506,3.778361e-05
23.400000000000507,3.710607e-05,23.400000000000507,0.0002851712,23.400000000000507,1.585887e-05,23.400000000000507,3.729616e-05
23.415000000000507,3.721411e-05,23.415000000000507,0.000288484,23.415000000000507,1.696689e-05,23.415000000000507,3.730938e-05
23.430000000000508,3.937308e-05,23.430000000000508,0.0002927531,23.430000000000508,1.566673e-05,23.430000000000508,3.698248e-05
23.44500000000051,4.472009e-05,23.44500000000051,0.000291314,23.44500000000051,1.550949e-05,23.44500000000051,3.620606e-05
23.46000000000051,4.389314e-05,23.46000000000051,0.0002969115,23.46000000000051,1.446818e-05,23.46000000000051,3.483792e-05
23.47500000000051,4.395439e-05,23.47500000000051,0.0002933661,23.47500000000051,1.394867e-05,23.47500000000051,3.465914e-05
23.49000000000051,4.386135e-05,23.49000000000051,0.0002941281,23.49000000000051,1.402521e-05,23.49000000000051,3.431152e-05
23.50500000000051,4.234627e-05,23.50500000000051,0.0002924337,23.50500000000051,1.42583e-05,23.50500000000051,3.438042e-05
23.52000000000051,4.279925e-05,23.52000000000051,0.000284995,23.52000000000051,1.489325e-05,23.52000000000051,2.848595e-05
23.53500000000051,4.303558e-05,23.53500000000051,0.000282704,23.53500000000051,1.443211e-05,23.53500000000051,2.453184e-05
23.550000000000512,4.409805e-05,23.550000000000512,0.0002738699,23.550000000000512,1.45352e-05,23.550000000000512,2.452438e-05
23.565000000000513,4.524059e-05,23.565000000000513,0.000269979,23.565000000000513,1.450221e-05,23.565000000000513,2.541406e-05
23.580000000000513,4.252685e-05,23.580000000000513,0.0002661257,23.580000000000513,1.447694e-05,23.580000000000513,2.69334e-05
23.595000000000514,4.271491e-05,23.595000000000514,0.0002714086,23.595000000000514,1.452454e-05,23.595000000000514,2.595755e-05
23.610000000000515,4.173746e-05,23.610000000000515,0.0002629469,23.610000000000515,1.409934e-05,23.610000000000515,2.489324e-05
23.625000000000515,4.157311e-05,23.625000000000515,0.0002536274,23.625000000000515,1.386053e-05,23.625000000000515,2.205414e-05
23.640000000000516,4.209035e-05,23.640000000000516,0.0002227683,23.640000000000516,1.410533e-05,23.640000000000516,2.331292e-05
23.655000000000516,4.123493e-05,23.655000000000516,0.0002314934,23.655000000000516,1.314057e-05,23.655000000000516,2.316867e-05
23.670000000000517,4.001858e-05,23.670000000000517,0.0002216442,23.670000000000517,1.317804e-05,23.670000000000517,2.259116e-05
23.685000000000517,3.783837e-05,23.685000000000517,0.0002206349,23.685000000000517,1.320793e-05,23.685000000000517,2.664101e-05
23.700000000000518,3.195534e-05,23.700000000000518,0.00022104,23.700000000000518,1.293093e-05,23.700000000000518,2.918647e-05
23.71500000000052,3.216974e-05,23.71500000000052,0.0002061592,23.71500000000052,1.27764e-05,23.71500000000052,2.97988e-05
23.73000000000052,3.216142e-05,23.73000000000052,0.0002049063,23.73000000000052,1.284458e-05,23.73000000000052,2.970315e-05
23.74500000000052,3.222837e-05,23.74500000000052,0.0002015503,23.74500000000052,1.259988e-05,23.74500000000052,2.951666e-05
23.76000000000052,3.309015e-05,23.76000000000052,0.0002036647,23.76000000000052,1.749984e-05,23.76000000000052,2.818868e-05
23.77500000000052,3.372475e-05,23.77500000000052,0.0001978244,23.77500000000052,1.718632e-05,23.77500000000052,2.83551e-05
23.79000000000052,3.298227e-05,23.79000000000052,0.0002075339,23.79000000000052,1.675552e-05,23.79000000000052,2.937074e-05
23.805000000000522,2.79503e-05,23.805000000000522,0.0002096471,23.805000000000522,1.662724e-05,23.805000000000522,2.8739e-05
23.820000000000523,2.876497e-05,23.820000000000523,0.0002060802,23.820000000000523,1.724197e-05,23.820000000000523,2.82999e-05
23.835000000000523,2.822713e-05,23.835000000000523,0.0002049263,23.835000000000523,1.754807e-05,23.835000000000523,2.836106e-05
23.850000000000524,2.830289e-05,23.850000000000524,0.0001977706,23.850000000000524,1.725585e-05,23.850000000000524,2.86644e-05
23.865000000000524,2.801021e-05,23.865000000000524,0.0001987388,23.865000000000524,1.731697e-05,23.865000000000524,2.871203e-05
23.880000000000525,2.584224e-05,23.880000000000525,0.0001972674,23.880000000000525,1.724605e-05,23.880000000000525,2.720453e-05
23.895000000000525,2.587983e-05,23.895000000000525,0.000192555,23.895000000000525,1.710498e-05,23.895000000000525,2.688995e-05
23.910000000000526,2.590757e-05,23.910000000000526,0.0001838811,23.910000000000526,1.697187e-05,23.910000000000526,2.777081e-05
23.925000000000527,2.600255e-05,23.925000000000527,0.0001837252,23.925000000000527,1.696191e-05,23.925000000000527,2.640733e-05
23.940000000000527,2.602908e-05,23.940000000000527,0.0001849802,23.940000000000527,1.69893e-05,23.940000000000527,2.243787e-05
23.955000000000528,2.558586e-05,23.955000000000528,0.0001855081,23.955000000000528,1.665772e-05,23.955000000000528,2.000859e-05
23.970000000000528,2.452897e-05,23.970000000000528,0.0001906845,23.970000000000528,1.66069e-05,23.970000000000528,1.948859e-05
23.98500000000053,2.504387e-05,23.98500000000053,0.000191432,23.98500000000053,1.636078e-05,23.98500000000053,1.956434e-05
24.00000000000053,2.435665e-05,24.00000000000053,0.0001833842,24.00000000000053,1.55856e-05,24.00000000000053,2.079977e-05
24.01500000000053,2.037762e-05,24.01500000000053,0.0001827764,24.01500000000053,1.072266e-05,24.01500000000053,2.287373e-05
24.03000000000053,2.007185e-05,24.03000000000053,0.0001827557,24.03000000000053,1.04889e-05,24.03000000000053,2.146109e-05
24.04500000000053,2.066864e-05,24.04500000000053,0.0001721457,24.04500000000053,1.044583e-05,24.04500000000053,2.175251e-05
24.06000000000053,2.001914e-05,24.06000000000053,0.0001732918,24.06000000000053,1.031283e-05,24.06000000000053,2.333768e-05
24.075000000000532,1.83248e-05,24.075000000000532,0.0001842333,24.075000000000532,9.231709e-06,24.075000000000532,2.317292e-05
24.090000000000533,1.761378e-05,24.090000000000533,0.0001873532,24.090000000000533,8.99365e-06,24.090000000000533,2.148929e-05
24.105000000000533,1.767445e-05,24.105000000000533,0.0001970536,24.105000000000533,9.015552e-06,24.105000000000533,2.179909e-05
24.120000000000534,1.721171e-05,24.120000000000534,0.0002004305,24.120000000000534,9.709175e-06,24.120000000000534,2.304063e-05
24.135000000000534,1.688784e-05,24.135000000000534,0.0002044778,24.135000000000534,9.745379e-06,24.135000000000534,2.302779e-05
24.150000000000535,1.669319e-05,24.150000000000535,0.0002116133,24.150000000000535,9.662636e-06,24.150000000000535,2.281392e-05
24.165000000000536,1.759537e-05,24.165000000000536,0.0002120847,24.165000000000536,9.077836e-06,24.165000000000536,2.217834e-05
24.180000000000536,1.865393e-05,24.180000000000536,0.0002115871,24.180000000000536,8.797286e-06,24.180000000000536,2.22329e-05
24.195000000000537,1.868939e-05,24.195000000000537,0.0002116044,24.195000000000537,8.697441e-06,24.195000000000537,2.23964e-05
24.210000000000537,1.830942e-05,24.210000000000537,0.0002125942,24.210000000000537,8.995216e-06,24.210000000000537,2.251433e-05
24.225000000000538,1.827631e-05,24.225000000000538,0.0002138455,24.225000000000538,9.365025e-06,24.225000000000538,2.427091e-05
24.24000000000054,1.811528e-05,24.24000000000054,0.0002205642,24.24000000000054,1.117049e-05,24.24000000000054,2.382986e-05
24.25500000000054,1.809661e-05,24.25500000000054,0.0002219245,24.25500000000054,1.130711e-05,24.25500000000054,2.112168e-05
24.27000000000054,1.827245e-05,24.27000000000054,0.0002260168,24.27000000000054,1.150472e-05,24.27000000000054,2.302045e-05
24.28500000000054,1.723379e-05,24.28500000000054,0.0002304912,24.28500000000054,1.096558e-05,24.28500000000054,2.357729e-05
24.30000000000054,1.733323e-05,24.30000000000054,0.0002390563,24.30000000000054,1.104621e-05,24.30000000000054,2.201706e-05
24.31500000000054,1.699676e-05,24.31500000000054,0.0002399576,24.31500000000054,1.113259e-05,24.31500000000054,2.135647e-05
24.330000000000542,1.759377e-05,24.330000000000542,0.0002381189,24.330000000000542,1.118435e-05,24.330000000000542,2.173243e-05
24.345000000000542,1.774207e-05,24.345000000000542,0.0002419136,24.345000000000542,1.213865e-05,24.345000000000542,2.389008e-05
24.360000000000543,1.768879e-05,24.360000000000543,0.0002507145,24.360000000000543,1.197508e-05,24.360000000000543,2.542403e-05
24.375000000000544,1.719943e-05,24.375000000000544,0.0002569604,24.375000000000544,1.173505e-05,24.375000000000544,2.592768e-05
24.390000000000544,1.718222e-05,24.390000000000544,0.0002544582,24.390000000000544,1.1896e-05,24.390000000000544,2.59722e-05
24.405000000000545,1.822691e-05,24.405000000000545,0.000257858,24.405000000000545,1.238791e-05,24.405000000000545,2.626452e-05
24.420000000000545,2.456799e-05,24.420000000000545,0.0002653657,24.420000000000545,1.321966e-05,24.420000000000545,2.724127e-05
24.435000000000546,2.402532e-05,24.435000000000546,0.0002654828,24.435000000000546,1.336168e-05,24.435000000000546,2.743809e-05
24.450000000000546,2.442019e-05,24.450000000000546,0.00026944,24.450000000000546,1.341114e-05,24.450000000000546,2.725419e-05
24.465000000000547,2.519864e-05,24.465000000000547,0.0002726605,24.465000000000547,1.322392e-05,24.465000000000547,2.760087e-05
24.480000000000548,2.568752e-05,24.480000000000548,0.0002745723,24.480000000000548,1.398397e-05,24.480000000000548,2.654036e-05
24.495000000000548,2.500897e-05,24.495000000000548,0.0002802881,24.495000000000548,1.273665e-05,24.495000000000548,2.691823e-05
24.51000000000055,2.495597e-05,24.51000000000055,0.0002793853,24.51000000000055,1.269788e-05,24.51000000000055,2.655044e-05
24.52500000000055,2.490681e-05,24.52500000000055,0.0002884778,24.52500000000055,1.293964e-05,24.52500000000055,2.506748e-05
24.54000000000055,2.482354e-05,24.54000000000055,0.0002867329,24.54000000000055,1.330146e-05,24.54000000000055,2.478492e-05
24.55500000000055,2.475591e-05,24.55500000000055,0.0002818442,24.55500000000055,1.322712e-05,24.55500000000055,2.467212e-05
24.57000000000055,2.467898e-05,24.57000000000055,0.0002806734,24.57000000000055,1.318338e-05,24.57000000000055,2.479458e-05
24.58500000000055,2.416563e-05,24.58500000000055,0.0002802466,24.58500000000055,1.300046e-05,24.58500000000055,2.475022e-05
24.600000000000552,2.364948e-05,24.600000000000552,0.000270514,24.600000000000552,1.18806e-05,24.600000000000552,2.08883e-05
24.615000000000553,2.34905e-05,24.615000000000553,0.000264967,24.615000000000553,1.183783e-05,24.615000000000553,1.85866e-05
24.630000000000553,2.333104e-05,24.630000000000553,0.0002645515,24.630000000000553,1.169537e-05,24.630000000000553,1.857372e-05
24.645000000000554,2.322332e-05,24.645000000000554,0.0002571761,24.645000000000554,1.179492e-05,24.645000000000554,1.818513e-05
24.660000000000554,1.989067e-05,24.660000000000554,0.0002569566,24.660000000000554,1.09553e-05,24.660000000000554,1.751031e-05
24.675000000000555,1.32154e-05,24.675000000000555,0.000250803,24.675000000000555,1.022228e-05,24.675000000000555,1.597128e-05
24.690000000000556,1.294182e-05,24.690000000000556,0.0002470636,24.690000000000556,1.040801e-05,24.690000000000556,1.573133e-05
24.705000000000556,1.220808e-05,24.705000000000556,0.0002467346,24.705000000000556,1.036596e-05,24.705000000000556,1.580192e-05
24.720000000000557,1.03333e-05,24.720000000000557,0.0002399693,24.720000000000557,1.083636e-05,24.720000000000557,1.556117e-05
24.735000000000557,8.629149e-06,24.735000000000557,0.0002460132,24.735000000000557,9.489051e-06,24.735000000000557,1.482689e-05
24.750000000000558,8.58496e-06,24.750000000000558,0.0002438058,24.750000000000558,9.484596e-06,24.750000000000558,1.447304e-05
24.76500000000056,8.240013e-06,24.76500000000056,0.0002464544,24.76500000000056,9.196546e-06,24.76500000000056,1.578229e-05
24.78000000000056,7.379642e-06,24.78000000000056,0.0002430939,24.78000000000056,8.77805e-06,24.78000000000056,1.596863e-05
24.79500000000056,7.790086e-06,24.79500000000056,0.0002372288,24.79500000000056,8.58496e-06,24.79500000000056,1.619114e-05
24.81000000000056,7.640368e-06,24.81000000000056,0.000246264,24.81000000000056,8.499207e-06,24.81000000000056,1.593861e-05
24.82500000000056,7.137048e-06,24.82500000000056,0.0002429583,24.82500000000056,8.558665e-06,24.82500000000056,1.644409e-05
24.84000000000056,7.053663e-06,24.84000000000056,0.0002442771,24.84000000000056,8.500864e-06,24.84000000000056,1.635131e-05
24.85500000000056,7.34712e-06,24.85500000000056,0.0002814042,24.85500000000056,8.596438e-06,24.85500000000056,1.705137e-05
24.870000000000562,7.543885e-06,24.870000000000562,0.0003032387,24.870000000000562,8.46433e-06,24.870000000000562,1.682851e-05
24.885000000000563,7.658783e-06,24.885000000000563,0.000389527,24.885000000000563,8.387425e-06,24.885000000000563,1.67908e-05
24.900000000000563,7.777418e-06,24.900000000000563,0.0004426066,24.900000000000563,8.2229e-06,24.900000000000563,1.649797e-05
24.915000000000564,7.862084e-06,24.915000000000564,0.0004511003,24.915000000000564,8.121197e-06,24.915000000000564,1.74329e-05
24.930000000000565,7.629297e-06,24.930000000000565,0.0004612102,24.930000000000565,7.784659e-06,24.930000000000565,1.831327e-05
24.945000000000565,7.38918e-06,24.945000000000565,0.0004755582,24.945000000000565,7.178377e-06,24.945000000000565,1.868487e-05
24.960000000000566,7.461272e-06,24.960000000000566,0.0004953327,24.960000000000566,6.830453e-06,24.960000000000566,1.806622e-05
24.975000000000566,7.495178e-06,24.975000000000566,0.0005090471,24.975000000000566,5.922486e-06,24.975000000000566,1.795438e-05
24.990000000000567,7.480127e-06,24.990000000000567,0.000512164,24.990000000000567,6.183143e-06,24.990000000000567,1.813626e-05
25.005000000000567,7.40061e-06,25.005000000000567,0.000512452,25.005000000000567,5.998116e-06,25.005000000000567,1.848477e-05
25.020000000000568,7.431003e-06,25.020000000000568,0.000539957,25.020000000000568,5.664756e-06,25.020000000000568,1.758256e-05
25.03500000000057,7.512074e-06,25.03500000000057,0.0005819734,25.03500000000057,5.599728e-06,25.03500000000057,1.711486e-05
25.05000000000057,7.05566e-06,25.05000000000057,0.0006178932,25.05000000000057,5.305204e-06,25.05000000000057,1.700339e-05
25.06500000000057,7.115304e-06,25.06500000000057,0.0006313517,25.06500000000057,5.203327e-06,25.06500000000057,1.739812e-05
25.08000000000057,6.811867e-06,25.08000000000057,0.000629169,25.08000000000057,5.126963e-06,25.08000000000057,1.695111e-05
25.09500000000057,6.873626e-06,25.09500000000057,0.0006344225,25.09500000000057,5.216845e-06,25.09500000000057,1.624673e-05
25.11000000000057,6.340615e-06,25.11000000000057,0.0006290672,25.11000000000057,5.551726e-06,25.11000000000057,1.540834e-05
25.125000000000572,6.327271e-06,25.125000000000572,0.0006290463,25.125000000000572,5.508422e-06,25.125000000000572,1.582686e-05
25.140000000000573,5.924864e-06,25.140000000000573,0.000595173,25.140000000000573,5.262549e-06,25.140000000000573,1.778648e-05
25.155000000000573,5.677176e-06,25.155000000000573,0.0005664345,25.155000000000573,5.358047e-06,25.155000000000573,1.852055e-05
25.170000000000574,5.508422e-06,25.170000000000574,0.0005625828,25.170000000000574,5.373798e-06,25.170000000000574,1.715515e-05
25.185000000000574,5.561867e-06,25.185000000000574,0.0005637403,25.185000000000574,5.551726e-06,25.185000000000574,1.621201e-05
25.200000000000575,5.649817e-06,25.200000000000575,0.0005586424,25.200000000000575,5.589657e-06,25.200000000000575,1.667378e-05
25.215000000000575,5.782887e-06,25.215000000000575,0.0005533978,25.215000000000575,5.597212e-06,25.215000000000575,1.689701e-05
25.230000000000576,5.546649e-06,25.230000000000576,0.0005390263,25.230000000000576,5.449287e-06,25.230000000000576,1.628916e-05
25.245000000000577,5.526294e-06,25.245000000000577,0.0005229028,25.245000000000577,5.043863e-06,25.245000000000577,1.666279e-05
25.260000000000577,5.457037e-06,25.260000000000577,0.0005258726,25.260000000000577,5.151632e-06,25.260000000000577,1.554215e-05
25.275000000000578,5.780451e-06,25.275000000000578,0.0004916282,25.275000000000578,5.334332e-06,25.275000000000578,1.684106e-05
25.29000000000058,6.153455e-06,25.29000000000058,0.0004412727,25.29000000000058,5.329048e-06,25.29000000000058,1.693532e-05
25.30500000000058,6.25337e-06,25.30500000000058,0.0004156918,25.30500000000058,5.454455e-06,25.30500000000058,1.674712e-05
25.32000000000058,6.347276e-06,25.32000000000058,0.0003910513,25.32000000000058,5.544109e-06,25.32000000000058,1.661199e-05
25.33500000000058,6.873626e-06,25.33500000000058,0.0003869947,25.33500000000058,5.574516e-06,25.33500000000058,1.624326e-05
25.35000000000058,9.099535e-06,25.35000000000058,0.0003911807,25.35000000000058,5.597212e-06,25.35000000000058,1.678325e-05
25.36500000000058,9.752604e-06,25.36500000000058,0.0003675601,25.36500000000058,5.063375e-06,25.36500000000058,1.71346e-05
25.38000000000058,1.0625e-05,25.38000000000058,0.0003468902,25.38000000000058,5.273245e-06,25.38000000000058,1.59103e-05
25.395000000000582,1.233092e-05,25.395000000000582,0.0003322483,25.395000000000582,5.564399e-06,25.395000000000582,1.465296e-05
25.410000000000583,1.245482e-05,25.410000000000583,0.0003220812,25.410000000000583,5.493057e-06,25.410000000000583,1.532492e-05
25.425000000000583,1.249885e-05,25.425000000000583,0.0003248745,25.425000000000583,5.696992e-06,25.425000000000583,1.548495e-05
25.440000000000584,1.252137e-05,25.440000000000584,0.0003218081,25.440000000000584,5.449287e-06,25.440000000000584,1.487432e-05
25.455000000000584,1.2689e-05,25.455000000000584,0.0002992851,25.455000000000584,6.061194e-06,25.455000000000584,1.505506e-05
25.470000000000585,1.274328e-05,25.470000000000585,0.0003059992,25.470000000000585,7.017624e-06,25.470000000000585,1.631854e-05
25.485000000000586,1.281823e-05,25.485000000000586,0.0003093426,25.485000000000586,7.350954e-06,25.485000000000586,1.744986e-05
25.500000000000586,1.301454e-05,25.500000000000586,0.0003679899,25.500000000000586,8.007658e-06,25.500000000000586,1.732429e-05
25.515000000000587,1.318552e-05,25.515000000000587,0.001148852,25.515000000000587,8.171345e-06,25.515000000000587,1.68895e-05
25.530000000000587,1.37411e-05,25.530000000000587,0.001496085,25.530000000000587,9.961255e-06,25.530000000000587,1.589258e-05
25.545000000000588,1.750065e-05,25.545000000000588,0.001544122,25.545000000000588,1.395876e-05,25.545000000000588,1.645436e-05
25.56000000000059,1.959456e-05,25.56000000000059,0.001927162,25.56000000000059,1.45352e-05,25.56000000000059,1.614497e-05
25.57500000000059,2.221769e-05,25.57500000000059,0.002216383,25.57500000000059,1.514089e-05,25.57500000000059,1.616851e-05
25.59000000000059,2.410434e-05,25.59000000000059,0.002299697,25.59000000000059,1.637455e-05,25.59000000000059,1.621201e-05
25.60500000000059,2.353962e-05,25.60500000000059,0.002305343,25.60500000000059,1.687782e-05,25.60500000000059,1.667631e-05
25.62000000000059,2.425058e-05,25.62000000000059,0.002304666,25.62000000000059,1.885822e-05,25.62000000000059,1.690201e-05
25.63500000000059,2.487342e-05,25.63500000000059,0.002308367,25.63500000000059,2.067818e-05,25.63500000000059,1.675805e-05
25.650000000000592,2.888226e-05,25.650000000000592,0.002317202,25.650000000000592,2.175186e-05,25.650000000000592,1.573133e-05
25.665000000000592,3.426263e-05,25.665000000000592,0.002326021,25.665000000000592,2.350489e-05,25.665000000000592,1.593861e-05
25.680000000000593,3.917509e-05,25.680000000000593,0.002330315,25.680000000000593,2.433409e-05,25.680000000000593,1.610303e-05
25.695000000000594,4.054871e-05,25.695000000000594,0.002329277,25.695000000000594,2.484566e-05,25.695000000000594,1.585531e-05
25.710000000000594,4.193646e-05,25.710000000000594,0.002330956,25.710000000000594,2.63534e-05,25.710000000000594,1.514648e-05
25.725000000000595,4.329437e-05,25.725000000000595,0.002330928,25.725000000000595,2.635073e-05,25.725000000000595,1.525121e-05
25.740000000000595,4.550386e-05,25.740000000000595,0.002331823,25.740000000000595,2.639132e-05,25.740000000000595,1.588283e-05
25.755000000000596,4.574654e-05,25.755000000000596,0.002283504,25.755000000000596,2.628543e-05,25.755000000000596,1.608378e-05
25.770000000000596,4.674775e-05,25.770000000000596,0.001864004,25.770000000000596,2.619309e-05,25.770000000000596,1.615805e-05
25.785000000000597,4.750786e-05,25.785000000000597,0.001630824,25.785000000000597,2.580624e-05,25.785000000000597,1.594833e-05
25.800000000000598,4.915175e-05,25.800000000000598,0.001590934,25.800000000000598,2.427555e-05,25.800000000000598,1.738921e-05
25.815000000000598,4.930141e-05,25.815000000000598,0.001112696,25.815000000000598,2.460523e-05,25.815000000000598,1.838007e-05
25.8300000000006,4.94073e-05,25.8300000000006,0.0006164862,25.8300000000006,2.453299e-05,25.8300000000006,1.855778e-05
25.8450000000006,5.141313e-05,25.8450000000006,0.0003935818,25.8450000000006,2.38275e-05,25.8450000000006,1.845731e-05
25.8600000000006,5.296382e-05,25.8600000000006,0.0003555034,25.8600000000006,2.342925e-05,25.8600000000006,1.729092e-05
25.8750000000006,5.328255e-05,25.8750000000006,0.0003527051,25.8750000000006,2.498305e-05,25.8750000000006,2.087953e-05
25.8900000000006,5.254351e-05,25.8900000000006,0.0003627212,25.8900000000006,2.474453e-05,25.8900000000006,2.538023e-05
25.9050000000006,4.917181e-05,25.9050000000006,0.0003140461,25.9050000000006,2.440115e-05,25.9050000000006,2.609286e-05
25.920000000000602,4.470528e-05,25.920000000000602,0.0002734323,25.920000000000602,2.580842e-05,25.920000000000602,2.596514e-05
25.935000000000603,4.280682e-05,25.935000000000603,0.0002678724,25.935000000000603,2.621352e-05,25.935000000000603,2.594398e-05
25.950000000000603,4.365758e-05,25.950000000000603,0.0002870756,25.950000000000603,2.864179e-05,25.950000000000603,3.018021e-05
25.965000000000604,4.249769e-05,25.965000000000604,0.0003155824,25.965000000000604,2.750833e-05,25.965000000000604,3.164125e-05
25.980000000000604,4.201196e-05,25.980000000000604,0.0003232879,25.980000000000604,2.748836e-05,25.980000000000604,3.098944e-05
25.995000000000605,4.116586e-05,25.995000000000605,0.0003188053,25.995000000000605,2.780325e-05,25.995000000000605,3.058174e-05
26.010000000000606,4.037533e-05,26.010000000000606,0.0003211956,26.010000000000606,3.188517e-05,26.010000000000606,3.079931e-05
26.025000000000606,4.024883e-05,26.025000000000606,0.000339088,26.025000000000606,3.245529e-05,26.025000000000606,3.104167e-05
26.040000000000607,4.098272e-05,26.040000000000607,0.000376669,26.040000000000607,3.407092e-05,26.040000000000607,3.149041e-05
26.055000000000607,4.182074e-05,26.055000000000607,0.0003985882,26.055000000000607,3.669109e-05,26.055000000000607,3.091936e-05
26.070000000000608,4.187258e-05,26.070000000000608,0.0004284296,26.070000000000608,4.041021e-05,26.070000000000608,3.093075e-05
26.08500000000061,4.422565e-05,26.08500000000061,0.0004431871,26.08500000000061,4.419889e-05,26.08500000000061,3.2327e-05
26.10000000000061,5.34449e-05,26.10000000000061,0.0004647987,26.10000000000061,4.839941e-05,26.10000000000061,4.068016e-05
26.11500000000061,5.712919e-05,26.11500000000061,0.0004766478,26.11500000000061,4.830589e-05,26.11500000000061,4.199654e-05
26.13000000000061,6.051937e-05,26.13000000000061,0.0004992115,26.13000000000061,4.792853e-05,26.13000000000061,3.879787e-05
26.14500000000061,6.220077e-05,26.14500000000061,0.0005006191,26.14500000000061,4.729002e-05,26.14500000000061,3.948348e-05
26.16000000000061,6.87381e-05,26.16000000000061,0.0005545532,26.16000000000061,4.88842e-05,26.16000000000061,3.903424e-05
26.175000000000612,6.927051e-05,26.175000000000612,0.0005652463,26.175000000000612,4.832514e-05,26.175000000000612,4.309871e-05
26.190000000000612,7.188025e-05,26.190000000000612,0.000704015,26.190000000000612,4.743575e-05,26.190000000000612,4.32807e-05
26.205000000000613,7.389962e-05,26.205000000000613,0.0007012488,26.205000000000613,4.639415e-05,26.205000000000613,3.971116e-05
26.220000000000613,7.435986e-05,26.220000000000613,0.0007397053,26.220000000000613,4.664579e-05,26.220000000000613,4.086845e-05
26.235000000000614,7.58608e-05,26.235000000000614,0.000808607,26.235000000000614,4.864502e-05,26.235000000000614,4.272052e-05
26.250000000000615,8.171569e-05,26.250000000000615,0.0008390459,26.250000000000615,4.777722e-05,26.250000000000615,4.45996e-05
26.265000000000615,8.560344e-05,26.265000000000615,0.0008457164,26.265000000000615,4.698729e-05,26.265000000000615,5.059116e-05
26.280000000000616,9.075213e-05,26.280000000000616,0.000850556,26.280000000000616,4.69285e-05,26.280000000000616,5.186351e-05
26.295000000000616,9.221418e-05,26.295000000000616,0.0008768213,26.295000000000616,4.46397e-05,26.295000000000616,5.210874e-05
26.310000000000617,9.547907e-05,26.310000000000617,0.0008607213,26.310000000000617,4.395279e-05,26.310000000000617,5.33655e-05
26.325000000000617,9.631417e-05,26.325000000000617,0.0008599214,26.325000000000617,3.985103e-05,26.325000000000617,5.699909e-05
26.340000000000618,0.000103193,26.340000000000618,0.0008635651,26.340000000000618,3.662769e-05,26.340000000000618,5.715901e-05
26.35500000000062,0.0001224751,26.35500000000062,0.0008579062,26.35500000000062,3.341633e-05,26.35500000000062,5.40266e-05
26.37000000000062,0.0001215121,26.37000000000062,0.000869234,26.37000000000062,3.258956e-05,26.37000000000062,5.393997e-05
26.38500000000062,0.0001234486,26.38500000000062,0.0008940239,26.38500000000062,3.330697e-05,26.38500000000062,5.333936e-05
26.40000000000062,0.0001242606,26.40000000000062,0.0009378262,26.40000000000062,3.45912e-05,26.40000000000062,5.450502e-05
26.41500000000062,0.0001227273,26.41500000000062,0.0009469474,26.41500000000062,3.141383e-05,26.41500000000062,5.675712e-05
26.43000000000062,0.0001240099,26.43000000000062,0.0009439256,26.43000000000062,3.126235e-05,26.43000000000062,5.774697e-05
26.445000000000622,0.0001259019,26.445000000000622,0.0008887942,26.445000000000622,3.150562e-05,26.445000000000622,5.845445e-05
26.460000000000623,0.0001251918,26.460000000000623,0.001181245,26.460000000000623,3.175546e-05,26.460000000000623,5.837125e-05
26.475000000000623,0.0001264015,26.475000000000623,0.00116814,26.475000000000623,3.166395e-05,26.475000000000623,5.931447e-05
26.490000000000624,0.0001277242,26.490000000000624,0.001104444,26.490000000000624,3.092391e-05,26.490000000000624,6.583992e-05
26.505000000000624,0.0001277022,26.505000000000624,0.001191673,26.505000000000624,3.03668e-05,26.505000000000624,6.915022e-05
26.520000000000625,0.0001278257,26.520000000000625,0.001230745,26.520000000000625,3.077963e-05,26.520000000000625,6.591711e-05
26.535000000000625,0.0001283722,26.535000000000625,0.001255129,26.535000000000625,3.106753e-05,26.535000000000625,6.752277e-05
26.550000000000626,0.0001368841,26.550000000000626,0.001278195,26.550000000000626,3.189842e-05,26.550000000000626,6.765865e-05
26.565000000000627,0.0001368801,26.565000000000627,0.001313876,26.565000000000627,3.180422e-05,26.565000000000627,6.839645e-05
26.580000000000627,0.0001352659,26.580000000000627,0.001312062,26.580000000000627,3.291429e-05,26.580000000000627,6.681286e-05
26.595000000000628,0.0001253059,26.595000000000628,0.001343842,26.595000000000628,3.551271e-05,26.595000000000628,6.685838e-05
26.61000000000063,0.0001280297,26.61000000000063,0.001374143,26.61000000000063,3.676167e-05,26.61000000000063,6.560651e-05
26.62500000000063,0.0001273813,26.62500000000063,0.001396912,26.62500000000063,3.669992e-05,26.62500000000063,6.852876e-05
26.64000000000063,0.0001295387,26.64000000000063,0.001390649,26.64000000000063,3.573494e-05,26.64000000000063,7.119044e-05
26.65500000000063,0.0001724183,26.65500000000063,0.001435237,26.65500000000063,3.816532e-05,26.65500000000063,7.018086e-05
26.67000000000063,0.0001759267,26.67000000000063,0.001526332,26.67000000000063,4.164048e-05,26.67000000000063,6.821084e-05
26.68500000000063,0.0001777536,26.68500000000063,0.001552303,26.68500000000063,4.242603e-05,26.68500000000063,6.531967e-05
26.70000000000063,0.000178585,26.70000000000063,0.001700386,26.70000000000063,4.261983e-05,26.70000000000063,6.788936e-05
26.715000000000632,0.0001806108,26.715000000000632,0.001728177,26.715000000000632,4.171788e-05,26.715000000000632,6.902871e-05
26.730000000000633,0.0001799552,26.730000000000633,0.001716758,26.730000000000633,4.143021e-05,26.730000000000633,6.548982e-05
26.745000000000633,0.0001812006,26.745000000000633,0.001723457,26.745000000000633,4.103047e-05,26.745000000000633,5.963256e-05
26.760000000000634,0.0001784283,26.760000000000634,0.001685473,26.760000000000634,4.131138e-05,26.760000000000634,5.956354e-05
26.775000000000635,0.0001920803,26.775000000000635,0.001672136,26.775000000000635,4.579117e-05,26.775000000000635,6.109943e-05
26.790000000000635,0.0001925538,26.790000000000635,0.001654036,26.790000000000635,4.668201e-05,26.790000000000635,6.045369e-05
26.805000000000636,0.0001865412,26.805000000000636,0.001630459,26.805000000000636,4.743843e-05,26.805000000000636,6.009003e-05
26.820000000000636,0.0001884564,26.820000000000636,0.001645706,26.820000000000636,4.782408e-05,26.820000000000636,5.729194e-05
26.835000000000637,0.0002032307,26.835000000000637,0.001688009,26.835000000000637,4.832455e-05,26.835000000000637,5.572039e-05
26.850000000000637,0.0002118209,26.850000000000637,0.001669376,26.850000000000637,5.072603e-05,26.850000000000637,5.988432e-05
26.865000000000638,0.000235619,26.865000000000638,0.001628566,26.865000000000638,5.346071e-05,26.865000000000638,6.836659e-05
26.88000000000064,0.0002412364,26.88000000000064,0.001618836,26.88000000000064,5.574288e-05,26.88000000000064,7.113085e-05
26.89500000000064,0.0002423794,26.89500000000064,0.001615675,26.89500000000064,5.582318e-05,26.89500000000064,6.887568e-05
26.91000000000064,0.0002133938,26.91000000000064,0.001531815,26.91000000000064,5.207359e-05,26.91000000000064,6.84436e-05
26.92500000000064,0.0002100581,26.92500000000064,0.001363726,26.92500000000064,5.09159e-05,26.92500000000064,6.920235e-05
26.94000000000064,0.0002084512,26.94000000000064,0.001329702,26.94000000000064,5.078709e-05,26.94000000000064,7.083675e-05
26.95500000000064,0.0002066278,26.95500000000064,0.0009058279,26.95500000000064,5.076461e-05,26.95500000000064,7.119776e-05
26.970000000000642,0.0002063338,26.970000000000642,0.0007719425,26.970000000000642,5.049752e-05,26.970000000000642,7.394021e-05
26.985000000000642,0.000217603,26.985000000000642,0.0007622726,26.985000000000642,5.169075e-05,26.985000000000642,7.272678e-05
27.000000000000643,0.0002171242,27.000000000000643,0.0007545117,27.000000000000643,5.220894e-05,27.000000000000643,7.237125e-05
27.015000000000644,0.0002081362,27.015000000000644,0.000733261,27.015000000000644,4.990347e-05,27.015000000000644,6.952688e-05
27.030000000000644,0.0002022376,27.030000000000644,0.0006664523,27.030000000000644,4.671398e-05,27.030000000000644,6.802058e-05
27.045000000000645,0.0002070437,27.045000000000645,0.0006672036,27.045000000000645,4.447086e-05,27.045000000000645,6.74779e-05
27.060000000000645,0.0002102468,27.060000000000645,0.0006319153,27.060000000000645,4.37037e-05,27.060000000000645,6.730629e-05
27.075000000000646,0.000206861,27.075000000000646,0.0005355594,27.075000000000646,4.430648e-05,27.075000000000646,6.731906e-05
27.090000000000646,0.0001900772,27.090000000000646,0.0004487989,27.090000000000646,4.275315e-05,27.090000000000646,6.693103e-05
27.105000000000647,0.0001696324,27.105000000000647,0.0004336,27.105000000000647,3.67517e-05,27.105000000000647,5.978261e-05
27.120000000000648,0.0001425079,27.120000000000648,0.0004412023,27.120000000000648,3.111646e-05,27.120000000000648,5.173053e-05
27.135000000000648,0.0001357597,27.135000000000648,0.0003638267,27.135000000000648,3.367752e-05,27.135000000000648,4.448955e-05
27.15000000000065,0.000132219,27.15000000000065,0.0003263265,27.15000000000065,3.407216e-05,27.15000000000065,4.418454e-05
27.16500000000065,0.0001333463,27.16500000000065,0.0003286901,27.16500000000065,3.44541e-05,27.16500000000065,4.488579e-05
27.18000000000065,0.000135694,27.18000000000065,0.0003223492,27.18000000000065,3.450272e-05,27.18000000000065,4.221901e-05
27.19500000000065,0.0001389379,27.19500000000065,0.0003135265,27.19500000000065,3.649361e-05,27.19500000000065,4.153887e-05
27.21000000000065,0.0001394201,27.21000000000065,0.0003033181,27.21000000000065,3.93695e-05,27.21000000000065,3.890664e-05
27.22500000000065,0.0001365882,27.22500000000065,0.0002980147,27.22500000000065,3.938346e-05,27.22500000000065,3.215792e-05
27.240000000000652,0.0001226617,27.240000000000652,0.0002944942,27.240000000000652,3.826226e-05,27.240000000000652,3.326889e-05
27.255000000000653,0.0001228862,27.255000000000653,0.0002871397,27.255000000000653,3.883489e-05,27.255000000000653,3.409075e-05
27.270000000000653,0.0001267504,27.270000000000653,0.0002746379,27.270000000000653,3.992766e-05,27.270000000000653,3.232743e-05
