X[s],a: EMG RMS 1-1,X[s].1,a: EMG RMS 1-2,X[s].2,a: EMG RMS 1-3,X[s].3,a: EMG RMS 1-4
417.01499999974163,2.011531e-05,417.01499999974163,8.414087e-05,417.01499999974163,0.0006359544,417.01499999974163,5.536481e-06
417.0299999997416,1.997406e-05,417.0299999997416,8.594651e-05,417.0299999997416,0.0007212948,417.0299999997416,5.523745e-06
417.0449999997416,1.974138e-05,417.0449999997416,8.56495e-05,417.0449999997416,0.0008348852,417.0449999997416,5.498184e-06
417.0599999997416,1.994089e-05,417.0599999997416,8.39914e-05,417.0599999997416,0.0009496514,417.0599999997416,5.48022e-06
417.0749999997416,1.989562e-05,417.0749999997416,8.828806e-05,417.0749999997416,0.001061682,417.0749999997416,5.589657e-06
417.08999999974156,2.013701e-05,417.08999999974156,9.917931e-05,417.08999999974156,0.001096324,417.08999999974156,5.669728e-06
417.10499999974155,1.969852e-05,417.10499999974155,0.0001024494,417.10499999974155,0.001097332,417.10499999974155,5.627332e-06
417.11999999974154,1.948642e-05,417.11999999974154,0.0001025295,417.11999999974154,0.001097864,417.11999999974154,5.536481e-06
417.1349999997415,1.782129e-05,417.1349999997415,0.0001184764,417.1349999997415,0.001090671,417.1349999997415,5.701935e-06
417.1499999997415,1.847028e-05,417.1499999997415,0.0001180963,417.1499999997415,0.00107679,417.1499999997415,5.674694e-06
417.1649999997415,1.864411e-05,417.1649999997415,0.0001202752,417.1649999997415,0.00108171,417.1649999997415,5.770695e-06
417.1799999997415,1.823387e-05,417.1799999997415,0.0001195907,417.1799999997415,0.001083345,417.1799999997415,5.770695e-06
417.19499999974147,1.80475e-05,417.19499999974147,0.0001170505,417.19499999974147,0.001065238,417.19499999974147,5.711809e-06
417.20999999974146,1.802251e-05,417.20999999974146,0.0001152699,417.20999999974146,0.001005822,417.20999999974146,5.604757e-06
417.22499999974144,1.794575e-05,417.22499999974144,0.0001161694,417.22499999974144,0.0008511169,417.22499999974144,5.592176e-06
417.2399999997414,1.691118e-05,417.2399999997414,0.0001172398,417.2399999997414,0.0007244615,417.2399999997414,6.148874e-06
417.2549999997414,1.431844e-05,417.2549999997414,0.000114787,417.2549999997414,0.0007073659,417.2549999997414,6.205884e-06
417.2699999997414,1.44155e-05,417.2699999997414,0.0001129564,417.2699999997414,0.0007100999,417.2699999997414,6.280343e-06
417.2849999997414,1.544304e-05,417.2849999997414,0.0001119674,417.2849999997414,0.0007056037,417.2849999997414,6.345057e-06
417.2999999997414,1.583754e-05,417.2999999997414,0.0001131893,417.2999999997414,0.0007746544,417.2999999997414,6.183143e-06
417.31499999974136,1.548404e-05,417.31499999974136,0.0001136994,417.31499999974136,0.0007512822,417.31499999974136,6.42229e-06
417.32999999974135,1.464623e-05,417.32999999974135,0.0001226863,417.32999999974135,0.0007483082,417.32999999974135,6.289309e-06
417.34499999974133,1.444674e-05,417.34499999974133,0.0001149571,417.34499999974133,0.0007470705,417.34499999974133,6.318359e-06
417.3599999997413,1.452163e-05,417.3599999997413,0.0001155951,417.3599999997413,0.0007460755,417.3599999997413,6.210422e-06
417.3749999997413,1.418897e-05,417.3749999997413,0.0001162507,417.3749999997413,0.0007476496,417.3749999997413,6.160319e-06
417.3899999997413,1.328556e-05,417.3899999997413,0.0001043692,417.3899999997413,0.0007894036,417.3899999997413,6.028569e-06
417.4049999997413,1.246387e-05,417.4049999997413,0.0001037403,417.4049999997413,0.0009074798,417.4049999997413,6.056544e-06
417.41999999974126,1.254385e-05,417.41999999974126,0.0001011903,417.41999999974126,0.001052321,417.41999999974126,5.998116e-06
417.43499999974125,1.25719e-05,417.43499999974125,0.0001030407,417.43499999974125,0.001360014,417.43499999974125,5.893875e-06
417.44999999974124,1.283141e-05,417.44999999974124,0.0001182154,417.44999999974124,0.001538512,417.44999999974124,5.848288e-06
417.4649999997412,1.304049e-05,417.4649999997412,0.0001217123,417.4649999997412,0.001610709,417.4649999997412,5.836232e-06
417.4799999997412,1.305669e-05,417.4799999997412,0.0001268341,417.4799999997412,0.002120662,417.4799999997412,5.344885e-06
417.4949999997412,1.343528e-05,417.4949999997412,0.0001425389,417.4949999997412,0.002547722,417.4949999997412,5.140683e-06
417.5099999997412,1.338696e-05,417.5099999997412,0.0001774867,417.5099999997412,0.002872818,417.5099999997412,4.884961e-06
417.52499999974117,1.344367e-05,417.52499999974117,0.0001897367,417.52499999974117,0.003108773,417.52499999974117,5.358047e-06
417.53999999974116,1.42405e-05,417.53999999974116,0.0001959677,417.53999999974116,0.003188601,417.53999999974116,5.500745e-06
417.55499999974114,1.614148e-05,417.55499999974114,0.0002006253,417.55499999974114,0.003412759,417.55499999974114,5.741327e-06
417.5699999997411,1.662894e-05,417.5699999997411,0.0002059879,417.5699999997411,0.003476118,417.5699999997411,5.597212e-06
417.5849999997411,1.710581e-05,417.5849999997411,0.0001970774,417.5849999997411,0.003477064,417.5849999997411,6.768301e-06
417.5999999997411,1.778489e-05,417.5999999997411,0.0002114619,417.5999999997411,0.003486884,417.5999999997411,7.273898e-06
417.6149999997411,1.813859e-05,417.6149999997411,0.0002182571,417.6149999997411,0.00349353,417.6149999997411,7.562535e-06
417.6299999997411,1.867205e-05,417.6299999997411,0.0002181024,417.6299999997411,0.003496753,417.6299999997411,7.99181e-06
417.64499999974106,1.899887e-05,417.64499999974106,0.0002159685,417.64499999974106,0.003617889,417.64499999974106,8.141986e-06
417.65999999974105,1.90174e-05,417.65999999974105,0.0002165307,417.65999999974105,0.003829831,417.65999999974105,8.24514e-06
417.67499999974103,1.884253e-05,417.67499999974103,0.0002172223,417.67499999974103,0.00394037,417.67499999974103,8.277538e-06
417.689999999741,1.883879e-05,417.689999999741,0.0002129813,417.689999999741,0.003859382,417.689999999741,8.604628e-06
417.704999999741,1.850305e-05,417.704999999741,0.0002065684,417.704999999741,0.003968905,417.704999999741,8.663363e-06
417.719999999741,1.843211e-05,417.719999999741,0.0002020533,417.719999999741,0.004195116,417.719999999741,8.794083e-06
417.734999999741,1.818978e-05,417.734999999741,0.000194095,417.734999999741,0.004289756,417.734999999741,8.744285e-06
417.74999999974096,1.84237e-05,417.74999999974096,0.000177971,417.74999999974096,0.00427876,417.74999999974096,9.007736e-06
417.76499999974095,1.834324e-05,417.76499999974095,0.000148741,417.76499999974095,0.004120473,417.76499999974095,8.792481e-06
417.77999999974094,1.728766e-05,417.77999999974094,0.0001385327,417.77999999974094,0.003893985,417.77999999974094,8.663363e-06
417.7949999997409,1.656783e-05,417.7949999997409,0.0001356498,417.7949999997409,0.00385281,417.7949999997409,8.594799e-06
417.8099999997409,1.430761e-05,417.8099999997409,0.0001201362,417.8099999997409,0.003898508,417.8099999997409,8.419275e-06
417.8249999997409,1.387576e-05,417.8249999997409,0.000111722,417.8249999997409,0.003969711,417.8249999997409,8.236593e-06
417.8399999997409,1.365059e-05,417.8399999997409,0.0001040113,417.8399999997409,0.004018405,417.8399999997409,7.101431e-06
417.85499999974087,1.239928e-05,417.85499999974087,8.055994e-05,417.85499999974087,0.004040714,417.85499999974087,6.877724e-06
417.86999999974086,1.195388e-05,417.86999999974086,7.390667e-05,417.86999999974086,0.004049898,417.86999999974086,6.53104e-06
417.88499999974084,1.127467e-05,417.88499999974084,7.297428e-05,417.88499999974084,0.004070485,417.88499999974084,6.128222e-06
417.8999999997408,1.420187e-05,417.8999999997408,7.203491e-05,417.8999999997408,0.003882763,417.8999999997408,5.853103e-06
417.9149999997408,1.469232e-05,417.9149999997408,0.0001054393,417.9149999997408,0.003733527,417.9149999997408,5.967507e-06
417.9299999997408,1.491216e-05,417.9299999997408,0.0001667618,417.9299999997408,0.003696569,417.9299999997408,5.807196e-06
417.9449999997408,1.908985e-05,417.9449999997408,0.0002225956,417.9449999997408,0.003742143,417.9449999997408,5.503306e-06
417.9599999997408,2.091121e-05,417.9599999997408,0.0002412525,417.9599999997408,0.003748958,417.9599999997408,5.433755e-06
417.97499999974076,2.082346e-05,417.97499999974076,0.0002417995,417.97499999974076,0.003693138,417.97499999974076,5.307859e-06
417.98999999974075,2.063522e-05,417.98999999974075,0.0002447836,417.98999999974075,0.003534682,417.98999999974075,5.381656e-06
418.00499999974073,2.057027e-05,418.00499999974073,0.0002461987,418.00499999974073,0.003274577,418.00499999974073,4.899358e-06
418.0199999997407,2.070813e-05,418.0199999997407,0.0002455856,418.0199999997407,0.002974885,418.0199999997407,4.953686e-06
418.0349999997407,2.087548e-05,418.0349999997407,0.0002463394,418.0349999997407,0.002769246,418.0349999997407,4.953686e-06
418.0499999997407,2.067682e-05,418.0499999997407,0.0002459639,418.0499999997407,0.002941304,418.0499999997407,4.998978e-06
418.0649999997407,2.059559e-05,418.0649999997407,0.0002459629,418.0649999997407,0.003165731,418.0649999997407,5.041069e-06
418.07999999974066,2.080721e-05,418.07999999974066,0.000244882,418.07999999974066,0.00319213,418.07999999974066,5.057808e-06
418.09499999974065,2.061336e-05,418.09499999974065,0.0002452517,418.09499999974065,0.003104513,418.09499999974065,5.085583e-06
418.10999999974064,2.057643e-05,418.10999999974064,0.0002448676,418.10999999974064,0.00305758,418.10999999974064,5.184341e-06
418.1249999997406,2.048449e-05,418.1249999997406,0.0002437361,418.1249999997406,0.003064665,418.1249999997406,5.159829e-06
418.1399999997406,2.027922e-05,418.1399999997406,0.0002453726,418.1399999997406,0.003114335,418.1399999997406,5.265225e-06
418.1549999997406,1.774763e-05,418.1549999997406,0.0002887028,418.1549999997406,0.003134192,418.1549999997406,5.246463e-06
418.1699999997406,1.705715e-05,418.1699999997406,0.0002571867,418.1699999997406,0.003040199,418.1699999997406,5.412975e-06
418.18499999974057,1.68017e-05,418.18499999974057,0.0002586806,418.18499999974057,0.002822248,418.18499999974057,5.536481e-06
418.19999999974056,1.153773e-05,418.19999999974056,0.0002631776,418.19999999974056,0.002642888,418.19999999974056,5.431162e-06
418.21499999974054,1.017255e-05,418.21499999974054,0.0002632532,418.21499999974054,0.002406584,418.21499999974054,5.622323e-06
418.2299999997405,1.036596e-05,418.2299999997405,0.0002667604,418.2299999997405,0.002097996,418.2299999997405,5.696992e-06
418.2449999997405,1.118309e-05,418.2449999997405,0.0002707801,418.2449999997405,0.001686734,418.2449999997405,5.736418e-06
418.2599999997405,1.095144e-05,418.2599999997405,0.0002717707,418.2599999997405,0.001296747,418.2599999997405,5.746233e-06
418.2749999997405,1.090762e-05,418.2749999997405,0.0002729132,418.2749999997405,0.001210622,418.2749999997405,5.604757e-06
418.2899999997405,1.039175e-05,418.2899999997405,0.0002723735,418.2899999997405,0.001229333,418.2899999997405,5.493057e-06
418.30499999974046,1.01767e-05,418.30499999974046,0.0002728261,418.30499999974046,0.001119451,418.30499999974046,5.418178e-06
418.31999999974045,1.020573e-05,418.31999999974045,0.0002727468,418.31999999974045,0.0008670944,418.31999999974045,5.469929e-06
418.33499999974043,1.020849e-05,418.33499999974043,0.0002723228,418.33499999974043,0.0006840699,418.33499999974043,5.901041e-06
418.3499999997404,1.067658e-05,418.3499999997404,0.0002718965,418.3499999997404,0.000587204,418.3499999997404,6.33617e-06
418.3649999997404,1.095015e-05,418.3649999997404,0.0002718037,418.3649999997404,0.000499198,418.3649999997404,6.302733e-06
418.3799999997404,1.111613e-05,418.3799999997404,0.0002712525,418.3799999997404,0.0004536648,418.3799999997404,6.237581e-06
418.3949999997404,1.102196e-05,418.3949999997404,0.0002662101,418.3949999997404,0.0003842765,418.3949999997404,6.246608e-06
418.40999999974036,1.09938e-05,418.40999999974036,0.0002150506,418.40999999974036,0.0002856751,418.40999999974036,6.167175e-06
418.42499999974035,1.07777e-05,418.42499999974035,0.000210821,418.42499999974035,0.0001835885,418.42499999974035,6.086705e-06
418.43999999974034,1.074628e-05,418.43999999974034,0.0001634633,418.43999999974034,0.000181523,418.43999999974034,6.075122e-06
418.4549999997403,1.079859e-05,418.4549999997403,9.736095e-05,418.4549999997403,0.0001740852,418.4549999997403,6.11902e-06
418.4699999997403,1.041748e-05,418.4699999997403,9.189819e-05,418.4699999997403,0.0001197366,418.4699999997403,6.180865e-06
418.4849999997403,9.895991e-06,418.4849999997403,7.541625e-05,418.4849999997403,0.0001149232,418.4849999997403,5.962784e-06
418.4999999997403,9.23781e-06,418.4999999997403,5.536888e-05,418.4999999997403,0.0001087221,418.4999999997403,5.848288e-06
418.51499999974027,9.003043e-06,418.51499999974027,4.739386e-05,418.51499999974027,0.0001141656,418.51499999974027,5.807196e-06
418.52999999974026,8.930779e-06,418.52999999974026,4.270238e-05,418.52999999974026,0.0001207432,418.52999999974026,5.850696e-06
418.54499999974024,8.770023e-06,418.54499999974024,3.862174e-05,418.54499999974024,0.0001132752,418.54499999974024,5.889093e-06
418.5599999997402,8.886504e-06,418.5599999997402,3.593072e-05,418.5599999997402,0.0001161351,418.5599999997402,5.943854e-06
418.5749999997402,8.258797e-06,418.5749999997402,3.668226e-05,418.5749999997402,0.000131122,418.5749999997402,5.433755e-06
418.5899999997402,8.275836e-06,418.5899999997402,3.579205e-05,418.5899999997402,0.0001390276,418.5899999997402,5.238403e-06
418.6049999997402,7.775606e-06,418.6049999997402,3.584593e-05,418.6049999997402,0.000144882,418.6049999997402,4.675739e-06
418.6199999997402,7.564397e-06,418.6199999997402,3.565127e-05,418.6199999997402,0.0001447097,418.6199999997402,4.75046e-06
418.63499999974016,6.435437e-06,418.63499999974016,3.577552e-05,418.63499999974016,0.0001416079,418.63499999974016,4.788854e-06
418.64999999974015,6.457289e-06,418.64999999974015,3.505237e-05,418.64999999974015,0.0001371897,418.64999999974015,4.666692e-06
418.66499999974013,6.455107e-06,418.66499999974013,3.570418e-05,418.66499999974013,0.0001461035,418.66499999974013,4.639445e-06
418.6799999997401,6.398117e-06,418.6799999997401,3.574755e-05,418.6799999997401,0.0001467313,418.6799999997401,4.636408e-06
418.6949999997401,6.251117e-06,418.6949999997401,3.430988e-05,418.6949999997401,0.0001449499,418.6949999997401,4.412233e-06
418.7099999997401,6.08439e-06,418.7099999997401,2.897041e-05,418.7099999997401,0.0001420628,418.7099999997401,4.399444e-06
418.7249999997401,6.16489e-06,418.7249999997401,2.821316e-05,418.7249999997401,0.0001413823,418.7249999997401,4.29248e-06
418.73999999974006,6.437625e-06,418.73999999974006,2.273722e-05,418.73999999974006,0.0001417082,418.73999999974006,4.305587e-06
418.75499999974005,6.393712e-06,418.75499999974005,2.224303e-05,418.75499999974005,0.0001366154,418.75499999974005,4.39624e-06
418.76999999974004,6.174023e-06,418.76999999974004,2.172205e-05,418.76999999974004,0.0001216476,418.76999999974004,4.321914e-06
418.78499999974,6.13052e-06,418.78499999974,2.065705e-05,418.78499999974,0.0001172014,418.78499999974,4.305587e-06
418.79999999974,6.054217e-06,418.79999999974,2.146174e-05,418.79999999974,0.0001173433,418.79999999974,4.389827e-06
418.81499999974,5.920107e-06,418.81499999974,2.095361e-05,418.81499999974,0.0001143328,418.81499999974,4.321914e-06
418.82999999974,5.872325e-06,418.82999999974,2.004797e-05,418.82999999974,0.0001085189,418.82999999974,4.48192e-06
418.84499999973997,6.293787e-06,418.84499999973997,2.2281e-05,418.84499999973997,9.841492e-05,418.84499999973997,4.453544e-06
418.85999999973996,6.743279e-06,418.85999999973996,2.187971e-05,418.85999999973996,9.664211e-05,418.85999999973996,4.434525e-06
418.87499999973994,6.610363e-06,418.87499999973994,2.204328e-05,418.87499999973994,0.0001052601,418.87499999973994,4.383405e-06
418.8899999997399,6.569749e-06,418.8899999997399,2.189001e-05,418.8899999997399,0.0001062341,418.8899999997399,4.405843e-06
418.9049999997399,6.665538e-06,418.9049999997399,2.31492e-05,418.9049999997399,0.0001091517,418.9049999997399,4.466178e-06
418.9199999997399,6.680315e-06,418.9199999997399,2.309071e-05,418.9199999997399,0.000102197,418.9199999997399,4.522595e-06
418.9349999997399,7.190141e-06,418.9349999997399,2.349949e-05,418.9349999997399,0.0001101159,418.9349999997399,4.565993e-06
418.9499999997399,7.56626e-06,418.9499999997399,2.305897e-05,418.9499999997399,0.0001112611,418.9499999997399,4.494475e-06
418.96499999973986,8.088174e-06,418.96499999973986,2.110433e-05,418.96499999973986,0.0001183885,418.96499999973986,4.67875e-06
418.97999999973985,7.967094e-06,418.97999999973985,2.110767e-05,418.97999999973985,0.0001766466,418.97999999973985,5.093886e-06
418.99499999973983,8.741063e-06,418.99499999973983,2.11723e-05,418.99499999973983,0.0001964433,418.99499999973983,5.124215e-06
419.0099999997398,9.020237e-06,419.0099999997398,2.147749e-05,419.0099999997398,0.0002022536,419.0099999997398,5.299891e-06
419.0249999997398,9.348464e-06,419.0249999997398,3.941599e-05,419.0249999997398,0.0002199799,419.0249999997398,5.587136e-06
419.0399999997398,1.140511e-05,419.0399999997398,5.27084e-05,419.0399999997398,0.0002377045,419.0399999997398,5.701935e-06
419.0549999997398,1.16253e-05,419.0549999997398,7.230816e-05,419.0549999997398,0.0002425511,419.0549999997398,5.594695e-06
419.06999999973976,1.157795e-05,419.06999999973976,7.594153e-05,419.06999999973976,0.000243573,419.06999999973976,5.795054e-06
419.08499999973975,1.160468e-05,419.08499999973975,9.471933e-05,419.08499999973975,0.0002436946,419.08499999973975,6.016875e-06
419.09999999973974,1.140264e-05,419.09999999973974,9.931045e-05,419.09999999973974,0.0002433454,419.09999999973974,6.082075e-06
419.1149999997397,1.13878e-05,419.1149999997397,0.0001109423,419.1149999997397,0.0002527245,419.1149999997397,6.121322e-06
419.1299999997397,1.143841e-05,419.1299999997397,0.0001132271,419.1299999997397,0.0002736786,419.1299999997397,6.123622e-06
419.1449999997397,1.142485e-05,419.1449999997397,0.0001134108,419.1449999997397,0.0002769858,419.1449999997397,6.000464e-06
419.1599999997397,1.139522e-05,419.1599999997397,0.0001144385,419.1599999997397,0.0002807305,419.1599999997397,5.95096e-06
419.17499999973967,1.144456e-05,419.17499999973967,0.0001166986,419.17499999973967,0.0002955115,419.17499999973967,5.976941e-06
419.18999999973965,1.108314e-05,419.18999999973965,0.0001170941,419.18999999973965,0.000302045,419.18999999973965,5.988714e-06
419.20499999973964,1.068977e-05,419.20499999973964,0.0001170631,419.20499999973964,0.0003009199,419.20499999973964,6.028569e-06
419.2199999997396,1.078293e-05,419.2199999997396,0.0001170835,419.2199999997396,0.000299328,419.2199999997396,5.826569e-06
419.2349999997396,1.079207e-05,419.2349999997396,0.000117395,419.2349999997396,0.0002893592,419.2349999997396,5.768253e-06
419.2499999997396,1.052644e-05,419.2499999997396,0.0001173932,419.2499999997396,0.0002927802,419.2499999997396,5.662269e-06
419.2649999997396,1.010168e-05,419.2649999997396,0.0001174494,419.2649999997396,0.0002823039,419.2649999997396,5.612292e-06
419.2799999997396,9.777128e-06,419.2799999997396,0.0001081168,419.2799999997396,0.0002771733,419.2799999997396,5.438937e-06
419.29499999973956,8.747506e-06,419.29499999973956,0.0001039623,419.29499999973956,0.0002699075,419.29499999973956,5.75603e-06
419.30999999973955,9.156633e-06,419.30999999973955,0.0001036696,419.30999999973955,0.0002695277,419.30999999973955,6.070483e-06
419.32499999973953,9.957012e-06,419.32499999973953,0.0001156618,419.32499999973953,0.0002819988,419.32499999973953,5.929618e-06
419.3399999997395,1.012953e-05,419.3399999997395,0.0001093965,419.3399999997395,0.000307739,419.3399999997395,5.960421e-06
419.3549999997395,9.873189e-06,419.3549999997395,0.0001041635,419.3549999997395,0.0003173169,419.3549999997395,5.955692e-06
419.3699999997395,1.010307e-05,419.3699999997395,9.53496e-05,419.3699999997395,0.000301771,419.3699999997395,5.877121e-06
419.3849999997395,1.010447e-05,419.3849999997395,9.516859e-05,419.3849999997395,0.0002807914,419.3849999997395,5.931993e-06
419.39999999973946,1.047277e-05,419.39999999973946,9.5432e-05,419.39999999973946,0.0002886062,419.39999999973946,6.009847e-06
419.41499999973945,1.057317e-05,419.41499999973945,9.378418e-05,419.41499999973945,0.0003057727,419.41499999973945,6.026232e-06
419.42999999973944,1.056517e-05,419.42999999973944,9.142084e-05,419.42999999973944,0.0002832348,419.42999999973944,6.061194e-06
419.4449999997394,1.0972e-05,419.4449999997394,9.141191e-05,419.4449999997394,0.0002816843,419.4449999997394,5.986361e-06
419.4599999997394,1.093599e-05,419.4599999997394,9.145997e-05,419.4599999997394,0.0002854503,419.4599999997394,6.026232e-06
419.4749999997394,1.147038e-05,419.4749999997394,9.152571e-05,419.4749999997394,0.0002902067,419.4749999997394,6.035575e-06
419.4899999997394,1.120951e-05,419.4899999997394,9.139418e-05,419.4899999997394,0.0002753178,419.4899999997394,5.867525e-06
419.50499999973937,1.130337e-05,419.50499999973937,9.148291e-05,419.50499999973937,0.0002790452,419.50499999973937,5.812045e-06
419.51999999973935,1.142238e-05,419.51999999973935,9.153295e-05,419.51999999973935,0.0002898465,419.51999999973935,5.841057e-06
419.53499999973934,1.126592e-05,419.53499999973934,9.144872e-05,419.53499999973934,0.0002899037,419.53499999973934,5.765811e-06
419.5499999997393,1.081293e-05,419.5499999997393,9.047043e-05,419.5499999997393,0.0002758758,419.5499999997393,5.410373e-06
419.5649999997393,1.05785e-05,419.5649999997393,7.62237e-05,419.5649999997393,0.0002760226,419.5649999997393,5.251831e-06
419.5799999997393,1.042964e-05,419.5799999997393,4.157751e-05,419.5799999997393,0.0002800382,419.5799999997393,5.154366e-06
419.5949999997393,1.050768e-05,419.5949999997393,3.056516e-05,419.5949999997393,0.0002830121,419.5949999997393,4.876302e-06
419.6099999997393,1.095401e-05,419.6099999997393,3.025666e-05,419.6099999997393,0.0002836403,419.6099999997393,4.928026e-06
419.62499999973926,1.141004e-05,419.62499999973926,2.423722e-05,419.62499999973926,0.0003146102,419.62499999973926,5.02147e-06
419.63999999973925,1.1705e-05,419.63999999973925,2.004376e-05,419.63999999973925,0.0003393536,419.63999999973925,4.907976e-06
419.65499999973923,1.271783e-05,419.65499999973923,1.965557e-05,419.65499999973923,0.0003362904,419.65499999973923,5.055022e-06
419.6699999997392,1.299179e-05,419.6699999997392,2.046797e-05,419.6699999997392,0.0003330606,419.6699999997392,5.184341e-06
419.6849999997392,1.330781e-05,419.6849999997392,2.020894e-05,419.6849999997392,0.0003360341,419.6849999997392,5.238403e-06
419.6999999997392,1.338275e-05,419.6999999997392,2.036102e-05,419.6999999997392,0.0003365848,419.6999999997392,5.219545e-06
419.7149999997392,1.348551e-05,419.7149999997392,2.018871e-05,419.7149999997392,0.0003269193,419.7149999997392,5.173461e-06
419.72999999973916,1.371853e-05,419.72999999973916,1.956866e-05,419.72999999973916,0.0003258494,419.72999999973916,5.102175e-06
419.74499999973915,1.406332e-05,419.74499999973915,1.83609e-05,419.74499999973915,0.0003289336,419.74499999973915,5.154366e-06
419.75999999973914,1.417805e-05,419.75999999973914,1.877287e-05,419.75999999973914,0.0003241709,419.75999999973914,5.157098e-06
419.7749999997391,1.43322e-05,419.7749999997391,1.7373e-05,419.7749999997391,0.000315205,419.7749999997391,5.024275e-06
419.7899999997391,1.421575e-05,419.7899999997391,1.870597e-05,419.7899999997391,0.0003227149,419.7899999997391,5.071714e-06
419.8049999997391,1.541657e-05,419.8049999997391,1.902851e-05,419.8049999997391,0.0003444068,419.8049999997391,4.993339e-06
419.8199999997391,1.571521e-05,419.8199999997391,1.964912e-05,419.8199999997391,0.00034397,419.8199999997391,5.077266e-06
419.83499999973907,1.567302e-05,419.83499999973907,2.114301e-05,419.83499999973907,0.0003422599,419.83499999973907,5.096651e-06
419.84999999973905,1.559553e-05,419.84999999973905,2.1648e-05,419.84999999973905,0.0003295733,419.84999999973905,5.082812e-06
419.86499999973904,1.584198e-05,419.86499999973904,2.219675e-05,419.86499999973904,0.000321405,419.86499999973904,5.219545e-06
419.879999999739,1.578408e-05,419.879999999739,2.22031e-05,419.879999999739,0.0003013113,419.879999999739,5.219545e-06
419.894999999739,1.594744e-05,419.894999999739,2.257494e-05,419.894999999739,0.000274385,419.894999999739,5.214144e-06
419.909999999739,1.554578e-05,419.909999999739,2.353723e-05,419.909999999739,0.0002793088,419.909999999739,5.102175e-06
419.924999999739,1.618853e-05,419.924999999739,2.305469e-05,419.924999999739,0.0002828548,419.924999999739,4.939447e-06
419.939999999739,1.614584e-05,419.939999999739,2.30962e-05,419.939999999739,0.0002905641,419.939999999739,4.864733e-06
419.95499999973896,1.642008e-05,419.95499999973896,2.248115e-05,419.95499999973896,0.0002901996,419.95499999973896,5.066156e-06
419.96999999973895,1.691201e-05,419.96999999973895,2.252059e-05,419.96999999973895,0.0002922407,419.96999999973895,4.950841e-06
419.98499999973893,1.685193e-05,419.98499999973893,2.253372e-05,419.98499999973893,0.0002899822,419.98499999973893,5.066156e-06
419.9999999997389,1.720598e-05,419.9999999997389,2.355817e-05,419.9999999997389,0.000295143,419.9999999997389,5.176183e-06
420.0149999997389,1.723298e-05,420.0149999997389,2.327543e-05,420.0149999997389,0.0002975947,420.0149999997389,5.230329e-06
420.0299999997389,1.802954e-05,420.0299999997389,2.319419e-05,420.0299999997389,0.0003020785,420.0299999997389,5.241091e-06
420.0449999997389,1.790724e-05,420.0449999997389,2.179456e-05,420.0449999997389,0.0003102144,420.0449999997389,5.249148e-06
420.05999999973886,1.751433e-05,420.05999999973886,2.172594e-05,420.05999999973886,0.0002884362,420.05999999973886,5.302549e-06
420.07499999973885,1.779994e-05,420.07499999973885,2.110566e-05,420.07499999973885,0.0003200912,420.07499999973885,5.433755e-06
420.08999999973884,1.830173e-05,420.08999999973884,2.007255e-05,420.08999999973884,0.0003105598,420.08999999973884,5.379038e-06
420.1049999997388,1.878037e-05,420.1049999997388,2.019011e-05,420.1049999997388,0.0003344054,420.1049999997388,5.449287e-06
420.1199999997388,1.864336e-05,420.1199999997388,1.951459e-05,420.1199999997388,0.0003505025,420.1199999997388,5.315815e-06
420.1349999997388,1.874959e-05,420.1349999997388,1.985168e-05,420.1349999997388,0.0003537731,420.1349999997388,5.48022e-06
420.1499999997388,1.840917e-05,420.1499999997388,2.062771e-05,420.1499999997388,0.0003617962,420.1499999997388,5.407768e-06
420.16499999973877,1.868562e-05,420.16499999973877,1.956002e-05,420.16499999973877,0.0003672942,420.16499999973877,5.273245e-06
420.17999999973875,1.809894e-05,420.17999999973875,1.98935e-05,420.17999999973875,0.0003604533,420.17999999973875,5.307859e-06
420.19499999973874,1.817971e-05,420.19499999973874,1.985381e-05,420.19499999973874,0.0003544852,420.19499999973874,5.428567e-06
420.2099999997387,1.796693e-05,420.2099999997387,2.000084e-05,420.2099999997387,0.0003811695,420.2099999997387,5.379038e-06
420.2249999997387,1.737625e-05,420.2249999997387,2.009219e-05,420.2249999997387,0.0003831275,420.2249999997387,5.61731e-06
420.2399999997387,1.791904e-05,420.2399999997387,1.981403e-05,420.2399999997387,0.0004113641,420.2399999997387,5.726587e-06
420.2549999997387,1.761937e-05,420.2549999997387,1.903739e-05,420.2549999997387,0.0004157803,420.2549999997387,5.505864e-06
420.2699999997387,1.767684e-05,420.2699999997387,1.892682e-05,420.2699999997387,0.0004120503,420.2699999997387,5.599728e-06
420.28499999973866,1.772698e-05,420.28499999973866,1.920096e-05,420.28499999973866,0.0004077042,420.28499999973866,5.56693e-06
420.29999999973865,1.805921e-05,420.29999999973865,1.909281e-05,420.29999999973865,0.0003999739,420.29999999973865,5.599728e-06
420.31499999973863,1.805374e-05,420.31499999973863,1.951243e-05,420.31499999973863,0.0003946665,420.31499999973863,5.446701e-06
420.3299999997386,1.755931e-05,420.3299999997386,1.834938e-05,420.3299999997386,0.0003685851,420.3299999997386,5.392116e-06
420.3449999997386,1.729499e-05,420.3449999997386,1.896845e-05,420.3449999997386,0.000363336,420.3449999997386,5.425972e-06
420.3599999997386,1.703732e-05,420.3599999997386,1.865091e-05,420.3599999997386,0.0003413702,420.3599999997386,5.389503e-06
420.3749999997386,1.715597e-05,420.3749999997386,1.873531e-05,420.3749999997386,0.000317428,420.3749999997386,5.420777e-06
420.38999999973856,1.693032e-05,420.38999999973856,1.791668e-05,420.38999999973856,0.0003157709,420.38999999973856,5.329048e-06
420.40499999973855,1.694612e-05,420.40499999973855,1.677989e-05,420.40499999973855,0.0002942343,420.40499999973855,5.368553e-06
420.41999999973854,1.650906e-05,420.41999999973854,1.683102e-05,420.41999999973854,0.0002928761,420.41999999973854,5.451871e-06
420.4349999997385,1.629781e-05,420.4349999997385,1.637541e-05,420.4349999997385,0.0002878383,420.4349999997385,5.22494e-06
420.4499999997385,1.588372e-05,420.4499999997385,1.638745e-05,420.4499999997385,0.0002639508,420.4499999997385,5.495621e-06
420.4649999997385,1.581528e-05,420.4649999997385,1.632803e-05,420.4649999997385,0.0002413269,420.4649999997385,5.920107e-06
420.4799999997385,1.52281e-05,420.4799999997385,1.564243e-05,420.4799999997385,0.0002234351,420.4799999997385,5.719203e-06
420.49499999973847,1.499693e-05,420.49499999973847,1.559915e-05,420.49499999973847,0.0001638335,420.49499999973847,5.807196e-06
420.50999999973845,1.46395e-05,420.50999999973845,1.783867e-05,420.50999999973845,0.0001628921,420.50999999973845,5.753582e-06
420.52499999973844,1.549404e-05,420.52499999973844,1.925736e-05,420.52499999973844,0.0002548515,420.52499999973844,6.371642e-06
420.5399999997384,1.453908e-05,420.5399999997384,1.984032e-05,420.5399999997384,0.0002533735,420.5399999997384,6.442001e-06
420.5549999997384,1.430269e-05,420.5549999997384,2.0095e-05,420.5549999997384,0.0002697219,420.5549999997384,6.608231e-06
420.5699999997384,1.416214e-05,420.5699999997384,1.940021e-05,420.5699999997384,0.0003254591,420.5699999997384,7.033664e-06
420.5849999997384,1.375647e-05,420.5849999997384,1.897142e-05,420.5849999997384,0.000368573,420.5849999997384,7.14888e-06
420.5999999997384,1.349491e-05,420.5999999997384,1.849543e-05,420.5999999997384,0.0003845606,420.5999999997384,7.444261e-06
420.61499999973836,1.329828e-05,420.61499999973836,1.855778e-05,420.61499999973836,0.0003904938,420.61499999973836,7.513949e-06
420.62999999973835,1.402018e-05,420.62999999973835,1.831096e-05,420.62999999973835,0.0004060661,420.62999999973835,7.658783e-06
420.64499999973833,1.391429e-05,420.64499999973833,1.816033e-05,420.64499999973833,0.0004292693,420.64499999973833,8.060259e-06
420.6599999997383,1.37892e-05,420.6599999997383,1.801156e-05,420.6599999997383,0.0004357515,420.6599999997383,8.063755e-06
420.6749999997383,1.447791e-05,420.6749999997383,1.799513e-05,420.6749999997383,0.0004334242,420.6749999997383,8.041013e-06
420.6899999997383,1.426521e-05,420.6899999997383,1.780231e-05,420.6899999997383,0.0004322692,420.6899999997383,7.851327e-06
420.7049999997383,1.402018e-05,420.7049999997383,1.772857e-05,420.7049999997383,0.000440662,420.7049999997383,7.653262e-06
420.71999999973826,1.406633e-05,420.71999999973826,1.786944e-05,420.71999999973826,0.000458789,420.71999999973826,7.579281e-06
420.73499999973825,1.447499e-05,420.73499999973825,1.768003e-05,420.73499999973825,0.0004672135,420.73499999973825,7.612662e-06
420.74999999973824,1.44672e-05,420.74999999973824,1.759938e-05,420.74999999973824,0.0004670566,420.74999999973824,7.472591e-06
420.7649999997382,1.305884e-05,420.7649999997382,1.2465e-05,420.7649999997382,0.000442173,420.7649999997382,7.415822e-06
420.7799999997382,1.301671e-05,420.7799999997382,1.239928e-05,420.7799999997382,0.0004104452,420.7799999997382,7.031661e-06
420.7949999997382,1.33659e-05,420.7949999997382,1.100661e-05,420.7949999997382,0.0004176879,420.7949999997382,7.089519e-06
420.8099999997382,1.305021e-05,420.8099999997382,1.135435e-05,420.8099999997382,0.0004102448,420.8099999997382,6.918566e-06
420.82499999973817,1.300913e-05,420.82499999973817,1.157551e-05,420.82499999973817,0.0003792668,420.82499999973817,6.759971e-06
420.83999999973815,1.348029e-05,420.83999999973815,1.181759e-05,420.83999999973815,0.0003578228,420.83999999973815,6.809799e-06
420.85499999973814,1.31994e-05,420.85499999973814,1.142732e-05,420.85499999973814,0.0003594964,420.85499999973814,6.616753e-06
420.8699999997381,1.297443e-05,420.8699999997381,1.129963e-05,420.8699999997381,0.0003766728,420.8699999997381,6.459471e-06
420.8849999997381,1.159618e-05,420.8849999997381,1.114018e-05,420.8849999997381,0.0003707111,420.8849999997381,6.479067e-06
420.8999999997381,1.157551e-05,420.8999999997381,1.09797e-05,420.8999999997381,0.0003644192,420.8999999997381,6.089019e-06
420.9149999997381,1.124966e-05,420.9149999997381,1.142978e-05,420.9149999997381,0.000358304,420.9149999997381,5.991066e-06
420.9299999997381,1.08701e-05,420.9299999997381,1.130462e-05,420.9299999997381,0.000356671,420.9299999997381,6.01219e-06
420.94499999973806,1.109838e-05,420.94499999973806,1.127217e-05,420.94499999973806,0.0003573323,420.94499999973806,5.962784e-06
420.95999999973805,1.077378e-05,420.95999999973805,1.15743e-05,420.95999999973805,0.0003460201,420.95999999973805,5.81689e-06
420.97499999973803,1.036189e-05,420.97499999973803,1.143348e-05,420.97499999973803,0.0003227108,420.97499999973803,5.634837e-06
420.989999999738,1.035237e-05,420.989999999738,1.124966e-05,420.989999999738,0.0003192993,420.989999999738,5.649817e-06
421.004999999738,1.081293e-05,421.004999999738,1.075808e-05,421.004999999738,0.0003201427,421.004999999738,5.736418e-06
421.019999999738,1.090504e-05,421.019999999738,1.100021e-05,421.019999999738,0.0003196997,421.019999999738,5.577042e-06
421.034999999738,1.027725e-05,421.034999999738,1.091924e-05,421.034999999738,0.0003126134,421.034999999738,5.587136e-06
421.04999999973796,9.92016e-06,421.04999999973796,1.005135e-05,421.04999999973796,0.0003099636,421.04999999973796,5.197909e-06
421.06499999973795,9.808774e-06,421.06499999973795,9.739596e-06,421.06499999973795,0.000288184,421.06499999973795,4.967884e-06
421.07999999973794,9.61001e-06,421.07999999973794,9.12427e-06,421.07999999973794,0.0002855388,421.07999999973794,4.68176e-06
421.0949999997379,8.832443e-06,421.0949999997379,9.066966e-06,421.0949999997379,0.0002535464,421.0949999997379,4.491339e-06
421.1099999997379,9.029603e-06,421.1099999997379,9.170469e-06,421.1099999997379,0.0002168452,421.1099999997379,4.389827e-06
421.1249999997379,9.205732e-06,421.1249999997379,9.624658e-06,421.1249999997379,0.0001891278,421.1249999997379,4.386617e-06
421.1399999997379,9.423506e-06,421.1399999997379,9.774246e-06,421.1399999997379,0.0001622489,421.1399999997379,4.223002e-06
421.15499999973787,1.05358e-05,421.15499999973787,9.833158e-06,421.15499999973787,0.0001534968,421.15499999973787,4.080498e-06
421.16999999973785,1.031283e-05,421.16999999973785,9.589467e-06,421.16999999973785,0.0001509061,421.16999999973785,4.550541e-06
421.18499999973784,1.098098e-05,421.18499999973784,9.680115e-06,421.18499999973784,0.0001558743,421.18499999973784,4.741556e-06
421.1999999997378,1.109457e-05,421.1999999997378,9.430977e-06,421.1999999997378,0.0001727214,421.1999999997378,4.723696e-06
421.2149999997378,1.166401e-05,421.2149999997378,9.062304e-06,421.2149999997378,0.000171129,421.2149999997378,5.046655e-06
421.2299999997378,1.171944e-05,421.2299999997378,8.819675e-06,421.2299999997378,0.0001701455,421.2299999997378,5.113207e-06
421.2449999997378,1.152184e-05,421.2449999997378,8.763595e-06,421.2449999997378,0.0001642736,421.2449999997378,5.096651e-06
421.2599999997378,1.216762e-05,421.2599999997378,1.033603e-05,421.2599999997378,0.0001822486,421.2599999997378,5.365928e-06
421.27499999973776,1.222191e-05,421.27499999973776,1.052911e-05,421.27499999973776,0.0002126371,421.27499999973776,5.637336e-06
421.28999999973774,1.226563e-05,421.28999999973774,1.075415e-05,421.28999999973774,0.0002325779,421.28999999973774,5.657291e-06
421.30499999973773,1.241631e-05,421.30499999973773,1.164588e-05,421.30499999973773,0.0002434986,421.30499999973773,5.743781e-06
421.3199999997377,1.439497e-05,421.3199999997377,1.380043e-05,421.3199999997377,0.000339484,421.3199999997377,6.642251e-06
421.3349999997377,1.51381e-05,421.3349999997377,1.409334e-05,421.3349999997377,0.0003837323,421.3349999997377,7.802733e-06
421.3499999997377,1.639518e-05,421.3499999997377,1.540011e-05,421.3499999997377,0.000392075,421.3499999997377,7.929877e-06
421.3649999997377,1.668053e-05,421.3649999997377,1.535889e-05,421.3649999997377,0.0004140802,421.3649999997377,8.565246e-06
421.37999999973766,1.651418e-05,421.37999999973766,1.514089e-05,421.37999999973766,0.0004152844,421.37999999973766,8.843601e-06
421.39499999973765,1.633838e-05,421.39499999973765,1.519105e-05,421.39499999973765,0.0004175416,421.39499999973765,8.976404e-06
421.40999999973764,1.582686e-05,421.40999999973764,1.50775e-05,421.40999999973764,0.0004190161,421.40999999973764,8.963841e-06
421.4249999997376,1.554215e-05,421.4249999997376,1.50859e-05,421.4249999997376,0.0004189649,421.4249999997376,8.702299e-06
421.4399999997376,1.53286e-05,421.4399999997376,1.522902e-05,421.4399999997376,0.0004120276,421.4399999997376,9.010862e-06
421.4549999997376,1.483354e-05,421.4549999997376,1.550949e-05,421.4549999997376,0.000408887,421.4549999997376,9.040516e-06
421.4699999997376,1.51027e-05,421.4699999997376,1.549858e-05,421.4699999997376,0.0004091885,421.4699999997376,8.892842e-06
421.48499999973757,1.503633e-05,421.48499999973757,1.55222e-05,421.48499999973757,0.000408798,421.48499999973757,8.959125e-06
421.49999999973755,1.507376e-05,421.49999999973755,1.502884e-05,421.49999999973755,0.0004104345,421.49999999973755,8.930779e-06
421.51499999973754,1.389402e-05,421.51499999973754,1.441453e-05,421.51499999973754,0.0003925772,421.51499999973754,8.643829e-06
421.5299999997375,1.452357e-05,421.5299999997375,1.399001e-05,421.5299999997375,0.0003722863,421.5299999997375,8.609537e-06
421.5449999997375,1.477645e-05,421.5449999997375,1.42879e-05,421.5449999997375,0.0003623197,421.5449999997375,8.58824e-06
421.5599999997375,1.454489e-05,421.5599999997375,1.272005e-05,421.5599999997375,0.0003461254,421.5599999997375,8.51411e-06
421.5749999997375,1.303833e-05,421.5749999997375,1.184259e-05,421.5749999997375,0.0002569086,421.5749999997375,7.515824e-06
421.5899999997375,1.73316e-05,421.5899999997375,1.180327e-05,421.5899999997375,0.0001982696,421.5899999997375,6.554722e-06
421.60499999973746,1.686029e-05,421.60499999973746,1.170741e-05,421.60499999973746,0.0001771193,421.60499999973746,6.345057e-06
421.61999999973744,2.000155e-05,421.61999999973744,1.420385e-05,421.61999999973744,0.0002350515,421.61999999973744,6.409116e-06
421.63499999973743,2.295795e-05,421.63499999973743,1.425138e-05,421.63499999973743,0.0002555055,421.63499999973743,6.494269e-06
421.6499999997374,2.336423e-05,421.6499999997374,1.438714e-05,421.6499999997374,0.0002576326,421.6499999997374,6.644371e-06
421.6649999997374,2.463098e-05,421.6649999997374,1.460578e-05,421.6649999997374,0.0002850486,421.6649999997374,7.061647e-06
421.6799999997374,2.584006e-05,421.6799999997374,1.458454e-05,421.6799999997374,0.0003243322,421.6799999997374,7.410121e-06
421.6949999997374,2.626345e-05,421.6949999997374,1.450318e-05,421.6949999997374,0.0003412395,421.6949999997374,7.333686e-06
421.70999999973736,2.809808e-05,421.70999999973736,1.469999e-05,421.70999999973736,0.000342691,421.70999999973736,7.335607e-06
421.72499999973735,2.843398e-05,421.72499999973735,1.483354e-05,421.72499999973735,0.0003444331,421.72499999973735,7.478244e-06
421.73999999973734,3.129207e-05,421.73999999973734,1.586775e-05,421.73999999973734,0.0003829792,421.73999999973734,7.982992e-06
421.7549999997373,3.157128e-05,421.7549999997373,1.576175e-05,421.7549999997373,0.0004150142,421.7549999997373,8.55208e-06
421.7699999997373,3.16804e-05,421.7699999997373,1.618592e-05,421.7699999997373,0.000422305,421.7699999997373,8.669864e-06
421.7849999997373,3.270089e-05,421.7849999997373,1.594303e-05,421.7849999997373,0.0004247351,421.7849999997373,8.749116e-06
421.7999999997373,3.273835e-05,421.7999999997373,1.557294e-05,421.7999999997373,0.0004197551,421.7999999997373,8.741063e-06
421.81499999973727,3.271769e-05,421.81499999973727,1.549222e-05,421.81499999973727,0.0004194071,421.81499999973727,8.705536e-06
421.82999999973725,3.291343e-05,421.82999999973725,1.535155e-05,421.82999999973725,0.0004205423,421.82999999973725,8.555373e-06
421.84499999973724,3.179448e-05,421.84499999973724,1.569727e-05,421.84499999973724,0.0004382148,421.84499999973724,8.723317e-06
421.8599999997372,3.527631e-05,421.8599999997372,1.553309e-05,421.8599999997372,0.0004414204,421.8599999997372,9.304663e-06
421.8749999997372,3.350811e-05,421.8749999997372,1.341114e-05,421.8749999997372,0.0003864559,421.8749999997372,8.808488e-06
421.8899999997372,3.247872e-05,421.8899999997372,1.534605e-05,421.8899999997372,0.0003801944,421.8899999997372,8.609537e-06
421.9049999997372,3.464816e-05,421.9049999997372,1.552674e-05,421.9049999997372,0.0003778116,421.9049999997372,8.5108e-06
421.9199999997372,4.469615e-05,421.9199999997372,1.522717e-05,421.9199999997372,0.0003685736,421.9199999997372,8.348708e-06
421.93499999973716,4.672755e-05,421.93499999973716,1.525583e-05,421.93499999973716,0.0003807679,421.93499999973716,8.171345e-06
421.94999999973714,4.721399e-05,421.94999999973714,1.590942e-05,421.94999999973714,0.000376382,421.94999999973714,8.424293e-06
421.96499999973713,4.701547e-05,421.96499999973713,1.586153e-05,421.96499999973713,0.0003965886,421.96499999973713,8.41258e-06
421.9799999997371,4.673358e-05,421.9799999997371,1.553943e-05,421.9799999997371,0.0004118084,421.9799999997371,8.330127e-06
421.9949999997371,4.562228e-05,421.9949999997371,1.517064e-05,421.9949999997371,0.0003719838,421.9949999997371,7.766543e-06
422.0099999997371,4.610236e-05,422.0099999997371,1.509524e-05,422.0099999997371,0.0003452202,422.0099999997371,7.485775e-06
422.0249999997371,5.339136e-05,422.0249999997371,1.481929e-05,422.0249999997371,0.0003521537,422.0249999997371,7.878193e-06
422.03999999973706,5.683624e-05,422.03999999973706,1.574476e-05,422.03999999973706,0.0003530955,422.03999999973706,7.96002e-06
422.05499999973705,6.669912e-05,422.05499999973705,1.770074e-05,422.05499999973705,0.0003871121,422.05499999973705,8.343643e-06
422.06999999973704,6.8709e-05,422.06999999973704,1.791117e-05,422.06999999973704,0.0004446465,422.06999999973704,9.073179e-06
422.084999999737,6.947357e-05,422.084999999737,1.835015e-05,422.084999999737,0.0004372232,422.084999999737,9.108818e-06
422.099999999737,7.193001e-05,422.099999999737,1.808649e-05,422.099999999737,0.0004259786,422.099999999737,8.647087e-06
422.114999999737,7.231771e-05,422.114999999737,1.802876e-05,422.114999999737,0.0004430478,422.114999999737,8.340267e-06
422.129999999737,7.510611e-05,422.129999999737,1.762257e-05,422.129999999737,0.0004485048,422.129999999737,8.352081e-06
422.14499999973697,7.641861e-05,422.14499999973697,1.667124e-05,422.14499999973697,0.0004590843,422.14499999973697,8.640569e-06
422.15999999973695,7.335665e-05,422.15999999973695,1.693032e-05,422.15999999973695,0.00046372,422.15999999973695,8.58496e-06
422.17499999973694,7.242437e-05,422.17499999973694,1.718386e-05,422.17499999973694,0.0004599937,422.17499999973694,8.687718e-06
422.1899999997369,7.455228e-05,422.1899999997369,1.71198e-05,422.1899999997369,0.0004337544,422.1899999997369,8.571823e-06
422.2049999997369,7.591407e-05,422.2049999997369,1.629694e-05,422.2049999997369,0.0004280785,422.2049999997369,9.362016e-06
422.2199999997369,8.313978e-05,422.2199999997369,1.613449e-05,422.2199999997369,0.0004039537,422.2199999997369,9.281926e-06
422.2349999997369,8.328875e-05,422.2349999997369,1.601444e-05,422.2349999997369,0.0003937094,422.2349999997369,9.253046e-06
422.2499999997369,8.401739e-05,422.2499999997369,1.553127e-05,422.2499999997369,0.0004130802,422.2499999997369,9.310717e-06
422.26499999973686,8.825678e-05,422.26499999973686,1.564333e-05,422.26499999973686,0.0004700744,422.26499999973686,9.026482e-06
422.27999999973684,8.534337e-05,422.27999999973684,1.563973e-05,422.27999999973684,0.0004734492,422.27999999973684,9.478654e-06
422.29499999973683,8.157853e-05,422.29499999973683,1.463757e-05,422.29499999973683,0.0004679748,422.29499999973683,9.898837e-06
422.3099999997368,7.622962e-05,422.3099999997368,1.234805e-05,422.3099999997368,0.0004174341,422.3099999997368,9.742488e-06
422.3249999997368,7.526593e-05,422.3249999997368,1.14544e-05,422.3249999997368,0.0003918508,422.3249999997368,9.565934e-06
422.3399999997368,7.324499e-05,422.3399999997368,1.079729e-05,422.3399999997368,0.0004680805,422.3399999997368,9.73815e-06
422.3549999997368,7.203608e-05,422.3549999997368,1.084155e-05,422.3549999997368,0.0005167908,422.3549999997368,9.590935e-06
422.36999999973676,7.113205e-05,422.36999999973676,9.824559e-06,422.36999999973676,0.0005052633,422.36999999973676,9.732362e-06
422.38499999973675,6.882187e-05,422.38499999973675,1.141375e-05,422.38499999973675,0.0005180263,422.38499999973675,1.006116e-05
422.39999999973674,6.782169e-05,422.39999999973674,1.094372e-05,422.39999999973674,0.0005399614,422.39999999973674,1.077508e-05
422.4149999997367,6.661352e-05,422.4149999997367,1.029779e-05,422.4149999997367,0.0005446323,422.4149999997367,1.074235e-05
422.4299999997367,6.372924e-05,422.4299999997367,1.015731e-05,422.4299999997367,0.0005349453,422.4299999997367,1.067526e-05
422.4449999997367,6.032563e-05,422.4449999997367,1.044583e-05,422.4449999997367,0.0005332102,422.4449999997367,1.064487e-05
422.4599999997367,5.881697e-05,422.4599999997367,1.054783e-05,422.4599999997367,0.000535535,422.4599999997367,1.000641e-05
422.47499999973667,4.866991e-05,422.47499999973667,1.210494e-05,422.47499999973667,0.000532653,422.47499999973667,1.064752e-05
422.48999999973665,4.83601e-05,422.48999999973665,1.231034e-05,422.48999999973665,0.0005416977,422.48999999973665,1.068845e-05
422.50499999973664,4.445281e-05,422.50499999973664,1.226793e-05,422.50499999973664,0.0005184186,422.50499999973664,1.117175e-05
422.5199999997366,3.906526e-05,422.5199999997366,1.29842e-05,422.5199999997366,0.0004658018,422.5199999997366,1.114018e-05
422.5349999997366,3.733203e-05,422.5349999997366,1.289165e-05,422.5349999997366,0.0004711141,422.5349999997366,1.036189e-05
422.5499999997366,3.510618e-05,422.5499999997366,1.293311e-05,422.5499999997366,0.0004692664,422.5499999997366,9.96691e-06
422.5649999997366,3.425893e-05,422.5649999997366,1.296031e-05,422.5649999997366,0.0004705983,422.5649999997366,1.072792e-05
422.5799999997366,3.512905e-05,422.5799999997366,1.300371e-05,422.5799999997366,0.0004512333,422.5799999997366,1.042153e-05
422.59499999973656,3.57771e-05,422.59499999973656,1.301995e-05,422.59499999973656,0.0003738523,422.59499999973656,1.105386e-05
422.60999999973654,3.220519e-05,422.60999999973654,1.372674e-05,422.60999999973654,0.0003166155,422.60999999973654,1.185567e-05
422.62499999973653,3.401547e-05,422.62499999973653,1.493104e-05,422.62499999973653,0.0003428228,422.62499999973653,1.206064e-05
422.6399999997365,3.547977e-05,422.6399999997365,1.507843e-05,422.6399999997365,0.0003112252,422.6399999997365,1.311482e-05
422.6549999997365,3.657766e-05,422.6549999997365,1.637111e-05,422.6549999997365,0.0002972749,422.6549999997365,1.264006e-05
422.6699999997365,3.668841e-05,422.6699999997365,1.630213e-05,422.6699999997365,0.0002951222,422.6699999997365,1.372366e-05
422.6849999997365,3.871791e-05,422.6849999997365,1.69951e-05,422.6849999997365,0.0002961017,422.6849999997365,1.437832e-05
422.69999999973646,4.072031e-05,422.69999999973646,1.730395e-05,422.69999999973646,0.0002944887,422.69999999973646,1.477455e-05
422.71499999973645,4.156057e-05,422.71499999973645,1.81417e-05,422.71499999973645,0.0002913346,422.71499999973645,1.501289e-05
422.72999999973644,4.212916e-05,422.72999999973644,1.992322e-05,422.72999999973644,0.0002848651,422.72999999973644,1.543848e-05
422.7449999997364,4.205553e-05,422.7449999997364,2.12626e-05,422.7449999997364,0.0002737972,422.7449999997364,1.56172e-05
422.7599999997364,4.260859e-05,422.7599999997364,2.116632e-05,422.7599999997364,0.0002695684,422.7599999997364,1.602235e-05
422.7749999997364,4.233363e-05,422.7749999997364,2.129636e-05,422.7749999997364,0.0002691694,422.7749999997364,1.770551e-05
422.7899999997364,4.425176e-05,422.7899999997364,2.207393e-05,422.7899999997364,0.0002643874,422.7899999997364,1.776904e-05
422.80499999973637,4.703344e-05,422.80499999973637,2.404114e-05,422.80499999973637,0.0002632726,422.80499999973637,1.857826e-05
422.81999999973635,5.025088e-05,422.81999999973635,2.514996e-05,422.81999999973635,0.0002487611,422.81999999973635,1.862824e-05
422.83499999973634,5.14271e-05,422.83499999973634,2.614356e-05,422.83499999973634,0.0002481019,422.83499999973634,1.890596e-05
422.8499999997363,5.199968e-05,422.8499999997363,2.765084e-05,422.8499999997363,0.0002383944,422.8499999997363,1.983251e-05
422.8649999997363,5.165368e-05,422.8649999997363,2.765746e-05,422.8649999997363,0.000228348,422.8649999997363,2.256621e-05
422.8799999997363,5.128172e-05,422.8799999997363,2.971643e-05,422.8799999997363,0.0001877349,422.8799999997363,2.268823e-05
422.8949999997363,4.903669e-05,422.8949999997363,3.063789e-05,422.8949999997363,0.0001796336,422.8949999997363,2.308339e-05
422.90999999973627,5.005455e-05,422.90999999973627,3.188738e-05,422.90999999973627,0.0001335087,422.90999999973627,2.330326e-05
422.92499999973626,5.003541e-05,422.92499999973626,3.269831e-05,422.92499999973626,0.0001413252,422.92499999973626,2.410259e-05
422.93999999973624,4.979524e-05,422.93999999973624,3.328582e-05,422.93999999973624,0.0001602377,422.93999999973624,2.661668e-05
422.95499999973623,5.048664e-05,422.95499999973623,3.42252e-05,422.95499999973623,0.0001598789,422.95499999973623,2.655628e-05
422.9699999997362,5.040007e-05,422.9699999997362,3.377734e-05,422.9699999997362,0.0001985707,422.9699999997362,2.613656e-05
422.9849999997362,4.986422e-05,422.9849999997362,3.220169e-05,422.9849999997362,0.0002092049,422.9849999997362,2.670439e-05
422.9999999997362,5.106618e-05,422.9999999997362,3.252683e-05,422.9999999997362,0.0002040568,422.9999999997362,2.833969e-05
423.0149999997362,5.154803e-05,423.0149999997362,3.286418e-05,423.0149999997362,0.0002053678,423.0149999997362,2.780123e-05
423.02999999973616,5.161958e-05,423.02999999973616,3.228339e-05,423.02999999973616,0.000216035,423.02999999973616,2.764625e-05
423.04499999973615,5.377466e-05,423.04499999973615,3.177808e-05,423.04499999973615,0.0002309302,423.04499999973615,2.771038e-05
423.05999999973614,5.315735e-05,423.05999999973614,3.116125e-05,423.05999999973614,0.0002371527,423.05999999973614,2.8562e-05
423.0749999997361,4.973184e-05,423.0749999997361,3.060799e-05,423.0749999997361,0.0002380968,423.0749999997361,2.831383e-05
423.0899999997361,5.025032e-05,423.0899999997361,2.857285e-05,423.0899999997361,0.0002397514,423.0899999997361,2.828297e-05
423.1049999997361,5.034582e-05,423.1049999997361,2.85245e-05,423.1049999997361,0.0002448196,423.1049999997361,2.715477e-05
423.1199999997361,5.091866e-05,423.1199999997361,2.882368e-05,423.1199999997361,0.0002482889,423.1199999997361,2.490455e-05
423.13499999973607,5.060509e-05,423.13499999973607,2.678129e-05,423.13499999973607,0.000257932,423.13499999973607,2.500897e-05
423.14999999973605,5.167385e-05,423.14999999973605,2.592388e-05,423.14999999973605,0.000261609,423.14999999973605,2.44098e-05
423.16499999973604,5.017457e-05,423.16499999973604,2.673075e-05,423.16499999973604,0.0002583116,423.16499999973604,2.499038e-05
423.179999999736,5.029879e-05,423.179999999736,2.571437e-05,423.179999999736,0.0002589324,423.179999999736,2.377779e-05
423.194999999736,5.156934e-05,423.194999999736,2.448241e-05,423.194999999736,0.0002537911,423.194999999736,2.22519e-05
423.209999999736,4.928084e-05,423.209999999736,2.314738e-05,423.209999999736,0.000244418,423.209999999736,2.219485e-05
423.224999999736,4.902779e-05,423.224999999736,2.214974e-05,423.224999999736,0.0002179456,423.224999999736,2.246046e-05
423.23999999973597,4.823702e-05,423.23999999973597,2.280774e-05,423.23999999973597,0.0002122323,423.23999999973597,1.923907e-05
423.25499999973596,4.679232e-05,423.25499999973596,2.223226e-05,423.25499999973596,0.0002134949,423.25499999973596,1.914806e-05
423.26999999973594,4.606109e-05,423.26999999973594,2.286634e-05,423.26999999973594,0.00020995,423.26999999973594,2.119358e-05
423.28499999973593,4.571235e-05,423.28499999973593,2.284107e-05,423.28499999973593,0.0001979552,423.28499999973593,2.174862e-05
423.2999999997359,3.980293e-05,423.2999999997359,2.229996e-05,423.2999999997359,0.000176929,423.2999999997359,2.068499e-05
423.3149999997359,4.108091e-05,423.3149999997359,2.270809e-05,423.3149999997359,0.0001738921,423.3149999997359,2.051884e-05
423.3299999997359,3.931902e-05,423.3299999997359,2.290389e-05,423.3299999997359,0.0001726607,423.3299999997359,2.030629e-05
423.3449999997359,3.828655e-05,423.3449999997359,2.338532e-05,423.3449999997359,0.0001693794,423.3449999997359,2.029311e-05
423.35999999973586,3.733618e-05,423.35999999973586,2.316928e-05,423.35999999973586,0.0001500134,423.35999999973586,2.072173e-05
423.37499999973585,3.642522e-05,423.37499999973585,2.194721e-05,423.37499999973585,0.0001455082,423.37499999973585,2.0612e-05
423.38999999973583,3.70905e-05,423.38999999973583,2.053462e-05,423.38999999973583,0.0001281039,423.38999999973583,2.054286e-05
423.4049999997358,3.587618e-05,423.4049999997358,2.093612e-05,423.4049999997358,0.0001273234,423.4049999997358,2.025628e-05
423.4199999997358,3.738821e-05,423.4199999997358,2.173567e-05,423.4199999997358,0.000117625,423.4199999997358,2.127915e-05
423.4349999997358,3.581723e-05,423.4349999997358,2.337628e-05,423.4349999997358,9.882486e-05,423.4349999997358,2.26963e-05
423.4499999997358,3.632724e-05,423.4499999997358,2.922457e-05,423.4499999997358,9.927357e-05,423.4499999997358,2.281515e-05
423.46499999973577,3.733429e-05,423.46499999973577,2.957197e-05,423.46499999973577,0.0001009466,423.46499999973577,2.256371e-05
423.47999999973575,3.860715e-05,423.47999999973575,3.105619e-05,423.47999999973575,0.0001216846,423.47999999973575,2.26136e-05
423.49499999973574,3.823906e-05,423.49499999973574,3.853301e-05,423.49499999973574,0.0001300578,423.49499999973574,2.47075e-05
423.5099999997357,3.830347e-05,423.5099999997357,4.005588e-05,423.5099999997357,0.0001288742,423.5099999997357,2.472175e-05
423.5249999997357,3.882763e-05,423.5249999997357,4.045863e-05,423.5249999997357,0.0001258436,423.5249999997357,2.298187e-05
423.5399999997357,3.835162e-05,423.5399999997357,4.063893e-05,423.5399999997357,0.0001245741,423.5399999997357,2.273103e-05
423.5549999997357,3.740629e-05,423.5549999997357,4.171721e-05,423.5549999997357,0.0001261091,423.5549999997357,2.333587e-05
423.56999999973567,3.766748e-05,423.56999999973567,4.722414e-05,423.56999999973567,0.0001289497,423.56999999973567,2.423664e-05
423.58499999973566,3.781342e-05,423.58499999973566,4.786735e-05,423.58499999973566,0.0001303254,423.58499999973566,2.458175e-05
423.59999999973564,3.820848e-05,423.59999999973564,4.791059e-05,423.59999999973564,0.0001266384,423.59999999973564,2.533078e-05
423.61499999973563,3.793876e-05,423.61499999973563,4.789707e-05,423.61499999973563,0.0001292375,423.61499999973563,2.496613e-05
423.6299999997356,3.844554e-05,423.6299999997356,4.79949e-05,423.6299999997356,0.0001289707,423.6299999997356,2.468354e-05
423.6449999997356,3.814132e-05,423.6449999997356,4.857952e-05,423.6449999997356,0.0001295279,423.6449999997356,2.61608e-05
423.6599999997356,3.860387e-05,423.6599999997356,4.799989e-05,423.6599999997356,0.0001269634,423.6599999997356,2.620115e-05
423.6749999997356,3.633345e-05,423.6749999997356,4.814465e-05,423.6749999997356,0.0001224267,423.6749999997356,2.467612e-05
423.68999999973556,3.64909e-05,423.68999999973556,4.740545e-05,423.68999999973556,0.0001424992,423.68999999973556,2.443691e-05
423.70499999973555,3.335347e-05,423.70499999973555,4.818121e-05,423.70499999973555,0.0001467782,423.70499999973555,2.457143e-05
423.71999999973553,3.209609e-05,423.71999999973553,4.841367e-05,423.71999999973553,0.0001463385,423.71999999973553,2.468069e-05
423.7349999997355,3.086419e-05,423.7349999997355,4.303754e-05,423.7349999997355,0.0001304801,423.7349999997355,2.362445e-05
423.7499999997355,3.226331e-05,423.7499999997355,4.297072e-05,423.7499999997355,0.0001259611,423.7499999997355,2.289774e-05
423.7649999997355,3.177453e-05,423.7649999997355,4.193309e-05,423.7649999997355,0.0001257769,423.7649999997355,2.29978e-05
423.7799999997355,3.234312e-05,423.7799999997355,4.326931e-05,423.7799999997355,0.0001271994,423.7799999997355,2.318386e-05
423.79499999973547,3.323415e-05,423.79499999973547,4.360657e-05,423.79499999973547,0.0001278847,423.79499999973547,2.323909e-05
423.80999999973545,3.270089e-05,423.80999999973545,4.255466e-05,423.80999999973545,0.0001262489,423.80999999973545,2.203369e-05
423.82499999973544,3.164659e-05,423.82499999973544,3.819446e-05,423.82499999973544,0.0001246741,423.82499999973544,2.096235e-05
423.8399999997354,3.219382e-05,423.8399999997354,4.398579e-05,423.8399999997354,0.0001252623,423.8399999997354,2.104886e-05
423.8549999997354,3.179713e-05,423.8549999997354,5.208981e-05,423.8549999997354,0.0001290284,423.8549999997354,2.150895e-05
423.8699999997354,3.238577e-05,423.8699999997354,5.608928e-05,423.8699999997354,0.0001282166,423.8699999997354,2.450254e-05
423.8849999997354,3.150025e-05,423.8849999997354,6.033824e-05,423.8849999997354,0.0001293432,423.8849999997354,2.477753e-05
423.89999999973537,3.113728e-05,423.89999999973537,6.216747e-05,423.89999999973537,0.0001301931,423.89999999973537,2.324576e-05
423.91499999973536,3.12177e-05,423.91499999973536,6.321212e-05,423.91499999973536,0.0001332459,423.91499999973536,2.286326e-05
423.92999999973534,3.14667e-05,423.92999999973534,6.3528e-05,423.92999999973534,0.0001339628,423.92999999973534,2.054834e-05
423.94499999973533,3.240229e-05,423.94499999973533,6.261317e-05,423.94499999973533,0.0001110807,423.94499999973533,2.05908e-05
423.9599999997353,3.245095e-05,423.9599999997353,6.21618e-05,423.9599999997353,0.0001205867,423.9599999997353,2.112101e-05
423.9749999997353,3.314757e-05,423.9749999997353,6.346544e-05,423.9749999997353,0.000129884,423.9749999997353,2.089032e-05
423.9899999997353,3.083724e-05,423.9899999997353,7.780043e-05,423.9899999997353,0.0001314,423.9899999997353,2.12626e-05
424.0049999997353,3.603251e-05,424.0049999997353,7.919656e-05,424.0049999997353,0.0001822672,424.0049999997353,2.113834e-05
424.01999999973526,3.775004e-05,424.01999999973526,8.045373e-05,424.01999999973526,0.0002116884,424.01999999973526,2.171492e-05
424.03499999973525,3.788116e-05,424.03499999973525,7.95361e-05,424.03499999973525,0.0002138415,424.03499999973525,2.103614e-05
424.04999999973523,3.760347e-05,424.04999999973523,7.906448e-05,424.04999999973523,0.0002142064,424.04999999973523,2.16935e-05
424.0649999997352,3.868843e-05,424.0649999997352,7.852833e-05,424.0649999997352,0.0002205853,424.0649999997352,2.18649e-05
424.0799999997352,3.928103e-05,424.0799999997352,7.891432e-05,424.0799999997352,0.0002488563,424.0799999997352,2.20886e-05
424.0949999997352,4.111142e-05,424.0949999997352,7.282936e-05,424.0949999997352,0.0002921731,424.0949999997352,2.205094e-05
424.1099999997352,5.085139e-05,424.1099999997352,7.209022e-05,424.1099999997352,0.0006396609,424.1099999997352,1.889777e-05
424.12499999973517,5.223564e-05,424.12499999973517,7.141369e-05,424.12499999973517,0.0006601698,424.12499999973517,1.881634e-05
424.13999999973515,5.403885e-05,424.13999999973515,6.857499e-05,424.13999999973515,0.0006910141,424.13999999973515,1.897884e-05
424.15499999973514,5.368185e-05,424.15499999973514,6.843022e-05,424.15499999973514,0.0007318972,424.15499999973514,1.970424e-05
424.1699999997351,5.358625e-05,424.1699999997351,6.748833e-05,424.1699999997351,0.0007437314,424.1699999997351,2.230501e-05
424.1849999997351,5.379483e-05,424.1849999997351,6.686344e-05,424.1849999997351,0.0007444234,424.1849999997351,2.261422e-05
424.1999999997351,5.40266e-05,424.1999999997351,6.544937e-05,424.1999999997351,0.0007454876,424.1999999997351,2.231511e-05
424.2149999997351,5.436036e-05,424.2149999997351,6.595664e-05,424.2149999997351,0.0007453911,424.2149999997351,2.17428e-05
424.22999999973507,5.43816e-05,424.22999999973507,6.049748e-05,424.22999999973507,0.0007503724,424.22999999973507,2.154363e-05
424.24499999973506,5.319179e-05,424.24499999973506,4.556141e-05,424.24499999973506,0.0007584069,424.24499999973506,2.178357e-05
424.25999999973504,5.108522e-05,424.25999999973504,4.239614e-05,424.25999999973504,0.0007532284,424.25999999973504,2.159914e-05
424.27499999973503,5.063291e-05,424.27499999973503,4.204615e-05,424.27499999973503,0.0007510998,424.27499999973503,2.23189e-05
424.289999999735,5.071909e-05,424.289999999735,4.188873e-05,424.289999999735,0.0007561473,424.289999999735,2.226202e-05
424.304999999735,5.020994e-05,424.304999999735,4.618691e-05,424.304999999735,0.0007621206,424.304999999735,2.18591e-05
424.319999999735,5.074269e-05,424.319999999735,4.681399e-05,424.319999999735,0.0007617952,424.319999999735,2.231069e-05
424.334999999735,5.008774e-05,424.334999999735,4.487354e-05,424.334999999735,0.0007544091,424.334999999735,2.181588e-05
424.34999999973496,4.524743e-05,424.34999999973496,4.292611e-05,424.34999999973496,0.0006920503,424.34999999973496,2.239703e-05
424.36499999973495,3.648704e-05,424.36499999973495,4.236157e-05,424.36499999973495,0.0004309319,424.36499999973495,2.194849e-05
424.37999999973493,3.395412e-05,424.37999999973493,3.69173e-05,424.37999999973493,0.0004239474,424.37999999973493,2.120754e-05
424.3949999997349,3.060293e-05,424.3949999997349,3.568208e-05,424.3949999997349,0.0003745725,424.3949999997349,2.064341e-05
424.4099999997349,2.975101e-05,424.4099999997349,3.532818e-05,424.4099999997349,0.0002981829,424.4099999997349,1.997688e-05
424.4249999997349,3.02124e-05,424.4249999997349,3.864654e-05,424.4249999997349,0.0002755304,424.4249999997349,1.775556e-05
424.4399999997349,2.997225e-05,424.4399999997349,4.123595e-05,424.4399999997349,0.000275932,424.4399999997349,1.822537e-05
424.45499999973487,2.820367e-05,424.45499999973487,4.384594e-05,424.45499999973487,0.0002718528,424.45499999973487,1.84344e-05
424.46999999973485,2.790591e-05,424.46999999973485,4.383855e-05,424.46999999973485,0.0002683834,424.46999999973485,1.834094e-05
424.48499999973484,2.658384e-05,424.48499999973484,4.437287e-05,424.48499999973484,0.0002405352,424.48499999973484,1.790095e-05
424.4999999997348,2.705238e-05,424.4999999997348,4.571758e-05,424.4999999997348,0.0001958256,424.4999999997348,1.823773e-05
424.5149999997348,2.813115e-05,424.5149999997348,4.536031e-05,424.5149999997348,0.0001750041,424.5149999997348,1.761138e-05
424.5299999997348,2.473656e-05,424.5299999997348,4.679594e-05,424.5299999997348,0.0001765926,424.5299999997348,1.631249e-05
424.5449999997348,2.479571e-05,424.5449999997348,5.002048e-05,424.5449999997348,0.0001509392,424.5449999997348,1.67227e-05
424.55999999973477,2.224177e-05,424.55999999973477,4.703344e-05,424.55999999973477,0.0001277279,424.55999999973477,1.879012e-05
424.57499999973476,2.134921e-05,424.57499999973476,4.674232e-05,424.57499999973476,0.0001113779,424.57499999973476,1.844357e-05
424.58999999973474,2.141443e-05,424.58999999973474,4.63051e-05,424.58999999973474,0.0001003079,424.58999999973474,1.846494e-05
424.60499999973473,2.271429e-05,424.60499999973473,4.940245e-05,424.60499999973473,0.0001009607,424.60499999973473,1.784183e-05
424.6199999997347,2.211537e-05,424.6199999997347,4.979298e-05,424.6199999997347,0.0001013879,424.6199999997347,1.818126e-05
424.6349999997347,2.237689e-05,424.6349999997347,4.97052e-05,424.6349999997347,9.290573e-05,424.6349999997347,1.8189e-05
424.6499999997347,2.263975e-05,424.6499999997347,4.928112e-05,424.6499999997347,9.81512e-05,424.6499999997347,2.030143e-05
424.6649999997347,2.271863e-05,424.6649999997347,4.808112e-05,424.6649999997347,0.000100472,424.6649999997347,2.025419e-05
424.67999999973466,2.285402e-05,424.67999999973466,5.030243e-05,424.67999999973466,0.0001023338,424.67999999973466,2.001563e-05
424.69499999973465,2.330144e-05,424.69499999973465,5.248236e-05,424.69499999973465,0.0001033403,424.69499999973465,1.989562e-05
424.70999999973463,2.317475e-05,424.70999999973463,5.371884e-05,424.70999999973463,0.0001069098,424.70999999973463,1.990695e-05
424.7249999997346,2.255871e-05,424.7249999997346,5.307116e-05,424.7249999997346,0.000108521,424.7249999997346,2.02528e-05
424.7399999997346,2.254997e-05,424.7399999997346,5.227527e-05,424.7399999997346,0.0001112477,424.7399999997346,2.057437e-05
424.7549999997346,2.318204e-05,424.7549999997346,5.183417e-05,424.7549999997346,0.000112819,424.7549999997346,2.084644e-05
424.7699999997346,2.11989e-05,424.7699999997346,5.169838e-05,424.7699999997346,0.00011507,424.7699999997346,2.136438e-05
424.78499999973457,2.126525e-05,424.78499999973457,4.904416e-05,424.78499999973457,0.00011586,424.78499999973457,2.143284e-05
424.79999999973455,2.138613e-05,424.79999999973455,5.007452e-05,424.79999999973455,0.0001149338,424.79999999973455,2.052982e-05
424.81499999973454,2.234981e-05,424.81499999973454,5.159037e-05,424.81499999973454,0.0001224025,424.81499999973454,1.873907e-05
424.8299999997345,2.328451e-05,424.8299999997345,5.344832e-05,424.8299999997345,0.0001230926,424.8299999997345,1.848553e-05
424.8449999997345,2.22968e-05,424.8449999997345,5.320238e-05,424.8449999997345,0.0001301358,424.8449999997345,1.820603e-05
424.8599999997345,2.227151e-05,424.8599999997345,5.074935e-05,424.8599999997345,0.0001327917,424.8599999997345,1.818436e-05
424.8749999997345,2.20241e-05,424.8749999997345,5.362277e-05,424.8749999997345,0.0001444399,424.8749999997345,2.10883e-05
424.88999999973447,2.196389e-05,424.88999999973447,5.379457e-05,424.88999999973447,0.0001472165,424.88999999973447,2.106023e-05
424.90499999973446,2.219421e-05,424.90499999973446,5.376366e-05,424.90499999973446,0.0001490665,424.90499999973446,1.91488e-05
424.91999999973444,2.116632e-05,424.91999999973444,5.386104e-05,424.91999999973444,0.0001520673,424.91999999973444,1.954849e-05
424.93499999973443,2.207393e-05,424.93499999973443,4.959341e-05,424.93499999973443,0.0001572206,424.93499999973443,2.042664e-05
424.9499999997344,2.208478e-05,424.9499999997344,4.576163e-05,424.9499999997344,0.0001581944,424.9499999997344,2.024446e-05
424.9649999997344,2.209689e-05,424.9649999997344,4.704632e-05,424.9649999997344,0.0001604803,424.9649999997344,2.048724e-05
424.9799999997344,2.303207e-05,424.9799999997344,5.52275e-05,424.9799999997344,0.0001612346,424.9799999997344,2.045214e-05
424.9949999997344,2.404114e-05,424.9949999997344,5.576107e-05,424.9949999997344,0.000164089,424.9949999997344,2.024028e-05
425.00999999973436,2.399422e-05,425.00999999973436,5.486617e-05,425.00999999973436,0.0001647384,425.00999999973436,1.999732e-05
425.02499999973435,2.51522e-05,425.02499999973435,5.532256e-05,425.02499999973435,0.0001653839,425.02499999973435,2.01915e-05
425.03999999973433,2.668275e-05,425.03999999973433,5.719843e-05,425.03999999973433,0.0001663489,425.03999999973433,2.049274e-05
425.0549999997343,2.716981e-05,425.0549999997343,5.490466e-05,425.0549999997343,0.0001650761,425.0549999997343,2.001844e-05
425.0699999997343,2.7537e-05,425.0699999997343,5.652907e-05,425.0699999997343,0.0001691421,425.0699999997343,2.037831e-05
425.0849999997343,2.850671e-05,425.0849999997343,5.607898e-05,425.0849999997343,0.0001703776,425.0849999997343,2.207457e-05
425.0999999997343,2.927273e-05,425.0999999997343,5.705319e-05,425.0999999997343,0.0001714601,425.0999999997343,2.218977e-05
425.11499999973427,3.125468e-05,425.11499999973427,5.796974e-05,425.11499999973427,0.0001681807,425.11499999973427,2.030213e-05
425.12999999973425,3.352576e-05,425.12999999973425,5.687266e-05,425.12999999973425,0.0001654094,425.12999999973425,1.935659e-05
425.14499999973424,3.34854e-05,425.14499999973424,5.920583e-05,425.14499999973424,0.0001658573,425.14499999973424,1.937623e-05
425.1599999997342,3.401671e-05,425.1599999997342,6.005157e-05,425.1599999997342,0.0001602304,425.1599999997342,1.988429e-05
425.1749999997342,3.382526e-05,425.1749999997342,6.068603e-05,425.1749999997342,0.0001597286,425.1749999997342,1.828401e-05
425.1899999997342,3.317815e-05,425.1899999997342,6.248615e-05,425.1899999997342,0.0001550187,425.1899999997342,1.840687e-05
425.2049999997342,3.361053e-05,425.2049999997342,6.421347e-05,425.2049999997342,0.0001539788,425.2049999997342,1.91164e-05
425.21999999973417,3.438657e-05,425.21999999973417,6.069276e-05,425.21999999973417,0.0001540563,425.21999999973417,1.867205e-05
425.23499999973416,3.456554e-05,425.23499999973416,5.800618e-05,425.23499999973416,0.0001546045,425.23499999973416,2.067478e-05
425.24999999973414,3.418566e-05,425.24999999973414,5.868102e-05,425.24999999973414,0.0001535154,425.24999999973414,2.070677e-05
425.26499999973413,3.331754e-05,425.26499999973413,5.870046e-05,425.26499999973413,0.0001548219,425.26499999973413,2.081195e-05
425.2799999997341,3.189312e-05,425.2799999997341,5.64378e-05,425.2799999997341,0.0001571038,425.2799999997341,2.050785e-05
425.2949999997341,3.128532e-05,425.2949999997341,5.5778e-05,425.2949999997341,0.0001551996,425.2949999997341,2.075705e-05
425.3099999997341,3.112913e-05,425.3099999997341,5.497184e-05,425.3099999997341,0.0001568186,425.3099999997341,2.084306e-05
425.3249999997341,3.192314e-05,425.3249999997341,5.691005e-05,425.3249999997341,0.0001524762,425.3249999997341,2.062703e-05
425.33999999973406,3.232264e-05,425.33999999973406,5.902473e-05,425.33999999973406,0.000152541,425.33999999973406,1.973282e-05
425.35499999973405,3.098444e-05,425.35499999973405,6.187447e-05,425.35499999973405,0.0001509975,425.35499999973405,2.164474e-05
425.36999999973403,2.943159e-05,425.36999999973403,6.114299e-05,425.36999999973403,0.0001485951,425.36999999973403,2.129305e-05
425.384999999734,2.724333e-05,425.384999999734,6.18854e-05,425.384999999734,0.0001481379,425.384999999734,2.132412e-05
425.399999999734,2.721281e-05,425.399999999734,6.138787e-05,425.399999999734,0.0001453828,425.399999999734,2.135647e-05
425.414999999734,2.700235e-05,425.414999999734,6.412082e-05,425.414999999734,0.0001459776,425.414999999734,2.092603e-05
425.429999999734,2.710856e-05,425.429999999734,6.803362e-05,425.429999999734,0.0001470694,425.429999999734,2.197479e-05
425.44499999973397,2.832478e-05,425.44499999973397,6.674683e-05,425.44499999973397,0.0001466227,425.44499999973397,2.227467e-05
425.45999999973395,2.758555e-05,425.45999999973395,6.628536e-05,425.45999999973395,0.0001489475,425.45999999973395,2.215546e-05
425.47499999973394,2.665528e-05,425.47499999973394,6.345434e-05,425.47499999973394,0.0001492208,425.47499999973394,2.001633e-05
425.4899999997339,2.653346e-05,425.4899999997339,6.141539e-05,425.4899999997339,0.0001552898,425.4899999997339,1.975422e-05
425.5049999997339,2.737384e-05,425.5049999997339,6.154439e-05,425.5049999997339,0.0001553082,425.5049999997339,2.084577e-05
425.5199999997339,2.784578e-05,425.5199999997339,6.304678e-05,425.5199999997339,0.0001542961,425.5199999997339,2.115233e-05
425.5349999997339,2.817618e-05,425.5349999997339,6.370293e-05,425.5349999997339,0.0001537377,425.5349999997339,2.101872e-05
425.54999999973387,2.797398e-05,425.54999999973387,6.325579e-05,425.54999999973387,0.0001556106,425.54999999973387,2.047623e-05
425.56499999973386,2.784882e-05,425.56499999973386,6.219579e-05,425.56499999973386,0.0001562712,425.56499999973386,2.045558e-05
425.57999999973384,2.466984e-05,425.57999999973384,5.847854e-05,425.57999999973384,0.0001575593,425.57999999973384,2.040318e-05
425.59499999973383,2.451691e-05,425.59499999973383,5.661274e-05,425.59499999973383,0.0001871,425.59499999973383,2.023123e-05
425.6099999997338,2.54257e-05,425.6099999997338,5.778526e-05,425.6099999997338,0.0001942787,425.6099999997338,1.855702e-05
425.6249999997338,2.591301e-05,425.6249999997338,5.776355e-05,425.6249999997338,0.0002052132,425.6249999997338,1.855626e-05
425.6399999997338,2.587166e-05,425.6399999997338,5.559739e-05,425.6399999997338,0.0002082794,425.6399999997338,1.847638e-05
425.6549999997338,2.654195e-05,425.6549999997338,5.366506e-05,425.6549999997338,0.0002147061,425.6549999997338,1.870446e-05
425.66999999973376,2.654248e-05,425.66999999973376,5.10477e-05,425.66999999973376,0.0002156144,425.66999999973376,1.862522e-05
425.68499999973375,2.705394e-05,425.68499999973375,4.412456e-05,425.68499999973375,0.0002172305,425.68499999973375,1.757855e-05
425.69999999973373,2.637798e-05,425.69999999973373,4.764997e-05,425.69999999973373,0.0002198346,425.69999999973373,1.859494e-05
425.7149999997337,2.587166e-05,425.7149999997337,4.834553e-05,425.7149999997337,0.0002197068,425.7149999997337,1.893426e-05
425.7299999997337,2.613009e-05,425.7299999997337,4.91741e-05,425.7299999997337,0.0002192838,425.7299999997337,1.913481e-05
425.7449999997337,2.535691e-05,425.7449999997337,4.934425e-05,425.7449999997337,0.0002191378,425.7449999997337,1.921269e-05
425.7599999997337,2.479231e-05,425.7599999997337,4.778459e-05,425.7599999997337,0.0002184524,425.7599999997337,1.698515e-05
425.77499999973367,2.478321e-05,425.77499999973367,4.614664e-05,425.77499999973367,0.0002202678,425.77499999973367,1.691617e-05
425.78999999973365,2.551916e-05,425.78999999973365,4.502116e-05,425.78999999973365,0.0002224404,425.78999999973365,1.688367e-05
425.80499999973364,2.572259e-05,425.80499999973364,4.549117e-05,425.80499999973364,0.0002243478,425.80499999973364,1.737382e-05
425.8199999997336,2.606748e-05,425.8199999997336,4.587753e-05,425.8199999997336,0.0002253755,425.8199999997336,1.756332e-05
425.8349999997336,2.579969e-05,425.8349999997336,4.564604e-05,425.8349999997336,0.0002259338,425.8349999997336,1.71346e-05
425.8499999997336,2.489607e-05,425.8499999997336,3.794804e-05,425.8499999997336,0.0002052749,425.8499999997336,1.675216e-05
425.8649999997336,2.542681e-05,425.8649999997336,3.662692e-05,425.8649999997336,0.0002261924,425.8649999997336,1.621375e-05
425.87999999973357,2.50731e-05,425.87999999973357,3.614687e-05,425.87999999973357,0.0002308145,425.87999999973357,1.667631e-05
425.89499999973356,2.529962e-05,425.89499999973356,3.576292e-05,425.89499999973356,0.0002311536,425.89499999973356,1.676141e-05
425.90999999973354,2.389362e-05,425.90999999973354,3.290487e-05,425.90999999973354,0.0002326268,425.90999999973354,1.807947e-05
425.92499999973353,2.331292e-05,425.92499999973353,3.187501e-05,425.92499999973353,0.0002349329,425.92499999973353,1.894988e-05
425.9399999997335,2.260176e-05,425.9399999997335,3.118339e-05,425.9399999997335,0.0002349931,425.9399999997335,1.861311e-05
425.9549999997335,2.199914e-05,425.9549999997335,2.161674e-05,425.9549999997335,0.0002366839,425.9549999997335,1.721171e-05
425.9699999997335,2.505062e-05,425.9699999997335,2.077334e-05,425.9699999997335,0.0002447719,425.9699999997335,1.722316e-05
425.9849999997335,2.439826e-05,425.9849999997335,1.875786e-05,425.9849999997335,0.0002487205,425.9849999997335,1.73511e-05
425.99999999973346,2.498981e-05,425.99999999973346,1.939512e-05,425.99999999973346,0.000274318,425.99999999973346,1.975993e-05
426.01499999973345,2.506355e-05,426.01499999973345,1.949004e-05,426.01499999973345,0.0002738695,426.01499999973345,1.992534e-05
426.02999999973343,2.493395e-05,426.02999999973343,2.192024e-05,426.02999999973343,0.0002947824,426.02999999973343,1.919729e-05
426.0449999997334,2.45571e-05,426.0449999997334,2.176352e-05,426.0449999997334,0.0003073458,426.0449999997334,1.917967e-05
426.0599999997334,2.428019e-05,426.0599999997334,1.925956e-05,426.0599999997334,0.00030887,426.0599999997334,1.856613e-05
426.0749999997334,2.390835e-05,426.0749999997334,1.816498e-05,426.0749999997334,0.0003114629,426.0749999997334,1.89833e-05
426.0899999997334,2.384227e-05,426.0899999997334,1.776825e-05,426.0899999997334,0.0003126633,426.0899999997334,1.920169e-05
426.10499999973337,2.431208e-05,426.10499999973337,1.80311e-05,426.10499999973337,0.0003157503,426.10499999973337,1.929098e-05
426.11999999973335,2.446284e-05,426.11999999973335,1.815955e-05,426.11999999973335,0.0003320946,426.11999999973335,1.878937e-05
426.13499999973334,2.469723e-05,426.13499999973334,1.783551e-05,426.13499999973334,0.0003228962,426.13499999973334,1.920316e-05
426.1499999997333,2.482297e-05,426.1499999997333,1.786471e-05,426.1499999997333,0.0003382557,426.1499999997333,1.890299e-05
426.1649999997333,2.481502e-05,426.1649999997333,1.771267e-05,426.1649999997333,0.0003349827,426.1649999997333,1.593065e-05
426.1799999997333,2.551088e-05,426.1799999997333,1.750709e-05,426.1799999997333,0.0003453453,426.1799999997333,1.59165e-05
426.1949999997333,2.595863e-05,426.1949999997333,1.670669e-05,426.1949999997333,0.0003516925,426.1949999997333,1.567482e-05
426.20999999973327,2.614141e-05,426.20999999973327,1.671259e-05,426.20999999973327,0.0003570327,426.20999999973327,1.566673e-05
426.22499999973326,2.393603e-05,426.22499999973326,1.687615e-05,426.22499999973326,0.0003671914,426.22499999973326,1.53992e-05
426.23999999973324,2.456054e-05,426.23999999973324,1.54056e-05,426.23999999973324,0.000398309,426.23999999973324,1.493481e-05
426.25499999973323,2.427555e-05,426.25499999973323,1.442332e-05,426.25499999973323,0.0004004647,426.25499999973323,1.327495e-05
426.2699999997332,2.421222e-05,426.2699999997332,1.333213e-05,426.2699999997332,0.0004014337,426.2699999997332,1.315664e-05
426.2849999997332,2.424536e-05,426.2849999997332,1.004154e-05,426.2849999997332,0.0004162077,426.2849999997332,1.317483e-05
426.2999999997332,2.404993e-05,426.2999999997332,9.997955e-06,426.2999999997332,0.0004216182,426.2999999997332,1.354388e-05
426.3149999997332,2.501123e-05,426.3149999997332,9.949936e-06,426.3149999997332,0.0004547884,426.3149999997332,1.479932e-05
426.32999999973316,2.539964e-05,426.32999999973316,1.044314e-05,426.32999999973316,0.0004958984,426.32999999973316,1.356675e-05
426.34499999973315,2.747554e-05,426.34499999973315,1.049427e-05,426.34499999973315,0.0005042488,426.34499999973315,1.343843e-05
426.35999999973313,2.729241e-05,426.35999999973313,1.018915e-05,426.35999999973313,0.00050388,426.35999999973313,1.621983e-05
426.3749999997331,2.705863e-05,426.3749999997331,1.017532e-05,426.3749999997331,0.0004879743,426.3749999997331,1.609166e-05
426.3899999997331,2.721798e-05,426.3899999997331,1.02333e-05,426.3899999997331,0.0004956449,426.3899999997331,1.558921e-05
426.4049999997331,2.711947e-05,426.4049999997331,1.034147e-05,426.4049999997331,0.000495861,426.4049999997331,1.543209e-05
426.4199999997331,2.753853e-05,426.4199999997331,1.03142e-05,426.4199999997331,0.0004962863,426.4199999997331,1.492066e-05
426.43499999973307,2.714284e-05,426.43499999973307,1.054916e-05,426.43499999973307,0.0004965186,426.43499999973307,1.516228e-05
426.44999999973305,2.708829e-05,426.44999999973305,1.090374e-05,426.44999999973305,0.0004854699,426.44999999973305,1.538272e-05
426.46499999973304,2.826105e-05,426.46499999973304,1.139027e-05,426.46499999973304,0.0005156765,426.46499999973304,1.577783e-05
426.479999999733,2.732852e-05,426.479999999733,1.124089e-05,426.479999999733,0.0005681698,426.479999999733,1.563252e-05
426.494999999733,2.758504e-05,426.494999999733,1.129215e-05,426.494999999733,0.000551653,426.494999999733,1.498002e-05
426.509999999733,2.872822e-05,426.509999999733,1.180924e-05,426.509999999733,0.0005587455,426.509999999733,1.513252e-05
426.524999999733,2.843893e-05,426.524999999733,1.200914e-05,426.524999999733,0.0005889554,426.524999999733,1.621201e-05
426.53999999973297,2.872283e-05,426.53999999973297,1.201735e-05,426.53999999973297,0.0006088108,426.53999999973297,1.62632e-05
426.55499999973296,2.71895e-05,426.55499999973296,1.193737e-05,426.55499999973296,0.0006045112,426.55499999973296,1.605309e-05
426.56999999973294,2.760393e-05,426.56999999973294,1.187111e-05,426.56999999973294,0.0005797822,426.56999999973294,1.498848e-05
426.58499999973293,2.664841e-05,426.58499999973293,1.159132e-05,426.58499999973293,0.0005527741,426.58499999973293,1.556027e-05
426.5999999997329,2.507423e-05,426.5999999997329,1.195977e-05,426.5999999997329,0.0005506106,426.5999999997329,1.450901e-05
426.6149999997329,2.491077e-05,426.6149999997329,1.185211e-05,426.6149999997329,0.0005450373,426.6149999997329,1.300155e-05
426.6299999997329,2.517067e-05,426.6299999997329,1.190074e-05,426.6299999997329,0.0005478797,426.6299999997329,1.310622e-05
426.6449999997329,2.601447e-05,426.6449999997329,1.230348e-05,426.6449999997329,0.0005448053,426.6449999997329,1.342584e-05
426.65999999973286,2.626345e-05,426.65999999973286,1.268567e-05,426.65999999973286,0.000542473,426.65999999973286,1.358646e-05
426.67499999973285,3.149846e-05,426.67499999973285,1.732835e-05,426.67499999973285,0.0005397574,426.67499999973285,1.588993e-05
426.68999999973283,3.207722e-05,426.68999999973283,2.095563e-05,426.68999999973283,0.0005397662,426.68999999973283,1.647661e-05
426.7049999997328,3.21211e-05,426.7049999997328,2.167921e-05,426.7049999997328,0.0005432925,426.7049999997328,1.63969e-05
426.7199999997328,3.231043e-05,426.7199999997328,2.191574e-05,426.7199999997328,0.000506954,426.7199999997328,1.609603e-05
426.7349999997328,3.563823e-05,426.7349999997328,2.7068e-05,426.7349999997328,0.0004468905,426.7349999997328,1.737787e-05
426.7499999997328,3.905877e-05,426.7499999997328,3.728898e-05,426.7499999997328,0.0004243178,426.7499999997328,1.75288e-05
426.76499999973277,4.006853e-05,426.76499999973277,3.995552e-05,426.76499999973277,0.0004218846,426.76499999973277,1.770471e-05
426.77999999973275,4.171586e-05,426.77999999973275,4.023238e-05,426.77999999973275,0.0003651167,426.77999999973275,1.705302e-05
426.79499999973274,4.45193e-05,426.79499999973274,4.079565e-05,426.79499999973274,0.0003287814,426.79499999973274,1.712474e-05
426.8099999997327,4.538235e-05,426.8099999997327,4.153446e-05,426.8099999997327,0.0003381395,426.8099999997327,1.713049e-05
426.8249999997327,4.573545e-05,426.8249999997327,4.393452e-05,426.8249999997327,0.0003364774,426.8249999997327,1.691701e-05
426.8399999997327,4.683084e-05,426.8399999997327,4.504681e-05,426.8399999997327,0.0003448379,426.8399999997327,1.802016e-05
426.8549999997327,4.77315e-05,426.8549999997327,4.573206e-05,426.8549999997327,0.0003420674,426.8549999997327,1.863807e-05
426.86999999973267,4.797905e-05,426.86999999973267,4.636469e-05,426.86999999973267,0.0003419266,426.86999999973267,1.848324e-05
426.88499999973266,4.991335e-05,426.88499999973266,4.699359e-05,426.88499999973266,0.0003429673,426.88499999973266,1.854943e-05
426.89999999973264,5.238214e-05,426.89999999973264,4.709959e-05,426.89999999973264,0.0003303758,426.89999999973264,1.843899e-05
426.91499999973263,5.17621e-05,426.91499999973263,4.755498e-05,426.91499999973263,0.0003300334,426.91499999973263,1.782761e-05
426.9299999997326,5.063124e-05,426.9299999997326,4.554842e-05,426.9299999997326,0.0003216208,426.9299999997326,1.631767e-05
426.9449999997326,5.138188e-05,426.9449999997326,4.470245e-05,426.9449999997326,0.0003202477,426.9449999997326,1.793632e-05
426.9599999997326,5.146133e-05,426.9599999997326,4.438748e-05,426.9599999997326,0.0003112915,426.9599999997326,1.792218e-05
426.9749999997326,4.991279e-05,426.9749999997326,4.55444e-05,426.9749999997326,0.0003047522,426.9749999997326,1.800217e-05
426.98999999973256,4.772175e-05,426.98999999973256,4.156498e-05,426.98999999973256,0.000303163,426.98999999973256,1.692283e-05
427.00499999973255,4.680737e-05,427.00499999973255,3.630436e-05,427.00499999973255,0.0002943817,427.00499999973255,1.645008e-05
427.01999999973253,4.629962e-05,427.01999999973253,3.542017e-05,427.01999999973253,0.0002912153,427.01999999973253,1.589967e-05
427.0349999997325,4.519167e-05,427.0349999997325,3.545316e-05,427.0349999997325,0.0002867575,427.0349999997325,1.702077e-05
427.0499999997325,4.326573e-05,427.0499999997325,3.656418e-05,427.0499999997325,0.0002870997,427.0499999997325,1.693864e-05
427.0649999997325,4.350405e-05,427.0649999997325,3.616207e-05,427.0649999997325,0.0002608325,427.0649999997325,1.697353e-05
427.0799999997325,4.255698e-05,427.0799999997325,3.485611e-05,427.0799999997325,0.0002578844,427.0799999997325,1.675216e-05
427.09499999973247,4.175906e-05,427.09499999973247,3.993437e-05,427.09499999973247,0.0002516207,427.09499999973247,1.516785e-05
427.10999999973245,4.101708e-05,427.10999999973245,4.027857e-05,427.10999999973245,0.0002490817,427.10999999973245,1.536164e-05
427.12499999973244,4.103185e-05,427.12499999973244,4.597599e-05,427.12499999973244,0.0002511542,427.12499999973244,1.553127e-05
427.1399999997324,3.64287e-05,427.1399999997324,4.775008e-05,427.1399999997324,0.0002489894,427.1399999997324,1.661792e-05
427.1549999997324,3.34854e-05,427.1549999997324,4.904359e-05,427.1549999997324,0.0002486942,427.1549999997324,1.696274e-05
427.1699999997324,3.417495e-05,427.1699999997324,4.926168e-05,427.1699999997324,0.0002471914,427.1699999997324,1.684691e-05
427.1849999997324,3.32655e-05,427.1849999997324,5.214873e-05,427.1849999997324,0.0002541673,427.1849999997324,1.68845e-05
427.19999999973237,3.335896e-05,427.19999999973237,5.299679e-05,427.19999999973237,0.0002358158,427.19999999973237,1.499036e-05
427.21499999973236,3.554404e-05,427.21499999973236,5.298801e-05,427.21499999973236,0.0002361522,427.21499999973236,1.519198e-05
427.22999999973234,3.621851e-05,427.22999999973234,5.470006e-05,427.22999999973234,0.00023369,427.22999999973234,1.629521e-05
427.24499999973233,3.647662e-05,427.24499999973233,5.428904e-05,427.24499999973233,0.0002371583,427.24499999973233,1.719206e-05
427.2599999997323,3.637297e-05,427.2599999997323,5.488593e-05,427.2599999997323,0.0002387544,427.2599999997323,1.739245e-05
427.2749999997323,3.786033e-05,427.2749999997323,5.668808e-05,427.2749999997323,0.0003344796,427.2749999997323,1.828247e-05
427.2899999997323,3.758324e-05,427.2899999997323,5.673801e-05,427.2899999997323,0.0003353571,427.2899999997323,1.749904e-05
427.3049999997323,4.067808e-05,427.3049999997323,5.74709e-05,427.3049999997323,0.0003526387,427.3049999997323,1.821609e-05
427.31999999973226,4.161409e-05,427.31999999973226,5.7332e-05,427.31999999973226,0.0004013263,427.31999999973226,1.88096e-05
427.33499999973225,4.18561e-05,427.33499999973225,5.442562e-05,427.33499999973225,0.0004028766,427.33499999973225,1.934203e-05
427.34999999973223,4.1966e-05,427.34999999973223,5.708059e-05,427.34999999973223,0.0004052687,427.34999999973223,2.156781e-05
427.3649999997322,4.243433e-05,427.3649999997322,5.601665e-05,427.3649999997322,0.0004072051,427.3649999997322,2.151746e-05
427.3799999997322,4.234261e-05,427.3799999997322,5.188741e-05,427.3799999997322,0.0004091965,427.3799999997322,2.136834e-05
427.3949999997322,4.23752e-05,427.3949999997322,5.193788e-05,427.3949999997322,0.0004156001,427.3949999997322,2.06591e-05
427.4099999997322,4.320773e-05,427.4099999997322,5.203272e-05,427.4099999997322,0.0004142898,427.4099999997322,2.079096e-05
427.42499999973217,4.251095e-05,427.42499999973217,5.091313e-05,427.42499999973217,0.0004162153,427.42499999973217,2.097981e-05
427.43999999973215,4.256261e-05,427.43999999973215,4.923822e-05,427.43999999973215,0.0004191385,427.43999999973215,2.083698e-05
427.45499999973214,4.01258e-05,427.45499999973214,4.902979e-05,427.45499999973214,0.0004164856,427.45499999973214,2.067478e-05
427.4699999997321,4.01272e-05,427.4699999997321,5.044645e-05,427.4699999997321,0.0004185083,427.4699999997321,2.14381e-05
427.4849999997321,3.983017e-05,427.4849999997321,4.73442e-05,427.4849999997321,0.0004146718,427.4849999997321,2.113501e-05
427.4999999997321,3.944957e-05,427.4999999997321,5.343672e-05,427.4999999997321,0.000414376,427.4999999997321,2.110433e-05
427.5149999997321,3.816347e-05,427.5149999997321,6.277651e-05,427.5149999997321,0.0003901246,427.5149999997321,2.17564e-05
427.52999999973207,3.774257e-05,427.52999999973207,6.281173e-05,427.52999999973207,0.0003310782,427.52999999973207,2.05456e-05
427.54499999973206,3.640549e-05,427.54499999973206,6.226664e-05,427.54499999973206,0.0003219074,427.54499999973206,2.065296e-05
427.55999999973204,3.559275e-05,427.55999999973204,6.12767e-05,427.55999999973204,0.0003217437,427.55999999973204,2.031877e-05
427.57499999973203,3.504031e-05,427.57499999973203,6.11978e-05,427.57499999973203,0.0002800993,427.57499999973203,1.971496e-05
427.589999999732,3.588403e-05,427.589999999732,5.930948e-05,427.589999999732,0.0002941642,427.589999999732,1.745309e-05
427.604999999732,3.594875e-05,427.604999999732,5.702281e-05,427.604999999732,0.0002949324,427.604999999732,1.748776e-05
427.619999999732,3.555434e-05,427.619999999732,5.933702e-05,427.619999999732,0.000285637,427.619999999732,1.867808e-05
427.634999999732,3.566471e-05,427.634999999732,5.992312e-05,427.634999999732,0.0002835587,427.634999999732,1.954273e-05
427.64999999973196,3.625155e-05,427.64999999973196,5.714201e-05,427.64999999973196,0.0002907799,427.64999999973196,1.943213e-05
427.66499999973195,3.717434e-05,427.66499999973195,5.811778e-05,427.66499999973195,0.0002978504,427.66499999973195,1.996489e-05
427.67999999973193,3.76858e-05,427.67999999973193,6.081866e-05,427.67999999973193,0.0003045903,427.67999999973193,2.008097e-05
427.6949999997319,3.765252e-05,427.6949999997319,6.152631e-05,427.6949999997319,0.0003012266,427.6949999997319,2.091862e-05
427.7099999997319,3.835052e-05,427.7099999997319,6.112801e-05,427.7099999997319,0.0003065244,427.7099999997319,2.077266e-05
427.7249999997319,3.941099e-05,427.7249999997319,5.931613e-05,427.7249999997319,0.0003044903,427.7249999997319,2.027088e-05
427.7399999997319,3.92968e-05,427.7399999997319,5.896814e-05,427.7399999997319,0.0003115458,427.7399999997319,2.100397e-05
427.75499999973187,3.910887e-05,427.75499999973187,4.530375e-05,427.75499999973187,0.0003120983,427.75499999973187,2.061541e-05
427.76999999973185,3.883997e-05,427.76999999973185,4.256393e-05,427.76999999973185,0.0003162044,427.76999999973185,2.029102e-05
427.78499999973184,3.880295e-05,427.78499999973184,4.115833e-05,427.78499999973184,0.000320752,427.78499999973184,2.194593e-05
427.7999999997318,3.944029e-05,427.7999999997318,4.228635e-05,427.7999999997318,0.0003264305,427.7999999997318,2.340158e-05
427.8149999997318,4.064171e-05,427.8149999997318,4.223535e-05,427.8149999997318,0.0003162984,427.8149999997318,2.30779e-05
427.8299999997318,4.176041e-05,427.8299999997318,4.305521e-05,427.8299999997318,0.0003281975,427.8299999997318,2.3084e-05
427.8449999997318,4.212849e-05,427.8449999997318,4.278213e-05,427.8449999997318,0.0003213855,427.8449999997318,2.344548e-05
427.85999999973177,4.355098e-05,427.85999999973177,4.264659e-05,427.85999999973177,0.000325176,427.85999999973177,2.271119e-05
427.87499999973176,4.36266e-05,427.87499999973176,3.957079e-05,427.87499999973176,0.0003248861,427.87499999973176,2.189387e-05
427.88999999973174,4.406866e-05,427.88999999973174,3.893922e-05,427.88999999973174,0.0003224232,427.88999999973174,2.183073e-05
427.90499999973173,4.442903e-05,427.90499999973173,3.898079e-05,427.90499999973173,0.0003244039,427.90499999973173,2.122613e-05
427.9199999997317,4.329502e-05,427.9199999997317,3.652332e-05,427.9199999997317,0.0003209103,427.9199999997317,2.065432e-05
427.9349999997317,4.348429e-05,427.9349999997317,3.30258e-05,427.9349999997317,0.0003245573,427.9349999997317,2.04418e-05
427.9499999997317,4.286733e-05,427.9499999997317,3.309909e-05,427.9499999997317,0.0003287997,427.9499999997317,1.975351e-05
427.9649999997317,4.290444e-05,427.9649999997317,3.347782e-05,427.9649999997317,0.0003295722,427.9649999997317,2.091391e-05
427.97999999973166,4.177626e-05,427.97999999973166,3.334164e-05,427.97999999973166,0.00032771,427.97999999973166,2.013561e-05
427.99499999973165,4.264164e-05,427.99499999973165,3.054487e-05,427.99499999973165,0.0003327318,427.99499999973165,1.956794e-05
428.00999999973163,4.297137e-05,428.00999999973163,3.002438e-05,428.00999999973163,0.0003256556,428.00999999973163,1.936896e-05
428.0249999997316,4.593706e-05,428.0249999997316,2.990591e-05,428.0249999997316,0.000328688,428.0249999997316,1.964482e-05
428.0399999997316,4.507088e-05,428.0399999997316,2.882026e-05,428.0399999997316,0.0003269736,428.0399999997316,1.93595e-05
428.0549999997316,4.418071e-05,428.0549999997316,2.730944e-05,428.0549999997316,0.0003239729,428.0549999997316,1.77238e-05
428.0699999997316,4.298186e-05,428.0699999997316,2.739596e-05,428.0699999997316,0.0003269779,428.0699999997316,1.808337e-05
428.08499999973156,4.244894e-05,428.08499999973156,2.584279e-05,428.08499999973156,0.0003223679,428.08499999973156,1.730476e-05
428.09999999973155,4.272909e-05,428.09999999973155,2.64718e-05,428.09999999973155,0.0003183385,428.09999999973155,1.769039e-05
428.11499999973154,4.160766e-05,428.11499999973154,2.545836e-05,428.11499999973154,0.0003188096,428.11499999973154,1.778806e-05
428.1299999997315,4.199687e-05,428.1299999997315,2.537134e-05,428.1299999997315,0.0003186615,428.1299999997315,1.871124e-05
428.1449999997315,4.361853e-05,428.1449999997315,2.434798e-05,428.1449999997315,0.0003224838,428.1449999997315,1.876161e-05
428.1599999997315,4.605069e-05,428.1599999997315,2.383459e-05,428.1599999997315,0.0003138716,428.1599999997315,1.916791e-05
428.1749999997315,4.682212e-05,428.1749999997315,2.270188e-05,428.1749999997315,0.0003154352,428.1749999997315,1.95182e-05
428.18999999973147,4.722205e-05,428.18999999973147,2.212429e-05,428.18999999973147,0.0003222871,428.18999999973147,1.970567e-05
428.20499999973146,4.780994e-05,428.20499999973146,2.482978e-05,428.20499999973146,0.0003174557,428.20499999973146,1.931142e-05
428.21999999973144,4.710377e-05,428.21999999973144,2.712103e-05,428.21999999973144,0.0003189332,428.21999999973144,1.908543e-05
428.23499999973143,4.781759e-05,428.23499999973143,2.77992e-05,428.23499999973143,0.0003198316,428.23499999973143,1.972139e-05
428.2499999997314,4.768809e-05,428.2499999997314,2.746888e-05,428.2499999997314,0.000319258,428.2499999997314,1.962545e-05
428.2649999997314,4.757927e-05,428.2649999997314,3.075125e-05,428.2649999997314,0.0003224287,428.2649999997314,1.986799e-05
428.2799999997314,4.685941e-05,428.2799999997314,3.387811e-05,428.2799999997314,0.0003253912,428.2799999997314,1.96699e-05
428.2949999997314,5.545786e-05,428.2949999997314,3.474844e-05,428.2949999997314,0.0003282582,428.2949999997314,1.938495e-05
428.30999999973136,5.781499e-05,428.30999999973136,3.488035e-05,428.30999999973136,0.0003322331,428.30999999973136,2.132016e-05
428.32499999973135,5.749835e-05,428.32499999973135,3.562202e-05,428.32499999973135,0.000334918,428.32499999973135,2.111968e-05
428.33999999973133,5.725357e-05,428.33999999973133,3.582195e-05,428.33999999973133,0.0003348874,428.33999999973133,2.259677e-05
428.3549999997313,5.729784e-05,428.3549999997313,3.531382e-05,428.3549999997313,0.000334755,428.3549999997313,2.302351e-05
428.3699999997313,5.752064e-05,428.3699999997313,3.563349e-05,428.3699999997313,0.000336476,428.3699999997313,2.278426e-05
428.3849999997313,5.947929e-05,428.3849999997313,3.561135e-05,428.3849999997313,0.0003400052,428.3849999997313,2.232963e-05
428.3999999997313,5.885049e-05,428.3999999997313,3.628651e-05,428.3999999997313,0.0003443306,428.3999999997313,2.317475e-05
428.41499999973126,5.706973e-05,428.41499999973126,3.666805e-05,428.41499999973126,0.0003479738,428.41499999973126,2.340399e-05
428.42999999973125,5.748218e-05,428.42999999973125,3.904723e-05,428.42999999973125,0.000353808,428.42999999973125,2.337628e-05
428.44499999973124,5.783058e-05,428.44499999973124,3.934409e-05,428.44499999973124,0.0003577928,428.44499999973124,2.434219e-05
428.4599999997312,5.802609e-05,428.4599999997312,4.332462e-05,428.4599999997312,0.0003660572,428.4599999997312,2.442884e-05
428.4749999997312,5.865845e-05,428.4749999997312,4.331844e-05,428.4749999997312,0.0003713106,428.4749999997312,2.568368e-05
428.4899999997312,5.995038e-05,428.4899999997312,4.367404e-05,428.4899999997312,0.0003843305,428.4899999997312,2.582425e-05
428.5049999997312,5.990455e-05,428.5049999997312,4.371788e-05,428.5049999997312,0.0003914232,428.5049999997312,2.574011e-05
428.51999999973117,6.026185e-05,428.51999999973117,4.080912e-05,428.51999999973117,0.0004123225,428.51999999973117,2.63015e-05
428.53499999973116,6.046395e-05,428.53499999973116,3.979266e-05,428.53499999973116,0.0004146006,428.53499999973116,2.555832e-05
428.54999999973114,5.307567e-05,428.54999999973114,3.90328e-05,428.54999999973114,0.0004198037,428.54999999973114,2.438498e-05
428.5649999997311,5.299147e-05,428.5649999997311,3.935233e-05,428.5649999997311,0.0004236035,428.5649999997311,2.413938e-05
428.5799999997311,5.335969e-05,428.5799999997311,3.859949e-05,428.5799999997311,0.0004247012,428.5799999997311,2.407511e-05
428.5949999997311,5.337553e-05,428.5949999997311,3.911932e-05,428.5949999997311,0.0004316625,428.5949999997311,2.297267e-05
428.6099999997311,5.337923e-05,428.6099999997311,3.912688e-05,428.6099999997311,0.0004362463,428.6099999997311,2.206499e-05
428.6249999997311,5.405084e-05,428.6249999997311,4.024988e-05,428.6249999997311,0.0004377445,428.6249999997311,2.273784e-05
428.63999999973106,5.162913e-05,428.63999999973106,4.161273e-05,428.63999999973106,0.0004368926,428.63999999973106,2.226455e-05
428.65499999973105,5.306001e-05,428.65499999973105,4.475882e-05,428.65499999973105,0.0004370693,428.65499999973105,2.115966e-05
428.66999999973103,5.332695e-05,428.66999999973103,4.493096e-05,428.66999999973103,0.0004383336,428.66999999973103,2.222339e-05
428.684999999731,5.596533e-05,428.684999999731,4.370177e-05,428.684999999731,0.0004386509,428.684999999731,2.195427e-05
428.699999999731,5.712154e-05,428.699999999731,4.459486e-05,428.699999999731,0.0004444619,428.699999999731,2.171622e-05
428.714999999731,5.742922e-05,428.714999999731,4.006608e-05,428.714999999731,0.0004416517,428.714999999731,2.085928e-05
428.729999999731,5.608928e-05,428.729999999731,3.796919e-05,428.729999999731,0.0004372735,428.729999999731,1.825626e-05
428.74499999973096,5.660677e-05,428.74499999973096,3.894283e-05,428.74499999973096,0.0004391577,428.74499999973096,1.858509e-05
428.75999999973095,5.736664e-05,428.75999999973095,3.826705e-05,428.75999999973095,0.0004236201,428.75999999973095,1.903147e-05
428.77499999973094,5.847396e-05,428.77499999973094,3.901005e-05,428.77499999973094,0.0004286719,428.77499999973094,1.860781e-05
428.7899999997309,5.805352e-05,428.7899999997309,3.94385e-05,428.7899999997309,0.0004189099,428.7899999997309,1.952758e-05
428.8049999997309,5.972745e-05,428.8049999997309,3.94874e-05,428.8049999997309,0.0004341451,428.8049999997309,1.887688e-05
428.8199999997309,6.088996e-05,428.8199999997309,4.024743e-05,428.8199999997309,0.0004261768,428.8199999997309,1.901518e-05
428.8349999997309,6.056637e-05,428.8349999997309,4.04743e-05,428.8349999997309,0.0004408957,428.8349999997309,1.912229e-05
428.84999999973087,6.116142e-05,428.84999999973087,4.017036e-05,428.84999999973087,0.0004413494,428.84999999973087,1.90011e-05
428.86499999973086,6.283931e-05,428.86499999973086,4.055531e-05,428.86499999973086,0.0004401527,428.86499999973086,1.911566e-05
428.87999999973084,6.301214e-05,428.87999999973084,3.951914e-05,428.87999999973084,0.0004381646,428.87999999973084,1.834171e-05
428.8949999997308,6.553046e-05,428.8949999997308,3.478126e-05,428.8949999997308,0.0004383782,428.8949999997308,1.88126e-05
428.9099999997308,6.835051e-05,428.9099999997308,3.321889e-05,428.9099999997308,0.0004415802,428.9099999997308,2.09038e-05
428.9249999997308,6.803094e-05,428.9249999997308,3.347656e-05,428.9249999997308,0.0004391075,428.9249999997308,2.031531e-05
428.9399999997308,6.86647e-05,428.9399999997308,3.110197e-05,428.9399999997308,0.0004368941,428.9399999997308,1.997759e-05
428.9549999997308,7.003559e-05,428.9549999997308,2.864572e-05,428.9549999997308,0.0004306255,428.9549999997308,2.314555e-05
428.96999999973076,7.049069e-05,428.96999999973076,2.760852e-05,428.96999999973076,0.0004227006,428.96999999973076,2.309071e-05
428.98499999973075,7.16445e-05,428.98499999973075,2.71584e-05,428.98499999973075,0.0004215533,428.98499999973075,2.320755e-05
428.99999999973073,7.244809e-05,428.99999999973073,2.64036e-05,428.99999999973073,0.0004094492,428.99999999973073,2.34773e-05
429.0149999997307,7.643704e-05,429.0149999997307,2.545338e-05,429.0149999997307,0.0004070748,429.0149999997307,2.285587e-05
429.0299999997307,7.550325e-05,429.0299999997307,2.507479e-05,429.0299999997307,0.0003975253,429.0299999997307,2.280404e-05
429.0449999997307,7.534823e-05,429.0449999997307,2.36834e-05,429.0449999997307,0.0003970315,429.0449999997307,2.24498e-05
429.0599999997307,7.502335e-05,429.0599999997307,2.369232e-05,429.0599999997307,0.0003915665,429.0599999997307,2.250495e-05
429.07499999973066,7.892628e-05,429.07499999973066,2.20049e-05,429.07499999973066,0.0003882937,429.07499999973066,2.386649e-05
429.08999999973065,8.703465e-05,429.08999999973065,2.258305e-05,429.08999999973065,0.0003821009,429.08999999973065,2.360357e-05
429.10499999973064,8.809271e-05,429.10499999973064,2.251183e-05,429.10499999973064,0.000377804,429.10499999973064,2.391307e-05
429.1199999997306,9.177501e-05,429.1199999997306,2.170778e-05,429.1199999997306,0.0003759933,429.1199999997306,2.406691e-05
429.1349999997306,9.527718e-05,429.1349999997306,2.167856e-05,429.1349999997306,0.0003744151,429.1349999997306,2.409207e-05
429.1499999997306,9.254416e-05,429.1499999997306,2.144073e-05,429.1499999997306,0.0003693968,429.1499999997306,2.292909e-05
429.1649999997306,9.471026e-05,429.1649999997306,2.177581e-05,429.1649999997306,0.0003697582,429.1649999997306,2.168571e-05
429.17999999973057,9.644615e-05,429.17999999973057,2.207265e-05,429.17999999973057,0.0003656632,429.17999999973057,2.201642e-05
429.19499999973056,9.601211e-05,429.19499999973056,2.334493e-05,429.19499999973056,0.0003656464,429.19499999973056,2.268326e-05
429.20999999973054,9.536762e-05,429.20999999973054,2.392661e-05,429.20999999973054,0.0003621946,429.20999999973054,1.986728e-05
429.2249999997305,9.807769e-05,429.2249999997305,2.375764e-05,429.2249999997305,0.000361242,429.2249999997305,1.9885e-05
429.2399999997305,9.958356e-05,429.2399999997305,2.399951e-05,429.2399999997305,0.0003599222,429.2399999997305,1.934276e-05
429.2549999997305,9.809808e-05,429.2549999997305,2.384582e-05,429.2549999997305,0.0003570216,429.2549999997305,1.912377e-05
429.2699999997305,9.643067e-05,429.2699999997305,2.36721e-05,429.2699999997305,0.0003477214,429.2699999997305,1.907287e-05
429.2849999997305,9.769951e-05,429.2849999997305,2.255934e-05,429.2849999997305,0.000348026,429.2849999997305,1.896325e-05
429.29999999973046,9.791381e-05,429.29999999973046,2.337146e-05,429.29999999973046,0.0003293614,429.29999999973046,2.024167e-05
429.31499999973045,0.0001032889,429.31499999973045,2.438382e-05,429.31499999973045,0.000326365,429.31499999973045,2.007466e-05
429.32999999973043,9.932322e-05,429.32999999973043,2.723092e-05,429.32999999973043,0.0003162807,429.32999999973043,1.885523e-05
429.3449999997304,9.516623e-05,429.3449999997304,2.71309e-05,429.3449999997304,0.0003103292,429.3449999997304,1.899072e-05
429.3599999997304,9.043414e-05,429.3599999997304,2.690462e-05,429.3599999997304,0.000302028,429.3599999997304,1.814636e-05
429.3749999997304,8.978303e-05,429.3749999997304,2.676446e-05,429.3749999997304,0.000293912,429.3749999997304,1.833402e-05
429.3899999997304,8.637291e-05,429.3899999997304,2.649308e-05,429.3899999997304,0.0002869297,429.3899999997304,1.82817e-05
429.40499999973036,8.542751e-05,429.40499999973036,2.876448e-05,429.40499999973036,0.0002775877,429.40499999973036,1.928441e-05
429.41999999973035,8.813875e-05,429.41999999973035,2.731614e-05,429.41999999973035,0.0002692948,429.41999999973035,1.967706e-05
429.43499999973034,8.539288e-05,429.43499999973034,2.881048e-05,429.43499999973034,0.0002614894,429.43499999973034,1.738597e-05
429.4499999997303,8.470385e-05,429.4499999997303,2.947845e-05,429.4499999997303,0.0002535162,429.4499999997303,1.801312e-05
429.4649999997303,8.170897e-05,429.4649999997303,2.944212e-05,429.4649999997303,0.0002461833,429.4649999997303,1.811994e-05
429.4799999997303,7.923356e-05,429.4799999997303,2.953717e-05,429.4799999997303,0.000243759,429.4799999997303,1.84084e-05
429.4949999997303,7.770205e-05,429.4949999997303,2.894609e-05,429.4949999997303,0.0002322621,429.4949999997303,1.976634e-05
429.50999999973027,7.784261e-05,429.50999999973027,2.992475e-05,429.50999999973027,0.0002310339,429.50999999973027,1.939803e-05
429.52499999973026,7.631328e-05,429.52499999973026,3.320743e-05,429.52499999973026,0.0002236112,429.52499999973026,1.974852e-05
429.53999999973024,7.543567e-05,429.53999999973024,3.342898e-05,429.53999999973024,0.0002206385,429.53999999973024,1.833633e-05
429.5549999997302,7.081329e-05,429.5549999997302,3.409819e-05,429.5549999997302,0.0002168426,429.5549999997302,1.789858e-05
429.5699999997302,6.919136e-05,429.5699999997302,3.375356e-05,429.5699999997302,0.0002178664,429.5699999997302,1.841529e-05
429.5849999997302,6.77554e-05,429.5849999997302,3.210926e-05,429.5849999997302,0.0002161877,429.5849999997302,1.863807e-05
429.5999999997302,7.034506e-05,429.5999999997302,3.217806e-05,429.5999999997302,0.0002178207,429.5999999997302,1.919582e-05
429.6149999997302,6.840613e-05,429.6149999997302,3.330275e-05,429.6149999997302,0.0002163756,429.6149999997302,1.912377e-05
429.62999999973016,7.388647e-05,429.62999999973016,3.533456e-05,429.62999999973016,0.0002124002,429.62999999973016,1.913261e-05
429.64499999973015,7.444412e-05,429.64499999973015,3.524794e-05,429.64499999973015,0.000215911,429.64499999973015,1.904109e-05
429.65999999973013,7.165649e-05,429.65999999973013,3.519074e-05,429.65999999973013,0.0002133613,429.65999999973013,1.808493e-05
429.6749999997301,7.424194e-05,429.6749999997301,3.71e-05,429.6749999997301,0.0002775599,429.6749999997301,1.868864e-05
429.6899999997301,8.252962e-05,429.6899999997301,4.215222e-05,429.6899999997301,0.0003730373,429.6899999997301,1.944228e-05
429.7049999997301,8.404187e-05,429.7049999997301,4.670041e-05,429.7049999997301,0.0003799056,429.7049999997301,2.206244e-05
429.7199999997301,8.681019e-05,429.7199999997301,4.922993e-05,429.7199999997301,0.0003939338,429.7199999997301,2.252809e-05
429.73499999973006,8.824034e-05,429.73499999973006,5.011614e-05,429.73499999973006,0.0003932543,429.73499999973006,2.171557e-05
429.74999999973005,8.889943e-05,429.74999999973005,5.07943e-05,429.74999999973005,0.0003995349,429.74999999973005,2.151484e-05
429.76499999973004,9.188163e-05,429.76499999973004,4.834845e-05,429.76499999973004,0.0004031172,429.76499999973004,2.12321e-05
429.77999999973,9.149031e-05,429.77999999973,4.844479e-05,429.77999999973,0.0004048169,429.77999999973,2.162716e-05
429.79499999973,9.051013e-05,429.79499999973,4.839184e-05,429.79499999973,0.0004071468,429.79499999973,2.217898e-05
429.80999999973,9.072434e-05,429.80999999973,4.718743e-05,429.80999999973,0.0004073278,429.80999999973,2.123674e-05
429.82499999973,9.08263e-05,429.82499999973,4.801456e-05,429.82499999973,0.0004071777,429.82499999973,2.210454e-05
429.83999999972997,9.213333e-05,429.83999999972997,4.785911e-05,429.83999999972997,0.0004079553,429.83999999972997,2.238004e-05
429.85499999972996,9.41326e-05,429.85499999972996,4.89107e-05,429.85499999972996,0.0004079259,429.85499999972996,2.210072e-05
429.86999999972994,9.260959e-05,429.86999999972994,4.71946e-05,429.86999999972994,0.0004089945,429.86999999972994,2.237185e-05
429.8849999997299,8.941419e-05,429.8849999997299,4.667718e-05,429.8849999997299,0.0004093448,429.8849999997299,2.22949e-05
429.8999999997299,9.00334e-05,429.8999999997299,4.659563e-05,429.8999999997299,0.0004081922,429.8999999997299,2.243724e-05
429.9149999997299,8.702364e-05,429.9149999997299,4.687263e-05,429.9149999997299,0.0004010454,429.9149999997299,2.204583e-05
429.9299999997299,8.257347e-05,429.9299999997299,4.271887e-05,429.9299999997299,0.0003104023,429.9299999997299,2.070269e-05
429.9449999997299,7.797297e-05,429.9449999997299,3.769253e-05,429.9449999997299,0.000284418,429.9449999997299,2.041491e-05
429.95999999972986,7.362825e-05,429.95999999972986,3.318367e-05,429.95999999972986,0.0002594489,429.95999999972986,1.797712e-05
429.97499999972985,7.246112e-05,429.97499999972985,3.031712e-05,429.97499999972985,0.000257287,429.97499999972985,1.776191e-05
429.98999999972983,7.03054e-05,429.98999999972983,3.007079e-05,429.98999999972983,0.0002533752,429.98999999972983,1.801391e-05
430.0049999997298,7.279879e-05,430.0049999997298,3.114271e-05,430.0049999997298,0.0002450861,430.0049999997298,1.873456e-05
430.0199999997298,6.812467e-05,430.0199999997298,3.171862e-05,430.0199999997298,0.0002384819,430.0199999997298,1.858433e-05
430.0349999997298,6.997622e-05,430.0349999997298,3.193858e-05,430.0349999997298,0.0002315069,430.0349999997298,1.90048e-05
430.0499999997298,7.336702e-05,430.0499999997298,3.186661e-05,430.0499999997298,0.0002245431,430.0499999997298,1.902333e-05
430.06499999972976,7.157309e-05,430.06499999972976,3.123935e-05,430.06499999972976,0.0002211172,430.06499999972976,1.871425e-05
430.07999999972975,6.836493e-05,430.07999999972975,3.050334e-05,430.07999999972975,0.0002149885,430.07999999972975,1.750467e-05
430.09499999972974,6.74898e-05,430.09499999972974,2.906265e-05,430.09499999972974,0.0002078941,430.09499999972974,1.730557e-05
430.1099999997297,6.51082e-05,430.1099999997297,2.873165e-05,430.1099999997297,0.0001999044,430.1099999997297,1.607326e-05
430.1249999997297,6.469952e-05,430.1249999997297,2.871105e-05,430.1249999997297,0.0001936359,430.1249999997297,1.774525e-05
430.1399999997297,6.514756e-05,430.1399999997297,2.834864e-05,430.1399999997297,0.0001799123,430.1399999997297,1.768481e-05
430.1549999997297,6.306711e-05,430.1549999997297,2.520758e-05,430.1549999997297,0.0001742447,430.1549999997297,1.75561e-05
430.16999999972967,6.743551e-05,430.16999999972967,2.477127e-05,430.16999999972967,0.0001548045,430.16999999972967,1.74539e-05
430.18499999972965,6.655535e-05,430.18499999972965,2.422676e-05,430.18499999972965,0.0001419566,430.18499999972965,1.761458e-05
430.19999999972964,6.561617e-05,430.19999999972964,2.722989e-05,430.19999999972964,0.0001324011,430.19999999972964,1.730313e-05
430.2149999997296,6.818667e-05,430.2149999997296,2.68627e-05,430.2149999997296,0.000122227,430.2149999997296,1.642952e-05
430.2299999997296,6.821063e-05,430.2299999997296,2.572149e-05,430.2299999997296,0.0001210095,430.2299999997296,1.679919e-05
430.2449999997296,7.113145e-05,430.2449999997296,2.438382e-05,430.2449999997296,0.0001055415,430.2449999997296,1.602938e-05
430.2599999997296,6.789974e-05,430.2599999997296,2.179844e-05,430.2599999997296,9.991613e-05,430.2599999997296,1.592004e-05
430.2749999997296,6.713004e-05,430.2749999997296,2.159066e-05,430.2749999997296,9.309794e-05,430.2749999997296,1.597304e-05
430.28999999972956,6.545389e-05,430.28999999972956,2.178163e-05,430.28999999972956,8.633294e-05,430.28999999972956,1.566493e-05
430.30499999972955,6.83569e-05,430.30499999972955,2.119956e-05,430.30499999972955,8.25052e-05,430.30499999972955,1.527889e-05
430.31999999972953,7.281775e-05,430.31999999972953,2.114434e-05,430.31999999972953,7.656023e-05,430.31999999972953,1.515577e-05
430.3349999997295,7.609978e-05,430.3349999997295,2.126458e-05,430.3349999997295,7.300439e-05,430.3349999997295,1.512134e-05
430.3499999997295,7.525713e-05,430.3499999997295,2.554509e-05,430.3499999997295,6.925099e-05,430.3499999997295,1.536989e-05
430.3649999997295,8.067334e-05,430.3649999997295,2.62731e-05,430.3649999997295,6.882003e-05,430.3649999997295,1.517621e-05
430.3799999997295,7.951857e-05,430.3799999997295,2.781085e-05,430.3799999997295,6.677552e-05,430.3799999997295,1.363924e-05
430.39499999972946,8.200428e-05,430.39499999972946,2.782604e-05,430.39499999972946,6.536322e-05,430.39499999972946,1.445551e-05
430.40999999972945,7.977802e-05,430.40999999972945,2.780579e-05,430.40999999972945,6.61869e-05,430.40999999972945,1.512693e-05
430.42499999972944,7.700586e-05,430.42499999972944,2.789935e-05,430.42499999972944,6.808848e-05,430.42499999972944,1.488947e-05
430.4399999997294,8.002044e-05,430.4399999997294,2.668803e-05,430.4399999997294,7.324384e-05,430.4399999997294,1.478408e-05
430.4549999997294,7.915404e-05,430.4549999997294,2.524053e-05,430.4549999997294,6.676582e-05,430.4549999997294,1.467793e-05
430.4699999997294,7.887968e-05,430.4699999997294,2.529405e-05,430.4699999997294,6.846953e-05,430.4699999997294,1.466257e-05
430.4849999997294,8.058634e-05,430.4849999997294,2.572423e-05,430.4849999997294,6.048771e-05,430.4849999997294,1.407534e-05
430.49999999972937,7.976124e-05,430.49999999972937,2.661615e-05,430.49999999972937,5.98989e-05,430.49999999972937,1.398296e-05
430.51499999972935,8.105867e-05,430.51499999972935,2.655362e-05,430.51499999972935,5.995414e-05,430.51499999972935,1.437832e-05
430.52999999972934,8.107205e-05,430.52999999972934,2.517067e-05,430.52999999972934,6.330253e-05,430.52999999972934,1.540926e-05
430.5449999997293,7.821e-05,430.5449999997293,2.551253e-05,430.5449999997293,6.264488e-05,430.5449999997293,1.404428e-05
430.5599999997293,8.375913e-05,430.5599999997293,2.591464e-05,430.5599999997293,6.268871e-05,430.5599999997293,1.400008e-05
430.5749999997293,7.51736e-05,430.5749999997293,2.587275e-05,430.5749999997293,6.785574e-05,430.5749999997293,1.406032e-05
430.5899999997293,7.668653e-05,430.5899999997293,2.430629e-05,430.5899999997293,6.927539e-05,430.5899999997293,1.453714e-05
430.6049999997293,7.523186e-05,430.6049999997293,2.208924e-05,430.6049999997293,7.043571e-05,430.6049999997293,1.534146e-05
430.61999999972926,7.132487e-05,430.61999999972926,2.222656e-05,430.61999999972926,7.005047e-05,430.61999999972926,1.5412e-05
430.63499999972925,7.714622e-05,430.63499999972925,2.345749e-05,430.63499999972925,7.020614e-05,430.63499999972925,1.526136e-05
430.64999999972923,7.574912e-05,430.64999999972923,2.651381e-05,430.64999999972923,6.84864e-05,430.64999999972923,1.471244e-05
430.6649999997292,7.621612e-05,430.6649999997292,2.708413e-05,430.6649999997292,6.660697e-05,430.6649999997292,1.521422e-05
430.6799999997292,7.538412e-05,430.6799999997292,2.70305e-05,430.6799999997292,6.236204e-05,430.6799999997292,1.531021e-05
430.6949999997292,7.532112e-05,430.6949999997292,2.747452e-05,430.6949999997292,5.910153e-05,430.6949999997292,1.55494e-05
430.7099999997292,7.604349e-05,430.7099999997292,2.815918e-05,430.7099999997292,5.799841e-05,430.7099999997292,1.585975e-05
430.72499999972916,7.831692e-05,430.72499999972916,2.825656e-05,430.72499999972916,5.894281e-05,430.72499999972916,1.653209e-05
430.73999999972915,7.743219e-05,430.73999999972915,2.899714e-05,430.73999999972915,5.953019e-05,430.73999999972915,1.69245e-05
430.75499999972914,8.055592e-05,430.75499999972914,2.885201e-05,430.75499999972914,6.278818e-05,430.75499999972914,1.693698e-05
430.7699999997291,7.951644e-05,430.7699999997291,2.958959e-05,430.7699999997291,6.344279e-05,430.7699999997291,1.63582e-05
430.7849999997291,8.364452e-05,430.7849999997291,3.381819e-05,430.7849999997291,6.062704e-05,430.7849999997291,1.595804e-05
430.7999999997291,8.307723e-05,430.7999999997291,3.385898e-05,430.7999999997291,6.300252e-05,430.7999999997291,1.598538e-05
430.8149999997291,7.69925e-05,430.8149999997291,3.37189e-05,430.8149999997291,6.244082e-05,430.8149999997291,1.600212e-05
430.82999999972907,9.210764e-05,430.82999999972907,3.374104e-05,430.82999999972907,5.672684e-05,430.82999999972907,1.613537e-05
430.84499999972905,9.15054e-05,430.84499999972905,3.542574e-05,430.84499999972905,5.750692e-05,430.84499999972905,1.536256e-05
430.85999999972904,9.758943e-05,430.85999999972904,3.488883e-05,430.85999999972904,5.70322e-05,430.85999999972904,1.530745e-05
430.874999999729,9.593418e-05,430.874999999729,3.401133e-05,430.874999999729,0.0001236131,430.874999999729,1.592181e-05
430.889999999729,9.486765e-05,430.889999999729,3.610437e-05,430.889999999729,0.0002268436,430.889999999729,1.580281e-05
430.904999999729,9.553144e-05,430.904999999729,3.51535e-05,430.904999999729,0.0002457975,430.904999999729,1.567751e-05
430.919999999729,9.740941e-05,430.919999999729,3.50817e-05,430.919999999729,0.0002714596,430.919999999729,1.581172e-05
430.934999999729,9.379469e-05,430.934999999729,3.526313e-05,430.934999999729,0.0002746411,430.934999999729,1.73129e-05
430.94999999972896,9.586073e-05,430.94999999972896,3.52815e-05,430.94999999972896,0.0002762812,430.94999999972896,1.763376e-05
430.96499999972895,9.609732e-05,430.96499999972895,3.628651e-05,430.96499999972895,0.0002804232,430.96499999972895,1.777618e-05
430.97999999972893,9.998631e-05,430.97999999972893,3.616168e-05,430.97999999972893,0.0002802809,430.97999999972893,1.708273e-05
430.9949999997289,9.574339e-05,430.9949999997289,3.511541e-05,430.9949999997289,0.000280305,430.9949999997289,1.797868e-05
431.0099999997289,9.625989e-05,431.0099999997289,3.516872e-05,431.0099999997289,0.0002798768,431.0099999997289,1.876536e-05
431.0249999997289,9.424507e-05,431.0249999997289,3.560185e-05,431.0249999997289,0.0002796511,431.0249999997289,1.910903e-05
431.0399999997289,9.323674e-05,431.0399999997289,3.155253e-05,431.0399999997289,0.0002793809,431.0399999997289,1.878187e-05
431.05499999972886,9.357832e-05,431.05499999972886,3.155923e-05,431.05499999972886,0.0002831409,431.05499999972886,2.113368e-05
431.06999999972885,9.070819e-05,431.06999999972885,3.159269e-05,431.06999999972885,0.0002839546,431.06999999972885,2.222719e-05
431.08499999972884,7.897303e-05,431.08499999972884,3.562993e-05,431.08499999972884,0.0002849504,431.08499999972884,2.257869e-05
431.0999999997288,8.191352e-05,431.0999999997288,3.371306e-05,431.0999999997288,0.0002856368,431.0999999997288,2.233278e-05
431.1149999997288,7.838865e-05,431.1149999997288,3.796622e-05,431.1149999997288,0.0002901277,431.1149999997288,2.321847e-05
431.1299999997288,7.880464e-05,431.1299999997288,4.056052e-05,431.1299999997288,0.0002681578,431.1299999997288,2.331474e-05
431.1449999997288,7.69376e-05,431.1449999997288,3.826668e-05,431.1449999997288,0.0001803177,431.1449999997288,2.319905e-05
431.15999999972877,7.585672e-05,431.15999999972877,3.728861e-05,431.15999999972877,0.0001626098,431.15999999972877,2.288728e-05
431.17499999972875,7.72876e-05,431.17499999972875,4.854326e-05,431.17499999972875,0.0001345919,431.17499999972875,2.474282e-05
431.18999999972874,7.91882e-05,431.18999999972874,5.078487e-05,431.18999999972874,0.0001329894,431.18999999972874,2.365543e-05
431.2049999997287,7.594468e-05,431.2049999997287,5.100657e-05,431.2049999997287,0.0001282704,431.2049999997287,2.350908e-05
431.2199999997287,7.302715e-05,431.2199999997287,5.067824e-05,431.2199999997287,0.0001233247,431.2199999997287,2.355398e-05
431.2349999997287,7.738815e-05,431.2349999997287,5.238806e-05,431.2349999997287,0.0001236604,431.2349999997287,2.342925e-05
431.2499999997287,7.705907e-05,431.2499999997287,5.714127e-05,431.2499999997287,0.0001247931,431.2499999997287,2.421396e-05
431.2649999997287,8.262395e-05,431.2649999997287,5.975127e-05,431.2649999997287,0.0001322279,431.2649999997287,2.366198e-05
431.27999999972866,8.305808e-05,431.27999999972866,6.213778e-05,431.27999999972866,0.0001385849,431.27999999972866,2.409908e-05
431.29499999972865,8.640307e-05,431.29499999972865,6.797045e-05,431.29499999972865,0.000134409,431.29499999972865,2.510623e-05
431.30999999972863,8.5518e-05,431.30999999972863,6.854355e-05,431.30999999972863,0.000134191,431.30999999972863,2.438555e-05
431.3249999997286,8.794419e-05,431.3249999997286,6.846624e-05,431.3249999997286,0.0001358728,431.3249999997286,2.404642e-05
431.3399999997286,8.68037e-05,431.3399999997286,6.651004e-05,431.3399999997286,0.000135393,431.3399999997286,2.372263e-05
431.3549999997286,8.432065e-05,431.3549999997286,6.695102e-05,431.3549999997286,0.0001298222,431.3549999997286,2.387534e-05
431.3699999997286,8.478182e-05,431.3699999997286,6.296473e-05,431.3699999997286,0.0001241209,431.3699999997286,2.262107e-05
431.38499999972856,8.357308e-05,431.38499999972856,6.309301e-05,431.38499999972856,0.0001232883,431.38499999972856,2.306263e-05
