X[s],a: EMG RMS 1-1,X[s].1,a: EMG RMS 1-2,X[s].2,a: EMG RMS 1-3,X[s].3,a: EMG RMS 1-4
362.00999999979166,4.216091e-05,362.00999999979166,6.732031e-05,362.00999999979166,0.0001485026,362.00999999979166,6.518086e-06
362.02499999979165,4.242537e-05,362.02499999979165,6.763637e-05,362.02499999979165,0.0001467314,362.02499999979165,6.437625e-06
362.03999999979163,4.09418e-05,362.03999999979163,6.802099e-05,362.03999999979163,0.0001448032,362.03999999979163,6.298262e-06
362.0549999997916,4.108536e-05,362.0549999997916,6.63563e-05,362.0549999997916,0.0001420881,362.0549999997916,6.171741e-06
362.0699999997916,4.015563e-05,362.0699999997916,6.156682e-05,362.0699999997916,0.0001420227,362.0699999997916,6.183143e-06
362.0849999997916,3.867641e-05,362.0849999997916,5.881937e-05,362.0849999997916,0.0001042034,362.0849999997916,5.657291e-06
362.0999999997916,3.780075e-05,362.0999999997916,5.801492e-05,362.0999999997916,8.226993e-05,362.0999999997916,5.556798e-06
362.11499999979156,3.664845e-05,362.11499999979156,5.793012e-05,362.11499999979156,7.95901e-05,362.11499999979156,5.594695e-06
362.12999999979155,2.559027e-05,362.12999999979155,5.726956e-05,362.12999999979155,7.767014e-05,362.12999999979155,5.541568e-06
362.14499999979154,2.498869e-05,362.14499999979154,5.920417e-05,362.14499999979154,6.7637e-05,362.14499999979154,5.544109e-06
362.1599999997915,2.480139e-05,362.1599999997915,5.973429e-05,362.1599999997915,6.532549e-05,362.1599999997915,5.689569e-06
362.1749999997915,2.528514e-05,362.1749999997915,5.951623e-05,362.1749999997915,6.483588e-05,362.1749999997915,5.53139e-06
362.1899999997915,2.553019e-05,362.1899999997915,6.257198e-05,362.1899999997915,6.128244e-05,362.1899999997915,5.674694e-06
362.2049999997915,2.490625e-05,362.2049999997915,6.353221e-05,362.2049999997915,6.113308e-05,362.2049999997915,5.48022e-06
362.21999999979147,2.480764e-05,362.21999999979147,6.21303e-05,362.21999999979147,6.279514e-05,362.21999999979147,5.559333e-06
362.23499999979146,2.285093e-05,362.23499999979146,6.420908e-05,362.23499999979146,6.597586e-05,362.23499999979146,5.571988e-06
362.24999999979144,2.252247e-05,362.24999999979144,6.903381e-05,362.24999999979144,6.374493e-05,362.24999999979144,5.843468e-06
362.2649999997914,2.173372e-05,362.2649999997914,6.927559e-05,362.2649999997914,6.264578e-05,362.2649999997914,5.684616e-06
362.2799999997914,2.127717e-05,362.2799999997914,7.024205e-05,362.2799999997914,6.626049e-05,362.2799999997914,5.696992e-06
362.2949999997914,2.021382e-05,362.2949999997914,9.167888e-05,362.2949999997914,6.870141e-05,362.2949999997914,5.812045e-06
362.3099999997914,1.886121e-05,362.3099999997914,9.54987e-05,362.3099999997914,6.718794e-05,362.3099999997914,5.751133e-06
362.3249999997914,1.835706e-05,362.3249999997914,0.0001015123,362.3249999997914,7.121576e-05,362.3249999997914,5.773135e-06
362.33999999979136,1.806544e-05,362.33999999979136,0.0001032329,362.33999999979136,7.485587e-05,362.33999999979136,5.738873e-06
362.35499999979135,2.078486e-05,362.35499999979135,0.0001047058,362.35499999979135,7.919336e-05,362.35499999979135,5.780451e-06
362.36999999979133,2.096168e-05,362.36999999979133,0.0001049426,362.36999999979133,8.845098e-05,362.36999999979133,5.874723e-06
362.3849999997913,2.047623e-05,362.3849999997913,0.0001026845,362.3849999997913,9.751174e-05,362.3849999997913,5.979298e-06
362.3999999997913,2.018034e-05,362.3999999997913,0.000101547,362.3999999997913,0.0001039152,362.3999999997913,5.958057e-06
362.4149999997913,2.054423e-05,362.4149999997913,0.0001012569,362.4149999997913,0.0001080954,362.4149999997913,5.853103e-06
362.4299999997913,2.062156e-05,362.4299999997913,9.98961e-05,362.4299999997913,0.0001100863,362.4299999997913,5.912964e-06
362.44499999979126,2.073465e-05,362.44499999979126,9.791108e-05,362.44499999979126,0.0001121116,362.44499999979126,5.682137e-06
362.45999999979125,2.111367e-05,362.45999999979125,9.71006e-05,362.45999999979125,0.0001120244,362.45999999979125,5.696992e-06
362.47499999979124,2.112635e-05,362.47499999979124,9.678848e-05,362.47499999979124,0.0001134997,362.47499999979124,5.500745e-06
362.4899999997912,2.170129e-05,362.4899999997912,9.194355e-05,362.4899999997912,0.0001182898,362.4899999997912,5.436346e-06
362.5049999997912,2.144927e-05,362.5049999997912,8.795236e-05,362.5049999997912,0.0001186002,362.5049999997912,5.140683e-06
362.5199999997912,2.140654e-05,362.5199999997912,8.719828e-05,362.5199999997912,0.0001288361,362.5199999997912,5.294573e-06
362.5349999997912,2.270064e-05,362.5349999997912,7.659169e-05,362.5349999997912,0.0001375074,362.5349999997912,5.373798e-06
362.54999999979117,2.36947e-05,362.54999999979117,6.421764e-05,362.54999999979117,0.0001386306,362.54999999979117,5.176183e-06
362.56499999979116,2.357311e-05,362.56499999979116,4.69303e-05,362.56499999979116,0.0001474513,362.56499999979116,5.222243e-06
362.57999999979114,2.354321e-05,362.57999999979114,4.387741e-05,362.57999999979114,0.0001509659,362.57999999979114,5.124215e-06
362.5949999997911,2.062088e-05,362.5949999997911,3.95252e-05,362.5949999997911,0.0001509576,362.5949999997911,5.176183e-06
362.6099999997911,1.987437e-05,362.6099999997911,3.64743e-05,362.6099999997911,0.0001541771,362.6099999997911,5.096651e-06
362.6249999997911,1.97813e-05,362.6249999997911,3.632104e-05,362.6249999997911,0.0001596537,362.6249999997911,5.148897e-06
362.6399999997911,1.962688e-05,362.6399999997911,3.619944e-05,362.6399999997911,0.0001539069,362.6399999997911,4.876302e-06
362.6549999997911,1.998534e-05,362.6549999997911,3.520715e-05,362.6549999997911,0.0001845046,362.6549999997911,4.782967e-06
362.66999999979106,2.089841e-05,362.66999999979106,3.666805e-05,362.66999999979106,0.0002158894,362.66999999979106,4.759348e-06
362.68499999979105,2.009289e-05,362.68499999979105,3.580622e-05,362.68499999979105,0.0002178138,362.68499999979105,4.774123e-06
362.69999999979103,2.008027e-05,362.69999999979103,3.522355e-05,362.69999999979103,0.0002268246,362.69999999979103,4.856038e-06
362.714999999791,2.069112e-05,362.714999999791,3.833803e-05,362.714999999791,0.0002313732,362.714999999791,4.815255e-06
362.729999999791,2.053668e-05,362.729999999791,4.01984e-05,362.729999999791,0.0002491721,362.729999999791,4.965048e-06
362.744999999791,2.016777e-05,362.744999999791,4.242238e-05,362.744999999791,0.0002511032,362.744999999791,5.082812e-06
362.759999999791,2.03049e-05,362.759999999791,4.121272e-05,362.759999999791,0.0002503039,362.759999999791,5.2679e-06
362.77499999979096,1.959312e-05,362.77499999979096,4.597813e-05,362.77499999979096,0.0002490883,362.77499999979096,5.14616e-06
362.78999999979095,1.736327e-05,362.78999999979095,4.926425e-05,362.78999999979095,0.0002617135,362.78999999979095,5.195198e-06
362.80499999979094,1.640893e-05,362.80499999979094,5.51402e-05,362.80499999979094,0.0002833012,362.80499999979094,5.405162e-06
362.8199999997909,1.643295e-05,362.8199999997909,5.527747e-05,362.8199999997909,0.0002854969,362.8199999997909,5.368553e-06
362.8349999997909,1.615195e-05,362.8349999997909,5.746428e-05,362.8349999997909,0.0003006663,362.8349999997909,5.799914e-06
362.8499999997909,1.616067e-05,362.8499999997909,5.997646e-05,362.8499999997909,0.0003282985,362.8499999997909,5.644828e-06
362.8649999997909,1.700918e-05,362.8649999997909,5.975999e-05,362.8649999997909,0.0003240983,362.8649999997909,5.662269e-06
362.87999999979087,1.878112e-05,362.87999999979087,6.031746e-05,362.87999999979087,0.0003255992,362.87999999979087,5.701935e-06
362.89499999979085,1.881859e-05,362.89499999979085,6.003867e-05,362.89499999979085,0.0003448194,362.89499999979085,5.770695e-06
362.90999999979084,1.66501e-05,362.90999999979084,5.967719e-05,362.90999999979084,0.000336035,362.90999999979084,5.743781e-06
362.9249999997908,1.60645e-05,362.9249999997908,5.886294e-05,362.9249999997908,0.0003225878,362.9249999997908,6.000464e-06
362.9399999997908,1.548586e-05,362.9399999997908,5.875755e-05,362.9399999997908,0.0003200171,362.9399999997908,6.109804e-06
362.9549999997908,1.525398e-05,362.9549999997908,5.853295e-05,362.9549999997908,0.0003210131,362.9549999997908,6.132817e-06
362.9699999997908,1.37411e-05,362.9699999997908,5.59069e-05,362.9699999997908,0.0003129363,362.9699999997908,6.135114e-06
362.9849999997908,1.369695e-05,362.9849999997908,5.46052e-05,362.9849999997908,0.0002974028,362.9849999997908,6.217223e-06
362.99999999979076,1.414323e-05,362.99999999979076,5.206439e-05,362.99999999979076,0.0002960023,362.99999999979076,6.237581e-06
363.01499999979075,1.391935e-05,363.01499999979075,5.046543e-05,363.01499999979075,0.0002978245,363.01499999979075,6.194524e-06
363.02999999979073,1.361443e-05,363.02999999979073,4.76482e-05,363.02999999979073,0.0002949651,363.02999999979073,6.535352e-06
363.0449999997907,1.372058e-05,363.0449999997907,4.134853e-05,363.0449999997907,0.0002744048,363.0449999997907,6.631638e-06
363.0599999997907,1.365266e-05,363.0599999997907,3.345973e-05,363.0599999997907,0.0002577296,363.0599999997907,6.987449e-06
363.0749999997907,1.365678e-05,363.0749999997907,3.244357e-05,363.0749999997907,0.0002530991,363.0749999997907,7.067629e-06
363.0899999997907,1.410433e-05,363.0899999997907,2.563317e-05,363.0899999997907,0.0002225147,363.0899999997907,6.730734e-06
363.10499999979066,1.441648e-05,363.10499999979066,2.178099e-05,363.10499999979066,0.000181091,363.10499999979066,6.797376e-06
363.11999999979065,1.079598e-05,363.11999999979065,2.178163e-05,363.11999999979065,0.0001755736,363.11999999979065,6.824264e-06
363.13499999979064,1.021952e-05,363.13499999979064,1.843822e-05,363.13499999979064,0.0001628411,363.13499999979064,7.316379e-06
363.1499999997906,1.02333e-05,363.1499999997906,1.841988e-05,363.1499999997906,0.0001252516,363.1499999997906,7.752019e-06
363.1649999997906,1.03101e-05,363.1649999997906,1.670669e-05,363.1649999997906,9.133945e-05,363.1649999997906,7.799122e-06
363.1799999997906,1.051305e-05,363.1799999997906,1.492254e-05,363.1799999997906,8.025651e-05,363.1799999997906,7.752019e-06
363.1949999997906,1.027177e-05,363.1949999997906,1.303725e-05,363.1949999997906,7.909369e-05,363.1949999997906,7.790086e-06
363.20999999979057,1.019606e-05,363.20999999979057,1.271229e-05,363.20999999979057,6.971141e-05,363.20999999979057,7.903186e-06
363.22499999979055,1.064619e-05,363.22499999979055,1.247177e-05,363.22499999979055,6.386151e-05,363.22499999979055,7.990047e-06
363.23999999979054,9.607078e-06,363.23999999979054,9.942854e-06,363.23999999979054,6.209991e-05,363.23999999979054,7.797315e-06
363.2549999997905,9.230183e-06,363.2549999997905,7.324076e-06,363.2549999997905,5.915537e-05,363.2549999997905,7.762914e-06
363.2699999997905,9.175076e-06,363.2699999997905,7.362442e-06,363.2699999997905,4.341556e-05,363.2699999997905,7.759284e-06
363.2849999997905,9.08404e-06,363.2849999997905,6.820134e-06,363.2849999997905,3.588913e-05,363.2849999997905,7.784659e-06
363.2999999997905,8.894426e-06,363.2999999997905,6.2781e-06,363.2999999997905,3.452312e-05,363.2999999997905,7.434793e-06
363.3149999997905,9.416029e-06,363.3149999997905,6.483414e-06,363.3149999997905,3.210619e-05,363.3149999997905,7.333686e-06
363.32999999979046,9.355996e-06,363.32999999979046,6.614623e-06,363.32999999979046,3.14219e-05,363.32999999979046,7.283574e-06
363.34499999979045,8.581677e-06,363.34499999979045,6.816002e-06,363.34499999979045,3.211935e-05,363.34499999979045,7.413922e-06
363.35999999979043,8.524032e-06,363.35999999979043,7.029658e-06,363.35999999979043,3.254112e-05,363.35999999979043,7.649581e-06
363.3749999997904,8.835633e-06,363.3749999997904,7.951166e-06,363.3749999997904,3.523555e-05,363.3749999997904,7.896054e-06
363.3899999997904,8.681231e-06,363.3899999997904,8.068993e-06,363.3899999997904,3.782571e-05,363.3899999997904,7.998858e-06
363.4049999997904,8.726546e-06,363.4049999997904,8.589881e-06,363.4049999997904,3.729616e-05,363.4049999997904,7.845942e-06
363.4199999997904,9.33791e-06,363.4199999997904,8.853152e-06,363.4199999997904,3.692645e-05,363.4199999997904,7.737468e-06
363.43499999979036,9.988088e-06,363.43499999979036,9.071627e-06,363.43499999979036,3.907067e-05,363.43499999979036,7.644054e-06
363.44999999979035,1.07999e-05,363.44999999979035,9.803028e-06,363.44999999979035,4.77613e-05,363.44999999979035,7.757469e-06
363.46499999979034,1.178177e-05,363.46499999979034,1.019054e-05,363.46499999979034,5.032007e-05,363.46499999979034,7.59599e-06
363.4799999997903,1.146915e-05,363.4799999997903,1.126467e-05,363.4799999997903,6.081889e-05,363.4799999997903,7.680822e-06
363.4949999997903,1.199623e-05,363.4949999997903,1.166281e-05,363.4949999997903,6.429459e-05,363.4949999997903,7.865667e-06
363.5099999997903,1.207465e-05,363.5099999997903,1.263226e-05,363.5099999997903,6.687966e-05,363.5099999997903,7.954708e-06
363.5249999997903,1.418798e-05,363.5249999997903,1.325478e-05,363.5249999997903,7.301847e-05,363.5249999997903,7.71559e-06
363.53999999979027,1.485158e-05,363.53999999979027,1.399303e-05,363.53999999979027,7.520264e-05,363.53999999979027,7.71559e-06
363.55499999979025,1.664672e-05,363.55499999979025,1.433712e-05,363.55499999979025,8.40851e-05,363.55499999979025,7.680822e-06
363.56999999979024,2.089571e-05,363.56999999979024,1.438126e-05,363.56999999979024,9.733505e-05,363.56999999979024,7.438582e-06
363.5849999997902,2.282873e-05,363.5849999997902,1.439693e-05,363.5849999997902,0.0001129099,363.5849999997902,7.487657e-06
363.5999999997902,2.329721e-05,363.5999999997902,1.442137e-05,363.5999999997902,0.000126712,363.5999999997902,7.491418e-06
363.6149999997902,2.875763e-05,363.6149999997902,1.476787e-05,363.6149999997902,0.0001305783,363.6149999997902,7.306746e-06
363.6299999997902,2.940525e-05,363.6299999997902,1.475833e-05,363.6299999997902,0.0001307784,363.6299999997902,6.908378e-06
363.6449999997902,2.968987e-05,363.6449999997902,1.736814e-05,363.6449999997902,0.000130261,363.6449999997902,5.998116e-06
363.65999999979016,3.234399e-05,363.65999999979016,2.0612e-05,363.65999999979016,0.0001302128,363.65999999979016,6.077441e-06
363.67499999979015,3.425235e-05,363.67499999979015,2.201258e-05,363.67499999979015,0.0001370148,363.67499999979015,6.123622e-06
363.68999999979013,3.583729e-05,363.68999999979013,2.216309e-05,363.68999999979013,0.000137607,363.68999999979013,6.275856e-06
363.7049999997901,3.690279e-05,363.7049999997901,2.608962e-05,363.7049999997901,0.0001424962,363.7049999997901,6.448557e-06
363.7199999997901,3.725195e-05,363.7199999997901,2.79145e-05,363.7199999997901,0.0001533995,363.7199999997901,6.413511e-06
363.7349999997901,3.77974e-05,363.7349999997901,2.968275e-05,363.7349999997901,0.0001515061,363.7349999997901,6.219488e-06
363.7499999997901,3.79703e-05,363.7499999997901,3.278092e-05,363.7499999997901,0.0001503096,363.7499999997901,6.194524e-06
363.76499999979006,3.761247e-05,363.76499999979006,4.59297e-05,363.76499999979006,0.0001474419,363.76499999979006,6.100575e-06
363.77999999979005,3.76237e-05,363.77999999979005,4.995539e-05,363.77999999979005,0.0001447156,363.77999999979005,5.934367e-06
363.79499999979004,3.72126e-05,363.79499999979004,5.308363e-05,363.79499999979004,0.0001451389,363.79499999979004,5.965146e-06
363.80999999979,3.70943e-05,363.80999999979,5.387281e-05,363.80999999979,0.0001474886,363.80999999979,6.070483e-06
363.82499999979,3.549009e-05,363.82499999979,5.750864e-05,363.82499999979,0.0001441315,363.82499999979,6.123622e-06
363.83999999979,3.524355e-05,363.83999999979,6.496351e-05,363.83999999979,0.000134385,363.83999999979,6.091332e-06
363.85499999979,3.658305e-05,363.85499999979,7.933039e-05,363.85499999979,0.0001315611,363.85499999979,6.070483e-06
363.86999999978997,3.446105e-05,363.86999999978997,8.122846e-05,363.86999999978997,0.0001305308,363.86999999978997,6.584741e-06
363.88499999978995,3.412091e-05,363.88499999978995,8.261048e-05,363.88499999978995,0.0001290088,363.88499999978995,6.737009e-06
363.89999999978994,3.409158e-05,363.89999999978994,8.358336e-05,363.89999999978994,0.0001340237,363.89999999978994,6.701369e-06
363.9149999997899,3.057576e-05,363.9149999997899,8.674104e-05,363.9149999997899,0.0001376068,363.9149999997899,7.459384e-06
363.9299999997899,3.458753e-05,363.9299999997899,8.742706e-05,363.9299999997899,0.0001341433,363.9299999997899,7.542018e-06
363.9449999997899,3.55472e-05,363.9449999997899,8.977942e-05,363.9449999997899,0.0001339542,363.9449999997899,7.60896e-06
363.9599999997899,3.628767e-05,363.9599999997899,8.941797e-05,363.9599999997899,0.0001320929,363.9599999997899,7.485775e-06
363.9749999997899,4.143599e-05,363.9749999997899,8.932687e-05,363.9749999997899,0.0001189953,363.9749999997899,7.573703e-06
363.98999999978986,4.20371e-05,363.98999999978986,9.083343e-05,363.98999999978986,0.0001192732,363.98999999978986,7.689987e-06
364.00499999978985,4.293431e-05,364.00499999978985,8.660419e-05,364.00499999978985,0.0001197296,364.00499999978985,7.634834e-06
364.01999999978983,4.365726e-05,364.01999999978983,8.465195e-05,364.01999999978983,0.0001180258,364.01999999978983,7.721065e-06
364.0349999997898,4.466682e-05,364.0349999997898,8.394224e-05,364.0349999997898,0.00011802,364.0349999997898,7.761099e-06
364.0499999997898,4.517983e-05,364.0499999997898,8.42058e-05,364.0499999997898,0.0001125877,364.0499999997898,7.92099e-06
364.0649999997898,4.721041e-05,364.0649999997898,8.483879e-05,364.0649999997898,0.0001078892,364.0649999997898,7.93343e-06
364.0799999997898,4.689306e-05,364.0799999997898,7.887503e-05,364.0799999997898,0.0001049048,364.0799999997898,7.892485e-06
364.09499999978976,4.921333e-05,364.09499999978976,8.205854e-05,364.09499999978976,9.733794e-05,364.09499999978976,8.055015e-06
364.10999999978975,4.86676e-05,364.10999999978975,7.811358e-05,364.10999999978975,8.28288e-05,364.10999999978975,8.209184e-06
364.12499999978974,4.847008e-05,364.12499999978974,8.090246e-05,364.12499999978974,8.139062e-05,364.12499999978974,7.667973e-06
364.1399999997897,5.050589e-05,364.1399999997897,7.952371e-05,364.1399999997897,7.438449e-05,364.1399999997897,7.762914e-06
364.1549999997897,5.365377e-05,364.1549999997897,7.776276e-05,364.1549999997897,6.930019e-05,364.1549999997897,7.730182e-06
364.1699999997897,5.267418e-05,364.1699999997897,7.809699e-05,364.1699999997897,6.724871e-05,364.1699999997897,6.881819e-06
364.1849999997897,4.995679e-05,364.1849999997897,8.127284e-05,364.1849999997897,6.682867e-05,364.1849999997897,6.826328e-06
364.19999999978967,4.916092e-05,364.19999999978967,0.0001034367,364.19999999978967,6.432087e-05,364.19999999978967,6.914493e-06
364.21499999978965,4.967969e-05,364.21499999978965,0.000113589,364.21499999978965,5.617235e-05,364.21499999978965,6.890002e-06
364.22999999978964,4.63127e-05,364.22999999978964,0.0001246956,364.22999999978964,5.66207e-05,364.22999999978964,6.844875e-06
364.2449999997896,4.878497e-05,364.2449999997896,0.0001531236,364.2449999997896,5.560245e-05,364.2449999997896,6.787006e-06
364.2599999997896,4.929341e-05,364.2599999997896,0.0001642056,364.2599999997896,5.378855e-05,364.2599999997896,6.900217e-06
364.2749999997896,4.959057e-05,364.2749999997896,0.0001656314,364.2749999997896,5.487669e-05,364.2749999997896,7.00959e-06
364.2899999997896,4.874915e-05,364.2899999997896,0.0001649836,364.2899999997896,5.3612e-05,364.2899999997896,7.41962e-06
364.3049999997896,4.802395e-05,364.3049999997896,0.0001644774,364.3049999997896,5.026377e-05,364.3049999997896,7.339447e-06
364.31999999978956,4.696841e-05,364.31999999978956,0.0001647268,364.31999999978956,5.087272e-05,364.31999999978956,7.308674e-06
364.33499999978955,4.717071e-05,364.33499999978955,0.000164282,364.33499999978955,4.93177e-05,364.33499999978955,7.131124e-06
364.34999999978953,4.46056e-05,364.34999999978953,0.0001629746,364.34999999978953,4.463465e-05,364.34999999978953,6.859265e-06
364.3649999997895,4.423743e-05,364.3649999997895,0.0001600218,364.3649999997895,4.409902e-05,364.3649999997895,6.726546e-06
364.3799999997895,4.402548e-05,364.3799999997895,0.0001579253,364.3799999997895,4.423679e-05,364.3799999997895,6.606099e-06
364.3949999997895,3.847154e-05,364.3949999997895,0.000157849,364.3949999997895,4.872285e-05,364.3949999997895,6.552573e-06
364.4099999997895,3.959997e-05,364.4099999997895,0.0001573601,364.4099999997895,5.240284e-05,364.4099999997895,6.507271e-06
364.42499999978946,3.863487e-05,364.42499999978946,0.0001552732,364.42499999978946,5.264502e-05,364.42499999978946,6.597564e-06
364.43999999978945,3.78581e-05,364.43999999978945,0.0001517412,364.43999999978945,5.461862e-05,364.43999999978945,6.262374e-06
364.45499999978944,3.745822e-05,364.45499999978944,0.0001324035,364.45499999978944,5.732021e-05,364.45499999978944,6.327271e-06
364.4699999997894,3.635671e-05,364.4699999997894,0.0001281844,364.4699999997894,6.619541e-05,364.4699999997894,6.302733e-06
364.4849999997894,3.510578e-05,364.4849999997894,0.0001001697,364.4849999997894,7.439737e-05,364.4849999997894,6.433248e-06
364.4999999997894,2.773578e-05,364.4999999997894,8.311758e-05,364.4999999997894,8.129727e-05,364.4999999997894,6.260124e-06
364.5149999997894,2.779109e-05,364.5149999997894,6.254789e-05,364.5149999997894,9.326726e-05,364.5149999997894,6.135114e-06
364.52999999978937,2.966044e-05,364.52999999978937,6.180842e-05,364.52999999978937,9.846687e-05,364.52999999978937,5.998116e-06
364.54499999978935,3.013256e-05,364.54499999978935,7.166101e-05,364.54499999978935,0.0001003121,364.54499999978935,5.307859e-06
364.55999999978934,2.962194e-05,364.55999999978934,7.893323e-05,364.55999999978934,0.000109968,364.55999999978934,5.358047e-06
364.5749999997893,2.720349e-05,364.5749999997893,7.877639e-05,364.5749999997893,0.0001123668,364.5749999997893,5.397339e-06
364.5899999997893,2.511689e-05,364.5899999997893,8.031441e-05,364.5899999997893,0.0001208788,364.5899999997893,5.516089e-06
364.6049999997893,2.496895e-05,364.6049999997893,7.681391e-05,364.6049999997893,0.0001209307,364.6049999997893,5.363302e-06
364.6199999997893,2.549265e-05,364.6199999997893,7.694583e-05,364.6199999997893,0.0001256744,364.6199999997893,5.365928e-06
364.6349999997893,2.552909e-05,364.6349999997893,7.703969e-05,364.6349999997893,0.0001280093,364.6349999997893,5.48022e-06
364.64999999978926,2.283182e-05,364.64999999978926,7.71444e-05,364.64999999978926,0.0001329795,364.64999999978926,5.350154e-06
364.66499999978925,2.197479e-05,364.66499999978925,7.928669e-05,364.66499999978925,0.000133681,364.66499999978925,5.289249e-06
364.67999999978923,2.188744e-05,364.67999999978923,8.271392e-05,364.67999999978923,0.0001335086,364.67999999978923,5.230329e-06
364.6949999997892,2.108296e-05,364.6949999997892,8.956074e-05,364.6949999997892,0.0001370313,364.6949999997892,5.318464e-06
364.7099999997892,2.111034e-05,364.7099999997892,9.121738e-05,364.7099999997892,0.0001402337,364.7099999997892,5.173461e-06
364.7249999997892,2.036863e-05,364.7249999997892,9.263484e-05,364.7249999997892,0.0001392819,364.7249999997892,5.2679e-06
364.7399999997892,2.054011e-05,364.7399999997892,9.912162e-05,364.7399999997892,0.0001358437,364.7399999997892,5.170737e-06
364.75499999978916,2.08613e-05,364.75499999978916,9.878737e-05,364.75499999978916,0.0001356877,364.75499999978916,5.216845e-06
364.76999999978915,1.947847e-05,364.76999999978915,9.995983e-05,364.76999999978915,0.0001282452,364.76999999978915,5.132455e-06
364.78499999978914,1.576354e-05,364.78499999978914,0.0001005564,364.78499999978914,0.0001305443,364.78499999978914,5.091119e-06
364.7999999997891,1.511296e-05,364.7999999997891,8.948537e-05,364.7999999997891,0.0001324523,364.7999999997891,5.270573e-06
364.8149999997891,1.494235e-05,364.8149999997891,8.617812e-05,364.8149999997891,0.0001467325,364.8149999997891,5.310512e-06
364.8299999997891,1.451289e-05,364.8299999997891,8.704808e-05,364.8299999997891,0.0001881929,364.8299999997891,5.206033e-06
364.8449999997891,1.419195e-05,364.8449999997891,8.693359e-05,364.8449999997891,0.0002771538,364.8449999997891,5.168013e-06
364.85999999978907,1.31277e-05,364.85999999978907,8.700567e-05,364.85999999978907,0.000285531,364.85999999978907,5.203327e-06
364.87499999978905,1.331204e-05,364.87499999978905,8.737919e-05,364.87499999978905,0.000296824,364.87499999978905,5.203327e-06
364.88999999978904,1.297335e-05,364.88999999978904,8.727903e-05,364.88999999978904,0.0003056694,364.88999999978904,5.137942e-06
364.904999999789,1.26278e-05,364.904999999789,9.42899e-05,364.904999999789,0.0003204907,364.904999999789,5.115961e-06
364.919999999789,1.261999e-05,364.919999999789,9.717413e-05,364.919999999789,0.000342657,364.919999999789,5.088352e-06
364.934999999789,1.27134e-05,364.934999999789,9.337322e-05,364.934999999789,0.0003646133,364.934999999789,5.143422e-06
364.949999999789,1.245482e-05,364.949999999789,8.939418e-05,364.949999999789,0.0003652989,364.949999999789,5.110451e-06
364.964999999789,1.250223e-05,364.964999999789,8.987539e-05,364.964999999789,0.0003751021,364.964999999789,5.257193e-06
364.97999999978896,1.246839e-05,364.97999999978896,9.390576e-05,364.97999999978896,0.0003818036,364.97999999978896,5.08004e-06
364.99499999978894,1.205013e-05,364.99499999978894,8.726562e-05,364.99499999978894,0.000381768,364.99499999978894,5.001795e-06
365.00999999978893,1.073317e-05,365.00999999978893,8.347188e-05,365.00999999978893,0.0003813356,365.00999999978893,5.018664e-06
365.0249999997889,9.62173e-06,365.0249999997889,8.063736e-05,365.0249999997889,0.0003815113,365.0249999997889,5.029879e-06
365.0399999997889,9.453355e-06,365.0399999997889,7.888004e-05,365.0399999997889,0.0003793142,365.0399999997889,4.893604e-06
365.0549999997889,9.228656e-06,365.0549999997889,7.888164e-05,365.0549999997889,0.0003785471,365.0549999997889,4.882076e-06
365.0699999997889,9.015552e-06,365.0699999997889,7.720828e-05,365.0699999997889,0.0003657272,365.0699999997889,5.057808e-06
365.08499999978886,9.116548e-06,365.08499999978886,7.578798e-05,365.08499999978886,0.0003231921,365.08499999978886,5.091119e-06
365.09999999978885,9.634898e-06,365.09999999978885,7.510424e-05,365.09999999978885,0.0002674416,365.09999999978885,5.063375e-06
365.11499999978884,9.626121e-06,365.11499999978884,7.446871e-05,365.11499999978884,0.0002680791,365.11499999978884,5.376418e-06
365.1299999997888,8.886504e-06,365.1299999997888,7.414587e-05,365.1299999997888,0.0002613602,365.1299999997888,5.677176e-06
365.1449999997888,8.872225e-06,365.1449999997888,7.087035e-05,365.1449999997888,0.0002466495,365.1449999997888,5.692045e-06
365.1599999997888,8.867461e-06,365.1599999997888,5.862458e-05,365.1599999997888,0.0002147464,365.1599999997888,5.836232e-06
365.1749999997888,8.768416e-06,365.1749999997888,4.912824e-05,365.1749999997888,0.000176045,365.1749999997888,6.185421e-06
365.18999999978877,8.297934e-06,365.18999999978877,4.765914e-05,365.18999999978877,0.0001436636,365.18999999978877,6.141998e-06
365.20499999978875,8.573465e-06,365.20499999978875,4.562845e-05,365.20499999978875,0.0001385511,365.20499999978875,6.155743e-06
365.21999999978874,8.385746e-06,365.21999999978874,3.776496e-05,365.21999999978874,0.0001034282,365.21999999978874,6.264623e-06
365.2349999997887,8.729774e-06,365.2349999997887,2.291803e-05,365.2349999997887,8.497516e-05,365.2349999997887,6.296025e-06
365.2499999997887,9.007736e-06,365.2499999997887,1.674207e-05,365.2499999997887,8.116339e-05,365.2499999997887,6.574036e-06
365.2649999997887,8.377342e-06,365.2649999997887,1.649284e-05,365.2649999997887,7.874151e-05,365.2649999997887,6.618881e-06
365.2799999997887,8.373978e-06,365.2799999997887,1.687615e-05,365.2799999997887,7.451618e-05,365.2799999997887,6.642251e-06
365.2949999997887,8.370614e-06,365.2949999997887,1.521884e-05,365.2949999997887,7.636993e-05,365.2949999997887,6.479067e-06
365.30999999978866,8.407555e-06,365.30999999978866,1.506628e-05,365.30999999978866,7.630553e-05,365.30999999978866,6.616753e-06
365.32499999978864,8.43599e-06,365.32499999978864,1.455554e-05,365.32499999978864,7.351777e-05,365.32499999978864,6.380479e-06
365.33999999978863,8.348708e-06,365.33999999978863,1.347193e-05,365.33999999978863,6.87629e-05,365.33999999978863,6.415707e-06
365.3549999997886,7.879981e-06,365.3549999997886,1.284787e-05,365.3549999997886,6.377984e-05,365.3549999997886,6.187698e-06
365.3699999997886,8.004139e-06,365.3699999997886,1.196213e-05,365.3699999997886,5.745448e-05,365.3699999997886,6.257873e-06
365.3849999997886,8.062008e-06,365.3849999997886,1.192911e-05,365.3849999997886,5.512896e-05,365.3849999997886,6.035575e-06
365.3999999997886,8.143716e-06,365.3999999997886,1.195153e-05,365.3999999997886,5.433547e-05,365.3999999997886,6.063518e-06
365.41499999978856,8.100356e-06,365.41499999978856,1.190074e-05,365.41499999978856,5.412507e-05,365.41499999978856,5.881913e-06
365.42999999978855,8.072484e-06,365.42999999978855,1.135931e-05,365.42999999978855,5.414537e-05,365.42999999978855,5.719203e-06
365.44499999978854,7.908532e-06,365.44499999978854,1.0625e-05,365.44499999978854,5.709342e-05,365.44499999978854,5.696992e-06
365.4599999997885,7.97593e-06,365.4599999997885,1.061041e-05,365.4599999997885,6.306644e-05,365.4599999997885,5.75603e-06
365.4749999997885,7.838757e-06,365.4749999997885,8.91973e-06,365.4749999997885,6.317846e-05,365.4749999997885,5.931993e-06
365.4899999997885,7.867457e-06,365.4899999997885,8.661737e-06,365.4899999997885,6.178471e-05,365.4899999997885,5.962784e-06
365.5049999997885,7.448044e-06,365.5049999997885,8.940237e-06,365.5049999997885,6.724556e-05,365.5049999997885,5.634837e-06
365.51999999978847,7.510198e-06,365.51999999978847,9.028043e-06,365.51999999978847,7.898533e-05,365.51999999978847,5.551726e-06
365.53499999978845,7.268085e-06,365.53499999978845,9.68448e-06,365.53499999978845,8.027529e-05,365.53499999978845,5.597212e-06
365.54999999978844,7.314453e-06,365.54999999978844,1.064487e-05,365.54999999978844,8.158923e-05,365.54999999978844,5.602244e-06
365.5649999997884,7.154789e-06,365.5649999997884,1.221846e-05,365.5649999997884,8.10764e-05,365.5649999997884,5.592176e-06
365.5799999997884,7.103415e-06,365.5799999997884,1.247855e-05,365.5799999997884,8.163118e-05,365.5799999997884,5.644828e-06
365.5949999997884,7.248678e-06,365.5949999997884,1.260323e-05,365.5949999997884,8.250196e-05,365.5949999997884,5.711809e-06
365.6099999997884,6.857212e-06,365.6099999997884,1.246387e-05,365.6099999997884,8.268803e-05,365.6099999997884,5.775575e-06
365.6249999997884,6.822199e-06,365.6249999997884,1.263003e-05,365.6249999997884,8.154848e-05,365.6249999997884,5.790191e-06
365.63999999978836,6.947012e-06,365.63999999978836,1.257526e-05,365.63999999978836,8.214296e-05,365.63999999978836,5.824151e-06
365.65499999978834,6.795303e-06,365.65499999978834,1.266344e-05,365.65499999978834,8.215273e-05,365.65499999978834,5.659781e-06
365.66999999978833,6.883865e-06,365.66999999978833,1.269566e-05,365.66999999978833,8.198882e-05,365.66999999978833,5.736418e-06
365.6849999997883,6.614623e-06,365.6849999997883,1.274218e-05,365.6849999997883,7.886271e-05,365.6849999997883,5.922486e-06
365.6999999997883,6.428867e-06,365.6999999997883,1.271673e-05,365.6999999997883,7.260271e-05,365.6999999997883,5.795054e-06
365.7149999997883,6.183143e-06,365.7149999997883,1.270897e-05,365.7149999997883,6.413598e-05,365.7149999997883,5.561867e-06
365.7299999997883,5.901041e-06,365.7299999997883,1.268012e-05,365.7299999997883,6.433926e-05,365.7299999997883,5.652309e-06
365.74499999978826,5.790191e-06,365.74499999978826,1.254722e-05,365.74499999978826,6.508721e-05,365.74499999978826,5.644828e-06
365.75999999978825,5.546649e-06,365.75999999978825,1.221384e-05,365.75999999978825,5.640484e-05,365.75999999978825,5.614802e-06
365.77499999978824,5.726587e-06,365.77499999978824,1.176861e-05,365.77499999978824,4.672665e-05,365.77499999978824,5.634837e-06
365.7899999997882,5.824151e-06,365.7899999997882,1.045258e-05,365.7899999997882,4.279827e-05,365.7899999997882,5.467352e-06
365.8049999997882,5.901041e-06,365.8049999997882,8.843601e-06,365.8049999997882,4.425462e-05,365.8049999997882,5.381656e-06
365.8199999997882,6.002811e-06,365.8199999997882,6.498606e-06,365.8199999997882,4.423711e-05,365.8199999997882,5.407768e-06
365.8349999997882,5.850696e-06,365.8349999997882,6.688745e-06,365.8349999997882,4.775068e-05,365.8349999997882,5.342249e-06
365.84999999978817,5.632336e-06,365.84999999978817,6.716067e-06,365.84999999978817,4.690658e-05,365.84999999978817,5.132455e-06
365.86499999978815,5.792623e-06,365.86499999978815,6.820134e-06,365.86499999978815,4.884471e-05,365.86499999978815,5.302549e-06
365.87999999978814,6.178585e-06,365.87999999978814,6.766219e-06,365.87999999978814,4.975874e-05,365.87999999978814,5.08004e-06
365.8949999997881,6.114414e-06,365.8949999997881,6.745368e-06,365.8949999997881,4.918183e-05,365.8949999997881,5.110451e-06
365.9099999997881,6.571893e-06,365.9099999997881,6.879772e-06,365.9099999997881,5.034554e-05,365.9099999997881,5.102175e-06
365.9249999997881,6.610363e-06,365.9249999997881,7.079578e-06,365.9249999997881,5.072214e-05,365.9249999997881,4.910845e-06
365.9399999997881,6.550423e-06,365.9399999997881,7.46882e-06,365.9399999997881,5.060481e-05,365.9399999997881,4.68176e-06
365.9549999997881,6.584741e-06,365.9549999997881,7.538281e-06,365.9549999997881,5.064654e-05,365.9549999997881,4.618143e-06
365.96999999978806,6.80152e-06,365.96999999978806,7.493299e-06,365.96999999978806,5.071325e-05,365.96999999978806,4.633369e-06
365.98499999978804,7.125195e-06,365.98499999978804,7.517698e-06,365.98499999978804,5.143395e-05,365.98499999978804,4.500739e-06
365.99999999978803,7.283574e-06,365.99999999978803,7.597844e-06,365.99999999978803,5.162586e-05,365.99999999978803,4.738583e-06
366.014999999788,7.302889e-06,366.014999999788,7.52706e-06,366.014999999788,5.28853e-05,366.014999999788,4.806471e-06
366.029999999788,7.413922e-06,366.029999999788,7.391086e-06,366.029999999788,5.149006e-05,366.029999999788,4.809401e-06
366.044999999788,7.651422e-06,366.044999999788,7.523317e-06,366.044999999788,4.764938e-05,366.044999999788,4.847328e-06
366.059999999788,8.296236e-06,366.059999999788,7.827967e-06,366.059999999788,4.687444e-05,366.059999999788,4.853136e-06
366.07499999978796,9.680115e-06,366.07499999978796,7.944076e-06,366.07499999978796,4.578225e-05,366.07499999978796,5.088352e-06
366.08999999978795,1.006676e-05,366.08999999978795,7.599698e-06,366.08999999978795,4.399507e-05,366.08999999978795,5.56693e-06
366.10499999978794,1.013231e-05,366.10499999978794,7.534543e-06,366.10499999978794,4.394061e-05,366.10499999978794,5.554263e-06
366.1199999997879,1.008773e-05,366.1199999997879,7.517698e-06,366.1199999997879,4.43354e-05,366.1199999997879,5.574516e-06
366.1349999997879,9.951351e-06,366.1349999997879,7.451826e-06,366.1349999997879,4.365662e-05,366.1349999997879,5.589657e-06
366.1499999997879,1.015731e-05,366.1499999997879,7.453716e-06,366.1499999997879,4.451234e-05,366.1499999997879,5.736418e-06
366.1649999997879,1.020159e-05,366.1649999997879,7.52706e-06,366.1649999997879,4.339674e-05,366.1649999997879,5.836232e-06
366.17999999978787,1.107932e-05,366.17999999978787,7.677153e-06,366.17999999978787,4.488547e-05,366.17999999978787,6.070483e-06
366.19499999978785,1.150227e-05,366.19499999978785,7.656943e-06,366.19499999978785,4.959597e-05,366.19499999978785,6.255622e-06
366.20999999978784,1.231263e-05,366.20999999978784,8.037508e-06,366.20999999978784,5.458714e-05,366.20999999978784,6.333946e-06
366.2249999997878,1.249885e-05,366.2249999997878,9.12427e-06,366.2249999997878,6.327538e-05,366.2249999997878,6.64861e-06
366.2399999997878,1.385036e-05,366.2399999997878,9.147398e-06,366.2399999997878,6.610405e-05,366.2399999997878,7.207752e-06
366.2549999997878,1.419889e-05,366.2549999997878,9.331874e-06,366.2549999997878,7.605238e-05,366.2549999997878,7.446153e-06
366.2699999997878,1.529087e-05,366.2699999997878,1.008912e-05,366.2699999997878,0.0001002036,366.2699999997878,7.594135e-06
366.2849999997878,1.7466e-05,366.2849999997878,1.033466e-05,366.2849999997878,0.0001115307,366.2849999997878,7.640368e-06
366.29999999978776,1.76609e-05,366.29999999978776,1.010168e-05,366.29999999978776,0.0001183714,366.29999999978776,7.799122e-06
366.31499999978774,1.874358e-05,366.31499999978774,1.198213e-05,366.31499999978774,0.0001986272,366.31499999978774,8.525684e-06
366.32999999978773,1.974138e-05,366.32999999978773,1.293311e-05,366.32999999978773,0.0002027654,366.32999999978773,8.547137e-06
366.3449999997877,2.10736e-05,366.3449999997877,1.420881e-05,366.3449999997877,0.0002077596,366.3449999997877,8.504177e-06
366.3599999997877,2.158348e-05,366.3599999997877,1.502133e-05,366.3599999997877,0.0002168788,366.3599999997877,8.566891e-06
366.3749999997877,2.175769e-05,366.3749999997877,1.509617e-05,366.3749999997877,0.0002185933,366.3749999997877,8.5108e-06
366.3899999997877,2.184041e-05,366.3899999997877,1.524104e-05,366.3899999997877,0.0002233708,366.3899999997877,8.620983e-06
366.40499999978766,2.200874e-05,366.40499999978766,1.531297e-05,366.40499999978766,0.0002759778,366.40499999978766,8.612809e-06
366.41999999978765,2.201258e-05,366.41999999978765,1.555574e-05,366.41999999978765,0.0002950733,366.41999999978765,8.617714e-06
366.43499999978764,2.185652e-05,366.43499999978764,1.668729e-05,366.43499999978764,0.0003293778,366.43499999978764,8.499207e-06
366.4499999997876,2.206053e-05,366.4499999997876,1.694779e-05,366.4499999997876,0.0003576641,366.4499999997876,8.395818e-06
366.4649999997876,2.233404e-05,366.4649999997876,1.717566e-05,366.4649999997876,0.0003680384,366.4649999997876,8.345331e-06
366.4799999997876,2.220119e-05,366.4799999997876,1.731615e-05,366.4799999997876,0.0003805873,366.4799999997876,8.109047e-06
366.4949999997876,2.274342e-05,366.4949999997876,1.735272e-05,366.4949999997876,0.0003824939,366.4949999997876,7.525189e-06
366.50999999978757,2.251058e-05,366.50999999978757,1.753764e-05,366.50999999978757,0.00038312,366.50999999978757,7.519571e-06
366.52499999978755,2.181847e-05,366.52499999978755,1.879762e-05,366.52499999978755,0.0003898554,366.52499999978755,7.377733e-06
366.53999999978754,2.072173e-05,366.53999999978754,1.881484e-05,366.53999999978754,0.0003885566,366.53999999978754,7.370092e-06
366.5549999997875,2.137427e-05,366.5549999997875,1.922955e-05,366.5549999997875,0.00038939,366.5549999997875,7.3567e-06
366.5699999997875,2.025002e-05,366.5699999997875,1.822305e-05,366.5699999997875,0.0003619418,366.5699999997875,6.141998e-06
366.5849999997875,1.811761e-05,366.5849999997875,1.77841e-05,366.5849999997875,0.0003654973,366.5849999997875,6.077441e-06
366.5999999997875,1.754888e-05,366.5999999997875,1.749743e-05,366.5999999997875,0.0003633472,366.5999999997875,5.910582e-06
366.61499999978747,1.779044e-05,366.61499999978747,1.725748e-05,366.61499999978747,0.0003631492,366.61499999978747,5.699464e-06
366.62999999978746,1.829249e-05,366.62999999978746,1.716253e-05,366.62999999978746,0.0003628191,366.62999999978746,5.850696e-06
366.64499999978744,1.845197e-05,366.64499999978744,1.710992e-05,366.64499999978744,0.0003597367,366.64499999978744,5.614802e-06
366.65999999978743,1.81005e-05,366.65999999978743,1.700835e-05,366.65999999978743,0.0003098054,366.65999999978743,5.612292e-06
366.6749999997874,1.8247e-05,366.6749999997874,1.691118e-05,366.6749999997874,0.0003051973,366.6749999997874,5.438937e-06
366.6899999997874,1.798495e-05,366.6899999997874,1.528534e-05,366.6899999997874,0.000247604,366.6899999997874,5.48022e-06
366.7049999997874,1.781497e-05,366.7049999997874,1.49046e-05,366.7049999997874,0.0002168397,366.7049999997874,5.505864e-06
366.7199999997874,1.680841e-05,366.7199999997874,1.488e-05,366.7199999997874,0.0002049047,366.7199999997874,5.528843e-06
366.73499999978736,1.665687e-05,366.73499999978736,1.448861e-05,366.73499999978736,0.0001850353,366.73499999978736,5.389503e-06
366.74999999978735,1.535889e-05,366.74999999978735,1.440964e-05,366.74999999978735,0.0001778164,366.74999999978735,5.397339e-06
366.76499999978734,1.514648e-05,366.76499999978734,1.284019e-05,366.76499999978734,0.0001603074,366.76499999978734,5.249148e-06
366.7799999997873,1.451386e-05,366.7799999997873,1.154139e-05,366.7799999997873,0.0001413826,366.7799999997873,4.993339e-06
366.7949999997873,1.385239e-05,366.7949999997873,1.145809e-05,366.7949999997873,0.0001385401,366.7949999997873,4.942298e-06
366.8099999997873,1.281603e-05,366.8099999997873,1.134442e-05,366.8099999997873,0.000134333,366.8099999997873,4.93374e-06
366.8249999997873,1.197155e-05,366.8249999997873,1.042964e-05,366.8249999997873,0.0001166032,366.8249999997873,4.902232e-06
366.83999999978727,1.193973e-05,366.83999999978727,9.75838e-06,366.83999999978727,0.0001026454,366.83999999978727,4.913713e-06
366.85499999978725,1.153284e-05,366.85499999978725,9.139696e-06,366.85499999978725,9.955399e-05,366.85499999978725,4.919443e-06
366.86999999978724,1.097328e-05,366.86999999978724,8.475971e-06,366.86999999978724,9.77341e-05,366.86999999978724,4.925167e-06
366.8849999997872,9.866052e-06,366.8849999997872,8.117728e-06,366.8849999997872,0.0001028813,366.8849999997872,4.636408e-06
366.8999999997872,9.278891e-06,366.8999999997872,8.185125e-06,366.8999999997872,0.0001171782,366.8999999997872,4.702775e-06
366.9149999997872,9.059196e-06,366.9149999997872,8.289442e-06,366.9149999997872,0.0001418344,366.9149999997872,4.744526e-06
366.9299999997872,8.611173e-06,366.9299999997872,8.459336e-06,366.9299999997872,0.0001518545,366.9299999997872,4.66971e-06
366.94499999978717,7.730182e-06,366.94499999978717,9.357501e-06,366.94499999978717,0.0002060972,366.94499999978717,4.777073e-06
366.95999999978716,7.640368e-06,366.95999999978716,8.713623e-06,366.95999999978716,0.0002096835,366.95999999978716,4.608983e-06
366.97499999978714,7.071614e-06,366.97499999978714,8.963841e-06,366.97499999978714,0.0002136903,366.97499999978714,4.562907e-06
366.98999999978713,7.287441e-06,366.98999999978713,9.359006e-06,366.98999999978713,0.0002524549,366.98999999978713,4.87919e-06
367.0049999997871,7.233115e-06,367.0049999997871,9.801591e-06,367.0049999997871,0.0003351369,367.0049999997871,4.913713e-06
367.0199999997871,7.36818e-06,367.0199999997871,1.008912e-05,367.0199999997871,0.0003404242,367.0199999997871,5.107694e-06
367.0349999997871,1.024156e-05,367.0349999997871,1.237653e-05,367.0349999997871,0.0004022678,367.0349999997871,5.657291e-06
367.0499999997871,1.048218e-05,367.0499999997871,1.296792e-05,367.0499999997871,0.000436435,367.0499999997871,5.679657e-06
367.06499999978706,1.206181e-05,367.06499999978706,1.714447e-05,367.06499999978706,0.0006631635,367.06499999978706,5.775575e-06
367.07999999978705,1.516971e-05,367.07999999978705,2.211091e-05,367.07999999978705,0.0009484665,367.07999999978705,6.638008e-06
367.09499999978703,1.950304e-05,367.09499999978703,2.581279e-05,367.09499999978703,0.001489746,367.09499999978703,8.11252e-06
367.109999999787,2.358267e-05,367.109999999787,2.739956e-05,367.109999999787,0.001559353,367.109999999787,8.550433e-06
367.124999999787,2.524388e-05,367.124999999787,2.791904e-05,367.124999999787,0.001740383,367.124999999787,9.652426e-06
367.139999999787,2.530853e-05,367.139999999787,2.830836e-05,367.139999999787,0.001767179,367.139999999787,1.131085e-05
367.154999999787,2.532911e-05,367.154999999787,2.865064e-05,367.154999999787,0.001766529,367.154999999787,1.165072e-05
367.16999999978697,2.531854e-05,367.16999999978697,2.895971e-05,367.16999999978697,0.001766576,367.16999999978697,1.190547e-05
367.18499999978695,2.549154e-05,367.18499999978695,3.155566e-05,367.18499999978695,0.001766538,367.18499999978695,1.216647e-05
367.19999999978694,2.568039e-05,367.19999999978694,3.306119e-05,367.19999999978694,0.001764714,367.19999999978694,1.215836e-05
367.2149999997869,2.593963e-05,367.2149999997869,3.358621e-05,367.2149999997869,0.001771012,367.2149999997869,1.219538e-05
367.2299999997869,2.618233e-05,367.2299999997869,3.750144e-05,367.2299999997869,0.001772051,367.2299999997869,1.239587e-05
367.2449999997869,2.643825e-05,367.2449999997869,3.857612e-05,367.2449999997869,0.001775673,367.2449999997869,1.226104e-05
367.2599999997869,2.689467e-05,367.2599999997869,3.968987e-05,367.2599999997869,0.001767228,367.2599999997869,1.227252e-05
367.27499999978687,2.748169e-05,367.27499999978687,4.235725e-05,367.27499999978687,0.001768848,367.27499999978687,1.222768e-05
367.28999999978686,2.752676e-05,367.28999999978686,4.42438e-05,367.28999999978686,0.001756165,367.28999999978686,1.213981e-05
367.30499999978684,2.721177e-05,367.30499999978684,4.460812e-05,367.30499999978684,0.001744419,367.30499999978684,1.215952e-05
367.31999999978683,2.753955e-05,367.31999999978683,4.723965e-05,367.31999999978683,0.001656684,367.31999999978683,1.218382e-05
367.3349999997868,2.54329e-05,367.3349999997868,4.721936e-05,367.3349999997868,0.001343033,367.3349999997868,1.139769e-05
367.3499999997868,2.249994e-05,367.3499999997868,4.548838e-05,367.3499999997868,0.0009598711,367.3499999997868,1.06845e-05
367.3649999997868,1.83225e-05,367.3649999997868,4.493942e-05,367.3649999997868,0.0007850128,367.3649999997868,1.029369e-05
367.3799999997868,1.776349e-05,367.3799999997868,4.468952e-05,367.3799999997868,0.0004651308,367.3799999997868,9.021799e-06
367.39499999978676,1.800765e-05,367.39499999978676,4.531494e-05,367.39499999978676,0.0004093925,367.39499999978676,7.3106e-06
367.40999999978675,1.792454e-05,367.40999999978675,4.605344e-05,367.40999999978675,0.0004042416,367.40999999978675,6.920602e-06
367.42499999978673,1.78789e-05,367.42499999978673,4.60565e-05,367.42499999978673,0.0004019249,367.42499999978673,6.313899e-06
367.4399999997867,1.772142e-05,367.4399999997867,4.370048e-05,367.4399999997867,0.0004000656,367.4399999997867,6.406918e-06
367.4549999997867,1.72436e-05,367.4549999997867,4.474686e-05,367.4549999997867,0.000386043,367.4549999997867,6.431058e-06
367.4699999997867,1.7142e-05,367.4699999997867,4.52493e-05,367.4699999997867,0.0003609401,367.4699999997867,6.298262e-06
367.4849999997867,1.625107e-05,367.4849999997867,4.302183e-05,367.4849999997867,0.0003387736,367.4849999997867,6.102884e-06
367.49999999978667,1.60566e-05,367.49999999978667,4.219564e-05,367.49999999978667,0.0002872624,367.49999999978667,6.093644e-06
367.51499999978665,1.515577e-05,367.51499999978665,4.113231e-05,367.51499999978665,0.0002906243,367.51499999978665,6.291548e-06
367.52999999978664,1.354596e-05,367.52999999978664,3.605009e-05,367.52999999978664,0.0002780669,367.52999999978664,6.077441e-06
367.5449999997866,1.174225e-05,367.5449999997866,3.392881e-05,367.5449999997866,0.0002302391,367.5449999997866,5.943854e-06
367.5599999997866,1.128841e-05,367.5599999997866,3.302666e-05,367.5599999997866,0.0002243642,367.5599999997866,5.809621e-06
367.5749999997866,1.068845e-05,367.5749999997866,2.726401e-05,367.5749999997866,0.0002172775,367.5749999997866,5.998116e-06
367.5899999997866,9.870335e-06,367.5899999997866,2.581061e-05,367.5899999997866,0.0002087648,367.5899999997866,6.233063e-06
367.60499999978657,1.033875e-05,367.60499999978657,2.642013e-05,367.60499999978657,0.0002161477,367.60499999978657,6.155743e-06
367.61999999978656,1.043099e-05,367.61999999978656,2.615757e-05,367.61999999978656,0.0002188435,367.61999999978656,6.16489e-06
367.63499999978654,1.064487e-05,367.63499999978654,2.613332e-05,367.63499999978654,0.0002172913,367.63499999978654,6.271365e-06
367.64999999978653,1.098098e-05,367.64999999978653,2.453012e-05,367.64999999978653,0.000214971,367.64999999978653,6.203613e-06
367.6649999997865,1.083506e-05,367.6649999997865,2.336543e-05,367.6649999997865,0.000214807,367.6649999997865,6.203613e-06
367.6799999997865,1.088952e-05,367.6799999997865,2.156912e-05,367.6799999997865,0.0002143253,367.6799999997865,6.158032e-06
367.6949999997865,1.09643e-05,367.6949999997865,1.968994e-05,367.6949999997865,0.0002115515,367.6949999997865,6.086705e-06
367.7099999997865,1.101045e-05,367.7099999997865,1.598715e-05,367.7099999997865,0.0002070177,367.7099999997865,6.095956e-06
367.72499999978646,1.108568e-05,367.72499999978646,1.437636e-05,367.72499999978646,0.000206178,367.72499999978646,6.121322e-06
367.73999999978645,1.102579e-05,367.73999999978645,1.436166e-05,367.73999999978645,0.000201842,367.73999999978645,6.11902e-06
367.75499999978643,1.092439e-05,367.75499999978643,1.454295e-05,367.75499999978643,0.0001841549,367.75499999978643,6.219488e-06
367.7699999997864,1.085324e-05,367.7699999997864,1.482784e-05,367.7699999997864,0.0001795379,367.7699999997864,6.621009e-06
367.7849999997864,1.067658e-05,367.7849999997864,1.472201e-05,367.7849999997864,0.0001810427,367.7849999997864,6.593293e-06
367.7999999997864,1.017947e-05,367.7999999997864,1.336801e-05,367.7999999997864,0.0001458609,367.7999999997864,6.589018e-06
367.8149999997864,1.021539e-05,367.8149999997864,1.316627e-05,367.8149999997864,0.0001292032,367.8149999997864,6.621009e-06
367.82999999978637,9.515735e-06,367.82999999978637,1.29766e-05,367.82999999978637,0.0001289023,367.82999999978637,6.255622e-06
367.84499999978635,8.883333e-06,367.84499999978635,1.117301e-05,367.84499999978635,0.0001224318,367.84499999978635,6.552573e-06
367.85999999978634,7.457495e-06,367.85999999978634,1.096686e-05,367.85999999978634,9.909944e-05,367.85999999978634,6.671875e-06
367.8749999997863,7.370092e-06,367.8749999997863,1.116166e-05,367.8749999997863,9.939737e-05,367.8749999997863,6.591156e-06
367.8899999997863,6.593293e-06,367.8899999997863,1.121328e-05,367.8899999997863,0.0001006432,367.8899999997863,6.667651e-06
367.9049999997863,6.528882e-06,367.9049999997863,1.183902e-05,367.9049999997863,0.0001026123,367.9049999997863,6.734918e-06
367.9199999997863,6.543968e-06,367.9199999997863,1.227941e-05,367.9199999997863,0.0001113803,367.9199999997863,6.682424e-06
367.93499999978627,6.701369e-06,367.93499999978627,1.329086e-05,367.93499999978627,0.0001296736,367.93499999978627,6.678206e-06
367.94999999978626,6.461651e-06,367.94999999978626,1.324734e-05,367.94999999978626,0.0001392257,367.94999999978626,6.803591e-06
367.96499999978624,6.722357e-06,367.96499999978624,1.306316e-05,367.96499999978624,0.0001400035,367.96499999978624,6.732826e-06
367.97999999978623,6.7391e-06,367.97999999978623,1.311267e-05,367.97999999978623,0.0001417757,367.97999999978623,6.709772e-06
367.9949999997862,7.708283e-06,367.9949999997862,1.290367e-05,367.9949999997862,0.0001388807,367.9949999997862,6.749543e-06
368.0099999997862,9.240859e-06,368.0099999997862,1.277199e-05,368.0099999997862,0.0001387212,368.0099999997862,6.582601e-06
368.0249999997862,9.602679e-06,368.0249999997862,1.231378e-05,368.0249999997862,0.0001416501,368.0249999997862,6.228541e-06
368.0399999997862,9.690296e-06,368.0399999997862,1.226219e-05,368.0399999997862,0.0001398067,368.0399999997862,6.244353e-06
368.05499999978616,9.811646e-06,368.05499999978616,1.2397e-05,368.05499999978616,0.0001393347,368.05499999978616,6.171741e-06
368.06999999978615,9.962669e-06,368.06999999978615,1.202321e-05,368.06999999978615,0.0001376465,368.06999999978615,6.196798e-06
368.08499999978613,1.031693e-05,368.08499999978613,1.198213e-05,368.08499999978613,0.0001350573,368.08499999978613,6.079758e-06
368.0999999997861,1.016147e-05,368.0999999997861,1.224034e-05,368.0999999997861,0.0001342416,368.0999999997861,5.903427e-06
368.1149999997861,1.010865e-05,368.1149999997861,1.159618e-05,368.1149999997861,0.0001317925,368.1149999997861,5.751133e-06
368.1299999997861,9.97821e-06,368.1299999997861,1.104621e-05,368.1299999997861,0.0001269651,368.1299999997861,5.672212e-06
368.1449999997861,1.004995e-05,368.1449999997861,1.063163e-05,368.1449999997861,0.0001216386,368.1449999997861,5.642331e-06
368.15999999978607,1.006676e-05,368.15999999978607,9.836022e-06,368.15999999978607,0.0001112721,368.15999999978607,5.589657e-06
368.17499999978605,1.001204e-05,368.17499999978605,9.275854e-06,368.17499999978605,0.0001077252,368.17499999978605,5.498184e-06
368.18999999978604,9.979622e-06,368.18999999978604,7.656943e-06,368.18999999978604,7.39884e-05,368.18999999978604,5.487926e-06
368.204999999786,1.007235e-05,368.204999999786,8.053266e-06,368.204999999786,6.540136e-05,368.204999999786,5.235713e-06
368.219999999786,9.710626e-06,368.219999999786,7.897837e-06,368.219999999786,6.617179e-05,368.219999999786,5.394728e-06
368.234999999786,9.62173e-06,368.234999999786,7.809951e-06,368.234999999786,6.581125e-05,368.234999999786,5.381656e-06
368.249999999786,8.417602e-06,368.249999999786,7.746566e-06,368.249999999786,6.310707e-05,368.249999999786,5.170737e-06
368.26499999978597,7.48201e-06,368.26499999978597,7.508323e-06,368.26499999978597,6.374692e-05,368.26499999978597,5.018664e-06
368.27999999978596,7.011599e-06,368.27999999978596,7.584854e-06,368.27999999978596,7.299706e-05,368.27999999978596,5.001795e-06
368.29499999978594,6.881819e-06,368.29499999978594,7.528932e-06,368.29499999978594,7.814279e-05,368.29499999978594,5.379038e-06
368.30999999978593,7.057657e-06,368.30999999978593,7.215565e-06,368.30999999978593,7.900298e-05,368.30999999978593,5.241091e-06
368.3249999997859,7.264208e-06,368.3249999997859,7.584854e-06,368.3249999997859,8.046529e-05,368.3249999997859,5.331691e-06
368.3399999997859,7.188182e-06,368.3399999997859,7.614512e-06,368.3399999997859,8.618073e-05,368.3399999997859,5.189773e-06
368.3549999997859,7.279705e-06,368.3549999997859,7.067629e-06,368.3549999997859,8.794275e-05,368.3549999997859,5.049445e-06
368.3699999997859,7.70097e-06,368.3699999997859,7.60896e-06,368.3699999997859,9.381842e-05,368.3699999997859,5.046655e-06
368.38499999978586,7.829767e-06,368.38499999978586,7.849532e-06,368.38499999978586,9.393576e-05,368.38499999978586,5.197909e-06
368.39999999978585,7.634834e-06,368.39999999978585,8.068993e-06,368.39999999978585,9.403333e-05,368.39999999978585,5.315815e-06
368.41499999978583,7.744747e-06,368.41499999978583,8.864284e-06,368.41499999978583,0.0001028149,368.41499999978583,5.582091e-06
368.4299999997858,7.782849e-06,368.4299999997858,9.167396e-06,368.4299999997858,0.0001138677,368.4299999997858,5.597212e-06
368.4449999997858,7.85312e-06,368.4449999997858,9.071627e-06,368.4449999997858,0.0001194437,368.4449999997858,5.642331e-06
368.4599999997858,7.686323e-06,368.4599999997858,9.152018e-06,368.4599999997858,0.0001193213,368.4599999997858,5.726587e-06
368.4749999997858,7.671647e-06,368.4749999997858,9.833158e-06,368.4749999997858,0.0001167687,368.4749999997858,5.802342e-06
368.48999999978577,7.892485e-06,368.48999999978577,9.841749e-06,368.48999999978577,0.0001171844,368.48999999978577,5.833818e-06
368.50499999978575,7.790086e-06,368.50499999978575,9.764152e-06,368.50499999978575,0.0001152239,368.50499999978575,5.760922e-06
368.51999999978574,7.784659e-06,368.51999999978574,9.733809e-06,368.51999999978574,0.0001136105,368.51999999978574,5.738873e-06
368.5349999997857,7.806343e-06,368.5349999997857,9.701918e-06,368.5349999997857,0.0001017004,368.5349999997857,5.612292e-06
368.5499999997857,7.824367e-06,368.5499999997857,9.667009e-06,368.5499999997857,9.955908e-05,368.5499999997857,5.412975e-06
368.5649999997857,7.22142e-06,368.5649999997857,9.667009e-06,368.5649999997857,0.0001037333,368.5649999997857,5.381656e-06
368.5799999997857,6.640129e-06,368.5799999997857,9.224075e-06,368.5799999997857,0.0001015658,368.5799999997857,5.365928e-06
368.59499999978567,6.561167e-06,368.59499999978567,9.359006e-06,368.59499999978567,9.960873e-05,368.59499999978567,5.358047e-06
368.60999999978566,6.455107e-06,368.60999999978566,9.073179e-06,368.60999999978566,9.665202e-05,368.60999999978566,5.321112e-06
368.62499999978564,6.287069e-06,368.62499999978564,8.794083e-06,368.62499999978564,9.356492e-05,368.62499999978564,5.2679e-06
368.63999999978563,6.340615e-06,368.63999999978563,8.517419e-06,368.63999999978563,9.505499e-05,368.63999999978563,5.013047e-06
368.6549999997856,6.439814e-06,368.6549999997856,8.606265e-06,368.6549999997856,9.87403e-05,368.6549999997856,4.768218e-06
368.6699999997856,6.300498e-06,368.6699999997856,7.429107e-06,368.6699999997856,9.875742e-05,368.6699999997856,4.559819e-06
368.6849999997856,6.398117e-06,368.6849999997856,7.470705e-06,368.6849999997856,8.659768e-05,368.6849999997856,4.66971e-06
368.6999999997856,6.208153e-06,368.6999999997856,7.865667e-06,368.6999999997856,8.877591e-05,368.6999999997856,4.720713e-06
368.71499999978556,6.217223e-06,368.71499999978556,7.442368e-06,368.71499999978556,9.090722e-05,368.71499999978556,4.70577e-06
368.72999999978555,6.347276e-06,368.72999999978555,6.772462e-06,368.72999999978555,9.119884e-05,368.72999999978555,4.516361e-06
368.74499999978553,6.431058e-06,368.74499999978553,7.343284e-06,368.74499999978553,0.0001133538,368.74499999978553,4.559819e-06
368.7599999997855,6.753716e-06,368.7599999997855,7.461272e-06,368.7599999997855,0.0001161564,368.7599999997855,4.720713e-06
368.7749999997855,7.786468e-06,368.7749999997855,7.480127e-06,368.7749999997855,0.000126539,368.7749999997855,4.947995e-06
368.7899999997855,8.776445e-06,368.7899999997855,7.984756e-06,368.7899999997855,0.0001283402,368.7899999997855,5.057808e-06
368.8049999997855,9.732362e-06,368.8049999997855,8.164447e-06,368.8049999997855,0.000132123,368.8049999997855,5.222243e-06
368.81999999978547,1.010307e-05,368.81999999978547,1.077508e-05,368.81999999978547,0.0001291662,368.81999999978547,6.139704e-06
368.83499999978545,1.146792e-05,368.83499999978545,1.214909e-05,368.83499999978545,0.0001327397,368.83499999978545,7.56626e-06
368.84999999978544,1.303401e-05,368.84999999978544,1.322286e-05,368.84999999978544,0.0001391209,368.84999999978544,8.005899e-06
368.8649999997854,1.379839e-05,368.8649999997854,1.746197e-05,368.8649999997854,0.0001418226,368.8649999997854,8.563602e-06
368.8799999997854,1.423852e-05,368.8799999997854,1.881484e-05,368.8799999997854,0.0001641418,368.8799999997854,9.545296e-06
368.8949999997854,1.512973e-05,368.8949999997854,1.994442e-05,368.8949999997854,0.0001728121,368.8949999997854,1.015176e-05
368.9099999997854,1.534972e-05,368.9099999997854,2.039973e-05,368.9099999997854,0.0001756074,368.9099999997854,1.049293e-05
368.92499999978537,1.566583e-05,368.92499999978537,2.501461e-05,368.92499999978537,0.0001794511,368.92499999978537,1.060908e-05
368.93999999978536,1.612139e-05,368.93999999978536,2.656476e-05,368.93999999978536,0.0001856864,368.93999999978536,1.066734e-05
368.95499999978534,1.64458e-05,368.95499999978534,2.725057e-05,368.95499999978534,0.0002096627,368.95499999978534,1.227597e-05
368.96999999978533,1.707696e-05,368.96999999978533,2.83839e-05,368.96999999978533,0.0002095048,368.96999999978533,1.252587e-05
368.9849999997853,1.780785e-05,368.9849999997853,2.916426e-05,368.9849999997853,0.0002164791,368.9849999997853,1.390517e-05
368.9999999997853,1.807714e-05,368.9999999997853,2.93669e-05,368.9999999997853,0.0002085358,368.9999999997853,1.395472e-05
369.0149999997853,1.812694e-05,369.0149999997853,2.992192e-05,369.0149999997853,0.0002193647,369.0149999997853,1.429185e-05
369.0299999997853,1.796693e-05,369.0299999997853,2.995016e-05,369.0299999997853,0.0002649673,369.0299999997853,1.429973e-05
369.04499999978526,2.124537e-05,369.04499999978526,2.997883e-05,369.04499999978526,0.0002697239,369.04499999978526,1.464911e-05
369.05999999978525,2.110633e-05,369.05999999978525,2.987528e-05,369.05999999978525,0.0002805188,369.05999999978525,1.472871e-05
369.07499999978523,2.071017e-05,369.07499999978523,2.861571e-05,369.07499999978523,0.0002858676,369.07499999978523,1.550676e-05
369.0899999997852,2.041905e-05,369.0899999997852,2.878064e-05,369.0899999997852,0.0002933567,369.0899999997852,1.638745e-05
369.1049999997852,2.100799e-05,369.1049999997852,2.825357e-05,369.1049999997852,0.0002999524,369.1049999997852,1.646549e-05
369.1199999997852,2.081534e-05,369.1199999997852,2.595918e-05,369.1199999997852,0.0003112812,369.1199999997852,1.631595e-05
369.1349999997852,2.045489e-05,369.1349999997852,2.505737e-05,369.1349999997852,0.0003131905,369.1349999997852,1.694197e-05
369.14999999978517,2.051197e-05,369.14999999978517,2.418893e-05,369.14999999978517,0.000310712,369.14999999978517,1.718386e-05
369.16499999978515,2.078215e-05,369.16499999978515,2.364173e-05,369.16499999978515,0.0003097555,369.16499999978515,1.709345e-05
369.17999999978514,2.2817e-05,369.17999999978514,1.775159e-05,369.17999999978514,0.0003063589,369.17999999978514,1.702657e-05
369.1949999997851,2.311571e-05,369.1949999997851,1.662386e-05,369.1949999997851,0.0002854229,369.1949999997851,1.684441e-05
369.2099999997851,2.373984e-05,369.2099999997851,1.603729e-05,369.2099999997851,0.0002846077,369.2099999997851,1.609691e-05
369.2249999997851,2.296224e-05,369.2249999997851,1.35366e-05,369.2249999997851,0.0002836107,369.2249999997851,1.542844e-05
369.2399999997851,2.286511e-05,369.2399999997851,1.236629e-05,369.2399999997851,0.0002780036,369.2399999997851,1.452745e-05
369.25499999978507,2.313642e-05,369.25499999978507,1.13407e-05,369.25499999978507,0.0002760908,369.25499999978507,1.45536e-05
369.26999999978506,2.330688e-05,369.26999999978506,1.014621e-05,369.26999999978506,0.0002572336,369.26999999978506,1.436166e-05
369.28499999978504,2.13228e-05,369.28499999978504,1.009052e-05,369.28499999978504,0.0002119691,369.28499999978504,1.447207e-05
369.29999999978503,2.114767e-05,369.29999999978503,9.723673e-06,369.29999999978503,0.0002009779,369.29999999978503,1.410733e-05
369.314999999785,2.197479e-05,369.314999999785,9.707725e-06,369.314999999785,0.0001967656,369.314999999785,1.365369e-05
369.329999999785,2.291496e-05,369.329999999785,9.380055e-06,369.329999999785,0.0001958139,369.329999999785,1.188771e-05
369.344999999785,2.302228e-05,369.344999999785,8.384065e-06,369.344999999785,0.0001831637,369.344999999785,1.012675e-05
369.359999999785,2.230312e-05,369.359999999785,8.105571e-06,369.359999999785,0.0001595274,369.359999999785,9.745379e-06
369.37499999978496,2.242594e-05,369.37499999978496,7.737468e-06,369.37499999978496,0.0001260341,369.37499999978496,9.343943e-06
369.38999999978495,2.274899e-05,369.38999999978495,7.48201e-06,369.38999999978495,0.0001139885,369.38999999978495,7.517698e-06
369.40499999978493,2.250808e-05,369.40499999978493,7.079578e-06,369.40499999978493,0.0001105832,369.40499999978493,7.30096e-06
369.4199999997849,2.213384e-05,369.4199999997849,6.068162e-06,369.4199999997849,0.0001083379,369.4199999997849,7.215565e-06
369.4349999997849,1.997335e-05,369.4349999997849,5.898653e-06,369.4349999997849,0.0001071994,369.4349999997849,7.354785e-06
369.4499999997849,2.018313e-05,369.4499999997849,5.787757e-06,369.4499999997849,0.0001081184,369.4499999997849,7.603404e-06
369.4649999997849,1.956218e-05,369.4649999997849,5.647323e-06,369.4649999997849,0.0001086525,369.4649999997849,7.459384e-06
369.47999999978487,1.957586e-05,369.47999999978487,6.753716e-06,369.47999999978487,0.0001090726,369.47999999978487,7.545752e-06
369.49499999978485,1.953119e-05,369.49499999978485,7.186222e-06,369.49499999978485,0.0001080974,369.49499999978485,7.728359e-06
369.50999999978484,1.910018e-05,369.50999999978484,7.510198e-06,369.50999999978484,0.0001068861,369.50999999978484,8.148903e-06
369.5249999997848,1.865167e-05,369.5249999997848,7.438582e-06,369.5249999997848,0.0001006197,369.5249999997848,8.692581e-06
369.5399999997848,1.95737e-05,369.5399999997848,7.558809e-06,369.5399999997848,9.891292e-05,369.5399999997848,8.824465e-06
369.5549999997848,1.816033e-05,369.5549999997848,7.849532e-06,369.5549999997848,9.860625e-05,369.5549999997848,8.95598e-06
369.5699999997848,1.683186e-05,369.5699999997848,7.963557e-06,369.5699999997848,9.497212e-05,369.5699999997848,9.003043e-06
369.58499999978477,1.626753e-05,369.58499999978477,8.096878e-06,369.58499999978477,8.541004e-05,369.58499999978477,9.360511e-06
369.59999999978476,1.641408e-05,369.59999999978476,8.062008e-06,369.59999999978476,7.904523e-05,369.59999999978476,9.445902e-06
369.61499999978474,1.604432e-05,369.61499999978474,8.627516e-06,369.61499999978474,7.922093e-05,369.61499999978474,9.73815e-06
369.62999999978473,1.600212e-05,369.62999999978473,8.547137e-06,369.62999999978473,7.876656e-05,369.62999999978473,9.880319e-06
369.6449999997847,1.563162e-05,369.6449999997847,8.537242e-06,369.6449999997847,7.852456e-05,369.6449999997847,9.823125e-06
369.6599999997847,1.627878e-05,369.6599999997847,8.494233e-06,369.6599999997847,7.186359e-05,369.6599999997847,9.646586e-06
369.6749999997847,1.564603e-05,369.6749999997847,8.5866e-06,369.6749999997847,6.87463e-05,369.6749999997847,9.694656e-06
369.6899999997847,1.545581e-05,369.6899999997847,8.724932e-06,369.6899999997847,6.691461e-05,369.6899999997847,9.871762e-06
369.70499999978466,1.529087e-05,369.70499999978466,9.378553e-06,369.70499999978466,6.994602e-05,369.70499999978466,9.858911e-06
369.71999999978465,1.53488e-05,369.71999999978465,9.032722e-06,369.71999999978465,7.137206e-05,369.71999999978465,9.790087e-06
369.73499999978463,1.554759e-05,369.73499999978463,8.419275e-06,369.73499999978463,7.43286e-05,369.73499999978463,9.749715e-06
369.7499999997846,1.570086e-05,369.7499999997846,8.814882e-06,369.7499999997846,7.82822e-05,369.7499999997846,9.921579e-06
369.7649999997846,1.537081e-05,369.7649999997846,9.815953e-06,369.7649999997846,7.524346e-05,369.7649999997846,9.490535e-06
369.7799999997846,1.520218e-05,369.7799999997846,1.038768e-05,369.7799999997846,7.487168e-05,369.7799999997846,9.127357e-06
369.7949999997846,1.396179e-05,369.7949999997846,1.062898e-05,369.7949999997846,7.559536e-05,369.7949999997846,9.274335e-06
369.80999999978457,1.383204e-05,369.80999999978457,1.089082e-05,369.80999999978457,7.649894e-05,369.80999999978457,9.540868e-06
369.82499999978455,1.389301e-05,369.82499999978455,1.136551e-05,369.82499999978455,7.606979e-05,369.82499999978455,9.324323e-06
369.83999999978454,1.405831e-05,369.83999999978454,1.144702e-05,369.83999999978454,7.427021e-05,369.83999999978454,9.253046e-06
369.8549999997845,1.368152e-05,369.8549999997845,1.15304e-05,369.8549999997845,7.766706e-05,369.8549999997845,8.977973e-06
369.8699999997845,1.408334e-05,369.8699999997845,1.231492e-05,369.8699999997845,9.66832e-05,369.8699999997845,1.060244e-05
369.8849999997845,1.531389e-05,369.8849999997845,1.292112e-05,369.8849999997845,0.0001045384,369.8849999997845,1.057317e-05
369.8999999997845,1.538455e-05,369.8999999997845,1.423852e-05,369.8999999997845,0.0001234219,369.8999999997845,1.074628e-05
369.91499999978447,1.474592e-05,369.91499999978447,1.427706e-05,369.91499999978447,0.0001299929,369.91499999978447,1.065149e-05
369.92999999978446,1.662724e-05,369.92999999978446,1.464142e-05,369.92999999978446,0.0001428425,369.92999999978446,1.077116e-05
369.94499999978444,1.690368e-05,369.94499999978444,1.442723e-05,369.94499999978444,0.0001457288,369.94499999978444,1.06051e-05
369.95999999978443,1.688533e-05,369.95999999978443,1.414622e-05,369.95999999978443,0.0001447068,369.95999999978443,1.056517e-05
369.9749999997844,1.787653e-05,369.9749999997844,1.415518e-05,369.9749999997844,0.0001459946,369.9749999997844,1.05705e-05
369.9899999997844,1.818513e-05,369.9899999997844,1.371545e-05,369.9899999997844,0.0001438592,369.9899999997844,1.049964e-05
370.0049999997844,1.803501e-05,370.0049999997844,1.363614e-05,370.0049999997844,0.0001433135,370.0049999997844,1.028274e-05
370.0199999997844,1.817041e-05,370.0199999997844,1.43842e-05,370.0199999997844,0.0001447294,370.0199999997844,1.044179e-05
370.03499999978436,1.815955e-05,370.03499999978436,1.447694e-05,370.03499999978436,0.0001441625,370.03499999978436,1.044718e-05
370.04999999978435,1.781497e-05,370.04999999978435,1.414522e-05,370.04999999978435,0.0001451682,370.04999999978435,1.010726e-05
370.06499999978433,1.787575e-05,370.06499999978433,1.402822e-05,370.06499999978433,0.000146104,370.06499999978433,1.003733e-05
370.0799999997843,1.752639e-05,370.0799999997843,1.455264e-05,370.0799999997843,0.0001463497,370.0799999997843,1.014204e-05
370.0949999997843,1.690201e-05,370.0949999997843,1.517992e-05,370.0949999997843,0.0001469031,370.0949999997843,9.910215e-06
370.1099999997843,1.645265e-05,370.1099999997843,1.540651e-05,370.1099999997843,0.0001363551,370.1099999997843,9.598277e-06
370.1249999997843,1.613362e-05,370.1249999997843,1.430662e-05,370.1249999997843,0.0001336023,370.1249999997843,8.425965e-06
370.13999999978427,1.493858e-05,370.13999999978427,1.394362e-05,370.13999999978427,0.000128236,370.13999999978427,8.692581e-06
370.15499999978425,1.485916e-05,370.15499999978425,1.327071e-05,370.15499999978425,0.0001189707,370.15499999978425,8.528988e-06
370.16999999978424,1.40242e-05,370.16999999978424,1.306316e-05,370.16999999978424,0.000115264,370.16999999978424,8.851561e-06
370.1849999997842,1.173385e-05,370.1849999997842,1.309116e-05,370.1849999997842,0.0001113194,370.1849999997842,8.703918e-06
370.1999999997842,1.156699e-05,370.1999999997842,1.31652e-05,370.1999999997842,0.0001182215,370.1999999997842,8.819675e-06
370.2149999997842,1.156943e-05,370.2149999997842,1.335958e-05,370.2149999997842,0.0001318232,370.2149999997842,9.028043e-06
370.2299999997842,9.981033e-06,370.2299999997842,1.440866e-05,370.2299999997842,0.0001335724,370.2299999997842,9.537914e-06
370.24499999978417,9.336401e-06,370.24499999978417,1.459516e-05,370.24499999978417,0.0001354513,370.24499999978417,9.558568e-06
370.25999999978416,9.228656e-06,370.25999999978416,1.417805e-05,370.25999999978416,0.0001345295,370.25999999978416,9.96691e-06
370.27499999978414,9.227129e-06,370.27499999978414,1.321326e-05,370.27499999978414,0.0001535901,370.27499999978414,9.858911e-06
370.28999999978413,9.342435e-06,370.28999999978413,1.279513e-05,370.28999999978413,0.0001539334,370.28999999978413,1.004013e-05
370.3049999997841,9.23781e-06,370.3049999997841,1.323883e-05,370.3049999997841,0.0001521526,370.3049999997841,1.046066e-05
370.3199999997841,9.450374e-06,370.3199999997841,1.306208e-05,370.3199999997841,0.0001518941,370.3199999997841,1.070426e-05
370.3349999997841,9.451865e-06,370.3349999997841,1.315236e-05,370.3349999997841,0.0001554332,370.3349999997841,1.097072e-05
370.3499999997841,9.765595e-06,370.3499999997841,1.311911e-05,370.3499999997841,0.0001555558,370.3499999997841,1.102196e-05
370.36499999978406,1.035509e-05,370.36499999978406,1.437146e-05,370.36499999978406,0.0001545098,370.36499999978406,1.097328e-05
370.37999999978405,1.017532e-05,370.37999999978405,1.426225e-05,370.37999999978405,0.0001594933,370.37999999978405,1.071741e-05
370.39499999978403,9.941437e-06,370.39499999978403,1.426324e-05,370.39499999978403,0.0001563445,370.39499999978403,1.091794e-05
370.409999999784,9.876042e-06,370.409999999784,1.412728e-05,370.409999999784,0.0001557456,370.409999999784,1.091794e-05
370.424999999784,1.00289e-05,370.424999999784,1.392845e-05,370.424999999784,0.0001445912,370.424999999784,1.141992e-05
370.439999999784,1.10194e-05,370.439999999784,1.386967e-05,370.439999999784,0.0001428123,370.439999999784,1.199623e-05
370.454999999784,1.125967e-05,370.454999999784,1.41203e-05,370.454999999784,0.0001399282,370.454999999784,1.187822e-05
370.46999999978397,1.132951e-05,370.46999999978397,1.348134e-05,370.46999999978397,0.0001437263,370.46999999978397,1.168211e-05
370.48499999978395,1.130586e-05,370.48499999978395,1.292221e-05,370.48499999978395,0.0001449049,370.48499999978395,1.129714e-05
370.49999999978394,1.259764e-05,370.49999999978394,1.264452e-05,370.49999999978394,0.0001563751,370.49999999978394,1.118561e-05
370.5149999997839,1.36289e-05,370.5149999997839,1.27001e-05,370.5149999997839,0.000158778,370.5149999997839,1.075677e-05
370.5299999997839,1.480883e-05,370.5299999997839,1.263895e-05,370.5299999997839,0.0001530647,370.5299999997839,1.121831e-05
370.5449999997839,1.741593e-05,370.5449999997839,1.274107e-05,370.5449999997839,0.0001561397,370.5449999997839,1.134318e-05
370.5599999997839,1.872178e-05,370.5599999997839,1.234919e-05,370.5599999997839,0.0001605784,370.5599999997839,1.104876e-05
370.57499999978387,2.062566e-05,370.57499999978387,1.216183e-05,370.57499999978387,0.0001607694,370.57499999978387,1.068713e-05
370.58999999978386,2.13657e-05,370.58999999978386,1.064222e-05,370.58999999978386,0.000165942,370.58999999978386,1.113639e-05
370.60499999978384,2.19953e-05,370.60499999978384,9.820256e-06,370.60499999978384,0.0001806306,370.60499999978384,1.122835e-05
370.61999999978383,2.379555e-05,370.61999999978383,8.26732e-06,370.61999999978383,0.0001848839,370.61999999978383,1.148879e-05
370.6349999997838,2.677077e-05,370.6349999997838,8.384065e-06,370.6349999997838,0.0001938745,370.6349999997838,1.224724e-05
370.6499999997838,3.096898e-05,370.6499999997838,8.162721e-06,370.6499999997838,0.0002087433,370.6499999997838,1.224034e-05
370.6649999997838,3.285818e-05,370.6649999997838,8.176516e-06,370.6649999997838,0.0002097175,370.6649999997838,1.192793e-05
370.6799999997838,3.509815e-05,370.6799999997838,8.43766e-06,370.6799999997838,0.0002198375,370.6799999997838,1.125091e-05
370.69499999978376,3.552659e-05,370.69499999978376,7.997096e-06,370.69499999978376,0.0002254782,370.69499999978376,1.108695e-05
370.70999999978375,3.619905e-05,370.70999999978375,7.746566e-06,370.70999999978375,0.0002233285,370.70999999978375,1.120323e-05
370.72499999978373,3.659652e-05,370.72499999978373,7.669811e-06,370.72499999978373,0.0002197262,370.72499999978373,1.130337e-05
370.7399999997837,4.110285e-05,370.7399999997837,7.605257e-06,370.7399999997837,0.0002177458,370.7399999997837,1.113639e-05
370.7549999997837,4.229434e-05,370.7549999997837,7.478244e-06,370.7549999997837,0.0002070225,370.7549999997837,1.113765e-05
370.7699999997837,4.461002e-05,370.7699999997837,7.27777e-06,370.7699999997837,0.000204483,370.7699999997837,1.110472e-05
370.7849999997837,4.550665e-05,370.7849999997837,7.270023e-06,370.7849999997837,0.0002106353,370.7849999997837,1.045123e-05
370.79999999978367,4.526518e-05,370.79999999978367,6.971302e-06,370.79999999978367,0.0002259105,370.79999999978367,1.042964e-05
370.81499999978365,4.589319e-05,370.81499999978365,7.137048e-06,370.81499999978365,0.0002473667,370.81499999978365,1.065677e-05
370.82999999978364,4.61619e-05,370.82999999978364,7.095478e-06,370.82999999978364,0.000247136,370.82999999978364,1.067131e-05
370.8449999997836,4.621283e-05,370.8449999997836,7.166593e-06,370.8449999997836,0.0002505697,370.8449999997836,9.72657e-06
370.8599999997836,4.635679e-05,370.8599999997836,7.219469e-06,370.8599999997836,0.0002610121,370.8599999997836,9.343943e-06
370.8749999997836,4.56809e-05,370.8749999997836,7.041671e-06,370.8749999997836,0.0002589186,370.8749999997836,9.324323e-06
370.8899999997836,4.398579e-05,370.8899999997836,6.571893e-06,370.8899999997836,0.000249574,370.8899999997836,8.753946e-06
370.90499999978357,4.194922e-05,370.90499999978357,6.601833e-06,370.90499999978357,0.0002408532,370.90499999978357,8.837226e-06
370.91999999978356,4.025513e-05,370.91999999978356,6.961192e-06,370.91999999978356,0.000241002,370.91999999978356,8.806888e-06
370.93499999978354,4.015353e-05,370.93499999978354,6.838698e-06,370.93499999978354,0.0002418414,370.93499999978354,8.669864e-06
370.94999999978353,3.982698e-05,370.94999999978353,6.834577e-06,370.94999999978353,0.0002366834,370.94999999978353,8.682853e-06
370.9649999997835,3.925448e-05,370.9649999997835,6.618881e-06,370.9649999997835,0.0002369559,370.9649999997835,8.599714e-06
370.9799999997835,3.733354e-05,370.9799999997835,6.66131e-06,370.9799999997835,0.0002374243,370.9799999997835,8.449338e-06
370.9949999997835,3.496787e-05,370.9949999997835,6.652846e-06,370.9949999997835,0.000241789,370.9949999997835,8.461e-06
371.0099999997835,3.330909e-05,371.0099999997835,6.787006e-06,371.0099999997835,0.0002482441,371.0099999997835,8.8754e-06
371.02499999978346,3.06526e-05,371.02499999978346,7.573703e-06,371.02499999978346,0.0002589242,371.02499999978346,1.004434e-05
371.03999999978345,2.99384e-05,371.03999999978345,7.993573e-06,371.03999999978345,0.0002422341,371.03999999978345,1.010307e-05
371.05499999978343,2.91686e-05,371.05499999978343,8.806888e-06,371.05499999978343,0.0002311185,371.05499999978343,1.099124e-05
371.0699999997834,2.721177e-05,371.0699999997834,1.000641e-05,371.0699999997834,0.0002035346,371.0699999997834,1.094114e-05
371.0849999997834,2.630953e-05,371.0849999997834,1.028958e-05,371.0849999997834,0.0002063319,371.0849999997834,1.099509e-05
371.0999999997834,2.659444e-05,371.0999999997834,1.047143e-05,371.0999999997834,0.0001906688,371.0999999997834,1.122458e-05
371.1149999997834,2.656529e-05,371.1149999997834,1.067658e-05,371.1149999997834,0.0001886547,371.1149999997834,1.139769e-05
371.12999999978337,2.64196e-05,371.12999999978337,1.069636e-05,371.12999999978337,0.0001873516,371.12999999978337,1.13878e-05
371.14499999978335,2.629614e-05,371.14499999978335,1.172184e-05,371.14499999978335,0.0001863586,371.14499999978335,1.222652e-05
371.15999999978334,2.526786e-05,371.15999999978334,1.184973e-05,371.15999999978334,0.0001901712,371.15999999978334,1.2397e-05
371.1749999997833,2.586676e-05,371.1749999997833,1.260882e-05,371.1749999997833,0.0001905793,371.1749999997833,1.246613e-05
371.1899999997833,2.53152e-05,371.1899999997833,1.2884e-05,371.1899999997833,0.0001756419,371.1899999997833,1.231492e-05
371.2049999997833,2.518969e-05,371.2049999997833,1.291676e-05,371.2049999997833,0.0001752676,371.2049999997833,1.255059e-05
371.2199999997833,2.540741e-05,371.2199999997833,1.407133e-05,371.2199999997833,0.0001773745,371.2199999997833,1.289711e-05
371.23499999978327,2.594017e-05,371.23499999978327,1.419989e-05,371.23499999978327,0.0001776654,371.23499999978327,1.288947e-05
371.24999999978326,2.290696e-05,371.24999999978326,1.42405e-05,371.24999999978326,0.0001704659,371.24999999978326,1.311374e-05
371.26499999978324,2.255059e-05,371.26499999978324,1.420683e-05,371.26499999978324,0.0001466074,371.26499999978324,1.301454e-05
371.27999999978323,2.124537e-05,371.27999999978323,1.403826e-05,371.27999999978323,0.0001365101,371.27999999978323,1.263895e-05
371.2949999997832,2.107828e-05,371.2949999997832,1.353348e-05,371.2949999997832,0.0001364765,371.2949999997832,1.229202e-05
371.3099999997832,1.963477e-05,371.3099999997832,1.284239e-05,371.3099999997832,0.0001301548,371.3099999997832,1.148633e-05
371.3249999997832,1.932381e-05,371.3249999997832,1.281713e-05,371.3249999997832,0.0001183244,371.3249999997832,1.143348e-05
371.3399999997832,1.864865e-05,371.3399999997832,1.455747e-05,371.3399999997832,0.0001107706,371.3399999997832,1.17746e-05
371.35499999978316,1.82871e-05,371.35499999978316,1.509057e-05,371.35499999978316,0.0001065057,371.35499999978316,1.178655e-05
371.36999999978315,1.617025e-05,371.36999999978315,1.657038e-05,371.36999999978315,0.0001048451,371.36999999978315,1.193029e-05
371.38499999978313,1.602059e-05,371.38499999978313,1.712062e-05,371.38499999978313,9.826466e-05,371.38499999978313,1.121831e-05
371.3999999997831,1.553671e-05,371.3999999997831,1.655678e-05,371.3999999997831,9.845771e-05,371.3999999997831,1.177579e-05
371.4149999997831,1.485347e-05,371.4149999997831,1.615195e-05,371.4149999997831,8.799559e-05,371.4149999997831,1.14802e-05
371.4299999997831,1.211076e-05,371.4299999997831,1.635992e-05,371.4299999997831,8.442483e-05,371.4299999997831,1.172424e-05
371.4449999997831,1.179611e-05,371.4449999997831,1.906549e-05,371.4449999997831,8.31911e-05,371.4449999997831,1.175065e-05
371.45999999978307,1.110218e-05,371.45999999978307,1.922588e-05,371.45999999978307,7.531289e-05,371.45999999978307,1.173745e-05
371.47499999978305,1.045527e-05,371.47499999978305,1.857447e-05,371.47499999978305,6.756594e-05,371.47499999978305,1.179731e-05
371.48999999978304,9.179681e-06,371.48999999978304,1.85137e-05,371.48999999978304,7.247298e-05,371.48999999978304,1.167608e-05
371.504999999783,8.89601e-06,371.504999999783,1.845731e-05,371.504999999783,8.207227e-05,371.504999999783,1.109711e-05
371.519999999783,9.191949e-06,371.519999999783,1.846647e-05,371.519999999783,8.861216e-05,371.519999999783,1.09553e-05
371.534999999783,8.849969e-06,371.534999999783,1.883505e-05,371.534999999783,8.817311e-05,371.534999999783,1.104366e-05
371.549999999783,8.720087e-06,371.549999999783,1.914659e-05,371.549999999783,9.04181e-05,371.549999999783,1.131707e-05
371.56499999978297,8.619349e-06,371.56499999978297,1.919509e-05,371.56499999978297,9.144842e-05,371.56499999978297,1.201031e-05
371.57999999978296,7.632989e-06,371.57999999978296,1.903369e-05,371.57999999978296,9.073009e-05,371.57999999978296,1.185924e-05
371.59499999978294,7.421518e-06,371.59499999978294,1.781576e-05,371.59499999978294,9.227816e-05,371.59499999978294,1.149859e-05
371.60999999978293,7.099447e-06,371.60999999978293,1.709098e-05,371.60999999978293,9.24089e-05,371.60999999978293,1.122207e-05
371.6249999997829,6.543968e-06,371.6249999997829,1.57537e-05,371.6249999997829,9.519568e-05,371.6249999997829,1.090245e-05
371.6399999997829,6.515924e-06,371.6399999997829,1.49866e-05,371.6399999997829,9.393831e-05,371.6399999997829,1.056917e-05
371.6549999997829,6.565459e-06,371.6549999997829,1.512134e-05,371.6549999997829,9.864296e-05,371.6549999997829,1.024156e-05
371.6699999997829,6.682424e-06,371.6699999997829,1.542844e-05,371.6699999997829,0.0001054467,371.6699999997829,1.032648e-05
371.68499999978286,6.803591e-06,371.68499999978286,1.149614e-05,371.68499999978286,0.0001024399,371.68499999978286,9.932932e-06
371.69999999978285,7.302889e-06,371.69999999978285,1.074628e-05,371.69999999978285,0.0001079207,371.69999999978285,1.003031e-05
371.71499999978283,7.497057e-06,371.71499999978283,1.062235e-05,371.71499999978283,0.0001344261,371.71499999978283,1.029506e-05
371.7299999997828,7.517698e-06,371.7299999997828,1.075546e-05,371.7299999997828,0.0002373398,371.7299999997828,1.074628e-05
371.7449999997828,7.455606e-06,371.7449999997828,1.085324e-05,371.7449999997828,0.0002693046,371.7449999997828,1.158646e-05
371.7599999997828,7.474476e-06,371.7599999997828,1.085324e-05,371.7599999997828,0.0003290953,371.7599999997828,1.182355e-05
371.7749999997828,6.985433e-06,371.7749999997828,1.053446e-05,371.7749999997828,0.000335643,371.7749999997828,1.174825e-05
371.78999999978276,7.12124e-06,371.78999999978276,1.010586e-05,371.78999999978276,0.0003360531,371.78999999978276,1.201266e-05
371.80499999978275,7.3567e-06,371.80499999978275,9.363521e-06,371.80499999978275,0.0003461277,371.80499999978275,1.184021e-05
371.81999999978274,7.325999e-06,371.81999999978274,8.757163e-06,371.81999999978274,0.0004773143,371.81999999978274,1.134939e-05
371.8349999997827,7.135074e-06,371.8349999997827,8.865873e-06,371.8349999997827,0.0005516084,371.8349999997827,1.131583e-05
371.8499999997827,7.186222e-06,371.8499999997827,8.484277e-06,371.8499999997827,0.0005537154,371.8499999997827,1.190902e-05
371.8649999997827,7.140994e-06,371.8649999997827,8.573465e-06,371.8649999997827,0.0005758074,371.8649999997827,1.203843e-05
371.8799999997827,7.217518e-06,371.8799999997827,1.041477e-05,371.8799999997827,0.0006090853,371.8799999997827,1.245256e-05
371.89499999978267,7.033664e-06,371.89499999978267,1.072398e-05,371.89499999978267,0.0006150951,371.89499999978267,1.226793e-05
371.90999999978266,6.896133e-06,371.90999999978266,1.045796e-05,371.90999999978266,0.0006158297,371.90999999978266,1.200562e-05
371.92499999978264,6.859265e-06,371.92499999978264,1.017255e-05,371.92499999978264,0.0006153209,371.92499999978264,1.215604e-05
371.93999999978263,6.716067e-06,371.93999999978263,1.010447e-05,371.93999999978263,0.0006156096,371.93999999978263,1.198213e-05
371.9549999997826,6.376062e-06,371.9549999997826,9.992318e-06,371.9549999997826,0.0006120873,371.9549999997826,1.148756e-05
371.9699999997826,6.269119e-06,371.9699999997826,9.954182e-06,371.9699999997826,0.0006044963,371.9699999997826,1.113639e-05
371.9849999997826,6.176305e-06,371.9849999997826,9.754049e-06,371.9849999997826,0.0005658026,371.9849999997826,1.039988e-05
371.9999999997826,5.826569e-06,371.9999999997826,1.004013e-05,371.9999999997826,0.0005506188,371.9999999997826,9.853194e-06
372.01499999978256,5.726587e-06,372.01499999978256,1.011283e-05,372.01499999978256,0.0005231638,372.01499999978256,9.691749e-06
372.02999999978255,5.599728e-06,372.02999999978255,1.013092e-05,372.02999999978255,0.0005151289,372.02999999978255,9.13507e-06
372.04499999978253,5.619817e-06,372.04499999978253,9.756936e-06,372.04499999978253,0.0005138228,372.04499999978253,8.787673e-06
372.0599999997825,5.407768e-06,372.0599999997825,9.735256e-06,372.0599999997825,0.000489932,372.0599999997825,8.926046e-06
372.0749999997825,5.508422e-06,372.0749999997825,9.330365e-06,372.0749999997825,0.0003325346,372.0749999997825,8.798887e-06
372.0899999997825,5.807196e-06,372.0899999997825,9.262176e-06,372.0899999997825,0.0002515288,372.0899999997825,8.454338e-06
372.1049999997825,6.040241e-06,372.1049999997825,9.236285e-06,372.1049999997825,0.0002400149,372.1049999997825,7.766543e-06
372.11999999978246,6.11902e-06,372.11999999978246,9.040516e-06,372.11999999978246,0.0001915278,372.11999999978246,7.62745e-06
372.13499999978245,5.993417e-06,372.13499999978245,6.665538e-06,372.13499999978245,9.018207e-05,372.13499999978245,7.164627e-06
372.14999999978244,5.93674e-06,372.14999999978244,6.340615e-06,372.14999999978244,7.716886e-05,372.14999999978244,6.963215e-06
372.1649999997824,5.976941e-06,372.1649999997824,6.187698e-06,372.1649999997824,5.967554e-05,372.1649999997824,6.638008e-06
372.1799999997824,6.116717e-06,372.1799999997824,6.183143e-06,372.1799999997824,6.619137e-05,372.1799999997824,6.417902e-06
372.1949999997824,6.180865e-06,372.1949999997824,6.146583e-06,372.1949999997824,6.533153e-05,372.1949999997824,6.459471e-06
372.2099999997824,5.934367e-06,372.2099999997824,6.075122e-06,372.2099999997824,6.497154e-05,372.2099999997824,6.474718e-06
372.22499999978237,5.75603e-06,372.22499999978237,5.969867e-06,372.22499999978237,6.651555e-05,372.22499999978237,6.749543e-06
372.23999999978236,5.733962e-06,372.23999999978236,5.898653e-06,372.23999999978236,6.630937e-05,372.23999999978236,6.53104e-06
372.25499999978234,5.711809e-06,372.25499999978234,5.286585e-06,372.25499999978234,6.345745e-05,372.25499999978234,6.718165e-06
372.2699999997823,5.787757e-06,372.2699999997823,5.173461e-06,372.2699999997823,5.790775e-05,372.2699999997823,6.64861e-06
372.2849999997823,5.701935e-06,372.2849999997823,5.291911e-06,372.2849999997823,5.663538e-05,372.2849999997823,6.627389e-06
372.2999999997823,5.738873e-06,372.2999999997823,5.168013e-06,372.2999999997823,5.596961e-05,372.2999999997823,6.789081e-06
372.3149999997823,5.775575e-06,372.3149999997823,5.077266e-06,372.3149999997823,5.58643e-05,372.3149999997823,6.537507e-06
372.3299999997823,5.444114e-06,372.3299999997823,5.041069e-06,372.3299999997823,5.430591e-05,372.3299999997823,6.753716e-06
372.34499999978226,5.08004e-06,372.34499999978226,4.956529e-06,372.34499999978226,5.381159e-05,372.34499999978226,6.745368e-06
372.35999999978225,4.890725e-06,372.35999999978225,4.812329e-06,372.35999999978225,5.175013e-05,372.35999999978225,6.663425e-06
372.37499999978223,4.956529e-06,372.37499999978223,4.858938e-06,372.37499999978223,5.148733e-05,372.37499999978223,6.614623e-06
372.3899999997822,5.013047e-06,372.3899999997822,4.780021e-06,372.3899999997822,5.11753e-05,372.3899999997822,6.642251e-06
372.4049999997822,5.554263e-06,372.4049999997822,4.942298e-06,372.4049999997822,5.164331e-05,372.4049999997822,6.74119e-06
372.4199999997822,5.577042e-06,372.4199999997822,4.953686e-06,372.4199999997822,4.795027e-05,372.4199999997822,6.507271e-06
372.4349999997822,5.402556e-06,372.4349999997822,4.726678e-06,372.4349999997822,3.180732e-05,372.4349999997822,6.522406e-06
372.44999999978216,5.493057e-06,372.44999999978216,4.654602e-06,372.44999999978216,4.830094e-05,372.44999999978216,6.612493e-06
372.46499999978215,5.513535e-06,372.46499999978215,4.593675e-06,372.46499999978215,8.917646e-05,372.46499999978215,6.652846e-06
372.47999999978214,5.577042e-06,372.47999999978214,4.75046e-06,372.47999999978214,9.359683e-05,372.47999999978214,6.483414e-06
372.4949999997821,5.692045e-06,372.4949999997821,4.405843e-06,372.4949999997821,0.0001043381,372.4949999997821,6.014533e-06
372.5099999997821,5.716739e-06,372.5099999997821,4.389827e-06,372.5099999997821,0.0001056013,372.5099999997821,5.905813e-06
372.5249999997821,5.857914e-06,372.5249999997821,4.334932e-06,372.5249999997821,0.0001097802,372.5249999997821,5.986361e-06
372.5399999997821,6.014533e-06,372.5399999997821,4.418613e-06,372.5399999997821,0.0001389339,372.5399999997821,6.187698e-06
372.55499999978207,5.753582e-06,372.55499999978207,4.450379e-06,372.55499999978207,0.0001432803,372.55499999978207,6.300498e-06
372.56999999978206,5.714275e-06,372.56999999978206,4.581393e-06,372.56999999978206,0.0001479872,372.56999999978206,6.296025e-06
372.58499999978204,6.077441e-06,372.58499999978204,4.596741e-06,372.58499999978204,0.0001486755,372.58499999978204,6.153455e-06
372.599999999782,6.075122e-06,372.599999999782,4.639445e-06,372.599999999782,0.0001490731,372.599999999782,6.221753e-06
372.614999999782,6.174023e-06,372.614999999782,4.788854e-06,372.614999999782,0.0001495916,372.614999999782,6.037908e-06
372.629999999782,6.387099e-06,372.629999999782,4.893604e-06,372.629999999782,0.0001492648,372.629999999782,6.035575e-06
372.644999999782,6.759971e-06,372.644999999782,4.841512e-06,372.644999999782,0.0001495913,372.644999999782,5.922486e-06
372.659999999782,6.753716e-06,372.659999999782,4.660651e-06,372.659999999782,0.0001495109,372.659999999782,5.903427e-06
372.67499999978196,7.131124e-06,372.67499999978196,4.602866e-06,372.67499999978196,0.0001502004,372.67499999978196,6.095956e-06
372.68999999978195,7.415822e-06,372.68999999978195,4.711753e-06,372.68999999978195,0.0001509728,372.68999999978195,6.077441e-06
372.70499999978193,7.759284e-06,372.70499999978193,4.714741e-06,372.70499999978193,0.0001416649,372.70499999978193,6.056544e-06
372.7199999997819,7.965326e-06,372.7199999997819,4.907976e-06,372.7199999997819,0.0001244267,372.7199999997819,5.877121e-06
372.7349999997819,8.229749e-06,372.7349999997819,5.029879e-06,372.7349999997819,0.0001213739,372.7349999997819,5.881913e-06
372.7499999997819,1.024843e-05,372.7499999997819,5.230329e-06,372.7499999997819,0.0001164531,372.7499999997819,6.035575e-06
372.7649999997819,1.22507e-05,372.7649999997819,6.03324e-06,372.7649999997819,0.0001167593,372.7649999997819,6.068162e-06
372.77999999978186,1.327602e-05,372.77999999978186,6.086705e-06,372.77999999978186,0.000110731,372.77999999978186,6.086705e-06
372.79499999978185,1.366297e-05,372.79499999978185,7.129148e-06,372.79499999978185,7.531588e-05,372.79499999978185,5.995767e-06
372.80999999978184,1.584732e-05,372.80999999978184,7.180339e-06,372.80999999978184,6.994964e-05,372.80999999978184,5.850696e-06
372.8249999997818,1.651418e-05,372.8249999997818,7.530803e-06,372.8249999997818,6.995106e-05,372.8249999997818,5.988714e-06
372.8399999997818,1.719206e-05,372.8399999997818,7.547619e-06,372.8399999997818,7.094187e-05,372.8399999997818,6.007502e-06
372.8549999997818,1.756091e-05,372.8549999997818,7.755652e-06,372.8549999997818,8.031424e-05,372.8549999997818,5.988714e-06
372.8699999997818,1.90137e-05,372.8699999997818,8.105571e-06,372.8699999997818,8.413316e-05,372.8699999997818,6.063518e-06
372.88499999978177,1.947558e-05,372.88499999978177,8.676361e-06,372.88499999978177,9.002699e-05,372.88499999978177,5.93674e-06
372.89999999978176,2.048792e-05,372.89999999978176,8.827657e-06,372.89999999978176,9.815909e-05,372.89999999978176,6.005157e-06
372.91499999978174,2.072241e-05,372.91499999978174,8.867461e-06,372.91499999978174,0.0001105925,372.91499999978174,6.079758e-06
372.9299999997817,2.313581e-05,372.9299999997817,9.808774e-06,372.9299999997817,0.0001115499,372.9299999997817,5.905813e-06
372.9449999997817,2.764218e-05,372.9449999997817,1.050232e-05,372.9449999997817,0.0001243618,372.9449999997817,5.850696e-06
372.9599999997817,2.892126e-05,372.9599999997817,1.074497e-05,372.9599999997817,0.0001267,372.9599999997817,5.872325e-06
372.9749999997817,2.909801e-05,372.9749999997817,1.101045e-05,372.9749999997817,0.0001352884,372.9749999997817,5.908198e-06
372.9899999997817,3.081851e-05,372.9899999997817,1.18414e-05,372.9899999997817,0.0001951863,372.9899999997817,6.009847e-06
373.00499999978166,3.495257e-05,373.00499999978166,1.248306e-05,373.00499999978166,0.0002047532,373.00499999978166,5.998116e-06
373.01999999978165,3.655763e-05,373.01999999978165,1.256853e-05,373.01999999978165,0.0002234013,373.01999999978165,5.903427e-06
373.03499999978163,3.740365e-05,373.03499999978163,1.471819e-05,373.03499999978163,0.0002297446,373.03499999978163,5.814468e-06
373.0499999997816,3.966786e-05,373.0499999997816,1.507376e-05,373.0499999997816,0.0002371735,373.0499999997816,5.682137e-06
373.0649999997816,4.011772e-05,373.0649999997816,1.55856e-05,373.0649999997816,0.0002380787,373.0649999997816,5.654801e-06
373.0799999997816,4.135432e-05,373.0799999997816,1.601444e-05,373.0799999997816,0.0002443649,373.0799999997816,5.438937e-06
373.0949999997816,4.231699e-05,373.0949999997816,1.70555e-05,373.0949999997816,0.0002556385,373.0949999997816,5.238403e-06
373.10999999978156,4.342205e-05,373.10999999978156,1.723625e-05,373.10999999978156,0.0002702363,373.10999999978156,5.259872e-06
373.12499999978155,4.418039e-05,373.12499999978155,1.796144e-05,373.12499999978155,0.0002921484,373.12499999978155,5.376418e-06
373.13999999978154,4.439192e-05,373.13999999978154,1.812072e-05,373.13999999978154,0.0003366943,373.13999999978154,5.441526e-06
373.1549999997815,4.452088e-05,373.1549999997815,1.842294e-05,373.1549999997815,0.0003530404,373.1549999997815,5.523745e-06
373.1699999997815,4.479594e-05,373.1699999997815,1.858281e-05,373.1699999997815,0.0003549301,373.1699999997815,5.493057e-06
373.1849999997815,4.45601e-05,373.1849999997815,1.886195e-05,373.1849999997815,0.0003565734,373.1849999997815,5.955692e-06
373.1999999997815,4.340388e-05,373.1999999997815,1.976634e-05,373.1999999997815,0.0003551755,373.1999999997815,5.939112e-06
373.21499999978147,4.318556e-05,373.21499999978147,2.102073e-05,373.21499999978147,0.0003633625,373.21499999978147,6.187698e-06
373.22999999978146,4.257287e-05,373.22999999978146,2.079706e-05,373.22999999978146,0.0003611326,373.22999999978146,5.903427e-06
373.24499999978144,4.012931e-05,373.24499999978144,2.066728e-05,373.24499999978144,0.0003386544,373.24499999978144,5.874723e-06
373.2599999997814,3.772428e-05,373.2599999997814,2.042526e-05,373.2599999997814,0.0003433645,373.2599999997814,5.765811e-06
373.2749999997814,3.704262e-05,373.2749999997814,2.066796e-05,373.2749999997814,0.0003593392,373.2749999997814,5.787757e-06
373.2899999997814,6.750796e-05,373.2899999997814,1.926614e-05,373.2899999997814,0.0006554609,373.2899999997814,5.845879e-06
373.3049999997814,9.413964e-05,373.3049999997814,2.290143e-05,373.3049999997814,0.0009503466,373.3049999997814,5.862722e-06
373.3199999997814,0.0001273842,373.3199999997814,2.544564e-05,373.3199999997814,0.001535254,373.3199999997814,6.409116e-06
373.33499999978136,0.0002266512,373.33499999978136,2.799663e-05,373.33499999978136,0.001660674,373.33499999978136,6.963215e-06
373.34999999978135,0.0002328981,373.34999999978135,2.927273e-05,373.34999999978135,0.001780339,373.34999999978135,7.644054e-06
373.36499999978133,0.0002522044,373.36499999978133,3.090523e-05,373.36499999978133,0.002057725,373.36499999978133,8.002378e-06
373.3799999997813,0.0002626066,373.3799999997813,3.37306e-05,373.3799999997813,0.002265611,373.3799999997813,8.380704e-06
373.3949999997813,0.000263507,373.3949999997813,3.946207e-05,373.3949999997813,0.002292637,373.3949999997813,9.029603e-06
373.4099999997813,0.0002641726,373.4099999997813,4.279201e-05,373.4099999997813,0.002331886,373.4099999997813,9.1289e-06
373.4249999997813,0.000264936,373.4249999997813,4.429694e-05,373.4249999997813,0.002340923,373.4249999997813,9.145859e-06
373.43999999978126,0.0002650326,373.43999999978126,4.485816e-05,373.43999999978126,0.002391485,373.43999999978126,9.253046e-06
373.45499999978125,0.0002652264,373.45499999978125,4.622411e-05,373.45499999978125,0.002394748,373.45499999978125,9.68157e-06
373.46999999978124,0.0002653266,373.46999999978124,4.69831e-05,373.46999999978124,0.00240685,373.46999999978124,9.742488e-06
373.4849999997812,0.0002654853,373.4849999997812,4.702715e-05,373.4849999997812,0.002431865,373.4849999997812,9.804465e-06
373.4999999997812,0.0002654959,373.4999999997812,4.73671e-05,373.4999999997812,0.00243506,373.4999999997812,9.78145e-06
373.5149999997812,0.0002653282,373.5149999997812,4.742031e-05,373.5149999997812,0.002435268,373.5149999997812,9.914478e-06
373.5299999997812,0.0002650014,373.5299999997812,4.723249e-05,373.5299999997812,0.002435413,373.5299999997812,9.853194e-06
373.54499999978117,0.0002507299,373.54499999978117,4.688856e-05,373.54499999978117,0.002294279,373.54499999978117,9.817387e-06
373.55999999978116,0.0002490509,373.55999999978116,4.576286e-05,373.55999999978116,0.002178914,373.55999999978116,9.784329e-06
373.57499999978114,0.0002123623,373.57499999978114,4.403636e-05,373.57499999978114,0.00199987,373.57499999978114,9.342435e-06
373.5899999997811,0.0001711694,373.5899999997811,4.271887e-05,373.5899999997811,0.00186731,373.5899999997811,9.309204e-06
373.6049999997811,0.0001777236,373.6049999997811,4.201834e-05,373.6049999997811,0.001799701,373.6049999997811,8.960697e-06
373.6199999997811,0.0001625823,373.6199999997811,3.986446e-05,373.6199999997811,0.001513531,373.6199999997811,9.110365e-06
373.6349999997811,0.000192727,373.6349999997811,3.594522e-05,373.6349999997811,0.001326339,373.6349999997811,8.715239e-06
373.6499999997811,0.000199154,373.6499999997811,3.25199e-05,373.6499999997811,0.00124769,373.6499999997811,8.231461e-06
373.66499999978106,0.0001988071,373.66499999978106,2.799462e-05,373.66499999978106,0.001221478,373.66499999978106,8.545489e-06
373.67999999978105,0.0002018204,373.67999999978105,2.597708e-05,373.67999999978105,0.001167259,373.67999999978105,8.637307e-06
373.69499999978103,0.0002033865,373.69499999978103,2.463041e-05,373.69499999978103,0.001127949,373.69499999978103,8.490915e-06
373.709999999781,0.0002037359,373.709999999781,2.207648e-05,373.709999999781,0.001188031,373.709999999781,8.622616e-06
373.724999999781,0.0002038261,373.724999999781,2.180878e-05,373.724999999781,0.001165938,373.724999999781,8.390783e-06
373.739999999781,0.000203674,373.739999999781,2.571985e-05,373.739999999781,0.001142192,373.739999999781,8.558665e-06
373.754999999781,0.0002036758,373.754999999781,2.680548e-05,373.754999999781,0.001169531,373.754999999781,8.716856e-06
373.76999999978096,0.0002037699,373.76999999978096,2.671652e-05,373.76999999978096,0.001165084,373.76999999978096,8.679607e-06
373.78499999978095,0.0002037706,373.78499999978095,2.665951e-05,373.78499999978095,0.0011622,373.78499999978095,8.802089e-06
373.79999999978094,0.0002037547,373.79999999978094,2.67376e-05,373.79999999978094,0.001166034,373.79999999978094,8.827657e-06
373.8149999997809,0.0001983808,373.8149999997809,2.588146e-05,373.8149999997809,0.00110621,373.8149999997809,8.864284e-06
373.8299999997809,0.0001955194,373.8299999997809,2.594778e-05,373.8299999997809,0.0009369562,373.8299999997809,8.819675e-06
373.8449999997809,0.0001762398,373.8449999997809,2.593149e-05,373.8449999997809,0.0009343739,373.8449999997809,8.439329e-06
373.8599999997809,0.0002046866,373.8599999997809,2.614248e-05,373.8599999997809,0.000926441,373.8599999997809,8.088174e-06
373.87499999978087,0.00025135,373.87499999978087,2.79145e-05,373.87499999978087,0.0009574356,373.87499999978087,8.566891e-06
373.88999999978085,0.0002538247,373.88999999978085,2.852993e-05,373.88999999978085,0.001041891,373.88999999978085,8.723317e-06
373.90499999978084,0.0003284792,373.90499999978084,2.845131e-05,373.90499999978084,0.001034384,373.90499999978084,8.379024e-06
373.9199999997808,0.0003381487,373.9199999997808,2.961005e-05,373.9199999997808,0.001037334,373.9199999997808,8.29284e-06
373.9349999997808,0.0003389983,373.9349999997808,2.915266e-05,373.9349999997808,0.001034975,373.9349999997808,8.695822e-06
373.9499999997808,0.0003451992,373.9499999997808,2.918936e-05,373.9499999997808,0.0009679373,373.9499999997808,7.874616e-06
373.9649999997808,0.0003467815,373.9649999997808,3.013256e-05,373.9649999997808,0.0009736915,373.9649999997808,7.781039e-06
373.9799999997808,0.0003468207,373.9799999997808,3.174526e-05,373.9799999997808,0.001090975,373.9799999997808,7.862084e-06
373.99499999978076,0.0003469265,373.99499999978076,2.865359e-05,373.99499999978076,0.001071022,373.99499999978076,7.540149e-06
374.00999999978075,0.0003470857,374.00999999978075,2.87586e-05,374.00999999978075,0.001110198,374.00999999978075,7.455606e-06
374.02499999978073,0.0003471168,374.02499999978073,2.967895e-05,374.02499999978073,0.001136268,374.02499999978073,7.448044e-06
374.0399999997807,0.0003471295,374.0399999997807,2.956196e-05,374.0399999997807,0.001127934,374.0399999997807,7.364355e-06
374.0549999997807,0.0003470804,374.0549999997807,2.995909e-05,374.0549999997807,0.00112678,374.0549999997807,7.472591e-06
374.0699999997807,0.0003470628,374.0699999997807,3.061765e-05,374.0699999997807,0.001128745,374.0699999997807,7.480127e-06
374.0849999997807,0.0003389014,374.0849999997807,2.988801e-05,374.0849999997807,0.001101844,374.0849999997807,7.493299e-06
374.09999999978066,0.0003549536,374.09999999978066,3.011058e-05,374.09999999978066,0.001133196,374.09999999978066,7.421518e-06
374.11499999978065,0.0003296476,374.11499999978065,2.957816e-05,374.11499999978065,0.001144073,374.11499999978065,7.451826e-06
374.12999999978064,0.0004588057,374.12999999978064,2.894852e-05,374.12999999978064,0.001140689,374.12999999978064,6.989465e-06
374.1449999997806,0.0004493776,374.1449999997806,3.059694e-05,374.1449999997806,0.001209754,374.1449999997806,7.50457e-06
374.1599999997806,0.0004702519,374.1599999997806,3.098899e-05,374.1599999997806,0.001216695,374.1599999997806,7.761099e-06
374.1749999997806,0.0004971027,374.1749999997806,3.136177e-05,374.1749999997806,0.001203665,374.1749999997806,7.581139e-06
374.1899999997806,0.000494444,374.1899999997806,3.180732e-05,374.1899999997806,0.001202191,374.1899999997806,7.582997e-06
374.20499999978057,0.0004928414,374.20499999978057,3.176655e-05,374.20499999978057,0.001198274,374.20499999978057,7.66246e-06
374.21999999978055,0.0004940917,374.21999999978055,3.096762e-05,374.21999999978055,0.00117392,374.21999999978055,7.887128e-06
374.23499999978054,0.0004944555,374.23499999978054,3.064525e-05,374.23499999978054,0.001191138,374.23499999978054,7.887128e-06
374.2499999997805,0.0004944242,374.2499999997805,3.066087e-05,374.2499999997805,0.001177368,374.2499999997805,7.831566e-06
374.2649999997805,0.0004943541,374.2649999997805,3.079565e-05,374.2649999997805,0.001197368,374.2649999997805,7.894269e-06
374.2799999997805,0.0004942843,374.2799999997805,3.091845e-05,374.2799999997805,0.001225872,374.2799999997805,7.874616e-06
374.2949999997805,0.000494306,374.2949999997805,3.109925e-05,374.2949999997805,0.001224959,374.2949999997805,7.808148e-06
374.3099999997805,0.0004943692,374.3099999997805,3.093029e-05,374.3099999997805,0.001227658,374.3099999997805,7.717415e-06
374.32499999978046,0.0004942812,374.32499999978046,3.023058e-05,374.32499999978046,0.001226587,374.32499999978046,7.766543e-06
374.33999999978045,0.0004890092,374.33999999978045,3.023337e-05,374.33999999978045,0.00115608,374.33999999978045,7.704628e-06
374.35499999978043,0.000485062,374.35499999978043,3.090341e-05,374.35499999978043,0.001132956,374.35499999978043,7.72289e-06
374.3699999997804,0.0004509402,374.3699999997804,2.990685e-05,374.3699999997804,0.001252905,374.3699999997804,7.673483e-06
374.3849999997804,0.0003936708,374.3849999997804,2.818818e-05,374.3849999997804,0.001284298,374.3849999997804,7.213613e-06
374.3999999997804,0.000436649,374.3999999997804,3.042982e-05,374.3999999997804,0.001283217,374.3999999997804,8.726546e-06
374.4149999997804,0.0004043509,374.4149999997804,3.025154e-05,374.4149999997804,0.001365507,374.4149999997804,8.524032e-06
374.42999999978036,0.0004519459,374.42999999978036,2.956149e-05,374.42999999978036,0.001379407,374.42999999978036,8.289442e-06
374.44499999978035,0.0004613187,374.44499999978035,3.060523e-05,374.44499999978035,0.001383282,374.44499999978035,8.236593e-06
374.45999999978034,0.000460028,374.45999999978034,2.964096e-05,374.45999999978034,0.001376498,374.45999999978034,8.494233e-06
374.4749999997803,0.0004630442,374.4749999997803,2.923421e-05,374.4749999997803,0.001288692,374.4749999997803,8.253678e-06
374.4899999997803,0.0004644578,374.4899999997803,3.142459e-05,374.4899999997803,0.001343225,374.4899999997803,8.311504e-06
374.5049999997803,0.0004648228,374.5049999997803,3.312078e-05,374.5049999997803,0.00134673,374.5049999997803,8.341955e-06
374.5199999997803,0.0004648383,374.5199999997803,3.247135e-05,374.5199999997803,0.001317812,374.5199999997803,8.419275e-06
374.53499999978027,0.0004648535,374.53499999978027,3.254891e-05,374.53499999978027,0.001338129,374.53499999978027,8.41258e-06
374.54999999978025,0.0004648312,374.54999999978025,3.273146e-05,374.54999999978025,0.001338509,374.54999999978025,8.39414e-06
374.56499999978024,0.0004647691,374.56499999978024,3.248045e-05,374.56499999978024,0.001342901,374.56499999978024,8.395818e-06
374.5799999997802,0.0004647422,374.5799999997802,3.246484e-05,374.5799999997802,0.001341895,374.5799999997802,8.263912e-06
374.5949999997802,0.0004646654,374.5949999997802,3.194299e-05,374.5949999997802,0.001330937,374.5949999997802,8.253678e-06
374.6099999997802,0.0004587661,374.6099999997802,3.240968e-05,374.6099999997802,0.001292216,374.6099999997802,8.287742e-06
374.6249999997802,0.0004614824,374.6249999997802,3.254545e-05,374.6249999997802,0.001213765,374.6249999997802,8.138525e-06
374.6399999997802,0.0004042879,374.6399999997802,3.340622e-05,374.6399999997802,0.001146921,374.6399999997802,8.338578e-06
374.65499999978016,0.0004628896,374.65499999978016,3.27534e-05,374.65499999978016,0.001099547,374.65499999978016,7.530803e-06
374.66999999978015,0.000421236,374.66999999978015,3.280111e-05,374.66999999978015,0.001167574,374.66999999978015,7.656943e-06
374.68499999978013,0.0004425736,374.68499999978013,3.299167e-05,374.68499999978013,0.001193986,374.68499999978013,7.773794e-06
374.6999999997801,0.0004562414,374.6999999997801,3.358956e-05,374.6999999997801,0.001185115,374.6999999997801,7.616361e-06
374.7149999997801,0.0004544776,374.7149999997801,3.366873e-05,374.7149999997801,0.001193831,374.7149999997801,7.625604e-06
374.7299999997801,0.0004525249,374.7299999997801,3.138781e-05,374.7299999997801,0.001177685,374.7299999997801,7.63668e-06
374.7449999997801,0.0004528239,374.7449999997801,3.165372e-05,374.7449999997801,0.001198721,374.7449999997801,7.508323e-06
374.75999999978006,0.0004534969,374.75999999978006,2.977184e-05,374.75999999978006,0.001215144,374.75999999978006,7.448044e-06
374.77499999978005,0.0004537851,374.77499999978005,2.984131e-05,374.77499999978005,0.001188296,374.77499999978005,7.444261e-06
374.78999999978004,0.0004537866,374.78999999978004,3.022405e-05,374.78999999978004,0.00125383,374.78999999978004,7.497057e-06
374.80499999978,0.000453821,374.80499999978,3.07265e-05,374.80499999978,0.001273379,374.80499999978,7.562535e-06
374.81999999978,0.0004538177,374.81999999978,3.087787e-05,374.81999999978,0.001270517,374.81999999978,7.547619e-06
374.83499999978,0.0004537632,374.83499999978,3.093166e-05,374.83499999978,0.001274821,374.83499999978,7.534543e-06
374.84999999978,0.0004538095,374.84999999978,3.151143e-05,374.84999999978,0.001286607,374.84999999978,7.358615e-06
374.86499999977997,0.0004462636,374.86499999977997,3.081485e-05,374.86499999977997,0.001297233,374.86499999977997,7.295169e-06
374.87999999977995,0.0004659228,374.87999999977995,3.018768e-05,374.87999999977995,0.001359902,374.87999999977995,7.144938e-06
374.89499999977994,0.0004395047,374.89499999977994,3.120778e-05,374.89499999977994,0.001377273,374.89499999977994,7.827967e-06
374.9099999997799,0.0005394152,374.9099999997799,2.927129e-05,374.9099999997799,0.00147858,374.9099999997799,7.586711e-06
374.9249999997799,0.0005268227,374.9249999997799,2.988989e-05,374.9249999997799,0.001488366,374.9249999997799,8.45767e-06
374.9399999997799,0.0005564475,374.9399999997799,2.896506e-05,374.9399999997799,0.001544848,374.9399999997799,8.444335e-06
374.9549999997799,0.0005747022,374.9549999997799,2.941531e-05,374.9549999997799,0.001546773,374.9549999997799,8.274134e-06
374.9699999997799,0.0005750443,374.9699999997799,3.026969e-05,374.9699999997799,0.001560217,374.9699999997799,8.145445e-06
374.98499999977986,0.0005753471,374.98499999977986,2.924963e-05,374.98499999977986,0.001517738,374.98499999977986,8.173069e-06
374.99999999977985,0.0005759755,374.99999999977985,3.128667e-05,374.99999999977985,0.001511009,374.99999999977985,8.444335e-06
375.01499999977983,0.0005765055,375.01499999977983,3.160205e-05,375.01499999977983,0.001525159,375.01499999977983,8.563602e-06
375.0299999997798,0.0005767284,375.0299999997798,3.131772e-05,375.0299999997798,0.001511334,375.0299999997798,8.487596e-06
375.0449999997798,0.0005767179,375.0449999997798,3.140665e-05,375.0449999997798,0.001515368,375.0449999997798,8.444335e-06
375.0599999997798,0.0005767158,375.0599999997798,3.242229e-05,375.0599999997798,0.001532446,375.0599999997798,8.619349e-06
375.0749999997798,0.0005768317,375.0749999997798,3.284102e-05,375.0749999997798,0.001531339,375.0749999997798,8.627516e-06
375.08999999977976,0.0005767607,375.08999999977976,3.279381e-05,375.08999999977976,0.001544056,375.08999999977976,8.627516e-06
375.10499999977975,0.0005768433,375.10499999977975,3.262499e-05,375.10499999977975,0.001524105,375.10499999977975,8.650345e-06
375.11999999977974,0.0005695357,375.11999999977974,3.270218e-05,375.11999999977974,0.001486199,375.11999999977974,8.59316e-06
375.1349999997797,0.0005556609,375.1349999997797,3.341381e-05,375.1349999997797,0.001390488,375.1349999997797,8.229749e-06
375.1499999997797,0.0004907268,375.1499999997797,3.229604e-05,375.1499999997797,0.001432658,375.1499999997797,7.726537e-06
375.1649999997797,0.0004804768,375.1649999997797,3.215178e-05,375.1649999997797,0.001425815,375.1649999997797,7.935205e-06
375.1799999997797,0.0005835289,375.1799999997797,3.353542e-05,375.1799999997797,0.001448529,375.1799999997797,8.752336e-06
375.19499999977967,0.0005441839,375.19499999977967,3.36771e-05,375.19499999977967,0.001526838,375.19499999977967,9.207261e-06
375.20999999977965,0.0006181025,375.20999999977965,3.393171e-05,375.20999999977965,0.001566132,375.20999999977965,9.210321e-06
375.22499999977964,0.000639365,375.22499999977964,3.522635e-05,375.22499999977964,0.001569624,375.22499999977964,9.334893e-06
375.2399999997796,0.0006380205,375.2399999997796,3.549922e-05,375.2399999997796,0.001568537,375.2399999997796,9.369536e-06
375.2549999997796,0.0006394468,375.2549999997796,3.44316e-05,375.2549999997796,0.001501056,375.2549999997796,9.316767e-06
375.2699999997796,0.0006411153,375.2699999997796,3.572154e-05,375.2699999997796,0.001559386,375.2699999997796,9.349971e-06
375.2849999997796,0.0006421569,375.2849999997796,3.562795e-05,375.2849999997796,0.001542009,375.2849999997796,9.425e-06
375.2999999997796,0.000642455,375.2999999997796,3.608954e-05,375.2999999997796,0.001513289,375.2999999997796,9.401056e-06
375.31499999977956,0.0006424647,375.31499999977956,3.484762e-05,375.31499999977956,0.001556714,375.31499999977956,9.277373e-06
375.32999999977955,0.0006424845,375.32999999977955,3.447903e-05,375.32999999977955,0.001558625,375.32999999977955,9.250001e-06
375.34499999977953,0.0006425293,375.34499999977953,3.420214e-05,375.34499999977953,0.001551913,375.34499999977953,9.227129e-06
375.3599999997795,0.000642475,375.3599999997795,3.386938e-05,375.3599999997795,0.001560771,375.3599999997795,9.348464e-06
375.3749999997795,0.0006427188,375.3749999997795,3.34412e-05,375.3749999997795,0.001541285,375.3749999997795,9.381556e-06
375.3899999997795,0.0006285475,375.3899999997795,3.367041e-05,375.3899999997795,0.001541257,375.3899999997795,9.352983e-06
375.4049999997795,0.0006362503,375.4049999997795,3.451782e-05,375.4049999997795,0.001415882,375.4049999997795,9.233234e-06
375.41999999977946,0.0005398515,375.41999999977946,3.579166e-05,375.41999999977946,0.001344104,375.41999999977946,8.750726e-06
375.43499999977945,0.0006254502,375.43499999977945,3.360508e-05,375.43499999977945,0.001411929,375.43499999977945,8.226325e-06
375.44999999977944,0.0005920911,375.44999999977944,3.573218e-05,375.44999999977944,0.001342103,375.44999999977944,9.518695e-06
375.4649999997794,0.0005698513,375.4649999997794,3.517192e-05,375.4649999997794,0.001415902,375.4649999997794,9.490535e-06
375.4799999997794,0.0005895263,375.4799999997794,3.363273e-05,375.4799999997794,0.001394307,375.4799999997794,9.191949e-06
375.4949999997794,0.0005914182,375.4949999997794,3.338555e-05,375.4949999997794,0.001409089,375.4949999997794,9.37705e-06
375.5099999997794,0.0005884888,375.5099999997794,3.26621e-05,375.5099999997794,0.001400719,375.5099999997794,9.29709e-06
375.52499999977937,0.0005878472,375.52499999977937,3.302495e-05,375.52499999977937,0.001329713,375.52499999977937,9.198077e-06
375.53999999977935,0.0005884363,375.53999999977935,3.381235e-05,375.53999999977935,0.001352848,375.53999999977935,9.304663e-06
375.55499999977934,0.000588809,375.55499999977934,3.371765e-05,375.55499999977934,0.001315524,375.55499999977934,9.253046e-06
375.5699999997793,0.0005887825,375.5699999997793,3.418896e-05,375.5699999997793,0.00132008,375.5699999997793,9.346957e-06
375.5849999997793,0.0005887511,375.5849999997793,3.395537e-05,375.5849999997793,0.001352984,375.5849999997793,9.399558e-06
375.5999999997793,0.00058872,375.5999999997793,3.415433e-05,375.5999999997793,0.001346212,375.5999999997793,9.442919e-06
375.6149999997793,0.0005887081,375.6149999997793,3.45374e-05,375.6149999997793,0.001357418,375.6149999997793,9.447393e-06
375.6299999997793,0.0005885008,375.6299999997793,3.442506e-05,375.6299999997793,0.001358572,375.6299999997793,9.39506e-06
375.64499999977926,0.0005833852,375.64499999977926,3.332854e-05,375.64499999977926,0.001289985,375.64499999977926,9.360511e-06
375.65999999977925,0.0005515345,375.65999999977925,3.430085e-05,375.65999999977925,0.001285281,375.65999999977925,9.090241e-06
375.67499999977923,0.0005151551,375.67499999977923,3.226637e-05,375.67499999977923,0.001379366,375.67499999977923,8.814882e-06
375.6899999997792,0.0004327323,375.6899999997792,4.076353e-05,375.6899999997792,0.001344211,375.6899999997792,7.474476e-06
375.7049999997792,0.0006267599,375.7049999997792,4.2974e-05,375.7049999997792,0.001598434,375.7049999997792,7.818965e-06
375.7199999997792,0.0005937123,375.7199999997792,4.210173e-05,375.7199999997792,0.001592176,375.7199999997792,1.014482e-05
375.7349999997792,0.0006506206,375.7349999997792,4.475788e-05,375.7349999997792,0.001647611,375.7349999997792,1.003733e-05
375.74999999977916,0.0006875938,375.74999999977916,4.497451e-05,375.74999999977916,0.001641417,375.74999999977916,1.032102e-05
375.76499999977915,0.000689503,375.76499999977915,4.453101e-05,375.76499999977915,0.001640253,375.76499999977915,1.062368e-05
375.77999999977914,0.0006904345,375.77999999977914,4.336686e-05,375.77999999977914,0.001595815,375.77999999977914,1.066999e-05
375.7949999997791,0.0006930663,375.7949999997791,4.329307e-05,375.7949999997791,0.001628637,375.7949999997791,1.05958e-05
375.8099999997791,0.0006943637,375.8099999997791,4.282294e-05,375.8099999997791,0.001621419,375.8099999997791,1.074891e-05
375.8249999997791,0.0006945932,375.8249999997791,4.291331e-05,375.8249999997791,0.001584996,375.8249999997791,1.085065e-05
375.8399999997791,0.000694585,375.8399999997791,4.323902e-05,375.8399999997791,0.001608426,375.8399999997791,1.094372e-05
375.85499999977907,0.0006945661,375.85499999977907,4.398803e-05,375.85499999977907,0.001611561,375.85499999977907,1.098483e-05
375.86999999977905,0.0006943598,375.86999999977905,4.408719e-05,375.86999999977905,0.001603702,375.86999999977905,1.093599e-05
375.88499999977904,0.000694425,375.88499999977904,4.412488e-05,375.88499999977904,0.001606485,375.88499999977904,1.102835e-05
375.899999999779,0.0006943769,375.899999999779,4.262148e-05,375.899999999779,0.001568986,375.899999999779,1.093986e-05
375.914999999779,0.0006858708,375.914999999779,4.181299e-05,375.914999999779,0.001566743,375.914999999779,1.094243e-05
375.929999999779,0.0006724853,375.929999999779,4.121716e-05,375.929999999779,0.001409097,375.929999999779,1.109838e-05
375.944999999779,0.0005944946,375.944999999779,3.329005e-05,375.944999999779,0.001374545,375.944999999779,1.117049e-05
375.959999999779,0.0006188811,375.959999999779,3.228601e-05,375.959999999779,0.001233212,375.959999999779,1.033603e-05
375.97499999977896,0.0006144004,375.97499999977896,3.216186e-05,375.97499999977896,0.001162712,375.97499999977896,1.073448e-05
375.98999999977895,0.0005919784,375.98999999977895,2.907476e-05,375.98999999977895,0.001185533,375.98999999977895,1.066866e-05
376.00499999977893,0.0006091506,376.00499999977893,2.858862e-05,376.00499999977893,0.001216731,376.00499999977893,1.035237e-05
376.0199999997789,0.0006125257,376.0199999997789,2.873607e-05,376.0199999997789,0.001218704,376.0199999997789,1.049964e-05
376.0349999997789,0.000610735,376.0349999997789,2.902336e-05,376.0349999997789,0.001219617,376.0349999997789,1.076069e-05
376.0499999997789,0.0006103089,376.0499999997789,2.913671e-05,376.0499999997789,0.001198257,376.0499999997789,1.06581e-05
376.0649999997789,0.0006119441,376.0649999997789,2.90704e-05,376.0649999997789,0.001252631,376.0649999997789,1.060377e-05
376.07999999977886,0.0006121494,376.07999999977886,2.854029e-05,376.07999999977886,0.001235375,376.07999999977886,1.046335e-05
376.09499999977885,0.0006121748,376.09499999977885,2.806397e-05,376.09499999977885,0.001267044,376.09499999977885,1.047277e-05
376.10999999977884,0.00061217,376.10999999977884,2.679023e-05,376.10999999977884,0.001286193,376.10999999977884,1.043369e-05
376.1249999997788,0.0006122721,376.1249999997788,2.646701e-05,376.1249999997788,0.001286612,376.1249999997788,1.03019e-05
376.1399999997788,0.0006125014,376.1399999997788,2.767324e-05,376.1399999997788,0.001299368,376.1399999997788,1.025942e-05
376.1549999997788,0.0006131125,376.1549999997788,2.779109e-05,376.1549999997788,0.001299421,376.1549999997788,1.025393e-05
376.1699999997788,0.0006121515,376.1699999997788,2.844587e-05,376.1699999997788,0.001288359,376.1699999997788,1.030053e-05
376.18499999977877,0.0006039789,376.18499999977877,2.651062e-05,376.18499999977877,0.001279814,376.18499999977877,9.976799e-06
376.19999999977875,0.0005710411,376.19999999977875,2.470123e-05,376.19999999977875,0.001298641,376.19999999977875,1.048353e-05
376.21499999977874,0.0005768803,376.21499999977874,2.380976e-05,376.21499999977874,0.0012618,376.21499999977874,1.03101e-05
376.2299999997787,0.0005725256,376.2299999997787,2.326151e-05,376.2299999997787,0.001267272,376.2299999997787,1.043504e-05
376.2449999997787,0.0005610749,376.2449999997787,2.355338e-05,376.2449999997787,0.001251069,376.2449999997787,1.043234e-05
376.2599999997787,0.000557156,376.2599999997787,2.325363e-05,376.2599999997787,0.001254035,376.2599999997787,1.03904e-05
376.2749999997787,0.0005575658,376.2749999997787,2.274899e-05,376.2749999997787,0.001255432,376.2749999997787,1.023605e-05
376.2899999997787,0.000556188,376.2899999997787,2.337448e-05,376.2899999997787,0.001260928,376.2899999997787,1.010168e-05
376.30499999977866,0.000555084,376.30499999977866,2.285278e-05,376.30499999977866,0.001256494,376.30499999977866,1.017532e-05
376.31999999977864,0.0005560355,376.31999999977864,2.326151e-05,376.31999999977864,0.001243138,376.31999999977864,1.031146e-05
376.33499999977863,0.0005563666,376.33499999977863,2.265903e-05,376.33499999977863,0.001238716,376.33499999977863,1.039988e-05
376.3499999997786,0.0005570727,376.3499999997786,2.320573e-05,376.3499999997786,0.001220044,376.3499999997786,1.044044e-05
376.3649999997786,0.00055719,376.3649999997786,2.352945e-05,376.3649999997786,0.00121874,376.3649999997786,1.041883e-05
376.3799999997786,0.0005571562,376.3799999997786,2.324515e-05,376.3799999997786,0.001222918,376.3799999997786,1.044314e-05
376.3949999997786,0.0005563897,376.3949999997786,2.286264e-05,376.3949999997786,0.001224493,376.3949999997786,1.040259e-05
