X[s],a: EMG RMS 1-1,X[s].1,a: EMG RMS 1-2,X[s].2,a: EMG RMS 1-3,X[s].3,a: EMG RMS 1-4
242.00999999990077,1.504008e-05,242.00999999990077,3.867824e-06,242.00999999990077,1.814869e-05,242.00999999990077,3.900464e-06
242.02499999990076,1.505693e-05,242.02499999990076,3.78313e-06,242.02499999990076,1.826474e-05,242.02499999990076,3.871464e-06
242.03999999990074,1.479551e-05,242.03999999990074,3.779404e-06,242.03999999990074,1.921269e-05,242.03999999990074,3.896851e-06
242.05499999990073,1.404327e-05,242.05499999990073,3.797995e-06,242.05499999990073,2.067478e-05,242.05499999990073,3.893234e-06
242.06999999990072,1.344681e-05,242.06999999990072,3.979125e-06,242.06999999990072,2.102073e-05,242.06999999990072,4.104592e-06
242.0849999999007,1.361753e-05,242.0849999999007,4.256228e-06,242.0849999999007,2.128776e-05,242.0849999999007,4.152361e-06
242.0999999999007,1.344576e-05,242.0999999999007,4.516361e-06,242.0999999999007,2.071358e-05,242.0999999999007,4.17604e-06
242.11499999990068,1.353452e-05,242.11499999990068,4.899358e-06,242.11499999990068,2.052708e-05,242.11499999990068,4.01437e-06
242.12999999990066,1.332685e-05,242.12999999990066,4.821102e-06,242.12999999990066,2.075705e-05,242.12999999990066,4.01437e-06
242.14499999990065,1.310944e-05,242.14499999990065,4.824024e-06,242.14499999990065,2.078011e-05,242.14499999990065,4.216325e-06
242.15999999990063,1.372264e-05,242.15999999990063,4.87919e-06,242.15999999990063,2.094285e-05,242.15999999990063,4.172666e-06
242.17499999990062,1.364956e-05,242.17499999990062,4.936594e-06,242.17499999990062,2.048792e-05,242.17499999990062,4.325173e-06
242.1899999999006,1.355636e-05,242.1899999999006,4.95937e-06,242.1899999999006,2.058943e-05,242.1899999999006,4.522595e-06
242.2049999999006,1.354076e-05,242.2049999999006,4.987693e-06,242.2049999999006,2.003673e-05,242.2049999999006,4.575239e-06
242.21999999990058,1.350117e-05,242.21999999990058,4.956529e-06,242.21999999990058,2.017894e-05,242.21999999990058,4.516361e-06
242.23499999990057,1.312233e-05,242.23499999990057,4.984868e-06,242.23499999990057,2.061336e-05,242.23499999990057,4.587538e-06
242.24999999990055,1.2838e-05,242.24999999990055,5.024275e-06,242.24999999990055,2.034025e-05,242.24999999990055,4.645514e-06
242.26499999990054,1.240723e-05,242.26499999990054,4.925167e-06,242.26499999990054,2.026184e-05,242.26499999990054,4.720713e-06
242.27999999990053,1.265565e-05,242.27999999990053,4.925167e-06,242.27999999990053,2.092199e-05,242.27999999990053,4.708762e-06
242.2949999999005,1.27134e-05,242.2949999999005,4.902232e-06,242.2949999999005,1.947268e-05,242.2949999999005,4.777073e-06
242.3099999999005,1.272559e-05,242.3099999999005,4.896482e-06,242.3099999999005,1.938931e-05,242.3099999999005,4.612038e-06
242.32499999990048,1.304697e-05,242.32499999990048,4.494475e-06,242.32499999990048,1.937041e-05,242.32499999990048,4.538142e-06
242.33999999990047,1.19527e-05,242.33999999990047,4.402644e-06,242.33999999990047,1.957154e-05,242.33999999990047,4.47563e-06
242.35499999990046,1.171102e-05,242.35499999990046,3.845909e-06,242.35499999990046,1.923174e-05,242.35499999990046,4.516361e-06
242.36999999990044,1.168694e-05,242.36999999990044,3.73818e-06,242.36999999990044,1.93311e-05,242.36999999990044,4.559819e-06
242.38499999990043,1.151328e-05,242.38499999990043,3.83123e-06,242.38499999990043,1.946762e-05,242.38499999990043,4.538142e-06
242.39999999990042,1.179014e-05,242.39999999990042,3.771943e-06,242.39999999990042,1.951604e-05,242.39999999990042,4.373753e-06
242.4149999999004,1.200797e-05,242.4149999999004,3.696496e-06,242.4149999999004,1.945386e-05,242.4149999999004,4.453544e-06
242.4299999999004,1.196802e-05,242.4299999999004,3.711708e-06,242.4299999999004,1.997406e-05,242.4299999999004,4.299038e-06
242.44499999990038,1.159375e-05,242.44499999990038,3.794284e-06,242.44499999990038,1.996418e-05,242.44499999990038,4.15914e-06
242.45999999990036,1.124214e-05,242.45999999990036,3.842245e-06,242.45999999990036,1.995219e-05,242.45999999990036,4.162526e-06
242.47499999990035,1.148879e-05,242.47499999990035,3.853228e-06,242.47499999990035,2.102207e-05,242.47499999990035,4.282623e-06
242.48999999990033,1.155968e-05,242.48999999990033,3.954266e-06,242.48999999990033,2.030213e-05,242.48999999990033,4.155752e-06
242.50499999990032,1.266567e-05,242.50499999990032,3.979125e-06,242.50499999990032,2.047417e-05,242.50499999990032,4.162526e-06
242.5199999999003,1.254048e-05,242.5199999999003,4.035369e-06,242.5199999999003,2.139864e-05,242.5199999999003,4.087396e-06
242.5349999999003,1.26512e-05,242.5349999999003,4.219664e-06,242.5349999999003,2.076248e-05,242.5349999999003,4.031877e-06
242.54999999990028,1.275433e-05,242.54999999990028,4.162526e-06,242.54999999990028,2.088358e-05,242.54999999990028,4.021382e-06
242.56499999990027,1.264563e-05,242.56499999990027,4.135364e-06,242.56499999990027,2.097377e-05,242.56499999990027,4.05626e-06
242.57999999990025,1.223574e-05,242.57999999990025,4.192873e-06,242.57999999990025,2.113568e-05,242.57999999990025,4.179412e-06
242.59499999990024,1.266233e-05,242.59499999990024,4.20294e-06,242.59499999990024,2.074212e-05,242.59499999990024,4.024883e-06
242.60999999990023,1.275654e-05,242.60999999990023,4.239647e-06,242.60999999990023,2.132875e-05,242.60999999990023,4.070128e-06
242.6249999999002,1.3103e-05,242.6249999999002,4.216325e-06,242.6249999999002,2.062293e-05,242.6249999999002,4.135364e-06
242.6399999999002,1.307178e-05,242.6399999999002,4.179412e-06,242.6399999999002,2.088897e-05,242.6399999999002,4.142171e-06
242.65499999990018,1.217341e-05,242.65499999990018,4.223002e-06,242.65499999990018,2.102341e-05,242.65499999990018,4.138769e-06
242.66999999990017,1.230004e-05,242.66999999990017,4.155752e-06,242.66999999990017,2.058875e-05,242.66999999990017,4.118297e-06
242.68499999990016,1.379431e-05,242.68499999990016,4.128545e-06,242.68499999990016,2.069521e-05,242.68499999990016,4.142171e-06
242.69999999990014,1.381064e-05,242.69999999990014,4.125132e-06,242.69999999990014,2.095966e-05,242.69999999990014,4.226336e-06
242.71499999990013,1.371956e-05,242.71499999990013,4.142171e-06,242.71499999990013,2.05908e-05,242.71499999990013,4.118297e-06
242.72999999990012,1.363717e-05,242.72999999990012,4.302314e-06,242.72999999990012,1.966632e-05,242.72999999990012,4.118297e-06
242.7449999999001,1.285773e-05,242.7449999999001,4.20294e-06,242.7449999999001,1.96398e-05,242.7449999999001,4.118297e-06
242.7599999999001,1.328238e-05,242.7599999999001,4.219664e-06,242.7599999999001,1.898478e-05,242.7599999999001,4.128545e-06
242.77499999990007,1.361753e-05,242.77499999990007,4.101159e-06,242.77499999990007,1.830788e-05,242.77499999990007,4.142171e-06
242.78999999990006,1.343109e-05,242.78999999990006,4.077044e-06,242.78999999990006,1.8274e-05,242.78999999990006,4.17604e-06
242.80499999990005,1.310837e-05,242.80499999990005,4.038859e-06,242.80499999990005,1.860403e-05,242.80499999990005,4.29576e-06
242.81999999990003,1.327708e-05,242.81999999990003,4.128545e-06,242.81999999990003,1.810439e-05,242.81999999990003,4.325173e-06
242.83499999990002,1.317162e-05,242.83499999990002,4.39624e-06,242.83499999990002,1.820371e-05,242.83499999990002,4.152361e-06
242.8499999999,1.261887e-05,242.8499999999,4.907976e-06,242.8499999999,1.83125e-05,242.8499999999,4.192873e-06
242.8649999999,1.278963e-05,242.8649999999,5.331691e-06,242.8649999999,1.762896e-05,242.8649999999,4.148967e-06
242.87999999989998,1.262222e-05,242.87999999989998,5.475077e-06,242.87999999989998,1.732835e-05,242.87999999989998,4.083948e-06
242.89499999989997,1.267679e-05,242.89499999989997,5.48279e-06,242.89499999989997,1.703897e-05,242.89499999989997,4.101159e-06
242.90999999989995,1.249322e-05,242.90999999989995,5.612292e-06,242.90999999989995,1.687198e-05,242.90999999989995,4.135364e-06
242.92499999989994,1.083115e-05,242.92499999989994,5.614802e-06,242.92499999989994,1.695111e-05,242.92499999989994,4.003829e-06
242.93999999989992,1.043639e-05,242.93999999989992,5.604757e-06,242.93999999989992,1.622938e-05,242.93999999989992,3.982663e-06
242.9549999998999,1.083115e-05,242.9549999998999,5.508422e-06,242.9549999998999,1.55865e-05,242.9549999998999,4.01437e-06
242.9699999998999,1.083376e-05,242.9699999998999,5.508422e-06,242.9699999998999,1.532768e-05,242.9699999998999,3.889614e-06
242.98499999989988,1.0762e-05,242.98499999989988,5.459618e-06,242.98499999989988,1.526321e-05,242.98499999989988,3.92925e-06
242.99999999989987,9.942854e-06,242.99999999989987,5.368553e-06,242.99999999989987,1.493198e-05,242.99999999989987,3.957827e-06
243.01499999989986,8.932356e-06,243.01499999989986,5.392116e-06,243.01499999989986,1.476883e-05,243.01499999989986,4.007346e-06
243.02999999989984,8.752336e-06,243.02999999989984,5.376418e-06,243.02999999989984,1.448277e-05,243.02999999989984,3.96849e-06
243.04499999989983,8.761987e-06,243.04499999989983,5.321112e-06,243.04499999989983,1.392238e-05,243.04499999989983,3.950702e-06
243.05999999989982,8.695822e-06,243.05999999989982,5.392116e-06,243.05999999989982,1.388895e-05,243.05999999989982,3.911283e-06
243.0749999998998,8.241723e-06,243.0749999998998,5.28392e-06,243.0749999998998,1.336274e-05,243.0749999998998,3.889614e-06
243.0899999998998,8.497549e-06,243.0899999998998,4.902232e-06,243.0899999998998,1.389605e-05,243.0899999998998,4.000309e-06
243.10499999989977,9.325834e-06,243.10499999989977,4.627284e-06,243.10499999989977,1.41213e-05,243.10499999989977,3.911283e-06
243.11999999989976,9.116548e-06,243.11999999989976,3.982663e-06,243.11999999989976,1.450027e-05,243.11999999989976,3.950702e-06
243.13499999989975,9.144318e-06,243.13499999989975,3.8751e-06,243.13499999989975,1.45507e-05,243.13499999989975,3.954266e-06
243.14999999989973,9.028043e-06,243.14999999989973,3.749468e-06,243.14999999989973,1.528258e-05,243.14999999989973,4.066665e-06
243.16499999989972,9.09334e-06,243.16499999989972,3.711708e-06,243.16499999989972,1.55494e-05,243.16499999989972,4.070128e-06
243.1799999998997,9.456335e-06,243.1799999998997,3.685046e-06,243.1799999998997,1.560005e-05,243.1799999998997,4.059732e-06
243.1949999998997,1.102835e-05,243.1949999998997,3.723076e-06,243.1949999998997,1.601795e-05,243.1949999998997,3.99326e-06
243.20999999989968,1.107296e-05,243.20999999989968,3.82387e-06,243.20999999989968,1.654997e-05,243.20999999989968,4.196231e-06
243.22499999989967,1.172665e-05,243.22499999989967,3.794284e-06,243.22499999989967,1.661284e-05,243.22499999989967,4.34467e-06
243.23999999989965,1.180089e-05,243.23999999989965,3.86418e-06,243.23999999989965,1.693116e-05,243.23999999989965,4.302314e-06
243.25499999989964,1.201852e-05,243.25499999989964,3.812802e-06,243.25499999989964,1.74781e-05,243.25499999989964,4.226336e-06
243.26999999989962,1.199271e-05,243.26999999989962,3.834905e-06,243.26999999989962,1.761058e-05,243.26999999989962,4.192873e-06
243.2849999998996,1.202321e-05,243.2849999998996,3.856882e-06,243.2849999998996,1.77381e-05,243.2849999998996,4.223002e-06
243.2999999998996,1.214677e-05,243.2999999998996,3.882364e-06,243.2999999998996,1.769755e-05,243.2999999998996,4.29248e-06
243.31499999989958,1.21711e-05,243.31499999989958,3.982663e-06,243.31499999989958,1.846647e-05,243.31499999989958,4.305587e-06
243.32999999989957,1.237426e-05,243.32999999989957,3.99326e-06,243.32999999989957,1.863353e-05,243.32999999989957,4.463023e-06
243.34499999989956,1.263783e-05,243.34499999989956,3.896851e-06,243.34499999989956,1.848629e-05,243.34499999989956,4.444044e-06
243.35999999989954,1.187822e-05,243.35999999989954,3.856882e-06,243.35999999989954,1.876236e-05,243.35999999989954,4.447213e-06
243.37499999989953,1.194209e-05,243.37499999989953,3.860533e-06,243.37499999989953,1.879387e-05,243.37499999989953,4.447213e-06
243.38999999989952,1.191966e-05,243.38999999989952,3.867824e-06,243.38999999989952,1.870521e-05,243.38999999989952,4.428167e-06
243.4049999998995,1.222652e-05,243.4049999998995,3.911283e-06,243.4049999998995,1.809505e-05,243.4049999998995,4.334932e-06
243.4199999998995,1.186636e-05,243.4199999998995,3.936414e-06,243.4199999998995,1.778172e-05,243.4199999998995,4.34467e-06
243.43499999989947,1.178416e-05,243.43499999989947,3.896851e-06,243.43499999989947,1.787102e-05,243.43499999989947,4.434525e-06
243.44999999989946,1.012953e-05,243.44999999989946,3.996786e-06,243.44999999989946,1.776904e-05,243.44999999989946,4.47563e-06
243.46499999989945,9.052973e-06,243.46499999989945,3.996786e-06,243.46499999989945,1.771426e-05,243.46499999989945,4.29576e-06
243.47999999989943,9.121181e-06,243.47999999989943,3.982663e-06,243.47999999989943,1.765851e-05,243.47999999989943,4.34467e-06
243.49499999989942,9.150478e-06,243.49499999989942,3.853228e-06,243.49499999989942,1.728847e-05,243.49499999989942,4.34467e-06
243.5099999998994,8.922889e-06,243.5099999998994,3.86418e-06,243.5099999998994,1.668813e-05,243.5099999998994,4.389827e-06
243.5249999998994,8.992083e-06,243.5249999998994,3.838577e-06,243.5249999998994,1.688116e-05,243.5249999998994,4.453544e-06
243.53999999989938,9.179681e-06,243.53999999989938,3.775675e-06,243.53999999989938,1.69195e-05,243.53999999989938,4.572159e-06
243.55499999989937,9.393561e-06,243.55499999989937,3.786851e-06,243.55499999989937,1.601092e-05,243.55499999989937,4.596741e-06
243.56999999989935,9.378553e-06,243.56999999989935,3.692683e-06,243.56999999989935,1.553671e-05,243.56999999989935,4.584466e-06
243.58499999989934,8.537242e-06,243.58499999989934,3.658189e-06,243.58499999989934,1.583665e-05,243.58499999989934,4.535037e-06
243.59999999989932,8.770023e-06,243.59999999989932,3.642754e-06,243.59999999989932,1.579835e-05,243.59999999989932,4.466178e-06
243.6149999998993,9.111911e-06,243.6149999998993,3.658189e-06,243.6149999998993,1.537814e-05,243.6149999998993,4.69378e-06
243.6299999998993,8.996782e-06,243.6299999998993,3.797995e-06,243.6299999998993,1.521144e-05,243.6299999998993,4.905105e-06
243.64499999989928,8.770023e-06,243.64499999989928,3.989731e-06,243.64499999989928,1.520496e-05,243.64499999989928,4.867628e-06
243.65999999989927,8.668239e-06,243.65999999989927,5.013047e-06,243.65999999989927,1.552583e-05,243.65999999989927,4.939447e-06
243.67499999989926,8.760379e-06,243.67499999989926,5.096651e-06,243.67499999989926,1.533411e-05,243.67499999989926,5.013047e-06
243.68999999989924,9.021799e-06,243.68999999989924,5.392116e-06,243.68999999989924,1.579924e-05,243.68999999989924,5.071714e-06
243.70499999989923,9.094889e-06,243.70499999989923,5.376418e-06,243.70499999989923,1.571072e-05,243.70499999989923,4.990517e-06
243.71999999989922,8.929201e-06,243.71999999989922,5.418178e-06,243.71999999989922,1.54804e-05,243.71999999989922,4.884961e-06
243.7349999998992,9.017113e-06,243.7349999998992,5.438937e-06,243.7349999998992,1.546674e-05,243.7349999998992,4.887844e-06
243.7499999998992,8.566891e-06,243.7499999998992,5.462197e-06,243.7499999998992,1.549495e-05,243.7499999998992,4.861837e-06
243.76499999989917,8.924467e-06,243.76499999989917,5.472503e-06,243.76499999989917,1.524104e-05,243.76499999989917,4.856038e-06
243.77999999989916,8.974835e-06,243.77999999989916,5.441526e-06,243.77999999989916,1.521144e-05,243.77999999989916,4.780021e-06
243.79499999989915,8.328435e-06,243.79499999989915,5.487926e-06,243.79499999989915,1.55666e-05,243.79499999989915,4.723696e-06
243.80999999989913,8.512456e-06,243.80999999989913,5.518642e-06,243.80999999989913,1.582864e-05,243.80999999989913,4.584466e-06
243.82499999989912,8.260502e-06,243.82499999989912,5.523745e-06,243.82499999989912,1.599595e-05,243.82499999989912,4.672725e-06
243.8399999998991,8.131598e-06,243.8399999998991,5.612292e-06,243.8399999998991,1.541017e-05,243.8399999998991,4.541245e-06
243.8549999998991,7.551351e-06,243.8549999998991,5.659781e-06,243.8549999998991,1.523919e-05,243.8549999998991,4.575239e-06
243.86999999989908,7.645896e-06,243.86999999989908,5.622323e-06,243.86999999989908,1.520125e-05,243.86999999989908,4.216325e-06
243.88499999989907,7.52706e-06,243.88499999989907,5.472503e-06,243.88499999989907,1.531205e-05,243.88499999989907,4.196231e-06
243.89999999989905,7.461272e-06,243.89999999989905,5.143422e-06,243.89999999989905,1.516228e-05,243.89999999989905,4.209638e-06
243.91499999989904,7.266147e-06,243.91499999989904,4.196231e-06,243.91499999989904,1.500351e-05,243.91499999989904,4.11145e-06
243.92999999989902,7.019631e-06,243.92999999989902,4.192873e-06,243.92999999989902,1.478313e-05,243.92999999989902,3.982663e-06
243.944999999899,6.865424e-06,243.944999999899,3.83123e-06,243.944999999899,1.435185e-05,243.944999999899,3.954266e-06
243.959999999899,7.180339e-06,243.959999999899,3.911283e-06,243.959999999899,1.443894e-05,243.959999999899,3.889614e-06
243.97499999989898,7.154789e-06,243.97499999989898,3.84957e-06,243.97499999989898,1.507563e-05,243.97499999989898,3.939991e-06
243.98999999989897,7.1921e-06,243.98999999989897,3.801702e-06,243.98999999989897,1.551312e-05,243.98999999989897,3.975583e-06
244.00499999989896,7.30096e-06,244.00499999989896,3.827552e-06,244.00499999989896,1.545034e-05,244.00499999989896,3.925663e-06
244.01999999989894,7.502692e-06,244.01999999989894,3.8751e-06,244.01999999989894,1.64338e-05,244.01999999989894,3.939991e-06
244.03499999989893,8.091657e-06,244.03499999989893,3.896851e-06,244.03499999989893,1.647746e-05,244.03499999989893,4.01437e-06
244.04999999989892,8.490915e-06,244.04999999989892,3.92925e-06,244.04999999989892,1.646891e-05,244.04999999989892,4.070128e-06
244.0649999998989,9.506848e-06,244.0649999998989,3.786851e-06,244.0649999998989,1.661368e-05,244.0649999998989,4.021382e-06
244.0799999998989,9.778569e-06,244.0799999998989,3.749468e-06,244.0799999998989,1.661453e-05,244.0799999998989,3.950702e-06
244.09499999989887,9.959841e-06,244.09499999989887,3.768206e-06,244.09499999989887,1.670079e-05,244.09499999989887,4.042345e-06
244.10999999989886,9.927257e-06,244.10999999989886,3.82387e-06,244.10999999989886,1.729906e-05,244.10999999989886,4.003829e-06
244.12499999989885,9.971149e-06,244.12499999989885,4.024883e-06,244.12499999989885,1.741431e-05,244.12499999989885,4.066665e-06
244.13999999989883,1.013648e-05,244.13999999989883,4.035369e-06,244.13999999989883,1.795595e-05,244.13999999989883,4.285911e-06
244.15499999989882,1.036325e-05,244.15499999989882,4.083948e-06,244.15499999989882,1.836243e-05,244.15499999989882,4.282623e-06
244.1699999998988,1.037004e-05,244.1699999998988,4.192873e-06,244.1699999998988,1.90714e-05,244.1699999998988,4.285911e-06
244.1849999998988,1.050366e-05,244.1849999998988,4.172666e-06,244.1849999998988,1.942053e-05,244.1849999998988,4.289197e-06
244.19999999989878,1.029232e-05,244.19999999989878,4.118297e-06,244.19999999989878,2.00564e-05,244.19999999989878,4.302314e-06
244.21499999989877,1.032512e-05,244.21499999989877,4.114875e-06,244.21499999989877,2.021312e-05,244.21499999989877,4.338181e-06
244.22999999989875,1.046604e-05,244.22999999989875,4.252917e-06,244.22999999989875,1.98389e-05,244.22999999989875,4.223002e-06
244.24499999989874,1.073579e-05,244.24499999989874,4.246287e-06,244.24499999989874,1.975636e-05,244.24499999989874,4.242968e-06
244.25999999989872,1.061041e-05,244.25999999989872,4.209638e-06,244.25999999989872,2.047142e-05,244.25999999989872,4.252917e-06
244.2749999998987,1.011144e-05,244.2749999998987,4.259536e-06,244.2749999998987,2.035272e-05,244.2749999998987,4.242968e-06
244.2899999998987,1.026491e-05,244.2899999998987,4.186148e-06,244.2899999998987,2.069725e-05,244.2899999998987,4.045829e-06
244.30499999989868,1.017532e-05,244.30499999989868,4.169289e-06,244.30499999989868,2.038867e-05,244.30499999989868,3.975583e-06
244.31999999989867,9.156633e-06,244.31999999989867,4.148967e-06,244.31999999989867,2.023958e-05,244.31999999989867,4.021382e-06
244.33499999989866,8.747506e-06,244.33499999989866,4.179412e-06,244.33499999989866,2.037831e-05,244.33499999989866,4.003829e-06
244.34999999989864,8.664989e-06,244.34999999989864,4.121716e-06,244.34999999989864,2.011952e-05,244.34999999989864,4.042345e-06
244.36499999989863,8.742674e-06,244.36499999989863,4.114875e-06,244.36499999989863,1.978415e-05,244.36499999989863,3.972038e-06
244.37999999989862,8.66011e-06,244.37999999989862,4.01437e-06,244.37999999989862,1.976064e-05,244.37999999989862,3.845909e-06
244.3949999998986,8.390783e-06,244.3949999998986,4.024883e-06,244.3949999998986,1.901296e-05,244.3949999998986,3.65048e-06
244.4099999998986,8.055015e-06,244.4099999998986,4.038859e-06,244.4099999998986,1.877512e-05,244.4099999998986,3.592131e-06
244.42499999989857,8.091657e-06,244.42499999989857,4.028382e-06,244.42499999989857,1.908616e-05,244.42499999989857,3.631134e-06
244.43999999989856,7.947621e-06,244.43999999989856,3.957827e-06,244.43999999989856,1.838543e-05,244.43999999989856,3.730636e-06
244.45499999989855,7.835162e-06,244.45499999989855,3.8751e-06,244.45499999989855,1.832019e-05,244.45499999989855,3.760722e-06
244.46999999989853,7.656943e-06,244.46999999989853,3.900464e-06,244.46999999989853,1.814636e-05,244.46999999989853,3.753223e-06
244.48499999989852,7.176414e-06,244.48499999989852,4.252917e-06,244.48499999989852,1.805374e-05,244.48499999989852,4.142171e-06
244.4999999998985,7.043671e-06,244.4999999998985,4.373753e-06,244.4999999998985,1.824931e-05,244.4999999998985,4.182782e-06
244.5149999998985,6.94904e-06,244.5149999998985,4.867628e-06,244.5149999998985,1.697436e-05,244.5149999998985,4.20294e-06
244.52999999989848,7.237009e-06,244.52999999989848,4.939447e-06,244.52999999989848,1.691701e-05,244.52999999989848,4.20294e-06
244.54499999989847,6.11902e-06,244.54499999989847,5.074491e-06,244.54499999989847,1.604958e-05,244.54499999989847,4.219664e-06
244.55999999989845,5.969867e-06,244.55999999989845,5.068936e-06,244.55999999989845,1.666025e-05,244.55999999989845,4.209638e-06
244.57499999989844,6.000464e-06,244.57499999989844,5.104936e-06,244.57499999989844,1.626233e-05,244.57499999989844,4.272744e-06
244.58999999989842,6.109804e-06,244.58999999989842,5.029879e-06,244.58999999989842,1.626233e-05,244.58999999989842,4.393035e-06
244.6049999998984,6.280343e-06,244.6049999998984,5.113207e-06,244.6049999998984,1.642437e-05,244.6049999998984,4.383405e-06
244.6199999998984,5.967507e-06,244.6199999998984,5.041069e-06,244.6199999998984,1.72027e-05,244.6199999998984,4.39624e-06
244.63499999989838,6.123622e-06,244.63499999989838,5.02147e-06,244.63499999989838,1.729336e-05,244.63499999989838,4.450379e-06
244.64999999989837,6.298262e-06,244.64999999989837,4.956529e-06,244.64999999989837,1.755129e-05,244.64999999989837,4.459865e-06
244.66499999989836,6.280343e-06,244.66499999989836,4.916579e-06,244.66499999989836,1.712227e-05,244.66499999989836,4.510119e-06
244.67999999989834,6.280343e-06,244.67999999989834,4.884961e-06,244.67999999989834,1.658823e-05,244.67999999989834,4.491339e-06
244.69499999989833,6.625263e-06,244.69499999989833,4.970719e-06,244.69499999989833,1.65193e-05,244.69499999989833,4.47563e-06
244.70999999989832,6.778699e-06,244.70999999989832,5.124215e-06,244.70999999989832,1.659417e-05,244.70999999989832,4.389827e-06
244.7249999998983,6.780777e-06,244.7249999998983,5.049445e-06,244.7249999998983,1.655082e-05,244.7249999998983,4.334932e-06
244.7399999998983,7.667973e-06,244.7399999998983,4.821102e-06,244.7399999998983,1.623893e-05,244.7399999998983,4.148967e-06
244.75499999989827,7.842351e-06,244.75499999989827,4.648545e-06,244.75499999989827,1.629953e-05,244.75499999989827,4.121716e-06
244.76999999989826,8.410905e-06,244.76999999989826,4.226336e-06,244.76999999989826,1.620593e-05,244.76999999989826,4.15914e-06
244.78499999989825,8.632413e-06,244.78499999989825,4.049309e-06,244.78499999989825,1.675805e-05,244.78499999989825,4.114875e-06
244.79999999989823,9.009299e-06,244.79999999989823,4.0632e-06,244.79999999989823,1.684775e-05,244.79999999989823,4.035369e-06
244.81499999989822,8.937085e-06,244.81499999989822,4.087396e-06,244.81499999989822,1.600036e-05,244.81499999989822,3.845909e-06
244.8299999998982,8.922889e-06,244.8299999998982,4.087396e-06,244.8299999998982,1.617809e-05,244.8299999998982,3.882364e-06
244.8449999998982,8.889673e-06,244.8449999998982,4.059732e-06,244.8449999998982,1.60408e-05,244.8449999998982,3.707911e-06
244.85999999989818,8.742674e-06,244.85999999989818,4.038859e-06,244.85999999989818,1.592446e-05,244.85999999989818,3.677393e-06
244.87499999989817,9.09334e-06,244.87499999989817,4.131956e-06,244.87499999989817,1.589081e-05,244.87499999989817,3.73818e-06
244.88999999989815,9.199609e-06,244.88999999989815,4.11145e-06,244.88999999989815,1.544031e-05,244.88999999989815,3.700305e-06
244.90499999989814,9.077836e-06,244.90499999989814,4.087396e-06,244.90499999989814,1.507095e-05,244.90499999989814,3.73818e-06
244.91999999989812,9.009299e-06,244.91999999989812,4.090841e-06,244.91999999989812,1.51381e-05,244.91999999989812,3.669723e-06
244.9349999998981,9.152018e-06,244.9349999998981,4.052786e-06,244.9349999998981,1.616241e-05,244.9349999998981,3.719291e-06
244.9499999998981,8.95598e-06,244.9499999998981,3.954266e-06,244.9499999998981,1.609253e-05,244.9499999998981,3.70411e-06
244.96499999989808,8.91973e-06,244.96499999989808,3.842245e-06,244.96499999989808,1.620767e-05,244.96499999989808,3.853228e-06
244.97999999989807,8.519072e-06,244.97999999989807,3.805405e-06,244.97999999989807,1.661284e-05,244.97999999989807,3.756974e-06
244.99499999989806,8.363879e-06,244.99499999989806,3.665883e-06,244.99499999989806,1.654231e-05,244.99499999989806,3.79057e-06
245.00999999989804,8.115992e-06,245.00999999989804,3.635012e-06,245.00999999989804,1.602147e-05,245.00999999989804,3.8751e-06
245.02499999989803,7.990047e-06,245.02499999989803,3.707911e-06,245.02499999989803,1.60566e-05,245.02499999989803,3.936414e-06
245.03999999989801,7.24479e-06,245.03999999989801,3.749468e-06,245.03999999989801,1.567392e-05,245.03999999989801,4.007346e-06
245.054999999898,7.1921e-06,245.054999999898,3.756974e-06,245.054999999898,1.586153e-05,245.054999999898,4.453544e-06
245.069999999898,7.260328e-06,245.069999999898,3.78313e-06,245.069999999898,1.587307e-05,245.069999999898,4.52882e-06
245.08499999989797,7.425313e-06,245.08499999989797,3.73818e-06,245.08499999989797,1.587751e-05,245.08499999989797,4.578317e-06
245.09999999989796,7.508323e-06,245.09999999989796,3.768206e-06,245.09999999989796,1.570893e-05,245.09999999989796,4.590608e-06
245.11499999989795,7.478244e-06,245.11499999989795,3.896851e-06,245.11499999989795,1.525398e-05,245.11499999989795,4.612038e-06
245.12999999989793,7.119262e-06,245.12999999989793,3.779404e-06,245.12999999989793,1.519383e-05,245.12999999989793,4.565993e-06
245.14499999989792,7.142966e-06,245.14499999989792,3.749468e-06,245.14499999989792,1.56199e-05,245.14499999989792,4.52882e-06
245.1599999998979,7.899621e-06,245.1599999998979,3.975583e-06,245.1599999998979,1.541108e-05,245.1599999998979,4.47563e-06
245.1749999998979,8.241723e-06,245.1749999998979,4.0632e-06,245.1749999998979,1.574744e-05,245.1749999998979,4.522595e-06
245.18999999989788,7.85312e-06,245.18999999989788,4.017877e-06,245.18999999989788,1.499411e-05,245.18999999989788,4.569077e-06
245.20499999989786,7.788277e-06,245.20499999989786,4.114875e-06,245.20499999989786,1.541657e-05,245.20499999989786,4.578317e-06
245.21999999989785,7.614512e-06,245.21999999989785,4.209638e-06,245.21999999989785,1.519754e-05,245.21999999989785,4.47563e-06
245.23499999989784,7.555081e-06,245.23499999989784,4.232997e-06,245.23499999989784,1.557746e-05,245.23499999989784,4.491339e-06
245.24999999989782,7.472591e-06,245.24999999989782,4.246287e-06,245.24999999989782,1.572238e-05,245.24999999989782,4.500739e-06
245.2649999998978,7.137048e-06,245.2649999998978,4.236323e-06,245.2649999998978,1.575013e-05,245.2649999998978,4.418613e-06
245.2799999998978,7.03967e-06,245.2799999998978,4.31539e-06,245.2799999998978,1.583931e-05,245.2799999998978,4.389827e-06
245.29499999989778,7.019631e-06,245.29499999989778,4.338181e-06,245.29499999989778,1.602059e-05,245.29499999989778,4.27604e-06
245.30999999989777,6.922637e-06,245.30999999989777,4.469331e-06,245.30999999989777,1.62233e-05,245.30999999989777,4.209638e-06
245.32499999989776,6.869526e-06,245.32499999989776,4.803539e-06,245.32499999989776,1.629348e-05,245.32499999989776,4.289197e-06
245.33999999989774,6.561167e-06,245.33999999989774,5.294573e-06,245.33999999989774,1.667378e-05,245.33999999989774,4.302314e-06
245.35499999989773,6.591156e-06,245.35499999989773,5.273245e-06,245.35499999989773,1.688867e-05,245.35499999989773,4.34467e-06
245.36999999989771,6.571893e-06,245.36999999989771,5.2679e-06,245.36999999989771,1.734298e-05,245.36999999989771,4.29576e-06
245.3849999998977,6.565459e-06,245.3849999998977,5.251831e-06,245.3849999998977,1.747487e-05,245.3849999998977,4.256228e-06
245.3999999998977,6.365006e-06,245.3999999998977,5.176183e-06,245.3999999998977,1.755931e-05,245.3999999998977,4.289197e-06
245.41499999989767,5.407768e-06,245.41499999989767,5.052234e-06,245.41499999989767,1.744906e-05,245.41499999989767,4.325173e-06
245.42999999989766,5.170737e-06,245.42999999989766,5.02147e-06,245.42999999989766,1.717648e-05,245.42999999989766,4.223002e-06
245.44499999989765,5.165286e-06,245.44499999989765,5.024275e-06,245.44499999989765,1.784735e-05,245.44499999989765,4.262842e-06
245.45999999989763,5.824151e-06,245.45999999989763,4.996159e-06,245.45999999989763,1.735516e-05,245.45999999989763,4.434525e-06
245.47499999989762,5.824151e-06,245.47499999989762,4.884961e-06,245.47499999989762,1.731453e-05,245.47499999989762,4.409039e-06
245.4899999998976,5.865124e-06,245.4899999998976,4.928026e-06,245.4899999998976,1.674039e-05,245.4899999998976,4.38019e-06
245.5049999998976,5.657291e-06,245.5049999998976,4.896482e-06,245.5049999998976,1.658568e-05,245.5049999998976,4.35115e-06
245.51999999989758,5.819312e-06,245.51999999989758,4.919443e-06,245.51999999989758,1.683939e-05,245.51999999989758,4.259536e-06
245.53499999989756,5.896265e-06,245.53499999989756,4.812329e-06,245.53499999989756,1.734785e-05,245.53499999989756,4.360851e-06
245.54999999989755,6.53104e-06,245.54999999989755,4.768218e-06,245.54999999989755,1.675048e-05,245.54999999989755,4.232997e-06
245.56499999989754,6.505105e-06,245.56499999989754,4.39624e-06,245.56499999989754,1.699095e-05,245.56499999989754,4.162526e-06
245.57999999989752,6.524566e-06,245.57999999989752,4.131956e-06,245.57999999989752,1.705302e-05,245.57999999989752,4.11145e-06
245.5949999998975,6.483414e-06,245.5949999998975,3.524834e-06,245.5949999998975,1.711815e-05,245.5949999998975,4.108022e-06
245.6099999998975,6.537507e-06,245.6099999998975,3.57641e-06,245.6099999998975,1.699593e-05,245.6099999998975,4.0632e-06
245.62499999989748,6.747456e-06,245.62499999989748,3.572469e-06,245.62499999989748,1.672102e-05,245.62499999989748,4.090841e-06
245.63999999989747,6.623136e-06,245.63999999989747,3.599965e-06,245.63999999989747,1.626493e-05,245.63999999989747,4.080498e-06
245.65499999989746,6.663425e-06,245.65499999989746,3.78313e-06,245.65499999989746,1.618418e-05,245.65499999989746,3.964939e-06
245.66999999989744,6.539662e-06,245.66999999989744,3.939991e-06,245.66999999989744,1.625453e-05,245.66999999989744,3.961384e-06
245.68499999989743,6.898175e-06,245.68499999989743,3.96849e-06,245.68499999989743,1.56856e-05,245.68499999989743,4.003829e-06
245.69999999989741,6.932803e-06,245.69999999989741,3.979125e-06,245.69999999989741,1.521699e-05,245.69999999989741,4.038859e-06
245.7149999998974,6.576178e-06,245.7149999998974,4.077044e-06,245.7149999998974,1.489041e-05,245.7149999998974,3.91848e-06
245.7299999998974,7.495178e-06,245.7299999998974,3.975583e-06,245.7299999998974,1.517621e-05,245.7299999998974,3.922073e-06
245.74499999989737,7.558809e-06,245.74499999989737,4.20294e-06,245.74499999989737,1.524844e-05,245.74499999989737,4.010859e-06
245.75999999989736,7.508323e-06,245.75999999989736,4.236323e-06,245.75999999989736,1.494424e-05,245.75999999989736,4.080498e-06
245.77499999989735,7.373913e-06,245.77499999989735,4.216325e-06,245.77499999989735,1.468465e-05,245.77499999989735,4.152361e-06
245.78999999989733,7.717415e-06,245.78999999989733,4.182782e-06,245.78999999989733,1.441844e-05,245.78999999989733,4.000309e-06
245.80499999989732,7.594135e-06,245.80499999989732,4.256228e-06,245.80499999989732,1.432532e-05,245.80499999989732,3.939991e-06
245.8199999998973,7.56626e-06,245.8199999998973,4.249604e-06,245.8199999998973,1.393553e-05,245.8199999998973,4.003829e-06
245.8349999998973,7.575563e-06,245.8349999998973,4.226336e-06,245.8349999998973,1.328874e-05,245.8349999998973,4.073587e-06
245.84999999989728,7.56626e-06,245.84999999989728,4.219664e-06,245.84999999989728,1.312126e-05,245.84999999989728,3.961384e-06
245.86499999989726,7.708283e-06,245.86499999989726,4.165909e-06,245.86499999989726,1.310085e-05,245.86499999989726,4.007346e-06
245.87999999989725,7.398706e-06,245.87999999989725,4.209638e-06,245.87999999989725,1.298962e-05,245.87999999989725,4.010859e-06
245.89499999989724,7.434793e-06,245.89499999989724,4.196231e-06,245.89499999989724,1.326434e-05,245.89499999989724,4.097722e-06
245.90999999989722,7.495178e-06,245.90999999989722,4.15914e-06,245.90999999989722,1.337644e-05,245.90999999989722,4.087396e-06
245.9249999998972,7.545752e-06,245.9249999998972,4.165909e-06,245.9249999998972,1.357194e-05,245.9249999998972,4.142171e-06
245.9399999998972,7.605257e-06,245.9399999998972,4.077044e-06,245.9399999998972,1.330252e-05,245.9399999998972,4.003829e-06
245.95499999989718,7.708283e-06,245.95499999989718,4.199587e-06,245.95499999989718,1.340169e-05,245.95499999989718,3.986198e-06
245.96999999989717,7.764728e-06,245.96999999989717,4.209638e-06,245.96999999989717,1.345414e-05,245.96999999989717,3.947135e-06
245.98499999989716,6.879772e-06,245.98499999989716,4.192873e-06,245.98499999989716,1.342794e-05,245.98499999989716,4.003829e-06
245.99999999989714,7.087532e-06,245.99999999989714,3.964939e-06,245.99999999989714,1.378511e-05,245.99999999989714,4.162526e-06
246.01499999989713,7.250621e-06,246.01499999989713,4.010859e-06,246.01499999989713,1.400008e-05,246.01499999989713,4.118297e-06
246.02999999989711,7.331766e-06,246.02999999989711,3.989731e-06,246.02999999989711,1.423457e-05,246.02999999989711,4.15914e-06
246.0449999998971,6.851046e-06,246.0449999998971,3.961384e-06,246.0449999998971,1.392441e-05,246.0449999998971,4.223002e-06
246.0599999998971,6.65708e-06,246.0599999998971,3.986198e-06,246.0599999998971,1.388185e-05,246.0599999998971,4.080498e-06
246.07499999989707,6.66131e-06,246.07499999989707,4.070128e-06,246.07499999989707,1.412828e-05,246.07499999989707,4.045829e-06
246.08999999989706,7.025649e-06,246.08999999989706,4.066665e-06,246.08999999989706,1.411332e-05,246.08999999989706,4.052786e-06
246.10499999989705,6.924671e-06,246.10499999989705,4.131956e-06,246.10499999989705,1.436754e-05,246.10499999989705,4.087396e-06
246.11999999989703,7.003558e-06,246.11999999989703,4.4218e-06,246.11999999989703,1.484399e-05,246.11999999989703,4.108022e-06
246.13499999989702,7.207752e-06,246.13499999989702,4.516361e-06,246.13499999989702,1.501008e-05,246.13499999989702,4.073587e-06
246.149999999897,7.139021e-06,246.149999999897,4.896482e-06,246.149999999897,1.527705e-05,246.149999999897,4.042345e-06
246.164999999897,7.19993e-06,246.164999999897,4.967884e-06,246.164999999897,1.498284e-05,246.164999999897,4.052786e-06
246.17999999989698,6.684531e-06,246.17999999989698,5.013047e-06,246.17999999989698,1.485063e-05,246.17999999989698,4.031877e-06
246.19499999989696,6.603967e-06,246.19499999989696,5.093886e-06,246.19499999989696,1.569188e-05,246.19499999989696,4.035369e-06
246.20999999989695,6.522406e-06,246.20999999989695,4.990517e-06,246.20999999989695,1.590233e-05,246.20999999989695,4.05626e-06
246.22499999989694,6.718165e-06,246.22499999989694,5.066156e-06,246.22499999989694,1.590499e-05,246.22499999989694,4.142171e-06
246.23999999989692,6.610363e-06,246.23999999989692,5.113207e-06,246.23999999989692,1.572148e-05,246.23999999989692,4.20294e-06
246.2549999998969,6.554722e-06,246.2549999998969,5.102175e-06,246.2549999998969,1.549949e-05,246.2549999998969,3.996786e-06
246.2699999998969,6.642251e-06,246.2699999998969,5.107694e-06,246.2699999998969,1.530745e-05,246.2699999998969,3.99326e-06
246.28499999989688,6.470365e-06,246.28499999989688,5.289249e-06,246.28499999989688,1.516971e-05,246.28499999989688,4.000309e-06
246.29999999989687,6.699267e-06,246.29999999989687,5.265225e-06,246.29999999989687,1.559011e-05,246.29999999989687,3.943564e-06
246.31499999989686,7.023643e-06,246.31499999989686,5.197909e-06,246.31499999989686,1.560276e-05,246.31499999989686,3.975583e-06
246.32999999989684,7.178377e-06,246.32999999989684,5.195198e-06,246.32999999989684,1.632717e-05,246.32999999989684,3.972038e-06
246.34499999989683,7.525189e-06,246.34499999989683,5.159829e-06,246.34499999989683,1.708356e-05,246.34499999989683,3.904074e-06
246.35999999989681,8.226325e-06,246.35999999989681,5.118714e-06,246.35999999989681,1.681092e-05,246.35999999989681,3.90768e-06
246.3749999998968,8.308113e-06,246.3749999998968,4.925167e-06,246.3749999998968,1.690368e-05,246.3749999998968,3.889614e-06
246.3899999998968,8.193725e-06,246.3899999998968,4.729657e-06,246.3899999998968,1.744583e-05,246.3899999998968,3.943564e-06
246.40499999989677,8.21433e-06,246.40499999989677,4.459865e-06,246.40499999989677,1.690951e-05,246.40499999989677,4.11145e-06
246.41999999989676,8.226325e-06,246.41999999989676,4.328428e-06,246.41999999989676,1.740217e-05,246.41999999989676,4.052786e-06
246.43499999989675,8.141986e-06,246.43499999989675,4.212983e-06,246.43499999989675,1.765851e-05,246.43499999989675,4.038859e-06
246.44999999989673,8.145445e-06,246.44999999989673,4.196231e-06,246.44999999989673,1.740298e-05,246.44999999989673,3.947135e-06
246.46499999989672,8.17996e-06,246.46499999989672,4.138769e-06,246.46499999989672,1.876386e-05,246.46499999989672,3.947135e-06
246.4799999998967,8.291141e-06,246.4799999998967,4.090841e-06,246.4799999998967,1.858964e-05,246.4799999998967,3.84957e-06
246.4949999998967,8.313199e-06,246.4949999998967,4.209638e-06,246.4949999998967,1.917893e-05,246.4949999998967,3.950702e-06
246.50999999989668,8.155816e-06,246.50999999989668,4.196231e-06,246.50999999989668,2.012232e-05,246.50999999989668,4.038859e-06
246.52499999989666,8.068993e-06,246.52499999989666,4.192873e-06,246.52499999989666,2.078757e-05,246.52499999989666,3.91848e-06
246.53999999989665,8.000618e-06,246.53999999989665,4.007346e-06,246.53999999989665,2.089302e-05,246.53999999989665,3.936414e-06
246.55499999989664,8.03926e-06,246.55499999989664,4.05626e-06,246.55499999989664,2.093881e-05,246.55499999989664,4.045829e-06
246.56999999989662,9.06075e-06,246.56999999989662,4.066665e-06,246.56999999989662,2.11876e-05,246.56999999989662,4.028382e-06
246.5849999998966,8.929201e-06,246.5849999998966,3.989731e-06,246.5849999998966,2.018871e-05,246.5849999998966,4.073587e-06
246.5999999998966,7.669811e-06,246.5999999998966,4.045829e-06,246.5999999998966,2.017615e-05,246.5999999998966,4.077044e-06
246.61499999989658,7.306746e-06,246.61499999989658,4.007346e-06,246.61499999989658,1.980621e-05,246.61499999989658,4.108022e-06
246.62999999989657,7.352869e-06,246.62999999989657,3.996786e-06,246.62999999989657,1.960103e-05,246.62999999989657,4.05626e-06
246.64499999989656,7.36818e-06,246.64499999989656,3.996786e-06,246.64499999989656,1.951748e-05,246.64499999989656,4.031877e-06
246.65999999989654,7.42721e-06,246.65999999989654,3.8751e-06,246.65999999989654,1.917232e-05,246.65999999989654,3.936414e-06
246.67499999989653,7.392992e-06,246.67499999989653,3.84957e-06,246.67499999989653,1.871575e-05,246.67499999989653,3.91848e-06
246.68999999989651,7.412022e-06,246.68999999989651,3.860533e-06,246.68999999989651,1.869165e-05,246.68999999989651,4.059732e-06
246.7049999998965,7.60896e-06,246.7049999998965,3.860533e-06,246.7049999998965,1.786077e-05,246.7049999998965,4.05626e-06
246.7199999998965,7.322153e-06,246.7199999998965,3.78313e-06,246.7199999998965,1.714118e-05,246.7199999998965,3.982663e-06
246.73499999989647,7.215565e-06,246.73499999989647,3.745709e-06,246.73499999989647,1.754647e-05,246.73499999989647,4.017877e-06
246.74999999989646,7.22337e-06,246.74999999989646,3.638885e-06,246.74999999989646,1.68895e-05,246.74999999989646,3.896851e-06
246.76499999989645,7.156758e-06,246.76499999989645,3.599965e-06,246.76499999989645,1.577426e-05,246.76499999989645,3.820184e-06
246.77999999989643,7.50457e-06,246.77999999989643,3.592131e-06,246.77999999989643,1.473827e-05,246.77999999989643,3.939991e-06
246.79499999989642,7.534543e-06,246.79499999989642,3.741947e-06,246.79499999989642,1.454005e-05,246.79499999989642,3.975583e-06
246.8099999998964,5.855509e-06,246.8099999998964,3.79057e-06,246.8099999998964,1.4652e-05,246.8099999998964,3.911283e-06
246.8249999998964,5.778013e-06,246.8249999998964,3.70411e-06,246.8249999998964,1.49819e-05,246.8249999998964,4.003829e-06
246.83999999989638,5.901041e-06,246.83999999989638,3.749468e-06,246.83999999989638,1.480217e-05,246.83999999989638,3.939991e-06
246.85499999989636,5.855509e-06,246.85499999989636,3.745709e-06,246.85499999989636,1.473349e-05,246.85499999989636,3.914884e-06
246.86999999989635,6.189974e-06,246.86999999989635,3.896851e-06,246.86999999989635,1.483924e-05,246.86999999989635,3.943564e-06
246.88499999989634,6.296025e-06,246.88499999989634,4.0632e-06,246.88499999989634,1.497625e-05,246.88499999989634,4.007346e-06
246.89999999989632,6.50294e-06,246.89999999989632,4.393035e-06,246.89999999989632,1.469424e-05,246.89999999989632,4.059732e-06
246.9149999998963,6.424483e-06,246.9149999998963,4.418613e-06,246.9149999998963,1.497437e-05,246.9149999998963,4.152361e-06
246.9299999998963,6.505105e-06,246.9299999998963,4.615091e-06,246.9299999998963,1.491971e-05,246.9299999998963,4.321914e-06
246.94499999989628,6.404719e-06,246.94499999989628,4.581393e-06,246.94499999989628,1.489987e-05,246.94499999989628,4.219664e-06
246.95999999989627,6.089019e-06,246.95999999989627,4.602866e-06,246.95999999989627,1.458841e-05,246.95999999989627,4.36408e-06
246.97499999989626,6.100575e-06,246.97499999989626,4.711753e-06,246.97499999989626,1.429382e-05,246.97499999989626,4.386617e-06
246.98999999989624,6.255622e-06,246.98999999989624,4.741556e-06,246.98999999989624,1.421872e-05,246.98999999989624,4.370531e-06
247.00499999989623,6.183143e-06,247.00499999989623,4.687774e-06,247.00499999989623,1.456715e-05,247.00499999989623,4.360851e-06
247.0199999998962,6.284828e-06,247.0199999998962,4.729657e-06,247.0199999998962,1.526967e-05,247.0199999998962,4.370531e-06
247.0349999998962,5.941484e-06,247.0349999998962,4.684768e-06,247.0349999998962,1.536623e-05,247.0349999998962,4.399444e-06
247.0499999998962,5.972226e-06,247.0499999998962,4.639445e-06,247.0499999998962,1.507563e-05,247.0499999998962,4.321914e-06
247.06499999989617,6.132817e-06,247.06499999989617,4.636408e-06,247.06499999989617,1.534513e-05,247.06499999989617,4.418613e-06
247.07999999989616,6.123622e-06,247.07999999989616,4.602866e-06,247.07999999989616,1.511669e-05,247.07999999989616,4.402644e-06
247.09499999989615,6.11902e-06,247.09499999989615,4.654602e-06,247.09499999989615,1.533962e-05,247.09499999989615,4.393035e-06
247.10999999989613,6.287069e-06,247.10999999989613,4.630328e-06,247.10999999989613,1.582419e-05,247.10999999989613,4.469331e-06
247.12499999989612,5.599728e-06,247.12499999989612,4.459865e-06,247.12499999989612,1.569637e-05,247.12499999989612,4.331681e-06
247.1399999998961,5.632336e-06,247.1399999998961,4.135364e-06,247.1399999998961,1.590587e-05,247.1399999998961,4.341427e-06
247.1549999998961,5.564399e-06,247.1549999998961,4.017877e-06,247.1549999998961,1.571162e-05,247.1549999998961,4.17604e-06
247.16999999989608,5.872325e-06,247.16999999989608,3.871464e-06,247.16999999989608,1.582241e-05,247.16999999989608,4.131956e-06
247.18499999989606,6.162605e-06,247.18499999989606,3.719291e-06,247.18499999989606,1.586153e-05,247.18499999989606,4.282623e-06
247.19999999989605,6.121322e-06,247.19999999989605,3.692683e-06,247.19999999989605,1.5928e-05,247.19999999989605,4.440873e-06
247.21499999989604,6.242096e-06,247.21499999989604,3.73818e-06,247.21499999989604,1.593154e-05,247.21499999989604,4.393035e-06
247.22999999989602,6.481242e-06,247.22999999989602,3.635012e-06,247.22999999989602,1.595981e-05,247.22999999989602,4.469331e-06
247.244999999896,6.526725e-06,247.244999999896,3.768206e-06,247.244999999896,1.596775e-05,247.244999999896,4.506994e-06
247.259999999896,6.713969e-06,247.259999999896,3.816494e-06,247.259999999896,1.562802e-05,247.259999999896,4.491339e-06
247.27499999989598,6.487759e-06,247.27499999989598,3.838577e-06,247.27499999989598,1.526598e-05,247.27499999989598,4.572159e-06
247.28999999989597,6.552573e-06,247.28999999989597,3.867824e-06,247.28999999989597,1.547402e-05,247.28999999989597,4.541245e-06
247.30499999989595,6.468188e-06,247.30499999989595,3.845909e-06,247.30499999989595,1.622157e-05,247.30499999989595,4.630328e-06
247.31999999989594,6.146583e-06,247.31999999989594,3.801702e-06,247.31999999989594,1.613886e-05,247.31999999989594,4.569077e-06
247.33499999989593,6.139704e-06,247.33499999989593,3.78313e-06,247.33499999989593,1.589702e-05,247.33499999989593,4.550541e-06
247.3499999998959,5.974584e-06,247.3499999998959,3.78313e-06,247.3499999998959,1.626406e-05,247.3499999998959,4.593675e-06
247.3649999998959,6.030905e-06,247.3649999998959,3.82387e-06,247.3649999998959,1.582508e-05,247.3649999998959,4.572159e-06
247.3799999998959,6.056544e-06,247.3799999998959,3.820184e-06,247.3799999998959,1.584554e-05,247.3799999998959,4.541245e-06
247.39499999989587,5.955692e-06,247.39499999989587,3.84957e-06,247.39499999989587,1.53644e-05,247.39499999989587,4.599804e-06
247.40999999989586,5.872325e-06,247.40999999989586,3.805405e-06,247.40999999989586,1.508404e-05,247.40999999989586,4.711753e-06
247.42499999989585,5.802342e-06,247.42499999989585,3.711708e-06,247.42499999989585,1.524197e-05,247.42499999989585,4.488202e-06
247.43999999989583,5.399948e-06,247.43999999989583,3.726858e-06,247.43999999989583,1.538638e-05,247.43999999989583,4.469331e-06
247.45499999989582,5.350154e-06,247.45499999989582,3.669723e-06,247.45499999989582,1.526413e-05,247.45499999989582,4.318654e-06
247.4699999998958,5.107694e-06,247.4699999998958,3.662038e-06,247.4699999998958,1.546401e-05,247.4699999998958,4.393035e-06
247.4849999998958,4.81818e-06,247.4849999998958,3.59605e-06,247.4849999998958,1.555031e-05,247.4849999998958,4.431347e-06
247.49999999989578,4.777073e-06,247.49999999989578,3.496747e-06,247.49999999989578,1.551948e-05,247.49999999989578,4.34467e-06
247.51499999989576,4.962209e-06,247.51499999989576,3.456227e-06,247.51499999989576,1.50588e-05,247.51499999989576,4.338181e-06
247.52999999989575,5.246463e-06,247.52999999989575,3.4111e-06,247.52999999989575,1.51381e-05,247.52999999989575,4.334932e-06
247.54499999989574,5.612292e-06,247.54499999989574,3.382069e-06,247.54499999989574,1.406232e-05,247.54499999989574,4.35762e-06
247.55999999989572,5.637336e-06,247.55999999989572,3.452149e-06,247.55999999989572,1.353868e-05,247.55999999989572,4.266145e-06
247.5749999998957,5.896265e-06,247.5749999998957,3.54476e-06,247.5749999998957,1.358957e-05,247.5749999998957,4.252917e-06
247.5899999998957,7.033664e-06,247.5899999998957,3.669723e-06,247.5899999998957,1.371853e-05,247.5899999998957,4.289197e-06
247.60499999989568,7.1823e-06,247.60499999989568,3.603876e-06,247.60499999989568,1.336801e-05,247.60499999989568,4.318654e-06
247.61999999989567,7.995334e-06,247.61999999989567,3.730636e-06,247.61999999989567,1.358335e-05,247.61999999989567,4.318654e-06
247.63499999989565,8.102095e-06,247.63499999989565,3.730636e-06,247.63499999989565,1.341429e-05,247.63499999989565,4.34467e-06
247.64999999989564,8.011176e-06,247.64999999989564,4.073587e-06,247.64999999989564,1.340484e-05,247.64999999989564,4.279333e-06
247.66499999989563,7.944076e-06,247.66499999989563,4.229668e-06,247.66499999989563,1.378716e-05,247.66499999989563,4.29248e-06
247.6799999998956,7.97063e-06,247.6799999998956,4.666692e-06,247.6799999998956,1.372366e-05,247.6799999998956,4.31539e-06
247.6949999998956,8.023475e-06,247.6949999998956,4.753424e-06,247.6949999998956,1.372058e-05,247.6949999998956,4.165909e-06
247.7099999998956,8.102095e-06,247.7099999998956,4.747494e-06,247.7099999998956,1.353244e-05,247.7099999998956,4.142171e-06
247.72499999989557,8.336888e-06,247.72499999989557,4.832776e-06,247.72499999989557,1.353452e-05,247.72499999989557,4.077044e-06
247.73999999989556,8.333508e-06,247.73999999989556,4.861837e-06,247.73999999989556,1.309547e-05,247.73999999989556,4.045829e-06
247.75499999989555,8.284342e-06,247.75499999989555,4.850233e-06,247.75499999989555,1.481169e-05,247.75499999989555,3.964939e-06
247.76999999989553,8.131598e-06,247.76999999989553,4.919443e-06,247.76999999989553,1.517157e-05,247.76999999989553,4.01437e-06
247.78499999989552,7.93343e-06,247.78499999989552,4.873412e-06,247.78499999989552,1.534054e-05,247.78499999989552,4.007346e-06
247.7999999998955,7.967094e-06,247.7999999998955,4.79767e-06,247.7999999998955,1.61406e-05,247.7999999998955,3.943564e-06
247.8149999998955,8.517419e-06,247.8149999998955,4.890725e-06,247.8149999998955,1.604344e-05,247.8149999998955,4.038859e-06
247.82999999989548,8.343643e-06,247.82999999989548,4.850233e-06,247.82999999989548,1.623198e-05,247.82999999989548,4.104592e-06
247.84499999989546,8.042764e-06,247.84499999989546,4.785911e-06,247.84499999989546,1.615718e-05,247.84499999989546,4.073587e-06
247.85999999989545,7.645896e-06,247.85999999989545,4.81818e-06,247.85999999989545,1.635131e-05,247.85999999989545,3.989731e-06
247.87499999989544,8.598076e-06,247.87499999989544,4.690778e-06,247.87499999989544,1.625887e-05,247.87499999989544,3.8751e-06
247.88999999989542,8.580036e-06,247.88999999989542,4.708762e-06,247.88999999989542,1.643638e-05,247.88999999989542,3.947135e-06
247.9049999998954,8.616079e-06,247.9049999998954,4.256228e-06,247.9049999998954,1.654486e-05,247.9049999998954,3.797995e-06
247.9199999998954,8.575109e-06,247.9199999998954,4.052786e-06,247.9199999998954,1.639003e-05,247.9199999998954,3.86418e-06
247.93499999989538,8.753946e-06,247.93499999989538,3.809105e-06,247.93499999989538,1.633838e-05,247.93499999989538,3.853228e-06
247.94999999989537,8.651973e-06,247.94999999989537,3.809105e-06,247.94999999989537,1.617722e-05,247.94999999989537,3.914884e-06
247.96499999989535,8.625883e-06,247.96499999989535,3.834905e-06,247.96499999989535,1.64115e-05,247.96499999989535,4.000309e-06
247.97999999989534,8.744285e-06,247.97999999989534,3.78313e-06,247.97999999989534,1.641665e-05,247.97999999989534,4.028382e-06
247.99499999989533,8.922889e-06,247.99499999989533,3.711708e-06,247.99499999989533,1.627013e-05,247.99499999989533,4.042345e-06
248.0099999998953,8.95598e-06,248.0099999998953,3.715501e-06,248.0099999998953,1.566493e-05,248.0099999998953,3.947135e-06
248.0249999998953,8.935509e-06,248.0249999998953,3.677393e-06,248.0249999998953,1.552038e-05,248.0249999998953,3.996786e-06
248.0399999998953,8.927624e-06,248.0399999998953,3.646619e-06,248.0399999998953,1.531113e-05,248.0399999998953,4.017877e-06
248.05499999989527,8.713623e-06,248.05499999989527,3.677393e-06,248.05499999989527,1.487053e-05,248.05499999989527,4.021382e-06
248.06999999989526,7.564397e-06,248.06999999989526,3.548731e-06,248.06999999989526,1.511203e-05,248.06999999989526,3.989731e-06
248.08499999989525,7.625604e-06,248.08499999989525,3.59605e-06,248.08499999989525,1.501477e-05,248.08499999989525,3.922073e-06
248.09999999989523,7.922768e-06,248.09999999989523,3.646619e-06,248.09999999989523,1.51827e-05,248.09999999989523,3.86418e-06
248.11499999989522,7.172487e-06,248.11499999989522,3.723076e-06,248.11499999989522,1.47526e-05,248.11499999989522,3.878734e-06
248.1299999998952,6.280343e-06,248.1299999998952,3.685046e-06,248.1299999998952,1.460481e-05,248.1299999998952,3.92925e-06
248.1449999998952,6.413511e-06,248.1449999998952,3.635012e-06,248.1449999998952,1.477741e-05,248.1449999998952,3.972038e-06
248.15999999989518,6.411314e-06,248.15999999989518,3.816494e-06,248.15999999989518,1.471532e-05,248.15999999989518,4.042345e-06
248.17499999989516,6.228541e-06,248.17499999989516,3.779404e-06,248.17499999989516,1.452939e-05,248.17499999989516,3.961384e-06
248.18999999989515,6.248863e-06,248.18999999989515,3.658189e-06,248.18999999989515,1.446136e-05,248.18999999989515,3.982663e-06
248.20499999989514,6.353931e-06,248.20499999989514,3.599965e-06,248.20499999989514,1.415916e-05,248.20499999989514,3.961384e-06
248.21999999989512,6.271365e-06,248.21999999989512,3.65048e-06,248.21999999989512,1.403324e-05,248.21999999989512,3.82387e-06
248.2349999998951,6.171741e-06,248.2349999998951,3.677393e-06,248.2349999998951,1.417705e-05,248.2349999998951,3.860533e-06
248.2499999998951,5.838645e-06,248.2499999998951,3.692683e-06,248.2499999998951,1.450416e-05,248.2499999998951,3.900464e-06
248.26499999989508,5.828986e-06,248.26499999989508,3.611685e-06,248.26499999989508,1.33131e-05,248.26499999989508,3.943564e-06
248.27999999989507,5.893875e-06,248.27999999989507,3.607783e-06,248.27999999989507,1.328344e-05,248.27999999989507,3.99326e-06
248.29499999989505,6.320588e-06,248.29499999989505,3.669723e-06,248.29499999989505,1.306747e-05,248.29499999989505,3.986198e-06
248.30999999989504,6.663425e-06,248.30999999989504,3.635012e-06,248.30999999989504,1.28993e-05,248.30999999989504,3.943564e-06
248.32499999989503,6.797376e-06,248.32499999989503,3.654337e-06,248.32499999989503,1.28369e-05,248.32499999989503,3.986198e-06
248.339999999895,6.711871e-06,248.339999999895,3.681221e-06,248.339999999895,1.290912e-05,248.339999999895,3.961384e-06
248.354999999895,6.762054e-06,248.354999999895,3.642754e-06,248.354999999895,1.284129e-05,248.354999999895,3.939991e-06
248.369999999895,6.965238e-06,248.369999999895,3.635012e-06,248.369999999895,1.317269e-05,248.369999999895,3.96849e-06
248.38499999989497,6.840758e-06,248.38499999989497,3.623367e-06,248.38499999989497,1.297986e-05,248.38499999989497,3.871464e-06
248.39999999989496,6.716067e-06,248.39999999989496,3.73818e-06,248.39999999989496,1.32154e-05,248.39999999989496,3.842245e-06
248.41499999989495,6.822199e-06,248.41499999989495,4.017877e-06,248.41499999989495,1.317804e-05,248.41499999989495,4.01437e-06
248.42999999989493,6.887957e-06,248.42999999989493,4.478776e-06,248.42999999989493,1.341639e-05,248.42999999989493,4.246287e-06
248.44499999989492,6.791156e-06,248.44499999989492,4.708762e-06,248.44499999989492,1.337012e-05,248.44499999989492,4.252917e-06
248.4599999998949,6.855157e-06,248.4599999998949,4.982041e-06,248.4599999998949,1.360511e-05,248.4599999998949,4.360851e-06
248.4749999998949,6.881819e-06,248.4749999998949,4.962209e-06,248.4749999998949,1.361029e-05,248.4749999998949,4.36408e-06
248.48999999989488,6.726546e-06,248.48999999989488,5.027078e-06,248.48999999989488,1.3892e-05,248.48999999989488,4.328428e-06
248.50499999989486,6.902258e-06,248.50499999989486,5.137942e-06,248.50499999989486,1.369489e-05,248.50499999989486,4.328428e-06
248.51999999989485,6.595429e-06,248.51999999989485,5.208738e-06,248.51999999989485,1.406633e-05,248.51999999989485,4.360851e-06
248.53499999989484,6.515924e-06,248.53499999989484,5.208738e-06,248.53499999989484,1.433122e-05,248.53499999989484,4.302314e-06
248.54999999989482,6.205884e-06,248.54999999989482,5.165286e-06,248.54999999989482,1.528534e-05,248.54999999989482,4.35115e-06
248.5649999998948,5.659781e-06,248.5649999998948,5.178904e-06,248.5649999998948,1.577604e-05,248.5649999998948,4.466178e-06
248.5799999998948,5.579567e-06,248.5799999998948,5.211442e-06,248.5799999998948,1.613799e-05,248.5799999998948,4.463023e-06
248.59499999989478,6.102884e-06,248.59499999989478,5.227635e-06,248.59499999989478,1.600388e-05,248.59499999989478,4.494475e-06
248.60999999989477,6.373853e-06,248.60999999989477,5.14616e-06,248.60999999989477,1.569458e-05,248.60999999989477,4.605925e-06
248.62499999989475,6.404719e-06,248.62499999989475,5.170737e-06,248.62499999989475,1.622504e-05,248.62499999989475,4.75046e-06
248.63999999989474,6.487759e-06,248.63999999989474,5.143422e-06,248.63999999989474,1.63263e-05,248.63999999989474,4.762306e-06
248.65499999989473,6.411314e-06,248.65499999989473,5.041069e-06,248.65499999989473,1.610478e-05,248.65499999989473,4.723696e-06
248.6699999998947,6.33617e-06,248.6699999998947,4.463023e-06,248.6699999998947,1.623198e-05,248.6699999998947,4.478776e-06
248.6849999998947,6.589018e-06,248.6849999998947,4.409039e-06,248.6849999998947,1.623372e-05,248.6849999998947,4.376973e-06
248.6999999998947,6.7391e-06,248.6999999998947,4.289197e-06,248.6999999998947,1.623285e-05,248.6999999998947,4.399444e-06
248.71499999989467,6.887957e-06,248.71499999989467,4.15914e-06,248.71499999989467,1.601795e-05,248.71499999989467,4.259536e-06
248.72999999989466,6.791156e-06,248.72999999989466,4.108022e-06,248.72999999989466,1.678157e-05,248.72999999989466,4.172666e-06
248.74499999989465,6.707672e-06,248.74499999989465,3.922073e-06,248.74499999989465,1.682516e-05,248.74499999989465,4.125132e-06
248.75999999989463,6.548272e-06,248.75999999989463,3.801702e-06,248.75999999989463,1.702243e-05,248.75999999989463,4.131956e-06
248.77499999989462,6.57832e-06,248.77499999989462,3.925663e-06,248.77499999989462,1.68419e-05,248.77499999989462,3.943564e-06
248.7899999998946,6.64861e-06,248.7899999998946,3.936414e-06,248.7899999998946,1.637025e-05,248.7899999998946,3.925663e-06
248.8049999998946,7.113323e-06,248.8049999998946,3.932833e-06,248.8049999998946,1.571341e-05,248.8049999998946,3.932833e-06
248.81999999989458,7.312527e-06,248.81999999989458,3.982663e-06,248.81999999989458,1.60408e-05,248.81999999989458,3.90768e-06
248.83499999989456,7.366268e-06,248.83499999989456,4.003829e-06,248.83499999989456,1.586153e-05,248.83499999989456,3.943564e-06
248.84999999989455,6.574036e-06,248.84999999989455,3.986198e-06,248.84999999989455,1.64749e-05,248.84999999989455,3.842245e-06
248.86499999989454,6.631638e-06,248.86499999989454,4.038859e-06,248.86499999989454,1.708273e-05,248.86499999989454,3.78313e-06
248.87999999989452,6.356147e-06,248.87999999989452,4.010859e-06,248.87999999989452,1.672102e-05,248.87999999989452,3.79057e-06
248.8949999998945,6.452925e-06,248.8949999998945,3.982663e-06,248.8949999998945,1.680002e-05,248.8949999998945,3.760722e-06
248.9099999998945,6.565459e-06,248.9099999998945,3.943564e-06,248.9099999998945,1.726483e-05,248.9099999998945,3.760722e-06
248.92499999989448,6.496438e-06,248.92499999989448,3.768206e-06,248.92499999989448,1.70009e-05,248.92499999989448,3.711708e-06
248.93999999989447,6.002811e-06,248.93999999989447,3.665883e-06,248.93999999989447,1.705632e-05,248.93999999989447,3.715501e-06
248.95499999989445,5.81689e-06,248.95499999989445,3.677393e-06,248.95499999989445,1.745229e-05,248.95499999989445,3.741947e-06
248.96999999989444,5.719203e-06,248.96999999989444,3.592131e-06,248.96999999989444,1.698183e-05,248.96999999989444,3.856882e-06
248.98499999989443,5.724127e-06,248.98499999989443,3.54476e-06,248.98499999989443,1.689618e-05,248.98499999989443,3.893234e-06
248.9999999998944,5.696992e-06,248.9999999998944,3.611685e-06,248.9999999998944,1.670501e-05,248.9999999998944,3.989731e-06
249.0149999998944,5.988714e-06,249.0149999998944,3.584279e-06,249.0149999998944,1.661962e-05,249.0149999998944,4.038859e-06
249.0299999998944,6.16489e-06,249.0299999998944,3.484641e-06,249.0299999998944,1.691451e-05,249.0299999998944,4.179412e-06
249.04499999989437,6.139704e-06,249.04499999989437,3.488681e-06,249.04499999989437,1.689701e-05,249.04499999989437,4.199587e-06
249.05999999989436,5.475077e-06,249.05999999989436,3.443979e-06,249.05999999989436,1.62857e-05,249.05999999989436,4.172666e-06
249.07499999989435,5.475077e-06,249.07499999989435,3.452149e-06,249.07499999989435,1.57537e-05,249.07499999989435,4.121716e-06
249.08999999989433,5.433755e-06,249.08999999989433,3.398688e-06,249.08999999989433,1.58713e-05,249.08999999989433,4.226336e-06
249.10499999989432,5.516089e-06,249.10499999989432,3.508812e-06,249.10499999989432,1.517714e-05,249.10499999989432,4.138769e-06
249.1199999998943,5.368553e-06,249.1199999998943,3.448066e-06,249.1199999998943,1.525305e-05,249.1199999998943,4.101159e-06
249.1349999998943,5.56693e-06,249.1349999998943,3.638885e-06,249.1349999998943,1.482689e-05,249.1349999998943,4.20294e-06
249.14999999989428,5.472503e-06,249.14999999989428,3.696496e-06,249.14999999989428,1.458165e-05,249.14999999989428,4.152361e-06
249.16499999989426,5.446701e-06,249.16499999989426,3.665883e-06,249.16499999989426,1.446623e-05,249.16499999989426,4.145571e-06
249.17999999989425,5.687093e-06,249.17999999989425,3.70411e-06,249.17999999989425,1.479265e-05,249.17999999989425,4.347911e-06
249.19499999989424,5.768253e-06,249.19499999989424,3.922073e-06,249.19499999989424,1.471627e-05,249.19499999989424,4.4377e-06
249.20999999989422,5.889093e-06,249.20999999989422,4.305587e-06,249.20999999989422,1.470191e-05,249.20999999989422,4.519479e-06
249.2249999998942,5.95096e-06,249.2249999998942,4.590608e-06,249.2249999998942,1.453229e-05,249.2249999998942,4.424985e-06
249.2399999998942,6.102884e-06,249.2399999998942,4.785911e-06,249.2399999998942,1.469328e-05,249.2399999998942,4.312125e-06
249.25499999989418,6.079758e-06,249.25499999989418,4.747494e-06,249.25499999989418,1.484114e-05,249.25499999989418,4.376973e-06
249.26999999989417,6.162605e-06,249.26999999989417,4.747494e-06,249.26999999989417,1.449541e-05,249.26999999989417,4.450379e-06
249.28499999989415,6.382687e-06,249.28499999989415,4.896482e-06,249.28499999989415,1.478598e-05,249.28499999989415,4.402644e-06
249.29999999989414,6.398117e-06,249.29999999989414,4.890725e-06,249.29999999989414,1.501477e-05,249.29999999989414,4.370531e-06
249.31499999989413,6.574036e-06,249.31499999989413,4.82986e-06,249.31499999989413,1.467121e-05,249.31499999989413,4.383405e-06
249.3299999998941,6.654963e-06,249.3299999998941,4.861837e-06,249.3299999998941,1.476692e-05,249.3299999998941,4.36408e-06
249.3449999998941,6.642251e-06,249.3449999998941,4.853136e-06,249.3449999998941,1.447402e-05,249.3449999998941,4.389827e-06
249.3599999998941,6.718165e-06,249.3599999998941,4.853136e-06,249.3599999998941,1.431745e-05,249.3599999998941,4.559819e-06
249.37499999989407,6.684531e-06,249.37499999989407,4.83569e-06,249.37499999989407,1.448569e-05,249.37499999989407,4.525708e-06
249.38999999989406,6.483414e-06,249.38999999989406,4.83569e-06,249.38999999989406,1.452648e-05,249.38999999989406,4.440873e-06
249.40499999989405,6.936866e-06,249.40499999989405,5.074491e-06,249.40499999989405,1.492537e-05,249.40499999989405,4.440873e-06
249.41999999989403,6.928738e-06,249.41999999989403,5.124215e-06,249.41999999989403,1.482784e-05,249.41999999989403,4.431347e-06
249.43499999989402,6.971302e-06,249.43499999989402,5.315815e-06,249.43499999989402,1.506722e-05,249.43499999989402,4.373753e-06
249.449999999894,7.013608e-06,249.449999999894,4.95937e-06,249.449999999894,1.492349e-05,249.449999999894,4.249604e-06
249.464999999894,7.049668e-06,249.464999999894,4.765263e-06,249.464999999894,1.465488e-05,249.464999999894,4.556728e-06
249.47999999989398,6.922637e-06,249.47999999989398,4.547444e-06,249.47999999989398,1.457488e-05,249.47999999989398,4.70577e-06
249.49499999989396,6.971302e-06,249.49499999989396,4.572159e-06,249.49499999989396,1.435773e-05,249.49499999989396,4.809401e-06
249.50999999989395,6.65708e-06,249.50999999989395,4.590608e-06,249.50999999989395,1.501477e-05,249.50999999989395,4.738583e-06
249.52499999989394,6.768301e-06,249.52499999989394,4.538142e-06,249.52499999989394,1.484304e-05,249.52499999989394,4.759348e-06
249.53999999989392,6.922637e-06,249.53999999989392,4.645514e-06,249.53999999989392,1.439986e-05,249.53999999989392,4.794733e-06
249.5549999998939,6.811867e-06,249.5549999998939,4.675739e-06,249.5549999998939,1.423951e-05,249.5549999998939,4.861837e-06
249.5699999998939,6.606099e-06,249.5699999998939,4.596741e-06,249.5699999998939,1.425336e-05,249.5699999998939,4.841512e-06
249.58499999989388,6.50294e-06,249.58499999989388,4.618143e-06,249.58499999989388,1.408634e-05,249.58499999989388,4.902232e-06
249.59999999989387,6.42229e-06,249.59999999989387,4.654602e-06,249.59999999989387,1.469903e-05,249.59999999989387,4.83569e-06
249.61499999989385,6.162605e-06,249.61499999989385,4.651575e-06,249.61499999989385,1.494518e-05,249.61499999989385,4.762306e-06
249.62999999989384,6.128222e-06,249.62999999989384,4.581393e-06,249.62999999989384,1.484493e-05,249.62999999989384,4.744526e-06
249.64499999989383,6.208153e-06,249.64499999989383,4.516361e-06,249.64499999989383,1.522625e-05,249.64499999989383,4.756387e-06
249.6599999998938,5.853103e-06,249.6599999998938,4.399444e-06,249.6599999998938,1.512228e-05,249.6599999998938,4.729657e-06
249.6749999998938,5.958057e-06,249.6749999998938,4.269446e-06,249.6749999998938,1.485632e-05,249.6749999998938,4.696781e-06
249.6899999998938,6.302733e-06,249.6899999998938,4.148967e-06,249.6899999998938,1.499881e-05,249.6899999998938,4.584466e-06
249.70499999989377,6.214957e-06,249.70499999989377,4.135364e-06,249.70499999989377,1.504289e-05,249.70499999989377,4.572159e-06
249.71999999989376,6.378271e-06,249.71999999989376,4.0632e-06,249.71999999989376,1.504944e-05,249.71999999989376,4.328428e-06
249.73499999989374,6.844875e-06,249.73499999989374,4.066665e-06,249.73499999989374,1.534421e-05,249.73499999989374,4.209638e-06
249.74999999989373,7.766543e-06,249.74999999989373,3.957827e-06,249.74999999989373,1.511762e-05,249.74999999989373,4.216325e-06
249.76499999989372,1.047546e-05,249.76499999989372,3.90768e-06,249.76499999989372,1.542205e-05,249.76499999989372,4.20629e-06
249.7799999998937,1.088046e-05,249.7799999998937,3.932833e-06,249.7799999998937,1.537448e-05,249.7799999998937,4.152361e-06
249.7949999998937,1.143348e-05,249.7949999998937,3.867824e-06,249.7949999998937,1.577783e-05,249.7949999998937,4.212983e-06
249.80999999989368,1.165556e-05,249.80999999989368,3.900464e-06,249.80999999989368,1.605485e-05,249.80999999989368,4.142171e-06
249.82499999989366,1.173145e-05,249.82499999989366,3.925663e-06,249.82499999989366,1.680841e-05,249.82499999989366,4.182782e-06
249.83999999989365,1.220808e-05,249.83999999989365,3.816494e-06,249.83999999989365,1.807324e-05,249.83999999989365,4.272744e-06
249.85499999989364,1.235831e-05,249.85499999989364,3.753223e-06,249.85499999989364,1.809583e-05,249.85499999989364,4.226336e-06
249.86999999989362,1.241858e-05,249.86999999989362,3.8751e-06,249.86999999989362,1.864411e-05,249.86999999989362,4.35115e-06
249.8849999998936,1.252812e-05,249.8849999998936,3.979125e-06,249.8849999998936,2.020197e-05,249.8849999998936,4.605925e-06
249.8999999998936,1.259317e-05,249.8999999998936,3.950702e-06,249.8999999998936,2.017755e-05,249.8999999998936,4.69378e-06
249.91499999989358,1.265565e-05,249.91499999989358,3.911283e-06,249.91499999989358,2.033056e-05,249.91499999989358,4.708762e-06
249.92999999989357,1.263337e-05,249.92999999989357,3.964939e-06,249.92999999989357,2.020475e-05,249.92999999989357,4.684768e-06
249.94499999989355,1.248758e-05,249.94499999989355,3.957827e-06,249.94499999989355,2.046247e-05,249.94499999989355,4.815255e-06
249.95999999989354,1.258757e-05,249.95999999989354,3.939991e-06,249.95999999989354,2.105488e-05,249.95999999989354,4.794733e-06
249.97499999989353,1.248081e-05,249.97499999989353,3.950702e-06,249.97499999989353,2.077876e-05,249.97499999989353,4.723696e-06
249.9899999998935,1.223343e-05,249.9899999998935,3.954266e-06,249.9899999998935,2.068227e-05,249.9899999998935,4.741556e-06
250.0049999998935,1.162894e-05,250.0049999998935,3.957827e-06,250.0049999998935,2.045971e-05,250.0049999998935,4.815255e-06
250.01999999989349,9.263696e-06,250.01999999989349,4.0632e-06,250.01999999989349,2.056068e-05,250.01999999989349,4.800605e-06
250.03499999989347,8.77805e-06,250.03499999989347,4.11145e-06,250.03499999989347,2.033956e-05,250.03499999989347,4.853136e-06
250.04999999989346,8.686096e-06,250.04999999989346,4.393035e-06,250.04999999989346,2.034718e-05,250.04999999989346,4.861837e-06
250.06499999989344,8.311504e-06,250.06499999989344,4.687774e-06,250.06499999989344,2.052364e-05,250.06499999989344,4.821102e-06
250.07999999989343,8.419275e-06,250.07999999989343,4.771172e-06,250.07999999989343,1.994159e-05,250.07999999989343,4.785911e-06
250.09499999989342,7.899621e-06,250.09499999989342,4.75046e-06,250.09499999989342,1.882008e-05,250.09499999989342,4.615091e-06
250.1099999998934,7.888914e-06,250.1099999998934,4.696781e-06,250.1099999998934,1.939222e-05,250.1099999998934,4.581393e-06
250.1249999998934,7.677153e-06,250.1249999998934,4.624239e-06,250.1249999998934,1.785603e-05,250.1249999998934,4.334932e-06
250.13999999989338,7.90675e-06,250.13999999989338,4.636408e-06,250.13999999989338,1.673113e-05,250.13999999989338,4.101159e-06
250.15499999989336,7.590424e-06,250.15499999989336,4.535037e-06,250.15499999989336,1.624846e-05,250.15499999989336,4.148967e-06
250.16999999989335,7.993573e-06,250.16999999989335,4.556728e-06,250.16999999989335,1.657803e-05,250.16999999989335,4.196231e-06
250.18499999989334,7.917432e-06,250.18499999989334,4.522595e-06,250.18499999989334,1.619984e-05,250.18499999989334,4.179412e-06
250.19999999989332,8.178238e-06,250.19999999989332,4.547444e-06,250.19999999989332,1.62857e-05,250.19999999989332,4.038859e-06
250.2149999998933,8.034001e-06,250.2149999998933,4.590608e-06,250.2149999998933,1.578051e-05,250.2149999998933,3.975583e-06
250.2299999998933,7.901403e-06,250.2299999998933,4.690778e-06,250.2299999998933,1.629521e-05,250.2299999998933,3.943564e-06
250.24499999989328,7.669811e-06,250.24499999989328,4.753424e-06,250.24499999989328,1.631681e-05,250.24499999989328,3.838577e-06
250.25999999989327,7.56626e-06,250.25999999989327,4.870521e-06,250.25999999989327,1.669319e-05,250.25999999989327,3.82387e-06
250.27499999989325,8.17996e-06,250.27499999989325,4.782967e-06,250.27499999989325,1.669995e-05,250.27499999989325,3.83123e-06
250.28999999989324,8.079462e-06,250.28999999989324,4.444044e-06,250.28999999989324,1.719861e-05,250.28999999989324,3.638885e-06
250.30499999989323,8.425965e-06,250.30499999989323,4.239647e-06,250.30499999989323,1.761218e-05,250.30499999989323,3.794284e-06
250.3199999998932,9.769921e-06,250.3199999998932,4.080498e-06,250.3199999998932,1.748213e-05,250.3199999998932,3.871464e-06
250.3349999998932,1.128841e-05,250.3349999998932,4.090841e-06,250.3349999998932,1.746762e-05,250.3349999998932,3.882364e-06
250.34999999989319,1.177699e-05,250.34999999989319,4.172666e-06,250.34999999989319,1.792139e-05,250.34999999989319,4.000309e-06
250.36499999989317,1.515763e-05,250.36499999989317,4.15914e-06,250.36499999989317,1.847562e-05,250.36499999989317,4.118297e-06
250.37999999989316,1.6131e-05,250.37999999989316,4.135364e-06,250.37999999989316,1.869015e-05,250.37999999989316,4.155752e-06
250.39499999989314,1.804126e-05,250.39499999989314,4.182782e-06,250.39499999989314,1.938059e-05,250.39499999989314,4.212983e-06
250.40999999989313,2.039144e-05,250.40999999989313,4.209638e-06,250.40999999989313,2.086266e-05,250.40999999989313,4.239647e-06
250.42499999989312,2.121019e-05,250.42499999989312,4.189512e-06,250.42499999989312,2.160501e-05,250.42499999989312,4.305587e-06
250.4399999998931,2.18913e-05,250.4399999998931,4.308857e-06,250.4399999998931,2.222466e-05,250.4399999998931,4.459865e-06
250.4549999998931,2.512362e-05,250.4549999998931,4.4218e-06,250.4549999998931,2.419941e-05,250.4549999998931,4.500739e-06
250.46999999989308,2.800317e-05,250.46999999989308,4.39624e-06,250.46999999989308,2.691613e-05,250.46999999989308,4.538142e-06
250.48499999989306,2.819368e-05,250.48499999989306,4.36408e-06,250.48499999989306,2.722161e-05,250.48499999989306,4.587538e-06
250.49999999989305,2.854029e-05,250.49999999989305,4.20294e-06,250.49999999989305,2.85546e-05,250.49999999989305,4.615091e-06
250.51499999989304,2.926696e-05,250.51499999989304,4.249604e-06,250.51499999989304,3.18728e-05,250.51499999989304,4.500739e-06
250.52999999989302,2.954719e-05,250.52999999989302,4.189512e-06,250.52999999989302,3.210136e-05,250.52999999989302,4.565993e-06
250.544999999893,2.95572e-05,250.544999999893,4.259536e-06,250.544999999893,3.414113e-05,250.544999999893,4.556728e-06
250.559999999893,2.952716e-05,250.559999999893,4.29576e-06,250.559999999893,3.470382e-05,250.559999999893,4.47563e-06
250.57499999989298,2.889884e-05,250.57499999989298,4.373753e-06,250.57499999989298,3.469895e-05,250.57499999989298,4.39624e-06
250.58999999989297,3.054948e-05,250.58999999989297,4.453544e-06,250.58999999989297,3.418731e-05,250.58999999989297,4.418613e-06
250.60499999989295,3.005392e-05,250.60499999989295,4.522595e-06,250.60499999989295,3.428072e-05,250.60499999989295,4.331681e-06
250.61999999989294,2.863294e-05,250.61999999989294,4.562907e-06,250.61999999989294,3.4247e-05,250.61999999989294,4.308857e-06
250.63499999989293,2.838539e-05,250.63499999989293,4.541245e-06,250.63499999989293,3.448352e-05,250.63499999989293,4.415424e-06
250.6499999998929,2.651806e-05,250.6499999998929,4.559819e-06,250.6499999998929,3.402747e-05,250.6499999998929,4.393035e-06
250.6649999998929,2.874685e-05,250.6649999998929,4.550541e-06,250.6649999998929,3.230171e-05,250.6649999998929,4.29576e-06
250.67999999989289,2.850078e-05,250.67999999989289,4.48192e-06,250.67999999989289,3.219032e-05,250.67999999989289,4.182782e-06
250.69499999989287,2.767783e-05,250.69499999989287,4.444044e-06,250.69499999989287,3.16764e-05,250.69499999989287,4.135364e-06
250.70999999989286,2.358625e-05,250.70999999989286,4.354386e-06,250.70999999989286,3.005439e-05,250.70999999989286,4.142171e-06
250.72499999989284,2.301004e-05,250.72499999989284,4.325173e-06,250.72499999989284,2.815468e-05,250.72499999989284,4.135364e-06
250.73999999989283,2.284908e-05,250.73999999989283,4.219664e-06,250.73999999989283,2.827998e-05,250.73999999989283,4.192873e-06
250.75499999989282,2.341362e-05,250.75499999989282,4.266145e-06,250.75499999989282,2.615488e-05,250.75499999989282,4.229668e-06
250.7699999998928,2.253497e-05,250.7699999998928,4.29248e-06,250.7699999998928,2.328088e-05,250.7699999998928,4.20629e-06
250.7849999998928,2.220246e-05,250.7849999998928,4.491339e-06,250.7849999998928,2.269195e-05,250.7849999998928,4.125132e-06
250.79999999989278,2.212047e-05,250.79999999989278,4.519479e-06,250.79999999989278,1.976634e-05,250.79999999989278,4.155752e-06
250.81499999989276,2.251684e-05,250.81499999989276,4.569077e-06,250.81499999989276,1.902036e-05,250.81499999989276,4.229668e-06
250.82999999989275,2.149912e-05,250.82999999989275,4.373753e-06,250.82999999989275,1.901147e-05,250.82999999989275,4.20629e-06
250.84499999989274,2.050304e-05,250.84499999989274,4.236323e-06,250.84499999989274,1.911935e-05,250.84499999989274,4.282623e-06
250.85999999989272,2.06918e-05,250.85999999989272,4.196231e-06,250.85999999989272,1.843822e-05,250.85999999989272,4.199587e-06
250.8749999998927,2.089369e-05,250.8749999998927,4.165909e-06,250.8749999998927,1.833172e-05,250.8749999998927,4.15914e-06
250.8899999998927,2.108897e-05,250.8899999998927,4.121716e-06,250.8899999998927,1.783946e-05,250.8899999998927,4.045829e-06
250.90499999989268,2.008588e-05,250.90499999989268,4.266145e-06,250.90499999989268,1.79096e-05,250.90499999989268,4.038859e-06
250.91999999989267,1.873231e-05,250.91999999989267,4.305587e-06,250.91999999989267,1.796693e-05,250.91999999989267,4.114875e-06
250.93499999989265,1.954345e-05,250.93499999989265,4.593675e-06,250.93499999989265,1.776508e-05,250.93499999989265,4.131956e-06
250.94999999989264,1.905736e-05,250.94999999989264,4.624239e-06,250.94999999989264,1.760258e-05,250.94999999989264,4.0632e-06
250.96499999989263,1.938495e-05,250.96499999989263,4.956529e-06,250.96499999989263,1.765292e-05,250.96499999989263,4.104592e-06
250.9799999998926,1.93726e-05,250.9799999998926,5.001795e-06,250.9799999998926,1.781338e-05,250.9799999998926,4.108022e-06
250.9949999998926,1.91635e-05,250.9949999998926,5.049445e-06,250.9949999998926,1.624933e-05,250.9949999998926,4.070128e-06
251.00999999989259,1.928368e-05,251.00999999989259,4.973552e-06,251.00999999989259,1.661708e-05,251.00999999989259,4.049309e-06
251.02499999989257,1.932309e-05,251.02499999989257,4.759348e-06,251.02499999989257,1.620941e-05,251.02499999989257,4.155752e-06
251.03999999989256,2.006343e-05,251.03999999989256,4.919443e-06,251.03999999989256,1.633234e-05,251.03999999989256,4.17604e-06
251.05499999989254,2.059559e-05,251.05499999989254,4.850233e-06,251.05499999989254,1.640721e-05,251.05499999989254,4.27604e-06
251.06999999989253,2.018592e-05,251.06999999989253,4.832776e-06,251.06999999989253,1.651845e-05,251.06999999989253,4.29248e-06
251.08499999989252,1.950593e-05,251.08499999989252,4.990517e-06,251.08499999989252,1.629435e-05,251.08499999989252,4.199587e-06
251.0999999998925,2.016358e-05,251.0999999998925,5.077266e-06,251.0999999998925,1.669995e-05,251.0999999998925,4.269446e-06
251.1149999998925,2.018662e-05,251.1149999998925,5.055022e-06,251.1149999998925,1.697104e-05,251.1149999998925,4.262842e-06
251.12999999989248,1.998111e-05,251.12999999989248,5.091119e-06,251.12999999989248,1.690201e-05,251.12999999989248,4.31539e-06
251.14499999989246,1.970639e-05,251.14499999989246,5.057808e-06,251.14499999989246,1.746762e-05,251.14499999989246,4.331681e-06
251.15999999989245,1.936387e-05,251.15999999989245,5.049445e-06,251.15999999989245,1.744906e-05,251.15999999989245,4.318654e-06
251.17499999989244,1.773889e-05,251.17499999989244,5.001795e-06,251.17499999989244,1.719943e-05,251.17499999989244,4.272744e-06
251.18999999989242,1.859494e-05,251.18999999989242,4.687774e-06,251.18999999989242,1.718304e-05,251.18999999989242,4.249604e-06
251.2049999998924,1.983819e-05,251.2049999998924,4.383405e-06,251.2049999998924,1.724687e-05,251.2049999998924,4.341427e-06
251.2199999998924,1.94951e-05,251.2199999998924,4.223002e-06,251.2199999998924,1.700007e-05,251.2199999998924,4.338181e-06
251.23499999989238,1.97371e-05,251.23499999989238,4.259536e-06,251.23499999989238,1.702243e-05,251.23499999989238,4.272744e-06
251.24999999989237,2.012582e-05,251.24999999989237,4.229668e-06,251.24999999989237,1.612227e-05,251.24999999989237,4.269446e-06
251.26499999989235,1.963621e-05,251.26499999989235,4.272744e-06,251.26499999989235,1.601444e-05,251.26499999989235,4.331681e-06
251.27999999989234,1.958737e-05,251.27999999989234,4.219664e-06,251.27999999989234,1.639003e-05,251.27999999989234,4.246287e-06
251.29499999989233,1.844051e-05,251.29499999989233,3.972038e-06,251.29499999989233,1.60829e-05,251.29499999989233,4.236323e-06
251.3099999998923,1.84901e-05,251.3099999998923,4.003829e-06,251.3099999998923,1.615979e-05,251.3099999998923,4.066665e-06
251.3249999998923,1.901444e-05,251.3249999998923,3.878734e-06,251.3249999998923,1.612314e-05,251.3249999998923,4.080498e-06
251.33999999989229,1.911198e-05,251.33999999989229,3.878734e-06,251.33999999989229,1.628397e-05,251.33999999989229,4.145571e-06
251.35499999989227,1.839156e-05,251.35499999989227,3.79057e-06,251.35499999989227,1.638745e-05,251.35499999989227,4.114875e-06
251.36999999989226,1.802954e-05,251.36999999989226,3.8751e-06,251.36999999989226,1.633321e-05,251.36999999989226,4.15914e-06
251.38499999989224,1.973496e-05,251.38499999989224,3.885991e-06,251.38499999989224,1.590322e-05,251.38499999989224,4.083948e-06
251.39999999989223,1.895656e-05,251.39999999989223,3.922073e-06,251.39999999989223,1.5717e-05,251.39999999989223,4.042345e-06
251.41499999989222,1.90211e-05,251.41499999989222,3.827552e-06,251.41499999989222,1.612314e-05,251.41499999989222,4.087396e-06
251.4299999998922,1.934276e-05,251.4299999998922,3.896851e-06,251.4299999998922,1.606625e-05,251.4299999998922,4.035369e-06
251.4449999998922,1.705219e-05,251.4449999998922,3.914884e-06,251.4449999998922,1.61981e-05,251.4449999998922,3.96849e-06
251.45999999989218,1.768162e-05,251.45999999989218,3.900464e-06,251.45999999989218,1.609253e-05,251.45999999989218,3.911283e-06
251.47499999989216,1.717484e-05,251.47499999989216,3.867824e-06,251.47499999989216,1.579121e-05,251.47499999989216,3.812802e-06
251.48999999989215,1.682767e-05,251.48999999989215,3.79057e-06,251.48999999989215,1.573044e-05,251.48999999989215,3.67356e-06
251.50499999989214,1.620158e-05,251.50499999989214,3.845909e-06,251.50499999989214,1.581172e-05,251.50499999989214,3.764466e-06
251.51999999989212,1.692616e-05,251.51999999989212,3.805405e-06,251.51999999989212,1.57376e-05,251.51999999989212,3.658189e-06
251.5349999998921,1.849924e-05,251.5349999998921,3.779404e-06,251.5349999998921,1.560005e-05,251.5349999998921,3.726858e-06
251.5499999998921,1.834708e-05,251.5499999998921,3.794284e-06,251.5499999998921,1.547402e-05,251.5499999998921,3.856882e-06
251.56499999989208,1.844586e-05,251.56499999989208,3.885991e-06,251.56499999989208,1.550495e-05,251.56499999989208,4.059732e-06
251.57999999989207,1.800217e-05,251.57999999989207,3.749468e-06,251.57999999989207,1.588017e-05,251.57999999989207,4.239647e-06
251.59499999989205,1.808571e-05,251.59499999989205,3.631134e-06,251.59499999989205,1.606976e-05,251.59499999989205,4.232997e-06
251.60999999989204,1.839539e-05,251.60999999989204,3.786851e-06,251.60999999989204,1.581261e-05,251.60999999989204,4.252917e-06
251.62499999989203,1.721744e-05,251.62499999989203,3.786851e-06,251.62499999989203,1.610566e-05,251.62499999989203,4.48192e-06
251.639999999892,1.618941e-05,251.639999999892,3.631134e-06,251.639999999892,1.607151e-05,251.639999999892,4.645514e-06
251.654999999892,1.613449e-05,251.654999999892,3.642754e-06,251.654999999892,1.596422e-05,251.654999999892,4.559819e-06
251.66999999989198,1.6068e-05,251.66999999989198,3.642754e-06,251.66999999989198,1.627445e-05,251.66999999989198,4.608983e-06
251.68499999989197,1.576264e-05,251.68499999989197,3.607783e-06,251.68499999989197,1.708768e-05,251.68499999989197,4.599804e-06
251.69999999989196,1.542205e-05,251.69999999989196,3.627253e-06,251.69999999989196,1.806155e-05,251.69999999989196,4.596741e-06
251.71499999989194,1.514741e-05,251.71499999989194,3.820184e-06,251.71499999989194,1.879087e-05,251.71499999989194,4.615091e-06
251.72999999989193,1.504382e-05,251.72999999989193,3.816494e-06,251.72999999989193,1.979981e-05,251.72999999989193,4.699779e-06
251.74499999989192,1.524751e-05,251.74499999989192,3.92925e-06,251.74499999989192,2.017615e-05,251.74499999989192,4.720713e-06
251.7599999998919,1.527336e-05,251.7599999998919,3.986198e-06,251.7599999998919,2.147224e-05,251.7599999998919,4.69378e-06
251.7749999998919,1.370826e-05,251.7749999998919,4.097722e-06,251.7749999998919,2.256059e-05,251.7749999998919,4.747494e-06
251.78999999989188,1.301779e-05,251.78999999989188,4.491339e-06,251.78999999989188,2.562108e-05,251.78999999989188,4.593675e-06
251.80499999989186,1.303077e-05,251.80499999989186,4.788854e-06,251.80499999989186,2.704561e-05,251.80499999989186,4.569077e-06
251.81999999989185,1.35875e-05,251.81999999989185,6.114414e-06,251.81999999989185,3.025573e-05,251.81999999989185,4.29248e-06
251.83499999989183,1.553309e-05,251.83499999989183,6.526725e-06,251.83499999989183,3.122131e-05,251.83499999989183,4.179412e-06
251.84999999989182,1.542753e-05,251.84999999989182,8.598076e-06,251.84999999989182,3.266037e-05,251.84999999989182,4.15914e-06
251.8649999998918,1.544943e-05,251.8649999998918,9.398059e-06,251.8649999998918,3.40953e-05,251.8649999998918,4.035369e-06
251.8799999998918,1.581617e-05,251.8799999998918,1.292439e-05,251.8799999998918,4.237088e-05,251.8799999998918,4.052786e-06
251.89499999989178,1.617722e-05,251.89499999989178,1.55666e-05,251.89499999989178,4.859199e-05,251.89499999989178,3.922073e-06
251.90999999989177,1.796536e-05,251.90999999989177,1.764654e-05,251.90999999989177,7.072371e-05,251.90999999989177,4.077044e-06
251.92499999989175,1.865544e-05,251.92499999989175,1.811761e-05,251.92499999989175,0.0001562965,251.92499999989175,4.045829e-06
251.93999999989174,1.976206e-05,251.93999999989174,1.857978e-05,251.93999999989174,0.0003066962,251.93999999989174,4.097722e-06
251.95499999989173,2.366436e-05,251.95499999989173,1.950954e-05,251.95499999989173,0.0003276254,251.95499999989173,4.024883e-06
251.9699999998917,2.432656e-05,251.9699999998917,1.963621e-05,251.9699999998917,0.0004135386,251.9699999998917,4.189512e-06
251.9849999998917,2.60961e-05,251.9849999998917,1.963836e-05,251.9849999998917,0.0004522428,251.9849999998917,4.209638e-06
251.99999999989168,2.763147e-05,251.99999999989168,1.989491e-05,251.99999999989168,0.00048907,251.99999999989168,4.209638e-06
252.01499999989167,3.180643e-05,252.01499999989167,1.988571e-05,252.01499999989167,0.0004978651,252.01499999989167,4.212983e-06
252.02999999989166,3.381485e-05,252.02999999989166,1.992958e-05,252.02999999989166,0.0007006465,252.02999999989166,4.196231e-06
252.04499999989164,3.598713e-05,252.04499999989164,2.220944e-05,252.04499999989164,0.0009173907,252.04499999989164,4.20629e-06
252.05999999989163,3.6054e-05,252.05999999989163,2.267518e-05,252.05999999989163,0.0009485974,252.05999999989163,4.236323e-06
252.07499999989162,3.80059e-05,252.07499999989162,2.243096e-05,252.07499999989162,0.001018265,252.07499999989162,4.249604e-06
252.0899999998916,3.828913e-05,252.0899999998916,2.245544e-05,252.0899999998916,0.001138295,252.0899999998916,4.285911e-06
252.1049999998916,3.821585e-05,252.1049999998916,2.167791e-05,252.1049999998916,0.001151557,252.1049999998916,4.367307e-06
252.11999999989158,3.946314e-05,252.11999999989158,2.175251e-05,252.11999999989158,0.001235578,252.11999999989158,4.305587e-06
252.13499999989156,4.011105e-05,252.13499999989156,1.93944e-05,252.13499999989156,0.001338861,252.13499999989156,4.282623e-06
252.14999999989155,4.028732e-05,252.14999999989155,1.899294e-05,252.14999999989155,0.001398769,252.14999999989155,4.148967e-06
252.16499999989153,3.992166e-05,252.16499999989153,1.709839e-05,252.16499999989153,0.001404009,252.16499999989153,4.223002e-06
252.17999999989152,4.092149e-05,252.17999999989152,1.679919e-05,252.17999999989152,0.001388713,252.17999999989152,4.138769e-06
252.1949999998915,4.065626e-05,252.1949999998915,1.574744e-05,252.1949999998915,0.001362698,252.1949999998915,4.172666e-06
252.2099999998915,3.908329e-05,252.2099999998915,1.545672e-05,252.2099999998915,0.001358492,252.2099999998915,4.097722e-06
252.22499999989148,4.045515e-05,252.22499999989148,1.54631e-05,252.22499999989148,0.001337395,252.22499999989148,4.087396e-06
252.23999999989147,4.014721e-05,252.23999999989147,1.568021e-05,252.23999999989147,0.001330682,252.23999999989147,4.024883e-06
252.25499999989145,3.933908e-05,252.25499999989145,1.565054e-05,252.25499999989145,0.001312351,252.25499999989145,4.028382e-06
252.26999999989144,3.776459e-05,252.26999999989144,1.580905e-05,252.26999999989144,0.001307964,252.26999999989144,3.947135e-06
252.28499999989143,3.491264e-05,252.28499999989143,1.569727e-05,252.28499999989143,0.001122379,252.28499999989143,3.957827e-06
252.2999999998914,3.592248e-05,252.2999999998914,1.159132e-05,252.2999999998914,0.001058782,252.2999999998914,4.031877e-06
252.3149999998914,3.608017e-05,252.3149999998914,1.167488e-05,252.3149999998914,0.001041887,252.3149999998914,4.01437e-06
252.32999999989138,3.792576e-05,252.32999999989138,1.144333e-05,252.32999999989138,0.0008911185,252.32999999989138,4.125132e-06
252.34499999989137,3.83384e-05,252.34499999989137,1.119694e-05,252.34499999989137,0.0007087576,252.34499999989137,4.209638e-06
252.35999999989136,4.366404e-05,252.35999999989136,8.630781e-06,252.35999999989136,0.0006908677,252.35999999989136,4.152361e-06
252.37499999989134,4.500958e-05,252.37499999989134,8.561957e-06,252.37499999989134,0.0005668096,252.37499999989134,4.269446e-06
252.38999999989133,4.509681e-05,252.38999999989133,8.358825e-06,252.38999999989133,0.0003612916,252.38999999989133,4.308857e-06
252.40499999989132,4.491277e-05,252.40499999989132,8.479295e-06,252.40499999989132,0.0001768365,252.40499999989132,4.338181e-06
252.4199999998913,4.461855e-05,252.4199999998913,8.594799e-06,252.4199999998913,0.000155678,252.4199999998913,4.249604e-06
252.4349999998913,4.283347e-05,252.4349999998913,9.122726e-06,252.4349999998913,0.0001472942,252.4349999998913,4.318654e-06
252.44999999989128,4.267796e-05,252.44999999989128,9.091791e-06,252.44999999989128,0.0001498565,252.44999999989128,4.409039e-06
252.46499999989126,4.190419e-05,252.46499999989126,8.995216e-06,252.46499999989126,0.0001555423,252.46499999989126,4.491339e-06
252.47999999989125,4.075489e-05,252.47999999989125,8.773234e-06,252.47999999989125,0.0001577902,252.47999999989125,4.434525e-06
252.49499999989123,3.946207e-05,252.49499999989123,8.647087e-06,252.49499999989123,0.0001557303,252.49499999989123,4.4218e-06
252.50999999989122,3.871864e-05,252.50999999989122,8.970124e-06,252.50999999989122,0.0001506869,252.50999999989122,4.383405e-06
252.5249999998912,3.753974e-05,252.5249999998912,8.95126e-06,252.5249999998912,0.0001442811,252.5249999998912,4.383405e-06
252.5399999998912,3.71948e-05,252.5399999998912,9.774246e-06,252.5399999998912,0.0001351795,252.5399999998912,4.440873e-06
252.55499999989118,3.5525e-05,252.55499999989118,9.548246e-06,252.55499999989118,0.00013575,252.55499999989118,4.447213e-06
252.56999999989117,3.280841e-05,252.56999999989117,1.032102e-05,252.56999999989117,0.0001381516,252.56999999989117,4.36408e-06
252.58499999989115,3.245702e-05,252.58499999989115,1.102196e-05,252.58499999989115,0.0001384292,252.58499999989115,4.459865e-06
252.59999999989114,3.551232e-05,252.59999999989114,1.214445e-05,252.59999999989114,0.000136046,252.59999999989114,4.4218e-06
252.61499999989113,2.988329e-05,252.61499999989113,1.291567e-05,252.61499999989113,0.0001385482,252.61499999989113,4.485062e-06
252.6299999998911,2.914638e-05,252.6299999998911,1.294835e-05,252.6299999998911,0.0001300696,252.6299999998911,4.450379e-06
252.6449999998911,3.061673e-05,252.6449999998911,1.285773e-05,252.6449999998911,0.0001256975,252.6449999998911,4.708762e-06
252.65999999989108,4.018193e-05,252.65999999989108,1.278081e-05,252.65999999989108,0.0001234838,252.65999999989108,4.762306e-06
252.67499999989107,4.773917e-05,252.67499999989107,1.263449e-05,252.67499999989107,0.0001215312,252.67499999989107,4.780021e-06
252.68999999989106,5.112242e-05,252.68999999989106,1.233549e-05,252.68999999989106,0.0001246553,252.68999999989106,4.809401e-06
252.70499999989104,5.474202e-05,252.70499999989104,1.232178e-05,252.70499999989104,0.0001278651,252.70499999989104,4.651575e-06
252.71999999989103,5.896933e-05,252.71999999989103,1.225989e-05,252.71999999989103,0.0001517876,252.71999999989103,4.663672e-06
252.73499999989102,6.009472e-05,252.73499999989102,1.188534e-05,252.73499999989102,0.0001966134,252.73499999989102,4.67875e-06
252.749999999891,6.094985e-05,252.749999999891,1.177938e-05,252.749999999891,0.0002044714,252.749999999891,4.861837e-06
252.764999999891,6.373256e-05,252.764999999891,1.153406e-05,252.764999999891,0.0002065964,252.764999999891,4.939447e-06
252.77999999989098,6.512875e-05,252.77999999989098,1.137171e-05,252.77999999989098,0.0002060919,252.77999999989098,5.085583e-06
252.79499999989096,6.612749e-05,252.79499999989096,1.074235e-05,252.79499999989096,0.0002064658,252.79499999989096,5.093886e-06
252.80999999989095,6.886525e-05,252.80999999989095,1.059845e-05,252.80999999989095,0.0002072314,252.80999999989095,5.049445e-06
252.82499999989093,7.316378e-05,252.82499999989093,9.710626e-06,252.82499999989093,0.0002007941,252.82499999989093,5.007424e-06
252.83999999989092,7.344013e-05,252.83999999989092,8.583318e-06,252.83999999989092,0.0001976789,252.83999999989092,5.235713e-06
252.8549999998909,7.21863e-05,252.8549999998909,7.677153e-06,252.8549999998909,0.0002060656,252.8549999998909,5.233022e-06
252.8699999998909,7.304586e-05,252.8699999998909,6.533196e-06,252.8699999998909,0.0002026999,252.8699999998909,5.289249e-06
252.88499999989088,7.44706e-05,252.88499999989088,6.623136e-06,252.88499999989088,0.0002014512,252.88499999989088,5.392116e-06
252.89999999989087,7.570373e-05,252.89999999989087,6.906339e-06,252.89999999989087,0.0002047087,252.89999999989087,5.104936e-06
252.91499999989085,7.170974e-05,252.91499999989085,7.131124e-06,252.91499999989085,0.0002068919,252.91499999989085,5.140683e-06
252.92999999989084,6.924102e-05,252.92999999989084,8.666614e-06,252.92999999989084,0.0002054058,252.92999999989084,5.151632e-06
252.94499999989083,6.684679e-05,252.94499999989083,8.908669e-06,252.94499999989083,0.0002008935,252.94499999989083,5.140683e-06
252.9599999998908,6.470017e-05,252.9599999998908,9.407047e-06,252.9599999998908,0.0002075148,252.9599999998908,5.176183e-06
252.9749999998908,6.332834e-05,252.9749999998908,9.511293e-06,252.9749999998908,0.0001743201,252.9749999998908,5.162558e-06
252.98999999989078,6.258751e-05,252.98999999989078,9.754049e-06,252.98999999989078,0.0001350303,252.98999999989078,5.178904e-06
253.00499999989077,6.152333e-05,253.00499999989077,9.854623e-06,253.00499999989077,0.0001268368,253.00499999989077,5.192486e-06
253.01999999989076,5.896933e-05,253.01999999989076,1.004434e-05,253.01999999989076,0.0001259683,253.01999999989076,5.157098e-06
253.03499999989074,5.743045e-05,253.03499999989074,1.046604e-05,253.03499999989074,0.000127374,253.03499999989074,4.973552e-06
253.04999999989073,5.434247e-05,253.04999999989073,1.083115e-05,253.04999999989073,0.0001315018,253.04999999989073,5.015856e-06
253.06499999989072,5.156442e-05,253.06499999989072,1.09231e-05,253.06499999989072,0.0001328385,253.06499999989072,5.013047e-06
253.0799999998907,4.557037e-05,253.0799999998907,1.088305e-05,253.0799999998907,0.0001480915,253.0799999998907,4.907976e-06
253.0949999998907,4.478651e-05,253.0949999998907,1.088564e-05,253.0949999998907,0.0002466363,253.0949999998907,4.556728e-06
253.10999999989068,4.213885e-05,253.10999999989068,1.087787e-05,253.10999999989068,0.0002895821,253.10999999989068,4.624239e-06
253.12499999989066,4.029326e-05,253.12499999989066,1.122584e-05,253.12499999989066,0.0003084635,253.12499999989066,4.624239e-06
253.13999999989065,3.136311e-05,253.13999999989065,1.127717e-05,253.13999999989065,0.0003770498,253.13999999989065,4.809401e-06
253.15499999989063,2.775812e-05,253.15499999989063,1.149492e-05,253.15499999989063,0.0004129055,253.15499999989063,4.896482e-06
253.16999999989062,2.523941e-05,253.16999999989062,1.14421e-05,253.16999999989062,0.0004154861,253.16999999989062,5.251831e-06
253.1849999998906,2.507816e-05,253.1849999998906,1.506161e-05,253.1849999998906,0.0004153716,253.1849999998906,5.219545e-06
253.1999999998906,2.269567e-05,253.1999999998906,1.593949e-05,253.1999999998906,0.0004150008,253.1999999998906,5.173461e-06
253.21499999989058,2.214656e-05,253.21499999989058,1.686029e-05,253.21499999989058,0.0004115662,253.21499999989058,5.176183e-06
253.22999999989057,2.254747e-05,253.22999999989057,1.725993e-05,253.22999999989057,0.0004117022,253.22999999989057,5.165286e-06
253.24499999989055,2.269878e-05,253.24499999989055,1.805374e-05,253.24499999989055,0.0004140998,253.24499999989055,4.95937e-06
253.25999999989054,2.670175e-05,253.25999999989054,1.821454e-05,253.25999999989054,0.0004312352,253.25999999989054,5.032679e-06
253.27499999989053,2.786247e-05,253.27499999989053,1.874659e-05,253.27499999989053,0.000466159,253.27499999989053,5.038274e-06
253.2899999998905,2.802429e-05,253.2899999998905,2.018662e-05,253.2899999998905,0.0004722031,253.2899999998905,5.154366e-06
253.3049999998905,2.796995e-05,253.3049999998905,2.058464e-05,253.3049999998905,0.0004707781,253.3049999998905,5.336972e-06
253.31999999989048,2.857236e-05,253.31999999989048,2.214592e-05,253.31999999989048,0.0004915577,253.31999999989048,5.352786e-06
253.33499999989047,2.827699e-05,253.33499999989047,2.253622e-05,253.33499999989047,0.0005424221,253.33499999989047,5.373798e-06
253.34999999989046,2.831682e-05,253.34999999989046,2.282873e-05,253.34999999989046,0.0005350651,253.34999999989046,5.381656e-06
253.36499999989044,2.841862e-05,253.36499999989044,2.461954e-05,253.36499999989044,0.0005576645,253.36499999989044,5.307859e-06
253.37999999989043,2.966234e-05,253.37999999989043,2.871302e-05,253.37999999989043,0.0008097059,253.37999999989043,5.262549e-06
253.39499999989042,2.939902e-05,253.39499999989042,2.915701e-05,253.39499999989042,0.001477866,253.39499999989042,5.259872e-06
253.4099999998904,2.998118e-05,253.4099999998904,2.902676e-05,253.4099999998904,0.001934071,253.4099999998904,5.001795e-06
253.4249999998904,2.958149e-05,253.4249999998904,2.919371e-05,253.4249999998904,0.002252773,253.4249999998904,4.729657e-06
253.43999999989038,2.804338e-05,253.43999999989038,2.774086e-05,253.43999999989038,0.002497658,253.43999999989038,4.803539e-06
253.45499999989036,2.841961e-05,253.45499999989036,2.69334e-05,253.45499999989036,0.002902803,253.45499999989036,4.939447e-06
253.46999999989035,2.648723e-05,253.46999999989035,2.694333e-05,253.46999999989035,0.003222923,253.46999999989035,5.013047e-06
253.48499999989033,2.716825e-05,253.48499999989033,2.664207e-05,253.48499999989033,0.003435682,253.48499999989033,5.102175e-06
253.49999999989032,2.767426e-05,253.49999999989032,2.64952e-05,253.49999999989032,0.003442486,253.49999999989032,5.126963e-06
253.5149999998903,2.373509e-05,253.5149999998903,2.656635e-05,253.5149999998903,0.003442829,253.5149999998903,5.462197e-06
253.5299999998903,2.325606e-05,253.5299999998903,2.601663e-05,253.5299999998903,0.003443102,253.5299999998903,5.467352e-06
253.54499999989028,2.663995e-05,253.54499999989028,2.509837e-05,253.54499999989028,0.003454052,253.54499999989028,5.197909e-06
253.55999999989027,2.753955e-05,253.55999999989027,2.558256e-05,253.55999999989027,0.003506762,253.55999999989027,5.184341e-06
253.57499999989025,2.822564e-05,253.57499999989025,2.418486e-05,253.57499999989025,0.003566733,253.57499999989025,5.195198e-06
253.58999999989024,3.123485e-05,253.58999999989024,2.501686e-05,253.58999999989024,0.003579095,253.58999999989024,5.140683e-06
253.60499999989023,3.218594e-05,253.60499999989023,2.509725e-05,253.60499999989023,0.003573287,253.60499999989023,5.043863e-06
253.6199999998902,3.177364e-05,253.6199999998902,2.358685e-05,253.6199999998902,0.003575197,253.6199999998902,5.02147e-06
253.6349999998902,3.119604e-05,253.6349999998902,2.110433e-05,253.6349999998902,0.003504223,253.6349999998902,5.104936e-06
253.64999999989018,3.354886e-05,253.64999999989018,2.08802e-05,253.64999999989018,0.003245723,253.64999999989018,4.925167e-06
253.66499999989017,3.776011e-05,253.66499999989017,2.081669e-05,253.66499999989017,0.002917726,253.66499999989017,4.902232e-06
253.67999999989016,4.214019e-05,253.67999999989016,2.041629e-05,253.67999999989016,0.00261847,253.67999999989016,4.873412e-06
253.69499999989014,4.476385e-05,253.69499999989014,2.121086e-05,253.69499999989014,0.002401553,253.69499999989014,4.824024e-06
253.70999999989013,4.516673e-05,253.70999999989013,2.26727e-05,253.70999999989013,0.002050221,253.70999999989013,4.826943e-06
253.72499999989012,4.46643e-05,253.72499999989012,2.247551e-05,253.72499999989012,0.001562051,253.72499999989012,4.967884e-06
253.7399999998901,4.430902e-05,253.7399999998901,2.230564e-05,253.7399999998901,0.001195152,253.7399999998901,5.286585e-06
253.7549999998901,4.386168e-05,253.7549999998901,2.218977e-05,253.7549999998901,0.00119356,253.7549999998901,5.230329e-06
253.76999999989008,4.385943e-05,253.76999999989008,2.222149e-05,253.76999999989008,0.001183286,253.76999999989008,4.942298e-06
253.78499999989006,4.278641e-05,253.78499999989006,2.214974e-05,253.78499999989006,0.001161024,253.78499999989006,5.024275e-06
253.79999999989005,4.226636e-05,253.79999999989005,2.188873e-05,253.79999999989005,0.001121813,253.79999999989005,5.052234e-06
253.81499999989003,4.137748e-05,253.81499999989003,2.122878e-05,253.81499999989003,0.0009363319,253.81499999989003,5.018664e-06
253.82999999989002,4.009349e-05,253.82999999989002,2.10214e-05,253.82999999989002,0.0006458613,253.82999999989002,5.029879e-06
253.84499999989,3.918947e-05,253.84499999989,1.970853e-05,253.84499999989,0.0004209859,253.84499999989,5.052234e-06
253.85999999989,3.845067e-05,253.85999999989,1.995077e-05,253.85999999989,0.0006661222,253.85999999989,5.049445e-06
253.87499999988998,3.902666e-05,253.87499999988998,1.972925e-05,253.87499999988998,0.0008424791,253.87499999988998,4.887844e-06
253.88999999988997,3.955548e-05,253.88999999988997,1.783314e-05,253.88999999988997,0.001404428,253.88999999988997,4.979213e-06
253.90499999988995,3.314842e-05,253.90499999988995,1.782998e-05,253.90499999988995,0.001855896,253.90499999988995,4.996159e-06
253.91999999988994,2.961481e-05,253.91999999988994,1.759777e-05,253.91999999988994,0.002044421,253.91999999988994,5.08004e-06
253.93499999988992,2.610042e-05,253.93499999988992,1.717156e-05,253.93499999988992,0.002432165,253.93499999988992,5.216845e-06
253.9499999998899,1.965485e-05,253.9499999998899,1.560005e-05,253.9499999998899,0.002516972,253.9499999998899,5.063375e-06
253.9649999998899,1.841988e-05,253.9649999998899,1.470957e-05,253.9649999998899,0.002533158,253.9649999998899,4.973552e-06
253.97999999988988,1.968064e-05,253.97999999988988,1.40503e-05,253.97999999988988,0.002754577,253.97999999988988,4.599804e-06
253.99499999988987,1.985026e-05,253.99499999988987,1.527151e-05,253.99499999988987,0.002923322,253.99499999988987,4.341427e-06
254.00999999988986,1.953119e-05,254.00999999988986,1.545672e-05,254.00999999988986,0.003073891,254.00999999988986,4.219664e-06
254.02499999988984,1.936314e-05,254.02499999988984,1.487243e-05,254.02499999988984,0.003199896,254.02499999988984,4.236323e-06
254.03999999988983,1.856309e-05,254.03999999988983,1.47631e-05,254.03999999988983,0.003461246,254.03999999988983,4.216325e-06
254.05499999988982,1.753362e-05,254.05499999988982,1.454101e-05,254.05499999988982,0.003806388,254.05499999988982,4.373753e-06
254.0699999998898,1.657973e-05,254.0699999998898,1.457682e-05,254.0699999998898,0.004091719,254.0699999998898,4.418613e-06
254.0849999998898,1.592092e-05,254.0849999998898,1.451289e-05,254.0849999998898,0.004329959,254.0849999998898,4.651575e-06
254.09999999988977,1.582686e-05,254.09999999988977,1.440573e-05,254.09999999988977,0.004433756,254.09999999988977,4.684768e-06
254.11499999988976,1.472776e-05,254.11499999988976,1.40503e-05,254.11499999988976,0.004401053,254.11499999988976,4.806471e-06
254.12999999988975,1.189363e-05,254.12999999988975,1.198213e-05,254.12999999988975,0.004421839,254.12999999988975,4.844421e-06
254.14499999988973,1.097457e-05,254.14499999988973,1.190192e-05,254.14499999988973,0.004248262,254.14499999988973,4.720713e-06
254.15999999988972,1.079598e-05,254.15999999988972,1.155115e-05,254.15999999988972,0.004075309,254.15999999988972,4.738583e-06
254.1749999998897,1.075022e-05,254.1749999998897,1.154139e-05,254.1749999998897,0.003991788,254.1749999998897,4.675739e-06
254.1899999998897,1.081814e-05,254.1899999998897,1.140016e-05,254.1899999998897,0.003864839,254.1899999998897,4.572159e-06
254.20499999988968,1.070557e-05,254.20499999988968,1.086232e-05,254.20499999988968,0.003853904,254.20499999988968,4.714741e-06
254.21999999988967,6.818068e-06,254.21999999988967,1.091536e-05,254.21999999988967,0.003819704,254.21999999988967,4.711753e-06
254.23499999988965,6.373853e-06,254.23499999988965,1.072792e-05,254.23499999988965,0.003607961,254.23499999988965,4.66971e-06
254.24999999988964,5.848288e-06,254.24999999988964,9.063859e-06,254.24999999988964,0.003444128,254.24999999988964,4.717728e-06
254.26499999988962,5.738873e-06,254.26499999988962,8.694202e-06,254.26499999988962,0.003129493,254.26499999988962,4.612038e-06
254.2799999998896,5.249148e-06,254.2799999998896,9.798716e-06,254.2799999998896,0.002919127,254.2799999998896,4.636408e-06
254.2949999998896,5.043863e-06,254.2949999998896,1.088305e-05,254.2949999998896,0.002691465,254.2949999998896,4.66971e-06
254.30999999988958,5.032679e-06,254.30999999988958,1.083895e-05,254.30999999988958,0.002381473,254.30999999988958,4.584466e-06
254.32499999988957,4.950841e-06,254.32499999988957,1.166039e-05,254.32499999988957,0.00197259,254.32499999988957,4.531929e-06
254.33999999988956,4.905105e-06,254.33999999988956,1.206765e-05,254.33999999988956,0.001441665,254.33999999988956,4.299038e-06
254.35499999988954,4.66971e-06,254.35499999988954,1.224494e-05,254.35499999988954,0.001246713,254.35499999988954,4.242968e-06
254.36999999988953,4.409039e-06,254.36999999988953,1.215836e-05,254.36999999988953,0.001213952,254.36999999988953,4.223002e-06
254.38499999988952,4.36408e-06,254.38499999988952,1.213865e-05,254.38499999988952,0.00101629,254.38499999988952,4.20629e-06
254.3999999998895,4.4218e-06,254.3999999998895,1.183783e-05,254.3999999998895,0.0007092039,254.3999999998895,4.179412e-06
254.4149999998895,4.331681e-06,254.4149999998895,1.187467e-05,254.4149999998895,0.0004378287,254.4149999998895,4.172666e-06
254.42999999988947,4.229668e-06,254.42999999988947,1.183069e-05,254.42999999988947,0.0002345727,254.42999999988947,4.135364e-06
254.44499999988946,4.302314e-06,254.44499999988946,1.213284e-05,254.44499999988946,0.00017106,254.44499999988946,4.162526e-06
254.45999999988945,4.965048e-06,254.45999999988945,1.317376e-05,254.45999999988945,0.0001783994,254.45999999988945,4.070128e-06
254.47499999988943,5.08004e-06,254.47499999988943,1.343213e-05,254.47499999988943,0.0001647821,254.47499999988943,4.077044e-06
254.48999999988942,5.099414e-06,254.48999999988942,1.602411e-05,254.48999999988942,0.000134589,254.48999999988942,4.226336e-06
254.5049999998894,5.077266e-06,254.5049999998894,1.637369e-05,254.5049999998894,0.0001144702,254.5049999998894,4.27604e-06
254.5199999998894,5.487926e-06,254.5199999998894,1.68193e-05,254.5199999998894,9.122417e-05,254.5199999998894,4.35115e-06
254.53499999988938,5.518642e-06,254.53499999988938,1.644066e-05,254.53499999988938,7.656833e-05,254.53499999988938,4.31539e-06
254.54999999988937,5.505864e-06,254.54999999988937,1.674459e-05,254.54999999988937,7.774211e-05,254.54999999988937,4.242968e-06
254.56499999988935,5.457037e-06,254.56499999988935,1.684106e-05,254.56499999988935,7.801307e-05,254.56499999988935,4.209638e-06
254.57999999988934,5.589657e-06,254.57999999988934,1.586508e-05,254.57999999988934,7.701665e-05,254.57999999988934,4.179412e-06
254.59499999988932,5.539025e-06,254.59499999988932,1.576175e-05,254.59499999988932,7.415518e-05,254.59499999988932,4.272744e-06
254.6099999998893,5.770695e-06,254.6099999998893,1.557927e-05,254.6099999998893,7.075338e-05,254.6099999998893,4.128545e-06
254.6249999998893,6.205884e-06,254.6249999998893,1.568021e-05,254.6249999998893,6.093182e-05,254.6249999998893,4.090841e-06
254.63999999988928,6.684531e-06,254.63999999988928,1.567572e-05,254.63999999988928,5.281493e-05,254.63999999988928,4.108022e-06
254.65499999988927,6.726546e-06,254.65499999988927,1.586597e-05,254.65499999988927,5.248101e-05,254.65499999988927,4.0632e-06
254.66999999988926,6.707672e-06,254.66999999988926,1.584198e-05,254.66999999988926,5.257648e-05,254.66999999988926,4.114875e-06
254.68499999988924,7.845942e-06,254.68499999988924,1.61179e-05,254.68499999988924,5.462584e-05,254.68499999988924,4.209638e-06
254.69999999988923,8.169621e-06,254.69999999988923,1.616764e-05,254.69999999988923,5.38817e-05,254.69999999988923,4.29248e-06
254.71499999988922,8.472646e-06,254.71499999988922,1.571252e-05,254.71499999988922,5.396164e-05,254.71499999988922,4.360851e-06
254.7299999998892,8.797286e-06,254.7299999998892,1.480503e-05,254.7299999998892,6.038795e-05,254.7299999998892,4.456705e-06
254.7449999998892,9.191949e-06,254.7449999998892,1.307717e-05,254.7449999998892,7.124068e-05,254.7449999998892,4.35115e-06
254.75999999988917,9.330365e-06,254.75999999988917,1.240268e-05,254.75999999988917,7.478696e-05,254.75999999988917,4.444044e-06
254.77499999988916,9.712076e-06,254.77499999988916,1.148879e-05,254.77499999988916,7.523748e-05,254.77499999988916,4.469331e-06
254.78999999988915,1.094501e-05,254.78999999988915,1.135311e-05,254.78999999988915,8.943277e-05,254.78999999988915,4.503868e-06
254.80499999988913,1.167729e-05,254.80499999988913,1.072792e-05,254.80499999988913,0.0001021205,254.80499999988913,4.456705e-06
254.81999999988912,1.355428e-05,254.81999999988912,1.065149e-05,254.81999999988912,0.0001077541,254.81999999988912,4.418613e-06
254.8349999998891,1.358439e-05,254.8349999998891,1.126592e-05,254.8349999998891,0.0001078214,254.8349999998891,4.485062e-06
254.8499999998891,1.355636e-05,254.8499999998891,1.155968e-05,254.8499999998891,0.0001072944,254.8499999998891,4.409039e-06
254.86499999988908,1.361236e-05,254.86499999988908,1.141375e-05,254.86499999988908,0.0001186426,254.86499999988908,4.463023e-06
254.87999999988907,1.393351e-05,254.87999999988907,1.139275e-05,254.87999999988907,0.0001394717,254.87999999988907,4.440873e-06
254.89499999988905,1.383e-05,254.89499999988905,1.154749e-05,254.89499999988905,0.0001451549,254.89499999988905,4.806471e-06
254.90999999988904,1.398095e-05,254.90999999988904,1.180327e-05,254.90999999988904,0.0001491161,254.90999999988904,4.967884e-06
254.92499999988902,1.400108e-05,254.92499999988902,1.217688e-05,254.92499999988902,0.000159489,254.92499999988902,4.858938e-06
254.939999999889,1.349909e-05,254.939999999889,1.153284e-05,254.939999999889,0.0001713719,254.939999999889,5.110451e-06
254.954999999889,1.318872e-05,254.954999999889,1.065677e-05,254.954999999889,0.000172752,254.954999999889,5.113207e-06
254.96999999988898,1.27466e-05,254.96999999988898,1.042829e-05,254.96999999988898,0.0001721374,254.96999999988898,4.942298e-06
254.98499999988897,1.270454e-05,254.98499999988897,9.717876e-06,254.98499999988897,0.0001717009,254.98499999988897,4.815255e-06
254.99999999988896,1.242878e-05,254.99999999988896,9.374045e-06,254.99999999988896,0.0001705942,254.99999999988896,4.803539e-06
255.01499999988894,1.227252e-05,255.01499999988894,9.366529e-06,255.01499999988894,0.0001702989,255.01499999988894,4.723696e-06
255.02999999988893,1.197155e-05,255.02999999988893,9.108818e-06,255.02999999988893,0.0001740856,255.02999999988893,4.723696e-06
255.04499999988892,1.022779e-05,255.04499999988892,9.046747e-06,255.04499999988892,0.0001732559,255.04499999988892,4.732634e-06
255.0599999998889,8.846786e-06,255.0599999998889,9.099535e-06,255.0599999998889,0.0001677789,255.0599999998889,4.753424e-06
255.0749999998889,7.335607e-06,255.0749999998889,9.251524e-06,255.0749999998889,0.0001703597,255.0749999998889,4.815255e-06
255.08999999988887,7.254505e-06,255.08999999988887,8.331817e-06,255.08999999988887,0.0001733771,255.08999999988887,4.939447e-06
255.10499999988886,7.270023e-06,255.10499999988886,8.263912e-06,255.10499999988886,0.0001737102,255.10499999988886,5.015856e-06
255.11999999988885,5.826569e-06,255.11999999988885,8.294538e-06,255.11999999988885,0.0001656502,255.11999999988885,5.066156e-06
255.13499999988883,5.487926e-06,255.13499999988883,8.362194e-06,255.13499999988883,0.0001583378,255.13499999988883,5.091119e-06
255.14999999988882,5.299891e-06,255.14999999988882,8.200599e-06,255.14999999988882,0.0001587455,255.14999999988882,4.702775e-06
255.1649999998888,4.942298e-06,255.1649999998888,6.947012e-06,255.1649999998888,0.0001536062,255.1649999998888,4.621192e-06
255.1799999998888,4.556728e-06,255.1799999998888,6.629514e-06,255.1799999998888,0.000141012,255.1799999998888,4.522595e-06
255.19499999988878,4.605925e-06,255.19499999988878,6.533196e-06,255.19499999988878,0.0001328794,255.19499999988878,4.466178e-06
255.20999999988877,4.590608e-06,255.20999999988877,6.584741e-06,255.20999999988877,0.0001296023,255.20999999988877,4.444044e-06
255.22499999988875,4.192873e-06,255.22499999988875,6.633762e-06,255.22499999988875,0.0001286399,255.22499999988875,4.630328e-06
255.23999999988874,4.169289e-06,255.23999999988874,6.642251e-06,255.23999999988874,0.0001232833,255.23999999988874,4.642481e-06
255.25499999988872,4.212983e-06,255.25499999988872,7.275834e-06,255.25499999988872,0.000119687,255.25499999988872,4.741556e-06
255.2699999998887,4.080498e-06,255.2699999998887,7.623756e-06,255.2699999998887,0.0001182825,255.2699999998887,4.729657e-06
255.2849999998887,4.148967e-06,255.2849999998887,7.560672e-06,255.2849999998887,0.0001084867,255.2849999998887,4.856038e-06
255.29999999988868,4.05626e-06,255.29999999988868,7.69548e-06,255.29999999988868,9.891349e-05,255.29999999988868,4.800605e-06
255.31499999988867,4.192873e-06,255.31499999988867,7.543885e-06,255.31499999988867,9.881275e-05,255.31499999988867,4.847328e-06
255.32999999988866,4.155752e-06,255.32999999988866,7.415822e-06,255.32999999988866,8.696162e-05,255.32999999988866,4.922306e-06
255.34499999988864,4.209638e-06,255.34499999988864,7.48201e-06,255.34499999988864,8.484177e-05,255.34499999988864,4.711753e-06
255.35999999988863,4.35115e-06,255.35999999988863,7.459384e-06,255.35999999988863,8.102025e-05,255.35999999988863,4.768218e-06
255.37499999988862,4.341427e-06,255.37499999988862,7.425313e-06,255.37499999988862,7.488183e-05,255.37499999988862,4.675739e-06
255.3899999998886,4.624239e-06,255.3899999998886,7.360529e-06,255.3899999998886,5.516523e-05,255.3899999998886,4.651575e-06
255.4049999998886,4.759348e-06,255.4049999998886,7.289374e-06,255.4049999998886,4.87399e-05,255.4049999998886,4.714741e-06
255.41999999988857,4.621192e-06,255.41999999988857,7.160693e-06,255.41999999988857,4.884326e-05,255.41999999988857,4.922306e-06
255.43499999988856,4.624239e-06,255.43499999988856,7.135074e-06,255.43499999988856,4.632913e-05,255.43499999988856,4.873412e-06
255.44999999988855,4.593675e-06,255.44999999988855,7.133099e-06,255.44999999988855,4.581393e-05,255.44999999988855,4.788854e-06
255.46499999988853,4.522595e-06,255.46499999988853,7.139021e-06,255.46499999988853,4.584835e-05,255.46499999988853,4.82986e-06
255.47999999988852,4.453544e-06,255.47999999988852,7.318304e-06,255.47999999988852,4.578317e-05,255.47999999988852,4.663672e-06
255.4949999998885,4.341427e-06,255.4949999998885,7.262268e-06,255.4949999998885,4.602162e-05,255.4949999998885,4.690778e-06
255.5099999998885,4.31539e-06,255.5099999998885,6.409116e-06,255.5099999998885,4.69396e-05,255.5099999998885,4.605925e-06
255.52499999988848,4.687774e-06,255.52499999988848,6.148874e-06,255.52499999988848,5.279012e-05,255.52499999988848,4.621192e-06
255.53999999988847,6.582601e-06,255.53999999988847,6.221753e-06,255.53999999988847,6.029223e-05,255.53999999988847,4.711753e-06
255.55499999988845,7.525189e-06,255.55499999988845,6.358363e-06,255.55499999988845,6.318738e-05,255.55499999988845,4.771172e-06
255.56999999988844,7.865667e-06,255.56999999988844,6.69506e-06,255.56999999988844,6.156636e-05,255.56999999988844,4.815255e-06
255.58499999988842,8.731387e-06,255.58499999988842,7.119262e-06,255.58499999988842,6.077023e-05,255.58499999988842,4.654602e-06
255.5999999998884,9.06075e-06,255.5999999998884,6.975343e-06,255.5999999998884,5.941199e-05,255.5999999998884,4.675739e-06
255.6149999998884,9.018676e-06,255.6149999998884,7.023643e-06,255.6149999998884,5.596079e-05,255.6149999998884,4.66971e-06
255.62999999988838,8.984247e-06,255.62999999988838,6.940926e-06,255.62999999988838,5.646449e-05,255.62999999988838,4.66971e-06
255.64499999988837,8.960697e-06,255.64499999988837,6.896133e-06,255.64499999988837,5.646674e-05,255.64499999988837,4.602866e-06
255.65999999988836,8.899176e-06,255.65999999988836,7.031661e-06,255.65999999988836,5.493237e-05,255.65999999988836,4.459865e-06
255.67499999988834,8.864284e-06,255.67499999988834,6.861319e-06,255.67499999988834,5.407455e-05,255.67499999988834,4.370531e-06
255.68999999988833,8.846786e-06,255.68999999988833,6.820134e-06,255.68999999988833,5.499029e-05,255.68999999988833,4.444044e-06
255.70499999988832,8.880161e-06,255.70499999988832,6.865424e-06,255.70499999988832,5.507016e-05,255.70499999988832,4.516361e-06
255.7199999998883,8.880161e-06,255.7199999998883,6.840758e-06,255.7199999998883,5.525581e-05,255.7199999998883,4.562907e-06
255.7349999998883,8.884918e-06,255.7349999998883,6.520246e-06,255.7349999998883,5.542025e-05,255.7349999998883,4.572159e-06
255.74999999988827,8.91025e-06,255.74999999988827,6.461651e-06,255.74999999988827,5.463744e-05,255.74999999988827,4.636408e-06
255.76499999988826,8.89601e-06,255.76499999988826,6.569749e-06,255.76499999988826,5.006017e-05,255.76499999988826,4.584466e-06
255.77999999988825,8.59316e-06,255.77999999988825,6.623136e-06,255.77999999988825,4.694621e-05,255.77999999988825,4.503868e-06
255.79499999988823,6.333946e-06,255.79499999988823,5.877121e-06,255.79499999988823,3.386439e-05,255.79499999988823,4.328428e-06
255.80999999988822,5.931993e-06,255.80999999988822,6.03324e-06,255.80999999988822,3.11617e-05,255.80999999988822,4.341427e-06
255.8249999998882,5.368553e-06,255.8249999998882,5.612292e-06,255.8249999998882,3.116758e-05,255.8249999998882,4.447213e-06
255.8399999998882,3.834905e-06,255.8399999998882,5.254512e-06,255.8399999998882,2.956768e-05,255.8399999998882,4.68176e-06
255.85499999988818,3.677393e-06,255.85499999988818,5.350154e-06,255.85499999988818,2.95753e-05,255.85499999988818,4.70577e-06
255.86999999988817,3.508812e-06,255.86999999988817,5.291911e-06,255.86999999988817,2.897576e-05,255.86999999988817,4.777073e-06
255.88499999988815,3.726858e-06,255.88499999988815,5.368553e-06,255.88499999988815,2.503543e-05,255.88499999988815,4.826943e-06
255.89999999988814,3.707911e-06,255.89999999988814,5.313164e-06,255.89999999988814,2.407569e-05,255.89999999988814,4.87919e-06
255.91499999988812,3.779404e-06,255.91499999988812,5.310512e-06,255.91499999988812,2.294137e-05,255.91499999988812,4.867628e-06
255.9299999998881,3.893234e-06,255.9299999998881,5.948592e-06,255.9299999998881,2.271987e-05,255.9299999998881,4.821102e-06
255.9449999998881,4.179412e-06,255.9449999998881,6.028569e-06,255.9449999998881,2.057643e-05,255.9449999998881,5.115961e-06
255.95999999988808,4.192873e-06,255.95999999988808,6.125922e-06,255.95999999988808,2.074687e-05,255.95999999988808,5.066156e-06
255.97499999988807,4.138769e-06,255.97499999988807,6.248863e-06,255.97499999988807,2.002266e-05,255.97499999988807,5.066156e-06
255.98999999988806,4.155752e-06,255.98999999988806,6.210422e-06,255.98999999988806,1.990129e-05,255.98999999988806,4.922306e-06
256.00499999988807,4.104592e-06,256.00499999988807,6.135114e-06,256.00499999988807,1.974424e-05,256.00499999988807,5.010237e-06
256.01999999988806,4.196231e-06,256.01999999988806,5.903427e-06,256.01999999988806,1.960103e-05,256.01999999988806,5.178904e-06
256.03499999988804,4.550541e-06,256.03499999988804,5.891484e-06,256.03499999988804,1.959528e-05,256.03499999988804,5.246463e-06
256.04999999988803,8.829253e-06,256.04999999988803,6.100575e-06,256.04999999988803,2.087818e-05,256.04999999988803,5.195198e-06
256.064999999888,8.853152e-06,256.064999999888,6.070483e-06,256.064999999888,2.112368e-05,256.064999999888,5.113207e-06
256.079999999888,8.867461e-06,256.079999999888,6.479067e-06,256.079999999888,2.12626e-05,256.079999999888,5.137942e-06
256.094999999888,8.873813e-06,256.094999999888,7.091506e-06,256.094999999888,2.095764e-05,256.094999999888,4.838602e-06
256.109999999888,8.843601e-06,256.109999999888,7.256447e-06,256.109999999888,1.997194e-05,256.109999999888,4.809401e-06
256.12499999988796,8.824465e-06,256.12499999988796,7.498936e-06,256.12499999988796,1.985735e-05,256.12499999988796,4.870521e-06
256.13999999988795,8.790878e-06,256.13999999988795,7.525189e-06,256.13999999988795,1.986586e-05,256.13999999988795,4.771172e-06
256.15499999988793,8.757163e-06,256.15499999988793,7.360529e-06,256.15499999988793,2.019778e-05,256.15499999988793,4.75046e-06
256.1699999998879,8.70068e-06,256.1699999998879,7.366268e-06,256.1699999998879,2.00304e-05,256.1699999998879,4.714741e-06
256.1849999998879,8.647087e-06,256.1849999998879,6.764137e-06,256.1849999998879,1.909797e-05,256.1849999998879,4.729657e-06
256.1999999998879,8.566891e-06,256.1999999998879,6.663425e-06,256.1999999998879,1.988996e-05,256.1999999998879,4.506994e-06
256.2149999998879,8.598076e-06,256.2149999998879,6.635885e-06,256.2149999998879,2.13261e-05,256.2149999998879,4.472482e-06
256.22999999988787,8.58824e-06,256.22999999988787,6.576178e-06,256.22999999988787,2.152008e-05,256.22999999988787,4.531929e-06
256.24499999988785,8.58496e-06,256.24499999988785,6.654963e-06,256.24499999988785,2.09778e-05,256.24499999988785,4.519479e-06
