X[s],a: EMG RMS 1-1,X[s].1,a: EMG RMS 1-2,X[s].2,a: EMG RMS 1-3,X[s].3,a: EMG RMS 1-4
405.01499999975255,0.0003051839,405.01499999975255,1.069899e-05,405.01499999975255,2.27366e-05,405.01499999975255,1.058382e-05
405.02999999975253,0.0003122382,405.02999999975253,1.495178e-05,405.02999999975253,2.281206e-05,405.02999999975253,1.061306e-05
405.0449999997525,0.0003177722,405.0449999997525,2.091525e-05,405.0449999997525,2.272297e-05,405.0449999997525,1.062368e-05
405.0599999997525,0.000323046,405.0599999997525,2.624735e-05,405.0599999997525,2.273165e-05,405.0599999997525,1.074366e-05
405.0749999997525,0.0003111798,405.0749999997525,3.268323e-05,405.0749999997525,2.269319e-05,405.0749999997525,1.069767e-05
405.0899999997525,0.0003065782,405.0899999997525,4.029815e-05,405.0899999997525,2.252997e-05,405.0899999997525,1.055584e-05
405.10499999975247,0.0003098445,405.10499999975247,4.250034e-05,405.10499999975247,2.21739e-05,405.10499999975247,1.057184e-05
405.11999999975245,0.0003537953,405.11999999975245,4.490524e-05,405.11999999975245,2.219104e-05,405.11999999975245,1.045392e-05
405.13499999975244,0.0005817268,405.13499999975244,5.290474e-05,405.13499999975244,2.214084e-05,405.13499999975244,1.091407e-05
405.1499999997524,0.0005956882,405.1499999997524,5.75155e-05,405.1499999997524,2.213065e-05,405.1499999997524,1.037276e-05
405.1649999997524,0.0006376461,405.1649999997524,6.219828e-05,405.1649999997524,2.193566e-05,405.1649999997524,1.075022e-05
405.1799999997524,0.0006808533,405.1799999997524,6.964571e-05,405.1799999997524,1.941545e-05,405.1799999997524,1.086751e-05
405.1949999997524,0.0008767727,405.1949999997524,8.635089e-05,405.1949999997524,1.911935e-05,405.1949999997524,1.078946e-05
405.20999999975237,0.0009584324,405.20999999975237,9.696995e-05,405.20999999975237,1.995007e-05,405.20999999975237,1.084805e-05
405.22499999975236,0.0009577186,405.22499999975236,0.0001124684,405.22499999975236,1.964266e-05,405.22499999975236,1.079076e-05
405.23999999975234,0.0009913417,405.23999999975234,0.0001223216,405.23999999975234,1.899887e-05,405.23999999975234,1.061174e-05
405.25499999975233,0.0009966543,405.25499999975233,0.0001284082,405.25499999975233,1.429185e-05,405.25499999975233,1.07777e-05
405.2699999997523,0.00100515,405.2699999997523,0.0001367089,405.2699999997523,1.472201e-05,405.2699999997523,1.07476e-05
405.2849999997523,0.00100598,405.2849999997523,0.0001459597,405.2849999997523,1.5793e-05,405.2849999997523,1.109203e-05
405.2999999997523,0.001002257,405.2999999997523,0.0001530549,405.2999999997523,1.886793e-05,405.2999999997523,1.237995e-05
405.3149999997523,0.001005446,405.3149999997523,0.00015495,405.3149999997523,2.843101e-05,405.3149999997523,1.444967e-05
405.32999999975226,0.001006184,405.32999999975226,0.0001632501,405.32999999975226,3.103895e-05,405.32999999975226,1.572686e-05
405.34499999975225,0.001007017,405.34499999975225,0.0001646631,405.34499999975225,3.454556e-05,405.34499999975225,1.629089e-05
405.35999999975223,0.001001733,405.35999999975223,0.0001666442,405.35999999975223,3.490982e-05,405.35999999975223,1.74934e-05
405.3749999997522,0.0009694094,405.3749999997522,0.0001661855,405.3749999997522,3.50194e-05,405.3749999997522,1.761937e-05
405.3899999997522,0.000912187,405.3899999997522,0.0001648779,405.3899999997522,3.758024e-05,405.3899999997522,1.842064e-05
405.4049999997522,0.0009309665,405.4049999997522,0.0001633571,405.4049999997522,3.953482e-05,405.4049999997522,1.899072e-05
405.4199999997522,0.0008861594,405.4199999997522,0.0001612283,405.4199999997522,3.94042e-05,405.4199999997522,1.889926e-05
405.43499999975216,0.0008280071,405.43499999975216,0.0001589209,405.43499999975216,3.939955e-05,405.43499999975216,1.928149e-05
405.44999999975215,0.0007592043,405.44999999975215,0.0001527235,405.44999999975215,3.983618e-05,405.44999999975215,1.930558e-05
405.46499999975214,0.0008573451,405.46499999975214,0.0001418076,405.46499999975214,4.599651e-05,405.46499999975214,1.98055e-05
405.4799999997521,0.0009598733,405.4799999997521,0.0001364324,405.4799999997521,4.91139e-05,405.4799999997521,2.004516e-05
405.4949999997521,0.001273018,405.4949999997521,0.0001288233,405.4949999997521,4.862851e-05,405.4949999997521,2.032016e-05
405.5099999997521,0.001389165,405.5099999997521,0.0001233307,405.5099999997521,4.846689e-05,405.5099999997521,2.031184e-05
405.5249999997521,0.001414928,405.5249999997521,0.0001080583,405.5249999997521,4.865109e-05,405.5249999997521,2.031184e-05
405.53999999975207,0.001645713,405.53999999975207,0.0001016321,405.53999999975207,4.985829e-05,405.53999999975207,2.022705e-05
405.55499999975206,0.001786044,405.55499999975206,9.648178e-05,405.55499999975206,4.910932e-05,405.55499999975206,1.917306e-05
405.56999999975204,0.001807947,405.56999999975204,8.776429e-05,405.56999999975204,4.811685e-05,405.56999999975204,1.820216e-05
405.58499999975203,0.001867052,405.58499999975203,7.681795e-05,405.58499999975203,4.620247e-05,405.58499999975203,1.785525e-05
405.599999999752,0.001901335,405.599999999752,7.313009e-05,405.599999999752,4.420303e-05,405.599999999752,1.709592e-05
405.614999999752,0.001917271,405.614999999752,6.939424e-05,405.614999999752,4.449683e-05,405.614999999752,1.718468e-05
405.629999999752,0.001954901,405.629999999752,6.970151e-05,405.629999999752,4.44192e-05,405.629999999752,1.713707e-05
405.644999999752,0.001946429,405.644999999752,6.775831e-05,405.644999999752,4.102738e-05,405.644999999752,1.604695e-05
405.65999999975196,0.001938806,405.65999999975196,6.880652e-05,405.65999999975196,4.234228e-05,405.65999999975196,1.557203e-05
405.67499999975195,0.001941259,405.67499999975195,7.044891e-05,405.67499999975195,4.335322e-05,405.67499999975195,1.565504e-05
405.68999999975193,0.001941168,405.68999999975193,6.866962e-05,405.68999999975193,4.596128e-05,405.68999999975193,1.572327e-05
405.7049999997519,0.001873814,405.7049999997519,7.025809e-05,405.7049999997519,4.470497e-05,405.7049999997519,1.503446e-05
405.7199999997519,0.001791292,405.7199999997519,6.745452e-05,405.7199999997519,3.477721e-05,405.7199999997519,1.571162e-05
405.7349999997519,0.001806763,405.7349999997519,6.623306e-05,405.7349999997519,3.453944e-05,405.7349999997519,1.625107e-05
405.7499999997519,0.001579139,405.7499999997519,6.284895e-05,405.7499999997519,3.447862e-05,405.7499999997519,1.615718e-05
405.76499999975186,0.001561052,405.76499999975186,6.128681e-05,405.76499999975186,3.467539e-05,405.76499999975186,1.647062e-05
405.77999999975185,0.001509671,405.77999999975185,6.036065e-05,405.77999999975185,3.622045e-05,405.77999999975185,1.624326e-05
405.79499999975184,0.001187279,405.79499999975184,6.126658e-05,405.79499999975184,3.354802e-05,405.79499999975184,1.623198e-05
405.8099999997518,0.001001664,405.8099999997518,6.464877e-05,405.8099999997518,2.856841e-05,405.8099999997518,1.613275e-05
405.8249999997518,0.0009541761,405.8249999997518,6.226415e-05,405.8249999997518,2.794728e-05,405.8249999997518,1.544669e-05
405.8399999997518,0.0008875658,405.8399999997518,6.242751e-05,405.8399999997518,2.779971e-05,405.8399999997518,1.517435e-05
405.8549999997518,0.00086858,405.8549999997518,6.359648e-05,405.8549999997518,2.79145e-05,405.8549999997518,1.442234e-05
405.86999999975177,0.0008365337,405.86999999975177,6.205021e-05,405.86999999975177,2.849633e-05,405.86999999975177,1.441062e-05
405.88499999975176,0.0007646678,405.88499999975176,6.126083e-05,405.88499999975176,2.865605e-05,405.88499999975176,1.462409e-05
405.89999999975174,0.0007751298,405.89999999975174,6.12261e-05,405.89999999975174,2.901074e-05,405.89999999975174,1.435087e-05
405.9149999997517,0.0007659027,405.9149999997517,5.898629e-05,405.9149999997517,2.61861e-05,405.9149999997517,1.422962e-05
405.9299999997517,0.0007445827,405.9299999997517,5.610234e-05,405.9299999997517,2.201194e-05,405.9299999997517,1.410733e-05
405.9449999997517,0.0007415734,405.9449999997517,5.381604e-05,405.9449999997517,2.091997e-05,405.9449999997517,1.395674e-05
405.9599999997517,0.0007337478,405.9599999997517,5.270974e-05,405.9599999997517,2.188036e-05,405.9599999997517,1.294944e-05
405.9749999997517,0.0007321831,405.9749999997517,5.325188e-05,405.9749999997517,2.19517e-05,405.9749999997517,1.227711e-05
405.98999999975166,0.0006018827,405.98999999975166,5.074824e-05,405.98999999975166,2.311693e-05,405.98999999975166,1.174825e-05
406.00499999975165,0.000497762,406.00499999975165,4.999006e-05,406.00499999975165,2.593094e-05,406.00499999975165,1.170741e-05
406.01999999975163,0.000466596,406.01999999975163,5.043025e-05,406.01999999975163,2.553295e-05,406.01999999975163,1.12484e-05
406.0349999997516,0.0004685922,406.0349999997516,4.836738e-05,406.0349999997516,2.42285e-05,406.0349999997516,1.118309e-05
406.0499999997516,0.0004798851,406.0499999997516,4.596649e-05,406.0499999997516,2.408095e-05,406.0499999997516,1.121831e-05
406.0649999997516,0.0004864861,406.0649999997516,4.062056e-05,406.0649999997516,2.433293e-05,406.0649999997516,1.127342e-05
406.0799999997516,0.0004590452,406.0799999997516,3.773399e-05,406.0799999997516,2.576418e-05,406.0799999997516,1.076462e-05
406.09499999975156,0.0004520895,406.09499999975156,3.706353e-05,406.09499999975156,2.662091e-05,406.09499999975156,1.063163e-05
406.10999999975155,0.0004124865,406.10999999975155,3.607509e-05,406.10999999975155,2.767884e-05,406.10999999975155,1.075939e-05
406.12499999975154,0.0004076437,406.12499999975154,3.556582e-05,406.12499999975154,2.726143e-05,406.12499999975154,1.026628e-05
406.1399999997515,0.0003953128,406.1399999997515,3.512905e-05,406.1399999997515,2.731202e-05,406.1399999997515,9.996546e-06
406.1549999997515,0.0003708754,406.1549999997515,3.491062e-05,406.1549999997515,2.956578e-05,406.1549999997515,9.983855e-06
406.1699999997515,0.0003750939,406.1699999997515,3.390596e-05,406.1699999997515,3.125378e-05,406.1699999997515,9.717876e-06
406.1849999997515,0.0003224285,406.1849999997515,3.330486e-05,406.1849999997515,3.361053e-05,406.1849999997515,9.417524e-06
406.19999999975147,0.0002830289,406.19999999975147,3.303007e-05,406.19999999975147,3.497794e-05,406.19999999975147,9.639282e-06
406.21499999975146,0.0003043001,406.21499999975146,3.148594e-05,406.21499999975146,3.59166e-05,406.21499999975146,9.755493e-06
406.22999999975144,0.0003006251,406.22999999975144,3.103532e-05,406.22999999975144,3.5525e-05,406.22999999975144,9.645126e-06
406.2449999997514,0.0002836871,406.2449999997514,2.981723e-05,406.2449999997514,3.504956e-05,406.2449999997514,9.851764e-06
406.2599999997514,0.0002676863,406.2599999997514,2.826902e-05,406.2599999997514,3.340622e-05,406.2599999997514,1.030736e-05
406.2749999997514,0.0002840409,406.2749999997514,2.609395e-05,406.2749999997514,3.368003e-05,406.2749999997514,1.018639e-05
406.2899999997514,0.0002996941,406.2899999997514,2.508995e-05,406.2899999997514,3.382776e-05,406.2899999997514,1.128841e-05
406.3049999997514,0.0003100787,406.3049999997514,2.489946e-05,406.3049999997514,3.46567e-05,406.3049999997514,1.080902e-05
406.31999999975136,0.0003475206,406.31999999975136,2.479799e-05,406.31999999975136,3.568129e-05,406.31999999975136,1.051171e-05
406.33499999975135,0.0003524636,406.33499999975135,2.399188e-05,406.33499999975135,3.534133e-05,406.33499999975135,1.073973e-05
406.34999999975133,0.0003590386,406.34999999975133,2.596514e-05,406.34999999975133,3.476425e-05,406.34999999975133,1.083636e-05
406.3649999997513,0.0003771983,406.3649999997513,2.619255e-05,406.3649999997513,3.355558e-05,406.3649999997513,1.058116e-05
406.3799999997513,0.0004033109,406.3799999997513,2.55765e-05,406.3799999997513,3.399227e-05,406.3799999997513,1.078423e-05
406.3949999997513,0.0004723571,406.3949999997513,2.583952e-05,406.3949999997513,3.321846e-05,406.3949999997513,1.084935e-05
406.4099999997513,0.0005821748,406.4099999997513,2.561228e-05,406.4099999997513,3.127901e-05,406.4099999997513,1.078162e-05
406.42499999975126,0.0006738269,406.42499999975126,2.923855e-05,406.42499999975126,2.949374e-05,406.42499999975126,1.075153e-05
406.43999999975125,0.0006878477,406.43999999975125,3.127091e-05,406.43999999975125,3.14846e-05,406.43999999975125,1.04647e-05
406.45499999975124,0.0008327367,406.45499999975124,3.18237e-05,406.45499999975124,3.041315e-05,406.45499999975124,1.029369e-05
406.4699999997512,0.0008698055,406.4699999997512,3.276802e-05,406.4699999997512,2.966471e-05,406.4699999997512,1.017255e-05
406.4849999997512,0.0009646539,406.4849999997512,3.402623e-05,406.4849999997512,2.942776e-05,406.4849999997512,1.022504e-05
406.4999999997512,0.0009958472,406.4999999997512,3.603172e-05,406.4999999997512,2.927466e-05,406.4999999997512,9.834591e-06
406.5149999997512,0.001136301,406.5149999997512,3.567576e-05,406.5149999997512,2.885299e-05,406.5149999997512,9.429483e-06
406.52999999975117,0.00115907,406.52999999975117,3.564377e-05,406.52999999975117,2.787662e-05,406.52999999975117,9.583589e-06
406.54499999975116,0.001188927,406.54499999975116,3.593032e-05,406.54499999975116,2.705394e-05,406.54499999975116,8.429308e-06
406.55999999975114,0.001564109,406.55999999975114,3.761284e-05,406.55999999975114,2.538467e-05,406.55999999975114,8.758771e-06
406.5749999997511,0.00190569,406.5749999997511,3.955762e-05,406.5749999997511,2.373509e-05,406.5749999997511,9.303149e-06
406.5899999997511,0.002265411,406.5899999997511,3.914631e-05,406.5899999997511,2.355338e-05,406.5899999997511,8.922889e-06
406.6049999997511,0.002333811,406.6049999997511,3.877753e-05,406.6049999997511,2.304858e-05,406.6049999997511,8.990517e-06
406.6199999997511,0.002393713,406.6199999997511,3.867459e-05,406.6199999997511,2.160957e-05,406.6199999997511,9.287995e-06
406.6349999997511,0.002507402,406.6349999997511,3.858781e-05,406.6349999997511,2.160631e-05,406.6349999997511,9.450374e-06
406.64999999975106,0.002691814,406.64999999975106,3.821769e-05,406.64999999975106,2.137625e-05,406.64999999975106,9.863196e-06
406.66499999975105,0.002693269,406.66499999975105,3.802702e-05,406.66499999975105,2.062703e-05,406.66499999975105,1.026354e-05
406.67999999975103,0.002762875,406.67999999975103,3.437469e-05,406.67999999975103,1.782919e-05,406.67999999975103,1.029232e-05
406.694999999751,0.002775599,406.694999999751,3.364906e-05,406.694999999751,1.119442e-05,406.694999999751,1.139151e-05
406.709999999751,0.002736434,406.709999999751,3.402913e-05,406.709999999751,6.049562e-06,406.709999999751,1.136799e-05
406.724999999751,0.002746219,406.724999999751,3.348582e-05,406.724999999751,5.891484e-06,406.724999999751,1.142115e-05
406.739999999751,0.002740246,406.739999999751,3.032642e-05,406.739999999751,5.814468e-06,406.739999999751,1.124966e-05
406.75499999975096,0.002793741,406.75499999975096,2.981959e-05,406.75499999975096,5.778013e-06,406.75499999975096,1.122584e-05
406.76999999975095,0.002755859,406.76999999975095,3.027574e-05,406.76999999975095,6.021555e-06,406.76999999975095,1.150839e-05
406.78499999975094,0.002732377,406.78499999975094,3.053334e-05,406.78499999975094,5.862722e-06,406.78499999975094,1.240609e-05
406.7999999997509,0.002755192,406.7999999997509,3.209039e-05,406.7999999997509,6.037908e-06,406.7999999997509,1.25135e-05
406.8149999997509,0.002569242,406.8149999997509,3.189003e-05,406.8149999997509,7.822567e-06,406.8149999997509,1.233778e-05
406.8299999997509,0.002440985,406.8299999997509,3.035427e-05,406.8299999997509,8.251971e-06,406.8299999997509,1.225414e-05
406.8449999997509,0.002142142,406.8449999997509,3.016433e-05,406.8449999997509,8.377342e-06,406.8449999997509,1.21896e-05
406.85999999975087,0.00210912,406.85999999975087,2.904616e-05,406.85999999975087,8.355453e-06,406.85999999975087,1.231949e-05
406.87499999975086,0.002044915,406.87499999975086,2.915701e-05,406.87499999975086,8.5866e-06,406.87499999975086,1.268456e-05
406.88999999975084,0.001904742,406.88999999975084,2.825357e-05,406.88999999975084,1.084285e-05,406.88999999975084,1.218266e-05
406.9049999997508,0.001767033,406.9049999997508,2.795736e-05,406.9049999997508,1.444577e-05,406.9049999997508,1.182116e-05
406.9199999997508,0.001756179,406.9199999997508,2.771038e-05,406.9199999997508,2.069452e-05,406.9199999997508,1.158281e-05
406.9349999997508,0.001655961,406.9349999997508,2.578822e-05,406.9349999997508,2.234035e-05,406.9349999997508,1.107423e-05
406.9499999997508,0.001722162,406.9499999997508,2.485756e-05,406.9499999997508,2.253185e-05,406.9499999997508,1.116292e-05
406.9649999997508,0.00175017,406.9649999997508,2.345329e-05,406.9649999997508,2.255059e-05,406.9649999997508,1.135931e-05
406.97999999975076,0.00172583,406.97999999975076,2.231764e-05,406.97999999975076,2.25331e-05,406.97999999975076,1.195742e-05
406.99499999975075,0.001655094,406.99499999975075,2.235548e-05,406.99499999975075,2.267394e-05,406.99499999975075,1.298528e-05
407.00999999975073,0.001596901,407.00999999975073,2.235863e-05,407.00999999975073,2.291188e-05,407.00999999975073,1.325371e-05
407.0249999997507,0.001687613,407.0249999997507,2.106625e-05,407.0249999997507,2.352346e-05,407.0249999997507,1.216415e-05
407.0399999997507,0.001764365,407.0399999997507,1.677569e-05,407.0399999997507,3.151948e-05,407.0399999997507,1.190192e-05
407.0549999997507,0.001721072,407.0549999997507,1.343109e-05,407.0549999997507,3.445083e-05,407.0549999997507,1.18806e-05
407.0699999997507,0.001696157,407.0699999997507,9.401056e-06,407.0699999997507,3.614726e-05,407.0699999997507,1.217919e-05
407.08499999975066,0.001622658,407.08499999975066,8.98895e-06,407.08499999975066,3.639311e-05,407.08499999975066,1.195624e-05
407.09999999975065,0.001671415,407.09999999975065,7.56626e-06,407.09999999975065,3.670645e-05,407.09999999975065,1.197037e-05
407.11499999975064,0.001643836,407.11499999975064,6.830453e-06,407.11499999975064,3.721752e-05,407.11499999975064,1.182593e-05
407.1299999997506,0.00164117,407.1299999997506,5.257193e-06,407.1299999997506,3.715198e-05,407.1299999997506,1.163378e-05
407.1449999997506,0.001587547,407.1449999997506,4.936594e-06,407.1449999997506,3.649322e-05,407.1449999997506,1.16483e-05
407.1599999997506,0.00147855,407.1599999997506,4.945147e-06,407.1599999997506,3.385607e-05,407.1599999997506,1.165193e-05
407.1749999997506,0.00146903,407.1749999997506,4.884961e-06,407.1749999997506,3.280454e-05,407.1749999997506,1.15974e-05
407.18999999975057,0.001447832,407.18999999975057,4.762306e-06,407.18999999975057,3.221088e-05,407.18999999975057,1.12459e-05
407.20499999975056,0.001356596,407.20499999975056,4.73561e-06,407.20499999975056,3.222749e-05,407.20499999975056,1.139769e-05
407.21999999975054,0.001314033,407.21999999975054,4.666692e-06,407.21999999975054,3.225589e-05,407.21999999975054,1.139769e-05
407.2349999997505,0.001286571,407.2349999997505,4.636408e-06,407.2349999997505,3.211803e-05,407.2349999997505,9.844612e-06
407.2499999997505,0.001287916,407.2499999997505,3.580347e-06,407.2499999997505,3.237011e-05,407.2499999997505,9.316767e-06
407.2649999997505,0.001273084,407.2649999997505,3.57641e-06,407.2649999997505,3.252336e-05,407.2649999997505,9.318279e-06
407.2799999997505,0.001105083,407.2799999997505,3.59605e-06,407.2799999997505,3.242924e-05,407.2799999997505,9.330365e-06
407.2949999997505,0.0008157231,407.2949999997505,3.394541e-06,407.2949999997505,2.51281e-05,407.2949999997505,9.278891e-06
407.30999999975046,0.0007518956,407.30999999975046,3.215529e-06,407.30999999975046,1.906253e-05,407.30999999975046,8.826061e-06
407.32499999975045,0.0006897087,407.32499999975045,3.310505e-06,407.32499999975045,1.955354e-05,407.32499999975045,8.930779e-06
407.33999999975043,0.000599183,407.33999999975043,3.228645e-06,407.33999999975043,1.938931e-05,407.33999999975043,8.851561e-06
407.3549999997504,0.0004108485,407.3549999997504,3.144655e-06,407.3549999997504,1.894541e-05,407.3549999997504,8.818078e-06
407.3699999997504,0.0004008858,407.3699999997504,3.144655e-06,407.3699999997504,1.799356e-05,407.3699999997504,8.58824e-06
407.3849999997504,0.0003778764,407.3849999997504,3.166973e-06,407.3849999997504,1.806934e-05,407.3849999997504,8.580036e-06
407.3999999997504,0.0003690315,407.3999999997504,3.310505e-06,407.3999999997504,1.862219e-05,407.3999999997504,8.929201e-06
407.41499999975036,0.0003541146,407.41499999975036,3.206755e-06,407.41499999975036,1.773731e-05,407.41499999975036,9.038959e-06
407.42999999975035,0.0003063728,407.42999999975035,3.237359e-06,407.42999999975035,1.917232e-05,407.42999999975035,8.888089e-06
407.44499999975034,0.0002459786,407.44499999975034,3.36955e-06,407.44499999975034,1.926029e-05,407.44499999975034,8.681231e-06
407.4599999997503,0.0002457617,407.4599999997503,3.443979e-06,407.4599999997503,1.893575e-05,407.4599999997503,8.444335e-06
407.4749999997503,0.0002194649,407.4749999997503,3.439886e-06,407.4749999997503,1.895656e-05,407.4749999997503,8.718472e-06
407.4899999997503,0.0002220998,407.4899999997503,3.500774e-06,407.4899999997503,1.914732e-05,407.4899999997503,8.861105e-06
407.5049999997503,0.0002245928,407.5049999997503,3.588207e-06,407.5049999997503,1.800765e-05,407.5049999997503,8.810087e-06
407.51999999975027,0.0002235892,407.51999999975027,5.027078e-06,407.51999999975027,1.77627e-05,407.51999999975027,8.596438e-06
407.53499999975026,0.0001839615,407.53499999975026,5.513535e-06,407.53499999975026,1.788914e-05,407.53499999975026,8.54384e-06
407.54999999975024,0.0001993567,407.54999999975024,5.48279e-06,407.54999999975024,1.755129e-05,407.54999999975024,8.373978e-06
407.5649999997502,0.0001787422,407.5649999997502,5.513535e-06,407.5649999997502,1.642866e-05,407.5649999997502,8.776445e-06
407.5799999997502,0.0001828398,407.5799999997502,5.592176e-06,407.5799999997502,1.537723e-05,407.5799999997502,8.765202e-06
407.5949999997502,0.0001768401,407.5949999997502,5.654801e-06,407.5949999997502,1.50999e-05,407.5949999997502,8.899176e-06
407.6099999997502,0.0001762801,407.6099999997502,5.669728e-06,407.6099999997502,1.617722e-05,407.6099999997502,8.845193e-06
407.6249999997502,0.0001807568,407.6249999997502,6.061194e-06,407.6249999997502,1.730395e-05,407.6249999997502,8.982679e-06
407.63999999975016,0.0001852187,407.63999999975016,6.838698e-06,407.63999999975016,1.820062e-05,407.63999999975016,8.50749e-06
407.65499999975015,0.0001905192,407.65499999975015,7.069622e-06,407.65499999975015,1.708026e-05,407.65499999975015,8.653601e-06
407.66999999975013,0.0001928987,407.66999999975013,7.164627e-06,407.66999999975013,1.743937e-05,407.66999999975013,8.50749e-06
407.6849999997501,0.0001935025,407.6849999997501,7.485775e-06,407.6849999997501,1.524289e-05,407.6849999997501,8.484277e-06
407.6999999997501,0.0001935418,407.6999999997501,7.506446e-06,407.6999999997501,1.499224e-05,407.6999999997501,8.379024e-06
407.7149999997501,0.000192615,407.7149999997501,7.521444e-06,407.7149999997501,1.492821e-05,407.7149999997501,8.348708e-06
407.7299999997501,0.0001934033,407.7299999997501,7.573703e-06,407.7299999997501,1.482499e-05,407.7299999997501,7.995334e-06
407.74499999975006,0.0001918789,407.74499999975006,7.532673e-06,407.74499999975006,1.441941e-05,407.74499999975006,7.664298e-06
407.75999999975005,0.0001884692,407.75999999975005,7.525189e-06,407.75999999975005,1.454295e-05,407.75999999975005,7.62006e-06
407.77499999975004,0.0001913864,407.77499999975004,6.362793e-06,407.77499999975004,1.482784e-05,407.77499999975004,7.631143e-06
407.78999999975,0.000192131,407.78999999975,6.174023e-06,407.78999999975,1.50354e-05,407.78999999975,7.618211e-06
407.80499999975,0.0001802172,407.80499999975,6.174023e-06,407.80499999975,1.477073e-05,407.80499999975,7.063642e-06
407.81999999975,0.0001843205,407.81999999975,6.194524e-06,407.81999999975,1.476024e-05,407.81999999975,7.049668e-06
407.83499999975,0.0001831371,407.83499999975,6.123622e-06,407.83499999975,1.379431e-05,407.83499999975,6.94904e-06
407.84999999974997,0.0001857781,407.84999999974997,6.121322e-06,407.84999999974997,1.369489e-05,407.84999999974997,6.846933e-06
407.86499999974995,0.0001833854,407.86499999974995,6.054217e-06,407.86499999974995,1.131956e-05,407.86499999974995,6.938897e-06
407.87999999974994,0.0001810497,407.87999999974994,5.602244e-06,407.87999999974994,1.118939e-05,407.87999999974994,6.914493e-06
407.8949999997499,0.0001823435,407.8949999997499,4.472482e-06,407.8949999997499,1.024705e-05,407.8949999997499,6.863372e-06
407.9099999997499,0.0001751149,407.9099999997499,4.389827e-06,407.9099999997499,1.071872e-05,407.9099999997499,6.705572e-06
407.9249999997499,0.0001727455,407.9249999997499,4.229668e-06,407.9249999997499,9.520175e-06,407.9249999997499,7.013608e-06
407.9399999997499,0.0001714756,407.9399999997499,3.715501e-06,407.9399999997499,9.529049e-06,407.9399999997499,6.999535e-06
407.9549999997499,0.0001706118,407.9549999997499,3.805405e-06,407.9549999997499,1.056651e-05,407.9549999997499,7.013608e-06
407.96999999974986,0.000172125,407.96999999974986,3.760722e-06,407.96999999974986,1.108059e-05,407.96999999974986,7.001547e-06
407.98499999974985,0.0001656932,407.98499999974985,3.816494e-06,407.98499999974985,1.185329e-05,407.98499999974985,7.190141e-06
407.99999999974983,0.000163492,407.99999999974983,3.730636e-06,407.99999999974983,1.273223e-05,407.99999999974983,7.270023e-06
408.0149999997498,0.0001710722,408.0149999997498,3.715501e-06,408.0149999997498,1.261552e-05,408.0149999997498,7.266147e-06
408.0299999997498,0.0001678923,408.0299999997498,3.70411e-06,408.0299999997498,1.162409e-05,408.0299999997498,7.375824e-06
408.0449999997498,0.0001662099,408.0449999997498,3.786851e-06,408.0449999997498,1.153162e-05,408.0449999997498,7.678988e-06
408.0599999997498,0.0001659257,408.0599999997498,3.70411e-06,408.0599999997498,1.156577e-05,408.0599999997498,7.733825e-06
408.07499999974976,0.0001617542,408.07499999974976,3.834905e-06,408.07499999974976,1.220577e-05,408.07499999974976,7.645896e-06
408.08999999974975,0.0001567979,408.08999999974975,3.90768e-06,408.08999999974975,1.260882e-05,408.08999999974975,7.664298e-06
408.10499999974974,0.0001576046,408.10499999974974,3.911283e-06,408.10499999974974,1.273444e-05,408.10499999974974,7.757469e-06
408.1199999997497,0.0001550545,408.1199999997497,3.996786e-06,408.1199999997497,1.235261e-05,408.1199999997497,7.755652e-06
408.1349999997497,0.0001526949,408.1349999997497,4.035369e-06,408.1349999997497,1.225989e-05,408.1349999997497,7.952937e-06
408.1499999997497,0.0001509928,408.1499999997497,4.077044e-06,408.1499999997497,1.198331e-05,408.1499999997497,7.799122e-06
408.1649999997497,0.0001488609,408.1649999997497,3.92925e-06,408.1649999997497,1.285226e-05,408.1649999997497,7.582997e-06
408.17999999974967,0.0001504735,408.17999999974967,4.042345e-06,408.17999999974967,1.295161e-05,408.17999999974967,7.491418e-06
408.19499999974965,0.0001482963,408.19499999974965,4.010859e-06,408.19499999974965,1.29342e-05,408.19499999974965,7.431003e-06
408.20999999974964,0.0001479052,408.20999999974964,4.152361e-06,408.20999999974964,1.186042e-05,408.20999999974964,7.415822e-06
408.2249999997496,0.0001482057,408.2249999997496,5.869926e-06,408.2249999997496,1.126592e-05,408.2249999997496,7.444261e-06
408.2399999997496,0.0001551528,408.2399999997496,1.010029e-05,408.2399999997496,1.046066e-05,408.2399999997496,7.373913e-06
408.2549999997496,0.0001503583,408.2549999997496,1.185686e-05,408.2549999997496,9.540868e-06,408.2549999997496,7.568121e-06
408.2699999997496,0.0001700706,408.2699999997496,1.2669e-05,408.2699999997496,9.224075e-06,408.2699999997496,7.485775e-06
408.2849999997496,0.0001704475,408.2849999997496,1.384019e-05,408.2849999997496,9.130444e-06,408.2849999997496,7.27196e-06
408.29999999974956,0.0001720312,408.29999999974956,1.579657e-05,408.29999999974956,9.077836e-06,408.29999999974956,7.091506e-06
408.31499999974955,0.000194782,408.31499999974955,1.846189e-05,408.31499999974955,9.0374e-06,408.31499999974955,7.164627e-06
408.32999999974953,0.0002003116,408.32999999974953,2.352466e-05,408.32999999974953,8.062008e-06,408.32999999974953,7.071614e-06
408.3449999997495,0.0002093326,408.3449999997495,2.592116e-05,408.3449999997495,7.372003e-06,408.3449999997495,7.043671e-06
408.3599999997495,0.0002260876,408.3599999997495,2.828197e-05,408.3599999997495,7.00959e-06,408.3599999997495,7.14888e-06
408.3749999997495,0.0002346517,408.3749999997495,3.061305e-05,408.3749999997495,6.959168e-06,408.3749999997495,7.043671e-06
408.3899999997495,0.0002497747,408.3899999997495,3.383026e-05,408.3899999997495,6.944984e-06,408.3899999997495,6.853102e-06
408.40499999974946,0.0003012201,408.40499999974946,3.702132e-05,408.40499999974946,3.696496e-06,408.40499999974946,6.902258e-06
408.41999999974945,0.0003283607,408.41999999974945,3.835823e-05,408.41999999974945,3.904074e-06,408.41999999974945,6.924671e-06
408.43499999974944,0.0003822981,408.43499999974944,3.975406e-05,408.43499999974944,3.896851e-06,408.43499999974944,7.14888e-06
408.4499999997494,0.0004893222,408.4499999997494,4.160901e-05,408.4499999997494,4.565993e-06,408.4499999997494,7.258388e-06
408.4649999997494,0.0005419605,408.4649999997494,4.72474e-05,408.4649999997494,4.651575e-06,408.4649999997494,7.385367e-06
408.4799999997494,0.0005432931,408.4799999997494,5.228578e-05,408.4799999997494,4.873412e-06,408.4799999997494,7.273898e-06
408.4949999997494,0.0005719304,408.4949999997494,5.334861e-05,408.4949999997494,5.151632e-06,408.4949999997494,7.322153e-06
408.50999999974937,0.0006073511,408.50999999974937,6.014345e-05,408.50999999974937,5.716739e-06,408.50999999974937,7.47636e-06
408.52499999974935,0.0006140395,408.52499999974935,6.850388e-05,408.52499999974935,5.845879e-06,408.52499999974935,7.549485e-06
408.53999999974934,0.0006162961,408.53999999974934,8.14835e-05,408.53999999974934,5.929618e-06,408.53999999974934,7.46882e-06
408.5549999997493,0.0006218452,408.5549999997493,8.223945e-05,408.5549999997493,5.974584e-06,408.5549999997493,7.291306e-06
408.5699999997493,0.0006282606,408.5699999997493,8.294691e-05,408.5699999997493,5.955692e-06,408.5699999997493,7.27196e-06
408.5849999997493,0.0006377226,408.5849999997493,8.402963e-05,408.5849999997493,5.953326e-06,408.5849999997493,7.213613e-06
408.5999999997493,0.000660338,408.5999999997493,8.310368e-05,408.5999999997493,5.898653e-06,408.5999999997493,7.15282e-06
408.6149999997493,0.0006568916,408.6149999997493,8.843823e-05,408.6149999997493,5.946224e-06,408.6149999997493,7.129148e-06
408.62999999974926,0.00065784,408.62999999974926,9.464793e-05,408.62999999974926,5.979298e-06,408.62999999974926,7.089519e-06
408.64499999974925,0.0006741883,408.64499999974925,0.0001015144,408.64499999974925,5.972226e-06,408.64499999974925,7.534543e-06
408.65999999974923,0.0006468233,408.65999999974923,0.0001030454,408.65999999974923,5.955692e-06,408.65999999974923,7.876405e-06
408.6749999997492,0.0006325275,408.6749999997492,0.0001079073,408.6749999997492,5.721665e-06,408.6749999997492,7.97593e-06
408.6899999997492,0.0006276085,408.6899999997492,0.0001100045,408.6899999997492,5.262549e-06,408.6899999997492,8.005899e-06
408.7049999997492,0.0005723708,408.7049999997492,0.0001110749,408.7049999997492,4.506994e-06,408.7049999997492,8.258797e-06
408.7199999997492,0.0005352944,408.7199999997492,0.0001115463,408.7199999997492,4.47563e-06,408.7199999997492,8.638938e-06
408.73499999974916,0.0005433718,408.73499999974916,0.0001112129,408.73499999974916,4.360851e-06,408.73499999974916,8.856334e-06
408.74999999974915,0.0005530836,408.74999999974915,0.0001133814,408.74999999974915,4.114875e-06,408.74999999974915,9.278891e-06
408.76499999974914,0.0005390981,408.76499999974914,0.0001086432,408.76499999974914,5.704405e-06,408.76499999974914,9.156633e-06
408.7799999997491,0.0005438324,408.7799999997491,0.0001057912,408.7799999997491,6.304968e-06,408.7799999997491,9.954182e-06
408.7949999997491,0.0005499754,408.7949999997491,0.0001016636,408.7949999997491,6.472542e-06,408.7949999997491,1.021125e-05
408.8099999997491,0.000557491,408.8099999997491,0.0001018896,408.8099999997491,6.947012e-06,408.8099999997491,1.098611e-05
408.8249999997491,0.0005816646,408.8249999997491,0.0001020061,408.8249999997491,9.009299e-06,408.8249999997491,1.180089e-05
408.83999999974907,0.0006369457,408.83999999974907,0.0001016183,408.83999999974907,9.475681e-06,408.83999999974907,1.215372e-05
408.85499999974905,0.0006412107,408.85499999974905,0.0001026317,408.85499999974905,9.518695e-06,408.85499999974905,1.252475e-05
408.86999999974904,0.0006420595,408.86999999974904,9.830207e-05,408.86999999974904,9.529049e-06,408.86999999974904,1.271119e-05
408.884999999749,0.0006364079,408.884999999749,9.646777e-05,408.884999999749,9.574765e-06,408.884999999749,1.301562e-05
408.899999999749,0.0006102902,408.899999999749,9.567642e-05,408.899999999749,1.016562e-05,408.899999999749,1.35522e-05
408.914999999749,0.0006069088,408.914999999749,9.262937e-05,408.914999999749,1.192439e-05,408.914999999749,1.350743e-05
408.929999999749,0.0006029367,408.929999999749,9.24962e-05,408.929999999749,1.196566e-05,408.929999999749,1.346461e-05
408.944999999749,0.0006451419,408.944999999749,8.973736e-05,408.944999999749,1.325053e-05,408.944999999749,1.375135e-05
408.95999999974896,0.0006472889,408.95999999974896,8.708271e-05,408.95999999974896,1.360097e-05,408.95999999974896,1.423457e-05
408.97499999974895,0.000665448,408.97499999974895,8.351676e-05,408.97499999974895,1.570176e-05,408.97499999974895,1.416711e-05
408.98999999974893,0.0006664158,408.98999999974893,8.804489e-05,408.98999999974893,1.777856e-05,408.98999999974893,1.43891e-05
409.0049999997489,0.00062659,409.0049999997489,8.451338e-05,409.0049999997489,2.18591e-05,409.0049999997489,1.480122e-05
409.0199999997489,0.0006262132,409.0199999997489,8.329653e-05,409.0199999997489,2.33805e-05,409.0199999997489,1.435185e-05
409.0349999997489,0.0006914305,409.0349999997489,7.856653e-05,409.0349999997489,2.686899e-05,409.0349999997489,1.427212e-05
409.0499999997489,0.0007188623,409.0499999997489,7.678438e-05,409.0499999997489,2.815368e-05,409.0499999997489,1.459034e-05
409.06499999974886,0.0006813633,409.06499999974886,7.612088e-05,409.06499999974886,2.851215e-05,409.06499999974886,1.429382e-05
409.07999999974885,0.0007233982,409.07999999974885,7.497471e-05,409.07999999974885,2.903258e-05,409.07999999974885,1.399605e-05
409.09499999974884,0.0006643941,409.09499999974884,7.512393e-05,409.09499999974884,2.923951e-05,409.09499999974884,1.423061e-05
409.1099999997488,0.0006718686,409.1099999997488,7.287074e-05,409.1099999997488,2.968228e-05,409.1099999997488,1.395876e-05
409.1249999997488,0.0006727149,409.1249999997488,7.004926e-05,409.1249999997488,3.000748e-05,409.1249999997488,1.399303e-05
409.1399999997488,0.0006788164,409.1399999997488,6.732219e-05,409.1399999997488,3.08952e-05,409.1399999997488,1.3664e-05
409.1549999997488,0.0007209773,409.1549999997488,5.419087e-05,409.1549999997488,3.061121e-05,409.1549999997488,1.324734e-05
409.16999999974877,0.0007400292,409.16999999974877,5.250731e-05,409.16999999974877,3.033152e-05,409.16999999974877,1.333319e-05
409.18499999974875,0.0007419469,409.18499999974875,5.28424e-05,409.18499999974875,3.017601e-05,409.18499999974875,1.33004e-05
409.19999999974874,0.000681308,409.19999999974874,5.345386e-05,409.19999999974874,3.005252e-05,409.19999999974874,1.290694e-05
409.2149999997487,0.0006668988,409.2149999997487,5.314781e-05,409.2149999997487,3.099172e-05,409.2149999997487,1.229775e-05
409.2299999997487,0.0006585828,409.2299999997487,5.29694e-05,409.2299999997487,3.165727e-05,409.2299999997487,1.196802e-05
409.2449999997487,0.000697739,409.2449999997487,4.423393e-05,409.2449999997487,2.926118e-05,409.2449999997487,1.167246e-05
409.2599999997487,0.0007944267,409.2599999997487,4.448448e-05,409.2599999997487,2.874048e-05,409.2599999997487,1.086492e-05
409.2749999997487,0.0007985463,409.2749999997487,4.440525e-05,409.2749999997487,2.400772e-05,409.2749999997487,1.064752e-05
409.28999999974866,0.0007258067,409.28999999974866,4.346291e-05,409.28999999974866,2.457315e-05,409.28999999974866,1.071083e-05
409.30499999974865,0.0007055722,409.30499999974865,4.283972e-05,409.30499999974865,2.299596e-05,409.30499999974865,1.002609e-05
409.31999999974863,0.0007014258,409.31999999974863,4.26707e-05,409.31999999974863,2.20784e-05,409.31999999974863,9.503884e-06
409.3349999997486,0.000665675,409.3349999997486,4.226936e-05,409.3349999997486,2.152597e-05,409.3349999997486,9.257612e-06
409.3499999997486,0.0006687486,409.3499999997486,3.790867e-05,409.3499999997486,2.155148e-05,409.3499999997486,8.682853e-06
409.3649999997486,0.0006575246,409.3649999997486,3.796771e-05,409.3649999997486,2.10033e-05,409.3649999997486,8.321666e-06
409.3799999997486,0.0007001097,409.3799999997486,3.754649e-05,409.3799999997486,1.998252e-05,409.3799999997486,8.390783e-06
409.39499999974856,0.0006965034,409.39499999974856,3.766486e-05,409.39499999974856,2.029519e-05,409.39499999974856,7.854914e-06
409.40999999974855,0.0006519067,409.40999999974855,3.457572e-05,409.40999999974855,2.062088e-05,409.40999999974855,7.373913e-06
409.42499999974854,0.0006431601,409.42499999974854,3.190637e-05,409.42499999974854,2.041008e-05,409.42499999974854,7.14888e-06
409.4399999997485,0.0006679625,409.4399999997485,2.84904e-05,409.4399999997485,2.035964e-05,409.4399999997485,6.94904e-06
409.4549999997485,0.0006991451,409.4549999997485,2.727021e-05,409.4549999997485,1.981545e-05,409.4549999997485,6.894089e-06
409.4699999997485,0.0007021453,409.4699999997485,2.786702e-05,409.4699999997485,1.595716e-05,409.4699999997485,6.791156e-06
409.4849999997485,0.0007259547,409.4849999997485,2.726452e-05,409.4849999997485,1.392744e-05,409.4849999997485,6.481242e-06
409.49999999974847,0.0007296079,409.49999999974847,2.693863e-05,409.49999999974847,1.325159e-05,409.49999999974847,6.358363e-06
409.51499999974845,0.0008837263,409.51499999974845,2.601663e-05,409.51499999974845,1.336801e-05,409.51499999974845,6.210422e-06
409.52999999974844,0.0009389653,409.52999999974844,2.526508e-05,409.52999999974844,1.248194e-05,409.52999999974844,6.091332e-06
409.5449999997484,0.0009656099,409.5449999997484,2.546666e-05,409.5449999997484,1.113259e-05,409.5449999997484,5.948592e-06
409.5599999997484,0.001281255,409.5599999997484,2.673338e-05,409.5599999997484,1.09938e-05,409.5599999997484,5.814468e-06
409.5749999997484,0.001425456,409.5749999997484,2.778095e-05,409.5749999997484,1.058515e-05,409.5749999997484,5.751133e-06
409.5899999997484,0.00145226,409.5899999997484,2.726194e-05,409.5899999997484,1.076462e-05,409.5899999997484,5.824151e-06
409.6049999997484,0.001588721,409.6049999997484,2.578494e-05,409.6049999997484,1.293093e-05,409.6049999997484,5.667242e-06
409.61999999974836,0.001804997,409.61999999974836,2.548049e-05,409.61999999974836,1.309332e-05,409.61999999974836,5.763367e-06
409.63499999974835,0.001872112,409.63499999974835,2.501179e-05,409.63499999974835,1.135435e-05,409.63499999974835,5.877121e-06
409.64999999974833,0.00212241,409.64999999974833,2.507142e-05,409.64999999974833,1.064222e-05,409.64999999974833,6.146583e-06
409.6649999997483,0.002209012,409.6649999997483,2.786297e-05,409.6649999997483,1.014621e-05,409.6649999997483,6.413511e-06
409.6799999997483,0.002222664,409.6799999997483,2.833522e-05,409.6799999997483,1.015037e-05,409.6799999997483,6.448557e-06
409.6949999997483,0.002423833,409.6949999997483,2.934099e-05,409.6949999997483,1.010447e-05,409.6949999997483,6.417902e-06
409.7099999997483,0.002656945,409.7099999997483,2.811763e-05,409.7099999997483,9.911636e-06,409.7099999997483,7.079578e-06
409.72499999974826,0.002722298,409.72499999974826,2.72986e-05,409.72499999974826,9.846043e-06,409.72499999974826,7.273898e-06
409.73999999974825,0.002786178,409.73999999974825,2.70305e-05,409.73999999974825,9.851764e-06,409.73999999974825,7.788277e-06
409.75499999974824,0.002919494,409.75499999974824,2.732852e-05,409.75499999974824,9.611476e-06,409.75499999974824,8.66011e-06
409.7699999997482,0.002913887,409.7699999997482,2.948323e-05,409.7699999997482,9.592404e-06,409.7699999997482,8.913411e-06
409.7849999997482,0.00294273,409.7849999997482,2.956578e-05,409.7849999997482,9.642205e-06,409.7849999997482,8.837226e-06
409.7999999997482,0.003133483,409.7999999997482,2.815017e-05,409.7999999997482,9.68448e-06,409.7999999997482,9.242383e-06
409.8149999997482,0.003064571,409.8149999997482,2.687738e-05,409.8149999997482,9.697562e-06,409.8149999997482,9.561515e-06
409.82999999974817,0.003074432,409.82999999974817,2.605397e-05,409.82999999974817,9.823125e-06,409.82999999974817,9.645126e-06
409.84499999974815,0.003312055,409.84499999974815,2.683016e-05,409.84499999974815,9.741042e-06,409.84499999974815,1.049024e-05
409.85999999974814,0.003264933,409.85999999974814,2.707476e-05,409.85999999974814,5.294573e-06,409.85999999974814,1.073842e-05
409.8749999997481,0.003230634,409.8749999997481,2.690933e-05,409.8749999997481,4.856038e-06,409.8749999997481,1.085584e-05
409.8899999997481,0.003316097,409.8899999997481,2.719106e-05,409.8899999997481,4.873412e-06,409.8899999997481,1.161682e-05
409.9049999997481,0.003214989,409.9049999997481,2.702216e-05,409.9049999997481,6.515924e-06,409.9049999997481,1.201149e-05
409.9199999997481,0.003219698,409.9199999997481,2.630418e-05,409.9199999997481,6.561167e-06,409.9199999997481,1.244577e-05
409.9349999997481,0.003256435,409.9349999997481,2.717033e-05,409.9349999997481,6.692956e-06,409.9349999997481,1.263114e-05
409.94999999974806,0.003106057,409.94999999974806,2.778754e-05,409.94999999974806,7.081567e-06,409.94999999974806,1.338591e-05
409.96499999974804,0.002882736,409.96499999974804,2.851462e-05,409.96499999974804,7.29903e-06,409.96499999974804,1.284239e-05
409.97999999974803,0.002849859,409.97999999974803,2.892418e-05,409.97999999974803,7.634834e-06,409.97999999974803,1.307394e-05
409.994999999748,0.002771327,409.994999999748,3.037236e-05,409.994999999748,7.917432e-06,409.994999999748,1.271451e-05
410.009999999748,0.002656288,410.009999999748,2.989837e-05,410.009999999748,8.336888e-06,410.009999999748,1.255732e-05
410.024999999748,0.00260136,410.024999999748,2.872479e-05,410.024999999748,8.367247e-06,410.024999999748,1.275986e-05
410.039999999748,0.002527879,410.039999999748,2.95367e-05,410.039999999748,8.355453e-06,410.039999999748,1.263114e-05
410.05499999974796,0.00226834,410.05499999974796,3.040203e-05,410.05499999974796,8.932356e-06,410.05499999974796,1.2518e-05
410.06999999974795,0.002219214,410.06999999974795,3.368003e-05,410.06999999974795,9.251524e-06,410.06999999974795,1.212471e-05
410.08499999974794,0.002095421,410.08499999974794,3.881493e-05,410.08499999974794,8.914992e-06,410.08499999974794,1.221846e-05
410.0999999997479,0.001696915,410.0999999997479,3.97746e-05,410.0999999997479,9.127357e-06,410.0999999997479,1.146792e-05
410.1149999997479,0.001659051,410.1149999997479,4.034532e-05,410.1149999997479,9.380055e-06,410.1149999997479,1.174465e-05
410.1299999997479,0.001499981,410.1299999997479,4.327582e-05,410.1299999997479,9.605612e-06,410.1299999997479,1.171342e-05
410.1449999997479,0.001149602,410.1449999997479,4.774595e-05,410.1449999997479,9.172005e-06,410.1449999997479,1.090116e-05
410.15999999974787,0.001075735,410.15999999974787,5.381132e-05,410.15999999974787,9.040516e-06,410.15999999974787,1.078554e-05
410.17499999974785,0.0008730962,410.17499999974785,5.374296e-05,410.17499999974785,9.026482e-06,410.17499999974785,1.044449e-05
410.18999999974784,0.0007578227,410.18999999974784,5.752456e-05,410.18999999974784,8.952834e-06,410.18999999974784,1.075022e-05
410.2049999997478,0.0007480661,410.2049999997478,6.518453e-05,410.2049999997478,8.707154e-06,410.2049999997478,1.069636e-05
410.2199999997478,0.000749998,410.2199999997478,6.644011e-05,410.2199999997478,8.505834e-06,410.2199999997478,1.079598e-05
410.2349999997478,0.0007793765,410.2349999997478,6.761346e-05,410.2349999997478,8.326743e-06,410.2349999997478,1.0625e-05
410.2499999997478,0.0007105726,410.2499999997478,6.998549e-05,410.2499999997478,8.25709e-06,410.2499999997478,1.068977e-05
410.2649999997478,0.000626957,410.2649999997478,7.310022e-05,410.2649999997478,7.815361e-06,410.2649999997478,1.094114e-05
410.27999999974776,0.0006151645,410.27999999974776,7.733644e-05,410.27999999974776,7.693649e-06,410.27999999974776,1.081944e-05
410.29499999974774,0.0006145895,410.29499999974774,8.011527e-05,410.29499999974774,7.515824e-06,410.29499999974774,1.100661e-05
410.30999999974773,0.0006242949,410.30999999974773,8.329331e-05,410.30999999974773,6.726546e-06,410.30999999974773,1.101301e-05
410.3249999997477,0.0006393503,410.3249999997477,8.280209e-05,410.3249999997477,6.271365e-06,410.3249999997477,1.129589e-05
410.3399999997477,0.0006690794,410.3399999997477,8.299343e-05,410.3399999997477,6.275856e-06,410.3399999997477,1.11604e-05
410.3549999997477,0.0006819944,410.3549999997477,8.512836e-05,410.3549999997477,5.972226e-06,410.3549999997477,1.136055e-05
410.3699999997477,0.0006704365,410.3699999997477,8.675046e-05,410.3699999997477,6.356147e-06,410.3699999997477,1.147038e-05
410.38499999974766,0.0006644561,410.38499999974766,8.835824e-05,410.38499999974766,6.302733e-06,410.38499999974766,1.105259e-05
410.39999999974765,0.00067492,410.39999999974765,8.684248e-05,410.39999999974765,6.068162e-06,410.39999999974765,1.119317e-05
410.41499999974764,0.0006425384,410.41499999974764,8.502969e-05,410.41499999974764,6.007502e-06,410.41499999974764,1.117301e-05
410.4299999997476,0.0006158167,410.4299999997476,8.385308e-05,410.4299999997476,6.016875e-06,410.4299999997476,1.141868e-05
410.4449999997476,0.000622768,410.4449999997476,8.2679e-05,410.4449999997476,5.896265e-06,410.4449999997476,1.1207e-05
410.4599999997476,0.000691616,410.4599999997476,7.854968e-05,410.4599999997476,5.8867e-06,410.4599999997476,1.175903e-05
410.4749999997476,0.000681245,410.4749999997476,7.780333e-05,410.4749999997476,6.189974e-06,410.4749999997476,1.181401e-05
410.48999999974757,0.0006622275,410.48999999974757,7.885038e-05,410.48999999974757,7.590424e-06,410.48999999974757,1.201149e-05
410.50499999974755,0.0006775975,410.50499999974755,7.839566e-05,410.50499999974755,7.802733e-06,410.50499999974755,1.185805e-05
410.51999999974754,0.0007128457,410.51999999974754,7.745202e-05,410.51999999974754,7.845942e-06,410.51999999974754,1.210029e-05
410.5349999997475,0.000729462,410.5349999997475,7.460422e-05,410.5349999997475,7.835162e-06,410.5349999997475,1.208281e-05
410.5499999997475,0.0007190499,410.5499999997475,7.231536e-05,410.5499999997475,8.666614e-06,410.5499999997475,1.221154e-05
410.5649999997475,0.0007157888,410.5649999997475,7.085783e-05,410.5649999997475,1.437244e-05,410.5649999997475,1.212704e-05
410.5799999997475,0.0008945688,410.5799999997475,6.966168e-05,410.5799999997475,1.468657e-05,410.5799999997475,1.200562e-05
410.5949999997475,0.0009100907,410.5949999997475,6.812984e-05,410.5949999997475,1.701415e-05,410.5949999997475,1.206064e-05
410.60999999974746,0.0009229379,410.60999999974746,6.643756e-05,410.60999999974746,1.71494e-05,410.60999999974746,1.24503e-05
410.62499999974744,0.0009678659,410.62499999974744,6.830041e-05,410.62499999974744,1.736084e-05,410.62499999974744,1.207582e-05
410.63999999974743,0.001129713,410.63999999974743,6.555432e-05,410.63999999974743,1.734623e-05,410.63999999974743,1.220461e-05
410.6549999997474,0.001176278,410.6549999997474,6.471627e-05,410.6549999997474,1.78205e-05,410.6549999997474,1.201383e-05
410.6699999997474,0.001207837,410.6699999997474,6.263566e-05,410.6699999997474,1.912229e-05,410.6699999997474,1.180805e-05
410.6849999997474,0.001315893,410.6849999997474,6.254609e-05,410.6849999997474,1.914144e-05,410.6849999997474,1.17038e-05
410.6999999997474,0.001395838,410.6999999997474,6.422575e-05,410.6999999997474,1.914217e-05,410.6999999997474,1.093599e-05
410.71499999974736,0.001390508,410.71499999974736,6.472303e-05,410.71499999974736,1.909649e-05,410.71499999974736,1.085584e-05
410.72999999974735,0.001382892,410.72999999974735,6.538735e-05,410.72999999974735,1.844739e-05,410.72999999974735,1.146178e-05
410.74499999974734,0.00140383,410.74499999974734,6.261519e-05,410.74499999974734,1.836627e-05,410.74499999974734,1.192202e-05
410.7599999997473,0.001399099,410.7599999997473,6.098774e-05,410.7599999997473,1.831173e-05,410.7599999997473,1.196448e-05
410.7749999997473,0.00137822,410.7749999997473,5.752798e-05,410.7749999997473,1.834631e-05,410.7749999997473,1.163015e-05
410.7899999997473,0.001353604,410.7899999997473,5.733249e-05,410.7899999997473,1.993241e-05,410.7899999997473,1.161439e-05
410.8049999997473,0.001358689,410.8049999997473,5.764516e-05,410.8049999997473,1.693365e-05,410.8049999997473,1.156456e-05
410.81999999974727,0.001402001,410.81999999974727,5.953942e-05,410.81999999974727,1.593861e-05,410.81999999974727,1.17038e-05
410.83499999974725,0.001363702,410.83499999974725,5.8839e-05,410.83499999974725,1.513438e-05,410.83499999974725,1.166522e-05
410.84999999974724,0.001353416,410.84999999974724,5.967011e-05,410.84999999974724,1.299071e-05,410.84999999974724,1.144456e-05
410.8649999997472,0.001332558,410.8649999997472,5.39397e-05,410.8649999997472,1.284129e-05,410.8649999997472,1.150104e-05
410.8799999997472,0.001308615,410.8799999997472,5.37385e-05,410.8799999997472,1.218035e-05,410.8799999997472,1.141251e-05
410.8949999997472,0.001161254,410.8949999997472,5.417606e-05,410.8949999997472,1.205363e-05,410.8949999997472,1.132827e-05
410.9099999997472,0.001134231,410.9099999997472,5.511439e-05,410.9099999997472,8.864284e-06,410.9099999997472,1.145071e-05
410.9249999997472,0.0010891,410.9249999997472,5.476774e-05,410.9249999997472,8.856334e-06,410.9249999997472,1.143717e-05
410.93999999974716,0.0009299604,410.93999999974716,5.329022e-05,410.93999999974716,8.818078e-06,410.93999999974716,1.132205e-05
410.95499999974714,0.0007974989,410.95499999974714,4.830385e-05,410.95499999974714,8.813284e-06,410.95499999974714,1.108568e-05
410.96999999974713,0.0007769098,410.96999999974713,4.716624e-05,410.96999999974713,8.800488e-06,410.96999999974713,1.033194e-05
410.9849999997471,0.0007821993,410.9849999997471,4.59625e-05,410.9849999997471,8.787673e-06,410.9849999997471,9.49202e-06
410.9999999997471,0.0007473095,410.9999999997471,4.640994e-05,410.9999999997471,8.78607e-06,410.9999999997471,8.914992e-06
411.0149999997471,0.0007482328,411.0149999997471,4.546143e-05,411.0149999997471,8.718472e-06,411.0149999997471,9.330365e-06
411.0299999997471,0.0007311725,411.0299999997471,4.534571e-05,411.0299999997471,8.59316e-06,411.0299999997471,9.333384e-06
411.04499999974706,0.0007221469,411.04499999974706,4.412839e-05,411.04499999974706,3.756974e-06,411.04499999974706,9.824559e-06
411.05999999974705,0.0006858899,411.05999999974705,4.19566e-05,411.05999999974705,3.623367e-06,411.05999999974705,9.667009e-06
411.07499999974704,0.0005281228,411.07499999974704,3.885628e-05,411.07499999974704,3.11314e-06,411.07499999974704,9.589467e-06
411.089999999747,0.0003978652,411.089999999747,3.794135e-05,411.089999999747,3.219907e-06,411.089999999747,9.567407e-06
411.104999999747,0.0004134445,411.104999999747,3.723719e-05,411.104999999747,3.206755e-06,411.104999999747,8.849969e-06
411.119999999747,0.000445462,411.119999999747,3.711518e-05,411.119999999747,3.171418e-06,411.119999999747,8.926046e-06
411.134999999747,0.000414881,411.134999999747,3.4932e-05,411.134999999747,3.153601e-06,411.134999999747,8.990517e-06
411.14999999974697,0.0003408089,411.14999999974697,3.464288e-05,411.14999999974697,2.878015e-06,411.14999999974697,8.938661e-06
411.16499999974695,0.0003361331,411.16499999974695,3.347698e-05,411.16499999974695,2.848496e-06,411.16499999974695,8.806888e-06
411.17999999974694,0.0003425882,411.17999999974694,3.329978e-05,411.17999999974694,2.921734e-06,411.17999999974694,8.622616e-06
411.1949999997469,0.0003377084,411.1949999997469,3.321761e-05,411.1949999997469,2.940956e-06,411.1949999997469,8.5866e-06
411.2099999997469,0.0003387008,411.2099999997469,3.524954e-05,411.2099999997469,2.95052e-06,411.2099999997469,8.591521e-06
411.2249999997469,0.0003463071,411.2249999997469,3.440991e-05,411.2249999997469,3.025945e-06,411.2249999997469,8.454338e-06
411.2399999997469,0.0003508776,411.2399999997469,3.406554e-05,411.2399999997469,3.021286e-06,411.2399999997469,8.770023e-06
411.2549999997469,0.0003542132,411.2549999997469,3.316414e-05,411.2549999997469,3.122176e-06,411.2549999997469,8.710389e-06
411.26999999974686,0.000364557,411.26999999974686,3.308674e-05,411.26999999974686,3.094987e-06,411.26999999974686,8.601352e-06
411.28499999974684,0.000390693,411.28499999974684,3.220957e-05,411.28499999974684,2.979029e-06,411.28499999974684,8.174792e-06
411.29999999974683,0.0003874647,411.29999999974683,3.077963e-05,411.29999999974683,2.983753e-06,411.29999999974683,7.71559e-06
411.3149999997468,0.0004046168,411.3149999997468,3.110876e-05,411.3149999997468,3.007266e-06,411.3149999997468,7.982992e-06
411.3299999997468,0.0004067777,411.3299999997468,3.0567e-05,411.3299999997468,3.072146e-06,411.3299999997468,7.93343e-06
411.3449999997468,0.0003898916,411.3449999997468,3.013443e-05,411.3449999997468,2.993181e-06,411.3449999997468,8.114256e-06
411.3599999997468,0.0003736621,411.3599999997468,2.940717e-05,411.3599999997468,2.974296e-06,411.3599999997468,8.068993e-06
411.37499999974676,0.0003404714,411.37499999974676,2.859995e-05,411.37499999974676,2.974296e-06,411.37499999974676,8.02874e-06
411.38999999974675,0.0003404352,411.38999999974675,2.791601e-05,411.38999999974675,3.011947e-06,411.38999999974675,7.824367e-06
411.40499999974674,0.0003312488,411.40499999974674,2.721074e-05,411.40499999974674,2.983753e-06,411.40499999974674,8.195444e-06
411.4199999997467,0.0003335127,411.4199999997467,2.946077e-05,411.4199999997467,2.988471e-06,411.4199999997467,8.308113e-06
411.4349999997467,0.0003280028,411.4349999997467,3.128036e-05,411.4349999997467,2.902385e-06,411.4349999997467,8.114256e-06
411.4499999997467,0.0003263116,411.4499999997467,2.84622e-05,411.4499999997467,2.887788e-06,411.4499999997467,7.97063e-06
411.4649999997467,0.0003200319,411.4649999997467,2.82411e-05,411.4649999997467,2.887788e-06,411.4649999997467,7.995334e-06
411.47999999974667,0.0003477785,411.47999999974667,2.813015e-05,411.47999999974667,2.897527e-06,411.47999999974667,7.773794e-06
411.49499999974665,0.0003503686,411.49499999974665,2.851462e-05,411.49499999974665,2.878015e-06,411.49499999974665,7.706456e-06
411.50999999974664,0.0003686135,411.50999999974664,2.851906e-05,411.50999999974664,2.882905e-06,411.50999999974664,7.603404e-06
411.5249999997466,0.0003480217,411.5249999997466,2.779464e-05,411.5249999997466,2.921734e-06,411.5249999997466,7.487657e-06
411.5399999997466,0.0003310484,411.5399999997466,2.714543e-05,411.5399999997466,2.960054e-06,411.5399999997466,7.270023e-06
411.5549999997466,0.0003357561,411.5549999997466,2.763963e-05,411.5549999997466,2.979029e-06,411.5549999997466,7.466933e-06
411.5699999997466,0.0003252256,411.5699999997466,2.658172e-05,411.5699999997466,3.090432e-06,411.5699999997466,7.258388e-06
411.58499999974657,0.0003205066,411.58499999974657,2.71096e-05,411.58499999974657,3.007266e-06,411.58499999974657,7.031661e-06
411.59999999974656,0.000327141,411.59999999974656,2.653505e-05,411.59999999974656,2.964809e-06,411.59999999974656,6.892046e-06
411.61499999974654,0.0003240123,411.61499999974654,2.668909e-05,411.61499999974654,2.979029e-06,411.61499999974654,6.799448e-06
411.62999999974653,0.0003285406,411.62999999974653,2.615918e-05,411.62999999974653,2.912075e-06,411.62999999974653,6.914493e-06
411.6449999997465,0.0003252878,411.6449999997465,2.597708e-05,411.6449999997465,2.907234e-06,411.6449999997465,6.983416e-06
411.6599999997465,0.000322169,411.6599999997465,2.366258e-05,411.6599999997465,2.95052e-06,411.6599999997465,6.485587e-06
411.6749999997465,0.0003205622,411.6749999997465,2.149519e-05,411.6749999997465,2.892662e-06,411.6749999997465,6.50294e-06
411.6899999997465,0.0003168842,411.6899999997465,2.022009e-05,411.6899999997465,2.882905e-06,411.6899999997465,6.457289e-06
411.70499999974646,0.0003194672,411.70499999974646,2.053668e-05,411.70499999974646,2.863294e-06,411.70499999974646,6.406918e-06
411.71999999974645,0.0003267043,411.71999999974645,1.987012e-05,411.71999999974645,2.858369e-06,411.71999999974645,6.329497e-06
411.73499999974644,0.0002859114,411.73499999974644,2.130826e-05,411.73499999974644,2.907234e-06,411.73499999974644,6.400318e-06
411.7499999997464,0.0002805235,411.7499999997464,2.09166e-05,411.7499999997464,2.974296e-06,411.7499999997464,6.393712e-06
411.7649999997464,0.0002427748,411.7649999997464,2.045558e-05,411.7649999997464,2.979029e-06,411.7649999997464,6.287069e-06
411.7799999997464,0.000216215,411.7799999997464,2.12871e-05,411.7799999997464,2.983753e-06,411.7799999997464,6.217223e-06
411.7949999997464,0.0002169212,411.7949999997464,2.132941e-05,411.7949999997464,2.936162e-06,411.7949999997464,6.500773e-06
411.80999999974637,0.000213303,411.80999999974637,2.084374e-05,411.80999999974637,2.873116e-06,411.80999999974637,6.06584e-06
411.82499999974635,0.0002168952,411.82499999974635,2.008658e-05,411.82499999974635,2.818668e-06,411.82499999974635,6.102884e-06
411.83999999974634,0.0002167752,411.83999999974634,2.001281e-05,411.83999999974634,2.803635e-06,411.83999999974634,6.144291e-06
411.8549999997463,0.0002258128,411.8549999997463,2.033956e-05,411.8549999997463,2.793568e-06,411.8549999997463,6.030905e-06
411.8699999997463,0.0002276746,411.8699999997463,1.991261e-05,411.8699999997463,2.868209e-06,411.8699999997463,5.896265e-06
411.8849999997463,0.0002213347,411.8849999997463,1.997124e-05,411.8849999997463,2.897527e-06,411.8849999997463,5.802342e-06
411.8999999997463,0.0002336169,411.8999999997463,1.975708e-05,411.8999999997463,2.833621e-06,411.8999999997463,5.696992e-06
411.91499999974627,0.000238779,411.91499999974627,1.991261e-05,411.91499999974627,2.907234e-06,411.91499999974627,5.619817e-06
411.92999999974626,0.0002515101,411.92999999974626,2.00964e-05,411.92999999974626,2.921734e-06,411.92999999974626,5.61731e-06
411.94499999974624,0.0002455172,411.94499999974624,2.011251e-05,411.94499999974624,2.926552e-06,411.94499999974624,5.592176e-06
411.95999999974623,0.0002432279,411.95999999974623,2.01915e-05,411.95999999974623,2.912075e-06,411.95999999974623,5.587136e-06
411.9749999997462,0.0002238051,411.9749999997462,1.985239e-05,411.9749999997462,2.833621e-06,411.9749999997462,5.589657e-06
411.9899999997462,0.0002231187,411.9899999997462,1.83839e-05,411.9899999997462,2.793568e-06,411.9899999997462,5.498184e-06
412.0049999997462,0.0002211401,412.0049999997462,1.907583e-05,412.0049999997462,2.808655e-06,412.0049999997462,5.368553e-06
412.0199999997462,0.0002238757,412.0199999997462,1.946328e-05,412.0199999997462,2.727227e-06,412.0199999997462,5.444114e-06
412.03499999974616,0.0002251848,412.03499999974616,1.962042e-05,412.03499999974616,2.783465e-06,412.03499999974616,5.208738e-06
412.04999999974615,0.0002253798,412.04999999974615,1.958809e-05,412.04999999974615,2.727227e-06,412.04999999974615,5.099414e-06
412.06499999974614,0.0002226434,412.06499999974614,2.041077e-05,412.06499999974614,2.621889e-06,412.06499999974614,5.503306e-06
412.0799999997461,0.0002245595,412.0799999997461,2.166166e-05,412.0799999997461,2.632612e-06,412.0799999997461,5.714275e-06
412.0949999997461,0.0002253475,412.0949999997461,2.163107e-05,412.0949999997461,2.664524e-06,412.0949999997461,5.773135e-06
412.1099999997461,0.0002065739,412.1099999997461,2.156193e-05,412.1099999997461,2.648616e-06,412.1099999997461,5.824151e-06
412.1249999997461,0.0002051583,412.1249999997461,2.187971e-05,412.1249999997461,2.57308e-06,412.1249999997461,5.753582e-06
412.13999999974607,0.0002159504,412.13999999974607,2.300453e-05,412.13999999974607,2.551088e-06,412.13999999974607,6.06584e-06
412.15499999974605,0.000207783,412.15499999974605,2.378726e-05,412.15499999974605,2.500897e-06,412.15499999974605,6.028569e-06
412.16999999974604,0.0001926574,412.16999999974604,2.376771e-05,412.16999999974604,2.483942e-06,412.16999999974604,6.158032e-06
412.184999999746,0.0001879789,412.184999999746,2.393368e-05,412.184999999746,2.483942e-06,412.184999999746,6.255622e-06
412.199999999746,0.0001888317,412.199999999746,2.378371e-05,412.199999999746,2.40909e-06,412.199999999746,6.360578e-06
412.214999999746,0.0001906151,412.214999999746,2.378134e-05,412.214999999746,2.443922e-06,412.214999999746,6.189974e-06
412.229999999746,0.0001903048,412.229999999746,2.422559e-05,412.229999999746,2.397367e-06,412.229999999746,6.153455e-06
412.24499999974597,0.0001906803,412.24499999974597,2.399246e-05,412.24499999974597,2.403235e-06,412.24499999974597,6.19907e-06
412.25999999974596,0.0001888761,412.25999999974596,2.379437e-05,412.25999999974596,2.391484e-06,412.25999999974596,6.304968e-06
412.27499999974594,0.000186014,412.27499999974594,2.399246e-05,412.27499999974594,2.461153e-06,412.27499999974594,6.287069e-06
412.28999999974593,0.0001812776,412.28999999974593,2.470009e-05,412.28999999974593,2.449679e-06,412.28999999974593,6.271365e-06
412.3049999997459,0.0001766,412.3049999997459,2.479287e-05,412.3049999997459,2.523327e-06,412.3049999997459,6.132817e-06
412.3199999997459,0.000172518,412.3199999997459,2.27589e-05,412.3199999997459,2.506524e-06,412.3199999997459,5.927241e-06
412.3349999997459,0.000187075,412.3349999997459,2.279044e-05,412.3349999997459,2.54556e-06,412.3349999997459,5.814468e-06
412.3499999997459,0.0001841976,412.3499999997459,2.385763e-05,412.3499999997459,2.589452e-06,412.3499999997459,5.770695e-06
412.36499999974586,0.0001841194,412.36499999974586,2.34959e-05,412.36499999974586,2.578549e-06,412.36499999974586,5.795054e-06
412.37999999974585,0.0001838055,412.37999999974585,2.301004e-05,412.37999999974585,2.659232e-06,412.37999999974585,5.981653e-06
412.39499999974583,0.0001634485,412.39499999974583,2.203369e-05,412.39499999974583,2.669806e-06,412.39499999974583,5.770695e-06
412.4099999997458,0.0001572458,412.4099999997458,2.143679e-05,412.4099999997458,2.685588e-06,412.4099999997458,5.848288e-06
412.4249999997458,0.0001609467,412.4249999997458,2.130892e-05,412.4249999997458,2.653929e-06,412.4249999997458,5.741327e-06
412.4399999997458,0.0001678981,412.4399999997458,2.065228e-05,412.4399999997458,2.632612e-06,412.4399999997458,5.659781e-06
412.4549999997458,0.0001766387,412.4549999997458,2.102542e-05,412.4549999997458,2.653929e-06,412.4549999997458,5.941484e-06
412.46999999974577,0.0001732072,412.46999999974577,2.178034e-05,412.46999999974577,2.701278e-06,412.46999999974577,5.884307e-06
412.48499999974575,0.0001752885,412.48499999974575,2.216945e-05,412.48499999974575,2.696058e-06,412.48499999974575,6.089019e-06
412.49999999974574,0.0001848508,412.49999999974574,2.352166e-05,412.49999999974574,2.690828e-06,412.49999999974574,5.965146e-06
412.5149999997457,0.0001863077,412.5149999997457,2.354022e-05,412.5149999997457,2.627256e-06,412.5149999997457,5.984008e-06
412.5299999997457,0.000185803,412.5299999997457,2.331051e-05,412.5299999997457,2.57308e-06,412.5299999997457,6.049562e-06
412.5449999997457,0.0001889446,412.5449999997457,2.209179e-05,412.5449999997457,2.578549e-06,412.5449999997457,6.044903e-06
412.5599999997457,0.0001894161,412.5599999997457,2.237437e-05,412.5599999997457,2.562108e-06,412.5599999997457,6.091332e-06
412.57499999974567,0.0001819243,412.57499999974567,2.325969e-05,412.57499999974567,2.5676e-06,412.57499999974567,6.275856e-06
412.58999999974566,0.0001766107,412.58999999974566,2.325727e-05,412.58999999974566,2.534468e-06,412.58999999974566,6.296025e-06
412.60499999974564,0.0001784953,412.60499999974564,2.355338e-05,412.60499999974564,2.472574e-06,412.60499999974564,6.280343e-06
412.61999999974563,0.000177384,412.61999999974563,2.373391e-05,412.61999999974563,2.54556e-06,412.61999999974563,6.217223e-06
412.6349999997456,0.0001781464,412.6349999997456,2.359521e-05,412.6349999997456,2.517739e-06,412.6349999997456,6.116717e-06
412.6499999997456,0.0001810482,412.6499999997456,2.355278e-05,412.6499999997456,2.478264e-06,412.6499999997456,6.13052e-06
412.6649999997456,0.0001852936,412.6649999997456,2.387416e-05,412.6649999997456,2.528904e-06,412.6649999997456,6.137409e-06
412.6799999997456,0.0001866542,412.6799999997456,2.390011e-05,412.6799999997456,2.551088e-06,412.6799999997456,6.148874e-06
412.69499999974556,0.000183345,412.69499999974556,2.390305e-05,412.69499999974556,2.578549e-06,412.69499999974556,6.05887e-06
412.70999999974555,0.0001767648,412.70999999974555,2.289528e-05,412.70999999974555,2.495258e-06,412.70999999974555,5.891484e-06
412.72499999974553,0.0001792193,412.72499999974553,2.269257e-05,412.72499999974553,2.506524e-06,412.72499999974553,6.000464e-06
412.7399999997455,0.0001709146,412.7399999997455,2.12447e-05,412.7399999997455,2.483942e-06,412.7399999997455,5.988714e-06
412.7549999997455,0.0001808575,412.7549999997455,2.061131e-05,412.7549999997455,2.512137e-06,412.7549999997455,5.924864e-06
412.7699999997455,0.0001925954,412.7699999997455,2.065228e-05,412.7699999997455,2.523327e-06,412.7699999997455,6.16489e-06
412.7849999997455,0.0001911556,412.7849999997455,2.095764e-05,412.7849999997455,2.517739e-06,412.7849999997455,6.273611e-06
412.79999999974547,0.000187864,412.79999999974547,2.170908e-05,412.79999999974547,2.534468e-06,412.79999999974547,6.580461e-06
412.81499999974545,0.0001923024,412.81499999974545,2.14519e-05,412.81499999974545,2.556603e-06,412.81499999974545,6.413511e-06
412.82999999974544,0.0001914371,412.82999999974544,2.054971e-05,412.82999999974544,2.512137e-06,412.82999999974544,6.298262e-06
412.8449999997454,0.00018955,412.8449999997454,2.106491e-05,412.8449999997454,2.54556e-06,412.8449999997454,6.409116e-06
412.8599999997454,0.0001829251,412.8599999997454,2.162391e-05,412.8599999997454,2.5676e-06,412.8599999997454,6.351713e-06
412.8749999997454,0.0001838879,412.8749999997454,2.139798e-05,412.8749999997454,2.578549e-06,412.8749999997454,6.351713e-06
412.8899999997454,0.0001765253,412.8899999997454,2.134855e-05,412.8899999997454,2.551088e-06,412.8899999997454,6.203613e-06
412.90499999974537,0.0001780699,412.90499999974537,2.156455e-05,412.90499999974537,2.711688e-06,412.90499999974537,6.162605e-06
412.91999999974536,0.0001832313,412.91999999974536,2.165971e-05,412.91999999974536,2.742679e-06,412.91999999974536,6.095956e-06
412.93499999974534,0.0001820836,412.93499999974534,2.221959e-05,412.93499999974534,2.813666e-06,412.93499999974534,6.266871e-06
412.94999999974533,0.0001768289,412.94999999974533,2.216119e-05,412.94999999974533,2.778399e-06,412.94999999974533,6.360578e-06
412.9649999997453,0.0001763261,412.9649999997453,2.262481e-05,412.9649999997453,2.778399e-06,412.9649999997453,6.302733e-06
412.9799999997453,0.0001733467,412.9799999997453,2.243599e-05,412.9799999997453,2.763147e-06,412.9799999997453,6.307202e-06
412.9949999997453,0.0001769781,412.9949999997453,2.257993e-05,412.9949999997453,2.778399e-06,412.9949999997453,6.367219e-06
413.0099999997453,0.0001561668,413.0099999997453,2.30663e-05,413.0099999997453,2.868209e-06,413.0099999997453,6.373853e-06
413.02499999974526,0.0001545087,413.02499999974526,2.28312e-05,413.02499999974526,2.853437e-06,413.02499999974526,6.019215e-06
413.03999999974525,0.0001628035,413.03999999974525,2.276323e-05,413.03999999974525,2.873116e-06,413.03999999974525,5.748683e-06
413.05499999974523,0.0001705495,413.05499999974523,2.185523e-05,413.05499999974523,2.783465e-06,413.05499999974523,5.814468e-06
413.0699999997452,0.0001723894,413.0699999997452,2.165515e-05,413.0699999997452,2.803635e-06,413.0699999997452,5.838645e-06
413.0849999997452,0.0001702601,413.0849999997452,2.086873e-05,413.0849999997452,2.843547e-06,413.0849999997452,5.948592e-06
413.0999999997452,0.0001735056,413.0999999997452,1.936314e-05,413.0999999997452,2.858369e-06,413.0999999997452,5.910582e-06
413.1149999997452,0.0001760916,413.1149999997452,1.929682e-05,413.1149999997452,2.838588e-06,413.1149999997452,5.896265e-06
413.12999999974517,0.0001733449,413.12999999974517,2.013352e-05,413.12999999974517,2.878015e-06,413.12999999974517,6.019215e-06
413.14499999974515,0.0001732321,413.14499999974515,2.062429e-05,413.14499999974515,2.955291e-06,413.14499999974515,5.955692e-06
413.15999999974514,0.0001751971,413.15999999974514,2.063522e-05,413.15999999974514,2.706488e-06,413.15999999974514,6.014533e-06
413.1749999997451,0.0001623852,413.1749999997451,2.003673e-05,413.1749999997451,2.768241e-06,413.1749999997451,5.981653e-06
413.1899999997451,0.0001636778,413.1899999997451,1.948498e-05,413.1899999997451,2.722057e-06,413.1899999997451,5.905813e-06
413.2049999997451,0.0001704798,413.2049999997451,1.923321e-05,413.2049999997451,2.711688e-06,413.2049999997451,5.857914e-06
413.2199999997451,0.0001748996,413.2199999997451,1.801782e-05,413.2199999997451,2.732388e-06,413.2199999997451,5.867525e-06
413.23499999974507,0.0001732545,413.23499999974507,1.882308e-05,413.23499999974507,2.758045e-06,413.23499999974507,5.831403e-06
413.24999999974506,0.0001747612,413.24999999974506,1.830634e-05,413.24999999974506,2.752932e-06,413.24999999974506,5.953326e-06
413.26499999974504,0.000168957,413.26499999974504,1.878412e-05,413.26499999974504,2.742679e-06,413.26499999974504,6.075122e-06
413.27999999974503,0.0001708656,413.27999999974503,1.832557e-05,413.27999999974503,2.732388e-06,413.27999999974503,6.105191e-06
413.294999999745,0.0001681701,413.294999999745,1.848248e-05,413.294999999745,2.711688e-06,413.294999999745,6.021555e-06
413.309999999745,0.0001507703,413.309999999745,1.821609e-05,413.309999999745,2.793568e-06,413.309999999745,5.958057e-06
413.324999999745,0.0001511148,413.324999999745,1.882308e-05,413.324999999745,2.783465e-06,413.324999999745,5.780451e-06
413.339999999745,0.0001465444,413.339999999745,2.127518e-05,413.339999999745,2.768241e-06,413.339999999745,5.812045e-06
413.35499999974496,0.0001474826,413.35499999974496,2.245858e-05,413.35499999974496,2.858369e-06,413.35499999974496,5.765811e-06
413.36999999974495,0.0001456425,413.36999999974495,2.264472e-05,413.36999999974495,2.853437e-06,413.36999999974495,5.785323e-06
413.38499999974493,0.0001486774,413.38499999974493,2.202282e-05,413.38499999974493,2.848496e-06,413.38499999974493,5.694519e-06
413.3999999997449,0.0001550139,413.3999999997449,2.157238e-05,413.3999999997449,2.798606e-06,413.3999999997449,5.814468e-06
413.4149999997449,0.0001619517,413.4149999997449,2.123542e-05,413.4149999997449,2.803635e-06,413.4149999997449,5.738873e-06
413.4299999997449,0.0001681195,413.4299999997449,2.155409e-05,413.4299999997449,2.798606e-06,413.4299999997449,6.068162e-06
413.4449999997449,0.000172778,413.4449999997449,2.170908e-05,413.4449999997449,2.873116e-06,413.4449999997449,5.927241e-06
413.45999999974487,0.0001725177,413.45999999974487,2.180684e-05,413.45999999974487,2.868209e-06,413.45999999974487,6.208153e-06
413.47499999974485,0.0001669044,413.47499999974485,2.171492e-05,413.47499999974485,2.902385e-06,413.47499999974485,6.42229e-06
413.48999999974484,0.0001678638,413.48999999974484,2.176028e-05,413.48999999974484,2.902385e-06,413.48999999974484,6.309435e-06
413.5049999997448,0.0001730229,413.5049999997448,2.163107e-05,413.5049999997448,2.843547e-06,413.5049999997448,6.160319e-06
413.5199999997448,0.0001774891,413.5199999997448,2.111367e-05,413.5199999997448,2.808655e-06,413.5199999997448,6.109804e-06
413.5349999997448,0.0001737583,413.5349999997448,2.178616e-05,413.5349999997448,2.897527e-06,413.5349999997448,6.054217e-06
413.5499999997448,0.0001715455,413.5499999997448,2.279971e-05,413.5499999997448,2.945742e-06,413.5499999997448,6.146583e-06
413.56499999974477,0.000184428,413.56499999974477,2.282318e-05,413.56499999974477,3.035241e-06,413.56499999974477,6.042573e-06
413.57999999974476,0.0001846062,413.57999999974476,2.154625e-05,413.57999999974476,3.049133e-06,413.57999999974476,5.939112e-06
413.59499999974474,0.0001829232,413.59499999974474,2.027227e-05,413.59499999974474,2.926552e-06,413.59499999974474,5.896265e-06
413.60999999974473,0.0001853389,413.60999999974473,1.873005e-05,413.60999999974473,2.960054e-06,413.60999999974473,5.910582e-06
413.6249999997447,0.0001850815,413.6249999997447,1.966417e-05,413.6249999997447,2.916909e-06,413.6249999997447,5.877121e-06
413.6399999997447,0.0001804525,413.6399999997447,1.968565e-05,413.6399999997447,2.853437e-06,413.6399999997447,5.807196e-06
413.6549999997447,0.0001719984,413.6549999997447,2.049205e-05,413.6549999997447,2.858369e-06,413.6549999997447,5.836232e-06
413.6699999997447,0.0001728233,413.6699999997447,2.037485e-05,413.6699999997447,2.843547e-06,413.6699999997447,5.505864e-06
413.68499999974466,0.0001690202,413.68499999974466,2.072853e-05,413.68499999974466,2.887788e-06,413.68499999974466,5.539025e-06
413.69999999974465,0.0001662455,413.69999999974465,2.059217e-05,413.69999999974465,2.892662e-06,413.69999999974465,5.407768e-06
413.71499999974463,0.0001701973,413.71499999974463,2.029033e-05,413.71499999974463,2.907234e-06,413.71499999974463,5.394728e-06
413.7299999997446,0.0001874092,413.7299999997446,2.11989e-05,413.7299999997446,2.940956e-06,413.7299999997446,5.350154e-06
413.7449999997446,0.0001899119,413.7449999997446,2.150829e-05,413.7449999997446,2.936162e-06,413.7449999997446,5.431162e-06
413.7599999997446,0.0001816241,413.7599999997446,2.195234e-05,413.7599999997446,2.916909e-06,413.7599999997446,5.371176e-06
413.7749999997446,0.0001848931,413.7749999997446,2.213956e-05,413.7749999997446,2.931361e-06,413.7749999997446,5.368553e-06
413.78999999974457,0.0001879529,413.78999999974457,2.204583e-05,413.78999999974457,2.843547e-06,413.78999999974457,5.355417e-06
413.80499999974455,0.0001835136,413.80499999974455,2.04948e-05,413.80499999974455,2.818668e-06,413.80499999974455,5.334332e-06
413.81999999974454,0.0001756953,413.81999999974454,2.08018e-05,413.81999999974454,2.680338e-06,413.81999999974454,5.415577e-06
413.8349999997445,0.0001778622,413.8349999997445,2.096235e-05,413.8349999997445,2.716877e-06,413.8349999997445,5.687093e-06
413.8499999997445,0.0001749233,413.8499999997445,2.219612e-05,413.8499999997445,2.793568e-06,413.8499999997445,5.721665e-06
413.8649999997445,0.0001739096,413.8649999997445,2.122215e-05,413.8649999997445,2.742679e-06,413.8649999997445,5.721665e-06
413.8799999997445,0.0001727033,413.8799999997445,2.075434e-05,413.8799999997445,2.773325e-06,413.8799999997445,5.838645e-06
413.89499999974447,0.0001725959,413.89499999974447,2.07394e-05,413.89499999974447,2.722057e-06,413.89499999974447,5.809621e-06
413.90999999974446,0.0001767778,413.90999999974446,2.014471e-05,413.90999999974446,2.737538e-06,413.90999999974446,5.853103e-06
413.92499999974444,0.0001729513,413.92499999974444,2.007396e-05,413.92499999974444,2.732388e-06,413.92499999974444,5.941484e-06
413.93999999974443,0.0001698423,413.93999999974443,1.974638e-05,413.93999999974443,2.732388e-06,413.93999999974443,6.098266e-06
413.9549999997444,0.000168443,413.9549999997444,1.962114e-05,413.9549999997444,2.664524e-06,413.9549999997444,6.217223e-06
413.9699999997444,0.0001548926,413.9699999997444,1.922881e-05,413.9699999997444,2.611121e-06,413.9699999997444,6.01219e-06
413.9849999997444,0.0001536818,413.9849999997444,1.872027e-05,413.9849999997444,2.664524e-06,413.9849999997444,5.889093e-06
413.9999999997444,0.0001544842,413.9999999997444,1.828555e-05,413.9999999997444,2.727227e-06,413.9999999997444,5.979298e-06
414.01499999974436,0.0001544817,414.01499999974436,1.776349e-05,414.01499999974436,2.727227e-06,414.01499999974436,6.095956e-06
414.02999999974435,0.0001540137,414.02999999974435,1.749743e-05,414.02999999974435,2.752932e-06,414.02999999974435,6.044903e-06
414.04499999974433,0.0001614398,414.04499999974433,1.779519e-05,414.04499999974433,2.685588e-06,414.04499999974433,6.132817e-06
414.0599999997443,0.0001653179,414.0599999997443,1.893203e-05,414.0599999997443,2.680338e-06,414.0599999997443,6.095956e-06
414.0749999997443,0.000165394,414.0749999997443,1.882457e-05,414.0749999997443,2.711688e-06,414.0749999997443,6.05887e-06
414.0899999997443,0.0001603859,414.0899999997443,1.873832e-05,414.0899999997443,2.763147e-06,414.0899999997443,5.855509e-06
414.1049999997443,0.0001614431,414.1049999997443,1.78978e-05,414.1049999997443,2.798606e-06,414.1049999997443,5.922486e-06
414.11999999974427,0.0001755031,414.11999999974427,1.817506e-05,414.11999999974427,2.838588e-06,414.11999999974427,6.023894e-06
414.13499999974425,0.0001760502,414.13499999974425,1.857978e-05,414.13499999974425,2.907234e-06,414.13499999974425,5.831403e-06
414.14999999974424,0.0001912305,414.14999999974424,1.935877e-05,414.14999999974424,2.931361e-06,414.14999999974424,5.841057e-06
414.1649999997442,0.0001986296,414.1649999997442,1.962688e-05,414.1649999997442,2.936162e-06,414.1649999997442,5.770695e-06
414.1799999997442,0.0002001745,414.1799999997442,2.004024e-05,414.1799999997442,2.997883e-06,414.1799999997442,5.587136e-06
414.1949999997442,0.0002063836,414.1949999997442,1.98772e-05,414.1949999997442,2.979029e-06,414.1949999997442,5.402556e-06
414.2099999997442,0.0002116657,414.2099999997442,1.987295e-05,414.2099999997442,3.053749e-06,414.2099999997442,5.323759e-06
414.22499999974417,0.0002109832,414.22499999974417,1.975494e-05,414.22499999974417,3.030597e-06,414.22499999974417,5.533936e-06
414.23999999974416,0.0002118437,414.23999999974416,1.945024e-05,414.23999999974416,2.983753e-06,414.23999999974416,5.612292e-06
414.25499999974414,0.0002101497,414.25499999974414,1.984884e-05,414.25499999974414,3.058359e-06,414.25499999974414,5.528843e-06
414.26999999974413,0.0002142638,414.26999999974413,2.023471e-05,414.26999999974413,3.067557e-06,414.26999999974413,5.449287e-06
414.2849999997441,0.0002132667,414.2849999997441,1.995713e-05,414.2849999997441,3.158065e-06,414.2849999997441,5.444114e-06
414.2999999997441,0.0002038874,414.2999999997441,1.912156e-05,414.2999999997441,3.158065e-06,414.2999999997441,5.438937e-06
414.3149999997441,0.0002075227,414.3149999997441,1.912303e-05,414.3149999997441,3.189136e-06,414.3149999997441,5.556798e-06
414.3299999997441,0.0002107467,414.3299999997441,1.902999e-05,414.3299999997441,3.171418e-06,414.3299999997441,5.516089e-06
414.34499999974406,0.0002100419,414.34499999974406,1.891788e-05,414.34499999974406,3.104077e-06,414.34499999974406,5.551726e-06
414.35999999974405,0.0002091392,414.35999999974405,1.882383e-05,414.35999999974405,3.090432e-06,414.35999999974405,5.331691e-06
414.37499999974403,0.0002013354,414.37499999974403,1.90507e-05,414.37499999974403,2.983753e-06,414.37499999974403,5.438937e-06
414.389999999744,0.0001960973,414.389999999744,1.892384e-05,414.389999999744,2.997883e-06,414.389999999744,5.513535e-06
414.404999999744,0.0001833206,414.404999999744,1.781338e-05,414.404999999744,3.049133e-06,414.404999999744,5.477649e-06
414.419999999744,0.0001704999,414.419999999744,1.708768e-05,414.419999999744,3.049133e-06,414.419999999744,5.891484e-06
414.434999999744,0.0001720995,414.434999999744,1.716171e-05,414.434999999744,3.039879e-06,414.434999999744,5.912964e-06
414.44999999974397,0.0001616435,414.44999999974397,1.737787e-05,414.44999999974397,3.021286e-06,414.44999999974397,5.927241e-06
414.46499999974395,0.0001567653,414.46499999974395,1.751995e-05,414.46499999974395,2.993181e-06,414.46499999974395,5.746233e-06
414.47999999974394,0.0001587953,414.47999999974394,1.815024e-05,414.47999999974394,3.002579e-06,414.47999999974394,5.765811e-06
414.4949999997439,0.0001511977,414.4949999997439,1.852131e-05,414.4949999997439,2.974296e-06,414.4949999997439,5.664756e-06
414.5099999997439,0.000166704,414.5099999997439,1.860478e-05,414.5099999997439,2.863294e-06,414.5099999997439,5.748683e-06
414.5249999997439,0.0001577949,414.5249999997439,1.879986e-05,414.5249999997439,2.873116e-06,414.5249999997439,5.649817e-06
414.5399999997439,0.0001609824,414.5399999997439,1.885e-05,414.5399999997439,2.768241e-06,414.5399999997439,5.624828e-06
414.55499999974387,0.0001705977,414.55499999974387,1.934349e-05,414.55499999974387,2.716877e-06,414.55499999974387,5.467352e-06
414.56999999974386,0.0001740099,414.56999999974386,1.969352e-05,414.56999999974386,2.706488e-06,414.56999999974386,5.61731e-06
414.58499999974384,0.0001720477,414.58499999974384,1.979198e-05,414.58499999974384,2.701278e-06,414.58499999974384,5.751133e-06
414.59999999974383,0.000191191,414.59999999974383,1.923028e-05,414.59999999974383,2.685588e-06,414.59999999974383,5.729046e-06
414.6149999997438,0.0001913475,414.6149999997438,1.939004e-05,414.6149999997438,2.706488e-06,414.6149999997438,5.809621e-06
414.6299999997438,0.0001993727,414.6299999997438,1.872102e-05,414.6299999997438,2.648616e-06,414.6299999997438,5.770695e-06
414.6449999997438,0.0002041587,414.6449999997438,1.980408e-05,414.6449999997438,2.732388e-06,414.6449999997438,5.711809e-06
414.6599999997438,0.0002047089,414.6599999997438,1.97121e-05,414.6599999997438,2.653929e-06,414.6599999997438,5.559333e-06
414.67499999974376,0.0002016665,414.67499999974376,1.990199e-05,414.67499999974376,2.722057e-06,414.67499999974376,5.360675e-06
414.68999999974375,0.0001964134,414.68999999974375,2.01013e-05,414.68999999974375,2.808655e-06,414.68999999974375,5.243778e-06
414.70499999974373,0.0001992831,414.70499999974373,1.97585e-05,414.70499999974373,2.778399e-06,414.70499999974373,5.230329e-06
414.7199999997437,0.0002051686,414.7199999997437,1.995501e-05,414.7199999997437,2.793568e-06,414.7199999997437,5.124215e-06
414.7349999997437,0.0002017872,414.7349999997437,1.954201e-05,414.7349999997437,2.803635e-06,414.7349999997437,5.162558e-06
414.7499999997437,0.0002013291,414.7499999997437,1.92676e-05,414.7499999997437,2.868209e-06,414.7499999997437,5.14616e-06
414.7649999997437,0.0001914261,414.7649999997437,1.901073e-05,414.7649999997437,2.838588e-06,414.7649999997437,5.165286e-06
414.77999999974367,0.0001953619,414.77999999974367,1.897365e-05,414.77999999974367,2.752932e-06,414.77999999974367,5.246463e-06
414.79499999974365,0.0001880447,414.79499999974365,1.801547e-05,414.79499999974365,2.768241e-06,414.79499999974365,5.278585e-06
414.80999999974364,0.0001790741,414.80999999974364,1.780152e-05,414.80999999974364,2.873116e-06,414.80999999974364,5.551726e-06
414.8249999997436,0.0001777208,414.8249999997436,1.783472e-05,414.8249999997436,2.788521e-06,414.8249999997436,5.48279e-06
414.8399999997436,0.0001749342,414.8399999997436,1.81952e-05,414.8399999997436,2.897527e-06,414.8399999997436,5.446701e-06
414.8549999997436,0.000155508,414.8549999997436,1.823232e-05,414.8549999997436,2.931361e-06,414.8549999997436,5.281253e-06
414.8699999997436,0.0001552557,414.8699999997436,1.870145e-05,414.8699999997436,2.979029e-06,414.8699999997436,5.170737e-06
414.88499999974357,0.000157472,414.88499999974357,1.852739e-05,414.88499999974357,2.955291e-06,414.88499999974357,5.162558e-06
414.89999999974356,0.0001518301,414.89999999974356,1.757214e-05,414.89999999974356,3.021286e-06,414.89999999974356,5.206033e-06
414.91499999974354,0.0001550887,414.91499999974354,1.762737e-05,414.91499999974354,2.868209e-06,414.91499999974354,5.162558e-06
414.92999999974353,0.000155963,414.92999999974353,1.73381e-05,414.92999999974353,2.868209e-06,414.92999999974353,5.203327e-06
414.9449999997435,0.0001525905,414.9449999997435,1.750226e-05,414.9449999997435,2.768241e-06,414.9449999997435,5.363302e-06
414.9599999997435,0.0001639635,414.9599999997435,1.778331e-05,414.9599999997435,2.798606e-06,414.9599999997435,5.457037e-06
414.9749999997435,0.0001608407,414.9749999997435,1.735516e-05,414.9749999997435,2.813666e-06,414.9749999997435,5.477649e-06
414.9899999997435,0.0001784582,414.9899999997435,1.719206e-05,414.9899999997435,2.813666e-06,414.9899999997435,5.564399e-06
