X[s],a: EMG RMS 1-1,X[s].1,a: EMG RMS 1-2,X[s].2,a: EMG RMS 1-3,X[s].3,a: EMG RMS 1-4
550.0049999996207,0.0005655113,550.0049999996207,1.236059e-05,550.0049999996207,8.563289e-05,550.0049999996207,5.579567e-06
550.0199999996207,0.0005566978,550.0199999996207,1.247403e-05,550.0199999996207,9.513543e-05,550.0199999996207,5.619817e-06
550.0349999996207,0.0005461533,550.0349999996207,1.224379e-05,550.0349999996207,9.483972e-05,550.0349999996207,5.556798e-06
550.0499999996207,0.0005467103,550.0499999996207,1.132703e-05,550.0499999996207,9.057889e-05,550.0499999996207,5.498184e-06
550.0649999996207,0.0005460587,550.0649999996207,1.173865e-05,550.0649999996207,9.05568e-05,550.0649999996207,5.472503e-06
550.0799999996207,0.0005275075,550.0799999996207,1.173265e-05,550.0799999996207,9.284628e-05,550.0799999996207,5.528843e-06
550.0949999996207,0.0005135938,550.0949999996207,1.222652e-05,550.0949999996207,9.18123e-05,550.0949999996207,5.674694e-06
550.1099999996206,0.0004676702,550.1099999996206,1.313521e-05,550.1099999996206,9.26689e-05,550.1099999996206,5.637336e-06
550.1249999996206,0.0003659842,550.1249999996206,1.307394e-05,550.1249999996206,9.186983e-05,550.1249999996206,5.807196e-06
550.1399999996206,0.00032191,550.1399999996206,1.269788e-05,550.1399999996206,9.111292e-05,550.1399999996206,5.792623e-06
550.1549999996206,0.0003209072,550.1549999996206,1.269233e-05,550.1549999996206,9.032628e-05,550.1549999996206,5.763367e-06
550.1699999996206,0.0003181901,550.1699999996206,1.285116e-05,550.1699999996206,8.784467e-05,550.1699999996206,5.736418e-06
550.1849999996206,0.0002920703,550.1849999996206,1.379329e-05,550.1849999996206,8.700972e-05,550.1849999996206,5.795054e-06
550.1999999996206,0.0002786566,550.1999999996206,1.465104e-05,550.1999999996206,8.604513e-05,550.1999999996206,5.682137e-06
550.2149999996205,0.0003103034,550.2149999996205,1.47354e-05,550.2149999996205,8.27672e-05,550.2149999996205,5.807196e-06
550.2299999996205,0.0003075911,550.2299999996205,1.409434e-05,550.2299999996205,8.006356e-05,550.2299999996205,5.733962e-06
550.2449999996205,0.0003047284,550.2449999996205,1.389909e-05,550.2449999996205,7.918376e-05,550.2449999996205,5.881913e-06
550.2599999996205,0.0003102982,550.2599999996205,1.234462e-05,550.2599999996205,7.750856e-05,550.2599999996205,5.984008e-06
550.2749999996205,0.0003064236,550.2749999996205,1.219884e-05,550.2749999996205,6.796568e-05,550.2749999996205,5.953326e-06
550.2899999996205,0.0002959303,550.2899999996205,1.286212e-05,550.2899999996205,6.789019e-05,550.2899999996205,5.946224e-06
550.3049999996205,0.000295788,550.3049999996205,1.248645e-05,550.3049999996205,6.659174e-05,550.3049999996205,5.877121e-06
550.3199999996204,0.0003101086,550.3199999996204,1.244124e-05,550.3199999996204,6.630406e-05,550.3199999996204,5.824151e-06
550.3349999996204,0.0003177935,550.3349999996204,1.217341e-05,550.3349999996204,5.924199e-05,550.3349999996204,5.850696e-06
550.3499999996204,0.0002950216,550.3499999996204,1.117805e-05,550.3499999996204,5.545582e-05,550.3499999996204,5.790191e-06
550.3649999996204,0.0002983047,550.3649999996204,1.060643e-05,550.3649999996204,5.738505e-05,550.3649999996204,5.758477e-06
550.3799999996204,0.0003429997,550.3799999996204,1.086103e-05,550.3799999996204,5.667218e-05,550.3799999996204,5.867525e-06
550.3949999996204,0.000397017,550.3949999996204,1.076462e-05,550.3949999996204,5.665826e-05,550.3949999996204,5.81689e-06
550.4099999996204,0.0004201657,550.4099999996204,1.068318e-05,550.4099999996204,5.494826e-05,550.4099999996204,5.682137e-06
550.4249999996204,0.000423003,550.4249999996204,1.068977e-05,550.4249999996204,5.457914e-05,550.4249999996204,5.664756e-06
550.4399999996203,0.0004185439,550.4399999996203,1.121077e-05,550.4399999996203,5.48279e-05,550.4399999996203,5.477649e-06
550.4549999996203,0.0004209765,550.4549999996203,1.076069e-05,550.4549999996203,5.250597e-05,550.4549999996203,5.619817e-06
550.4699999996203,0.0004261928,550.4699999996203,1.083766e-05,550.4699999996203,4.907e-05,550.4699999996203,5.544109e-06
550.4849999996203,0.0004457299,550.4849999996203,1.084285e-05,550.4849999996203,4.750905e-05,550.4849999996203,5.561867e-06
550.4999999996203,0.0004474144,550.4999999996203,1.089082e-05,550.4999999996203,4.669166e-05,550.4999999996203,5.373798e-06
550.5149999996203,0.0004439616,550.5149999996203,1.088952e-05,550.5149999996203,4.029326e-05,550.5149999996203,5.262549e-06
550.5299999996203,0.0004485429,550.5299999996203,9.851764e-06,550.5299999996203,3.831561e-05,550.5299999996203,5.278585e-06
550.5449999996202,0.0004550632,550.5449999996202,9.764152e-06,550.5449999996202,3.735353e-05,550.5449999996202,5.397339e-06
550.5599999996202,0.0005688771,550.5599999996202,9.587998e-06,550.5599999996202,4.188738e-05,550.5599999996202,5.436346e-06
550.5749999996202,0.0006839936,550.5749999996202,9.47122e-06,550.5749999996202,4.276962e-05,550.5749999996202,5.389503e-06
550.5899999996202,0.0006995995,550.5899999996202,9.352983e-06,550.5899999996202,4.993e-05,550.5899999996202,5.302549e-06
550.6049999996202,0.0007288115,550.6049999996202,9.315255e-06,550.6049999996202,4.47371e-05,550.6049999996202,5.289249e-06
550.6199999996202,0.0007453187,550.6199999996202,9.729466e-06,550.6199999996202,4.35047e-05,550.6199999996202,5.273245e-06
550.6349999996202,0.0007547169,550.6349999996202,9.904527e-06,550.6349999996202,4.278477e-05,550.6349999996202,5.118714e-06
550.6499999996201,0.0007647713,550.6499999996201,1.453326e-05,550.6499999996201,4.283709e-05,550.6499999996201,5.208738e-06
550.6649999996201,0.0007690925,550.6649999996201,1.514741e-05,550.6649999996201,4.387709e-05,550.6649999996201,5.342249e-06
550.6799999996201,0.001081712,550.6799999996201,1.501665e-05,550.6799999996201,8.79687e-05,550.6799999996201,5.449287e-06
550.6949999996201,0.00114809,550.6949999996201,1.341219e-05,550.6949999996201,0.0001085416,550.6949999996201,5.464775e-06
550.7099999996201,0.001147852,550.7099999996201,1.326115e-05,550.7099999996201,0.0001648384,550.7099999996201,5.407768e-06
550.7249999996201,0.001181154,550.7249999996201,1.32154e-05,550.7249999996201,0.0001727515,550.7249999996201,5.302549e-06
550.7399999996201,0.001193992,550.7399999996201,1.324734e-05,550.7399999996201,0.0001805515,550.7399999996201,5.428567e-06
550.75499999962,0.00122023,550.75499999962,1.494141e-05,550.75499999962,0.0001825737,550.75499999962,5.344885e-06
550.76999999962,0.001230432,550.76999999962,1.534054e-05,550.76999999962,0.0001859422,550.76999999962,5.291911e-06
550.78499999962,0.001307659,550.78499999962,1.563793e-05,550.78499999962,0.0001899223,550.78499999962,5.214144e-06
550.79999999962,0.001414387,550.79999999962,1.56829e-05,550.79999999962,0.0001928878,550.79999999962,4.962209e-06
550.81499999962,0.001565801,550.81499999962,1.569996e-05,550.81499999962,0.0001941911,550.81499999962,5.135199e-06
550.82999999962,0.001553326,550.82999999962,1.575102e-05,550.82999999962,0.0001975559,550.82999999962,5.151632e-06
550.84499999962,0.001614632,550.84499999962,1.628311e-05,550.84499999962,0.0002008213,550.84499999962,6.151165e-06
550.85999999962,0.001955229,550.85999999962,1.646634e-05,550.85999999962,0.0002059864,550.85999999962,6.494269e-06
550.87499999962,0.002264614,550.87499999962,1.648515e-05,550.87499999962,0.0002070771,550.87499999962,6.789081e-06
550.8899999996199,0.002487491,550.8899999996199,1.638315e-05,550.8899999996199,0.000209034,550.8899999996199,7.067629e-06
550.9049999996199,0.002917237,550.9049999996199,1.242878e-05,550.9049999996199,0.0002098781,550.9049999996199,7.085544e-06
550.9199999996199,0.003246286,550.9199999996199,1.198683e-05,550.9199999996199,0.0002166787,550.9199999996199,7.077588e-06
550.9349999996199,0.003414297,550.9349999996199,1.197272e-05,550.9349999996199,0.0001960379,550.9349999996199,7.093493e-06
550.9499999996199,0.003509041,550.9499999996199,1.321646e-05,550.9499999996199,0.0001841637,550.9499999996199,7.109361e-06
550.9649999996199,0.003723499,550.9649999996199,1.329616e-05,550.9649999996199,0.0001494804,550.9649999996199,7.158726e-06
550.9799999996198,0.003716714,550.9799999996198,1.327177e-05,550.9799999996198,0.0001614546,550.9799999996198,7.235062e-06
550.9949999996198,0.003731866,550.9949999996198,1.321966e-05,550.9949999996198,0.0001645909,550.9949999996198,7.2409e-06
551.0099999996198,0.003777532,551.0099999996198,1.149247e-05,551.0099999996198,0.0001703212,551.0099999996198,7.304818e-06
551.0249999996198,0.00383106,551.0249999996198,1.087658e-05,551.0249999996198,0.0001926182,551.0249999996198,7.366268e-06
551.0399999996198,0.003813274,551.0399999996198,1.094887e-05,551.0399999996198,0.0002015084,551.0399999996198,7.385367e-06
551.0549999996198,0.003740849,551.0549999996198,1.126092e-05,551.0549999996198,0.0002032308,551.0549999996198,7.30096e-06
551.0699999996198,0.003689247,551.0699999996198,1.1332e-05,551.0699999996198,0.0002022682,551.0699999996198,7.275834e-06
551.0849999996198,0.003689779,551.0849999996198,1.135063e-05,551.0849999996198,0.0001986847,551.0849999996198,7.22532e-06
551.0999999996197,0.003615767,551.0999999996197,9.674292e-06,551.0999999996197,0.0001969852,551.0999999996197,6.387099e-06
551.1149999996197,0.003336327,551.1149999996197,9.540868e-06,551.1149999996197,0.00019514,551.1149999996197,5.838645e-06
551.1299999996197,0.002976923,551.1299999996197,9.921579e-06,551.1299999996197,0.0001943343,551.1299999996197,5.753582e-06
551.1449999996197,0.002804178,551.1449999996197,9.76271e-06,551.1449999996197,0.0001911692,551.1449999996197,5.438937e-06
551.1599999996197,0.002534728,551.1599999996197,9.73815e-06,551.1599999996197,0.0001880795,551.1599999996197,5.291911e-06
551.1749999996197,0.002186992,551.1749999996197,9.639282e-06,551.1749999996197,0.0001808276,551.1749999996197,5.197909e-06
551.1899999996197,0.001762789,551.1899999996197,8.420948e-06,551.1899999996197,0.0001798777,551.1899999996197,5.197909e-06
551.2049999996196,0.001527122,551.2049999996196,8.17996e-06,551.2049999996196,0.0001797932,551.2049999996196,5.151632e-06
551.2199999996196,0.001219739,551.2199999996196,8.135063e-06,551.2199999996196,0.0001717306,551.2199999996196,5.041069e-06
551.2349999996196,0.001176767,551.2349999996196,8.352081e-06,551.2349999996196,0.0001524481,551.2349999996196,5.124215e-06
551.2499999996196,0.001093809,551.2499999996196,8.357139e-06,551.2499999996196,0.0001480658,551.2499999996196,4.896482e-06
551.2649999996196,0.0008144689,551.2649999996196,8.663363e-06,551.2649999996196,0.00013243,551.2649999996196,4.887844e-06
551.2799999996196,0.0006588491,551.2799999996196,8.627516e-06,551.2799999996196,9.209128e-05,551.2799999996196,4.882076e-06
551.2949999996196,0.0006448452,551.2949999996196,8.499207e-06,551.2949999996196,6.30651e-05,551.2949999996196,4.967884e-06
551.3099999996195,0.0006422828,551.3099999996195,8.004139e-06,551.3099999996195,6.047816e-05,551.3099999996195,5.068936e-06
551.3249999996195,0.000605617,551.3249999996195,7.956479e-06,551.3249999996195,6.033054e-05,551.3249999996195,5.12971e-06
551.3399999996195,0.0005751302,551.3399999996195,8.060259e-06,551.3399999996195,5.48808e-05,551.3399999996195,5.104936e-06
551.3549999996195,0.0005342705,551.3549999996195,8.100356e-06,551.3549999996195,4.654723e-05,551.3549999996195,5.386888e-06
551.3699999996195,0.0004620953,551.3699999996195,8.362194e-06,551.3699999996195,4.118947e-05,551.3699999996195,5.485359e-06
551.3849999996195,0.0004349448,551.3849999996195,7.434793e-06,551.3849999996195,4.028941e-05,551.3849999996195,5.423375e-06
551.3999999996195,0.0004311061,551.3999999996195,7.453716e-06,551.3999999996195,4.100403e-05,551.3999999996195,5.454455e-06
551.4149999996195,0.0004333342,551.4149999996195,7.577422e-06,551.4149999996195,4.115902e-05,551.4149999996195,5.441526e-06
551.4299999996194,0.00043623,551.4299999996194,7.579281e-06,551.4299999996194,4.075696e-05,551.4299999996194,5.637336e-06
551.4449999996194,0.0004154711,551.4449999996194,7.289374e-06,551.4449999996194,4.007908e-05,551.4449999996194,5.559333e-06
551.4599999996194,0.0003798529,551.4599999996194,7.093493e-06,551.4599999996194,3.502584e-05,551.4599999996194,5.526294e-06
551.4749999996194,0.0003494512,551.4749999996194,7.584854e-06,551.4749999996194,3.096398e-05,551.4749999996194,5.546649e-06
551.4899999996194,0.000318158,551.4899999996194,7.584854e-06,551.4899999996194,3.063973e-05,551.4899999996194,5.457037e-06
551.5049999996194,0.0002965883,551.5049999996194,6.928738e-06,551.5049999996194,2.828397e-05,551.5049999996194,5.451871e-06
551.5199999996194,0.0002612128,551.5199999996194,6.387099e-06,551.5199999996194,2.696946e-05,551.5199999996194,5.654801e-06
551.5349999996193,0.0002599725,551.5349999996193,6.33617e-06,551.5349999996193,2.356594e-05,551.5349999996193,5.571988e-06
551.5499999996193,0.0002598842,551.5499999996193,6.291548e-06,551.5499999996193,2.060858e-05,551.5499999996193,5.687093e-06
551.5649999996193,0.0002387221,551.5649999996193,6.25337e-06,551.5649999996193,1.611265e-05,551.5649999996193,5.674694e-06
551.5799999996193,0.0002152855,551.5799999996193,6.861319e-06,551.5799999996193,1.484873e-05,551.5799999996193,5.714275e-06
551.5949999996193,0.0002142637,551.5949999996193,7.429107e-06,551.5949999996193,1.467889e-05,551.5949999996193,5.654801e-06
551.6099999996193,0.0001941651,551.6099999996193,7.233115e-06,551.6099999996193,1.408534e-05,551.6099999996193,5.373798e-06
551.6249999996193,0.0001815415,551.6249999996193,6.838698e-06,551.6249999996193,1.421179e-05,551.6249999996193,5.412975e-06
551.6399999996192,0.0001780744,551.6399999996192,6.928738e-06,551.6399999996192,1.43017e-05,551.6399999996192,5.459618e-06
551.6549999996192,0.0001751911,551.6549999996192,6.716067e-06,551.6549999996192,1.295813e-05,551.6549999996192,5.402556e-06
551.6699999996192,0.0001615626,551.6699999996192,6.616753e-06,551.6699999996192,1.230348e-05,551.6699999996192,5.235713e-06
551.6849999996192,0.0001347661,551.6849999996192,6.608231e-06,551.6849999996192,1.140758e-05,551.6849999996192,5.184341e-06
551.6999999996192,0.0001254065,551.6999999996192,6.813935e-06,551.6999999996192,1.044853e-05,551.6999999996192,5.093886e-06
551.7149999996192,0.0001262952,551.7149999996192,6.803591e-06,551.7149999996192,1.043369e-05,551.7149999996192,5.243778e-06
551.7299999996192,0.0001265563,551.7299999996192,7.081567e-06,551.7299999996192,1.03904e-05,551.7299999996192,5.381656e-06
551.7449999996192,0.0001258526,551.7449999996192,7.423416e-06,551.7449999996192,1.02209e-05,551.7449999996192,5.457037e-06
551.7599999996191,0.0001216227,551.7599999996191,7.421518e-06,551.7599999996191,1.379124e-05,551.7599999996191,5.449287e-06
551.7749999996191,0.0001317716,551.7749999996191,7.415822e-06,551.7749999996191,1.465777e-05,551.7749999996191,5.399948e-06
551.7899999996191,0.0001308329,551.7899999996191,7.410121e-06,551.7899999996191,1.503914e-05,551.7899999996191,5.28392e-06
551.8049999996191,0.0001321429,551.8049999996191,7.432898e-06,551.8049999996191,1.47201e-05,551.8049999996191,5.140683e-06
551.8199999996191,0.0001289656,551.8199999996191,7.436688e-06,551.8199999996191,1.471627e-05,551.8199999996191,5.02147e-06
551.8349999996191,0.0001282342,551.8349999996191,6.468188e-06,551.8349999996191,1.43145e-05,551.8349999996191,5.085583e-06
551.8499999996191,0.0001245705,551.8499999996191,6.743279e-06,551.8499999996191,1.433122e-05,551.8499999996191,5.071714e-06
551.864999999619,0.00012353,551.864999999619,6.959168e-06,551.864999999619,1.432237e-05,551.864999999619,4.993339e-06
551.879999999619,0.0001203413,551.879999999619,6.838698e-06,551.879999999619,1.416115e-05,551.879999999619,4.899358e-06
551.894999999619,0.0001243901,551.894999999619,6.818068e-06,551.894999999619,1.45942e-05,551.894999999619,4.87919e-06
551.909999999619,0.000124111,551.909999999619,6.811867e-06,551.909999999619,1.562621e-05,551.909999999619,5.14616e-06
551.924999999619,0.0001215278,551.924999999619,6.795303e-06,551.924999999619,1.572327e-05,551.924999999619,5.143422e-06
551.939999999619,0.0001217888,551.939999999619,6.728641e-06,551.939999999619,1.577158e-05,551.939999999619,5.331691e-06
551.954999999619,0.0001217634,551.954999999619,6.650728e-06,551.954999999619,1.605134e-05,551.954999999619,5.323759e-06
551.969999999619,0.0001154025,551.969999999619,6.791156e-06,551.969999999619,1.650309e-05,551.969999999619,5.289249e-06
551.9849999996189,0.0001182432,551.9849999996189,6.650728e-06,551.9849999996189,1.6753e-05,551.9849999996189,5.323759e-06
551.9999999996189,0.0001200158,551.9999999996189,6.951067e-06,551.9999999996189,1.679248e-05,551.9999999996189,5.386888e-06
552.0149999996189,0.0001194521,552.0149999996189,7.590424e-06,552.0149999996189,1.330675e-05,552.0149999996189,5.307859e-06
552.0299999996189,0.0001118986,552.0299999996189,7.945849e-06,552.0299999996189,1.348447e-05,552.0299999996189,5.297233e-06
552.0449999996189,0.0001123962,552.0449999996189,7.977696e-06,552.0449999996189,1.38086e-05,552.0449999996189,5.2679e-06
552.0599999996189,0.0001132358,552.0599999996189,7.940529e-06,552.0599999996189,1.392946e-05,552.0599999996189,5.313164e-06
552.0749999996189,0.0001118629,552.0749999996189,7.860292e-06,552.0749999996189,1.3988e-05,552.0749999996189,5.344885e-06
552.0899999996188,0.0001117425,552.0899999996188,7.779228e-06,552.0899999996188,1.444186e-05,552.0899999996188,5.318464e-06
552.1049999996188,0.0001117595,552.1049999996188,7.354785e-06,552.1049999996188,1.627013e-05,552.1049999996188,5.384273e-06
552.1199999996188,0.000113324,552.1199999996188,7.12124e-06,552.1199999996188,1.67866e-05,552.1199999996188,5.487926e-06
552.1349999996188,0.0001132044,552.1349999996188,7.093493e-06,552.1349999996188,1.745955e-05,552.1349999996188,5.667242e-06
552.1499999996188,0.0001132953,552.1499999996188,7.091506e-06,552.1499999996188,1.665941e-05,552.1499999996188,5.556798e-06
552.1649999996188,0.0001194391,552.1649999996188,8.25709e-06,552.1649999996188,1.585709e-05,552.1649999996188,5.392116e-06
552.1799999996188,0.0001243779,552.1799999996188,8.527336e-06,552.1799999996188,1.586331e-05,552.1799999996188,5.521194e-06
552.1949999996187,0.0001290783,552.1949999996187,8.520726e-06,552.1949999996187,1.628311e-05,552.1949999996187,5.459618e-06
552.2099999996187,0.0001311266,552.2099999996187,8.308113e-06,552.2099999996187,1.651503e-05,552.2099999996187,5.587136e-06
552.2249999996187,0.0001303512,552.2249999996187,7.748384e-06,552.2249999996187,1.643209e-05,552.2249999996187,5.352786e-06
552.2399999996187,0.0001287619,552.2399999996187,7.370092e-06,552.2399999996187,1.637713e-05,552.2399999996187,5.384273e-06
552.2549999996187,0.0001314247,552.2549999996187,7.21166e-06,552.2549999996187,1.825549e-05,552.2549999996187,5.222243e-06
552.2699999996187,0.0001255118,552.2699999996187,6.753716e-06,552.2699999996187,1.899665e-05,552.2699999996187,5.326404e-06
552.2849999996187,0.0001234094,552.2849999996187,6.391509e-06,552.2849999996187,1.858736e-05,552.2849999996187,5.313164e-06
552.2999999996186,0.000124444,552.2999999996186,6.311667e-06,552.2999999996186,1.760338e-05,552.2999999996186,5.336972e-06
552.3149999996186,0.0001210776,552.3149999996186,6.289309e-06,552.3149999996186,1.757615e-05,552.3149999996186,5.297233e-06
552.3299999996186,0.0001241266,552.3299999996186,6.33617e-06,552.3299999996186,1.747568e-05,552.3299999996186,5.286585e-06
552.3449999996186,0.000123093,552.3449999996186,7.047669e-06,552.3449999996186,1.884402e-05,552.3449999996186,5.28392e-06
552.3599999996186,0.0001254735,552.3599999996186,7.3567e-06,552.3599999996186,1.740784e-05,552.3599999996186,5.181623e-06
552.3749999996186,0.0001246063,552.3749999996186,7.493299e-06,552.3749999996186,1.642437e-05,552.3749999996186,5.063375e-06
552.3899999996186,0.0001269253,552.3899999996186,7.560672e-06,552.3899999996186,1.62068e-05,552.3899999996186,4.967884e-06
552.4049999996186,0.0001283915,552.4049999996186,6.437625e-06,552.4049999996186,1.654231e-05,552.4049999996186,5.102175e-06
552.4199999996185,0.000120035,552.4199999996185,5.838645e-06,552.4199999996185,1.690618e-05,552.4199999996185,4.95937e-06
552.4349999996185,0.0001119371,552.4349999996185,5.780451e-06,552.4349999996185,1.702243e-05,552.4349999996185,4.867628e-06
552.4499999996185,0.0001108566,552.4499999996185,5.758477e-06,552.4499999996185,1.678744e-05,552.4499999996185,4.67875e-06
552.4649999996185,0.0001086369,552.4649999996185,5.853103e-06,552.4649999996185,1.749984e-05,552.4649999996185,4.66971e-06
552.4799999996185,0.0001231663,552.4799999996185,5.939112e-06,552.4799999996185,1.766489e-05,552.4799999996185,4.815255e-06
552.4949999996185,0.0001242462,552.4949999996185,5.843468e-06,552.4949999996185,1.672944e-05,552.4949999996185,4.660651e-06
552.5099999996185,0.0001232195,552.5099999996185,6.042573e-06,552.5099999996185,1.586508e-05,552.5099999996185,4.562907e-06
552.5249999996184,0.0001260268,552.5249999996184,6.413511e-06,552.5249999996184,1.571431e-05,552.5249999996184,4.599804e-06
552.5399999996184,0.0001263539,552.5399999996184,6.450741e-06,552.5399999996184,1.579389e-05,552.5399999996184,4.556728e-06
552.5549999996184,0.0001274188,552.5549999996184,6.420096e-06,552.5549999996184,1.591738e-05,552.5549999996184,4.587538e-06
552.5699999996184,0.0001273794,552.5699999996184,6.468188e-06,552.5699999996184,1.59333e-05,552.5699999996184,4.612038e-06
552.5849999996184,0.0001277869,552.5849999996184,6.291548e-06,552.5849999996184,1.478979e-05,552.5849999996184,4.791795e-06
552.5999999996184,0.0001274206,552.5999999996184,5.719203e-06,552.5999999996184,1.356882e-05,552.5999999996184,4.666692e-06
552.6149999996184,0.0001255098,552.6149999996184,5.687093e-06,552.6149999996184,1.483164e-05,552.6149999996184,4.596741e-06
552.6299999996183,0.0001278547,552.6299999996183,5.824151e-06,552.6299999996183,1.549858e-05,552.6299999996183,4.633369e-06
552.6449999996183,0.0001332736,552.6449999996183,6.644371e-06,552.6449999996183,1.536806e-05,552.6449999996183,4.645514e-06
552.6599999996183,0.0001349765,552.6599999996183,6.932803e-06,552.6599999996183,1.558831e-05,552.6599999996183,4.519479e-06
552.6749999996183,0.0001411918,552.6749999996183,7.498936e-06,552.6749999996183,1.690451e-05,552.6749999996183,4.581393e-06
552.6899999996183,0.0001423079,552.6899999996183,8.263912e-06,552.6899999996183,1.794889e-05,552.6899999996183,4.645514e-06
552.7049999996183,0.0001426482,552.7049999996183,8.365563e-06,552.7049999996183,1.811761e-05,552.7049999996183,4.675739e-06
552.7199999996183,0.0001373419,552.7199999996183,8.50749e-06,552.7199999996183,1.72583e-05,552.7199999996183,4.768218e-06
552.7349999996183,0.0001398699,552.7349999996183,8.538892e-06,552.7349999996183,1.944155e-05,552.7349999996183,4.791795e-06
552.7499999996182,0.0001365189,552.7499999996182,8.355453e-06,552.7499999996182,2.059559e-05,552.7499999996182,5.071714e-06
552.7649999996182,0.0001382193,552.7649999996182,7.737468e-06,552.7649999996182,2.046385e-05,552.7649999996182,5.189773e-06
552.7799999996182,0.000150335,552.7799999996182,8.186846e-06,552.7799999996182,2.446226e-05,552.7799999996182,5.523745e-06
552.7949999996182,0.0001609152,552.7949999996182,8.336888e-06,552.7949999996182,2.823312e-05,552.7949999996182,5.765811e-06
552.8099999996182,0.000161714,552.8099999996182,8.76681e-06,552.8099999996182,2.908494e-05,552.8099999996182,5.838645e-06
552.8249999996182,0.0001627708,552.8249999996182,8.907087e-06,552.8249999996182,2.949279e-05,552.8249999996182,5.741327e-06
552.8399999996182,0.0001830964,552.8399999996182,8.822869e-06,552.8399999996182,3.092893e-05,552.8399999996182,5.770695e-06
552.8549999996181,0.000207369,552.8549999996181,8.5866e-06,552.8549999996181,3.207107e-05,552.8549999996181,5.898653e-06
552.8699999996181,0.0002059159,552.8699999996181,8.596438e-06,552.8699999996181,3.25043e-05,552.8699999996181,5.939112e-06
552.8849999996181,0.0002064061,552.8849999996181,8.095138e-06,552.8849999996181,3.289032e-05,552.8849999996181,6.05887e-06
552.8999999996181,0.0002043769,552.8999999996181,8.086432e-06,552.8999999996181,3.286332e-05,552.8999999996181,6.037908e-06
552.9149999996181,0.0001996528,552.9149999996181,8.686096e-06,552.9149999996181,3.25199e-05,552.9149999996181,6.021555e-06
552.9299999996181,0.0001964095,552.9299999996181,8.241723e-06,552.9299999996181,3.17599e-05,552.9299999996181,5.988714e-06
552.9449999996181,0.0001977921,552.9449999996181,7.60896e-06,552.9449999996181,3.117255e-05,552.9449999996181,5.988714e-06
552.959999999618,0.0001972628,552.959999999618,7.438582e-06,552.959999999618,3.156949e-05,552.959999999618,5.931993e-06
552.974999999618,0.0001961034,552.974999999618,7.30096e-06,552.974999999618,3.149712e-05,552.974999999618,5.865124e-06
552.989999999618,0.0001934061,552.989999999618,7.201887e-06,552.989999999618,2.981534e-05,552.989999999618,5.738873e-06
553.004999999618,0.0001947049,553.004999999618,7.483893e-06,553.004999999618,2.899471e-05,553.004999999618,5.61731e-06
553.019999999618,0.0001933013,553.019999999618,7.52706e-06,553.019999999618,2.831682e-05,553.019999999618,5.278585e-06
553.034999999618,0.0001746738,553.034999999618,7.370092e-06,553.034999999618,2.477127e-05,553.034999999618,5.02147e-06
553.049999999618,0.0001697073,553.049999999618,7.96002e-06,553.049999999618,2.119824e-05,553.049999999618,4.780021e-06
553.064999999618,0.0001706215,553.064999999618,7.883556e-06,553.064999999618,2.085117e-05,553.064999999618,4.850233e-06
553.0799999996179,0.0001617533,553.0799999996179,8.490915e-06,553.0799999996179,2.034787e-05,553.0799999996179,4.726678e-06
553.0949999996179,0.0001414499,553.0949999996179,8.583318e-06,553.0949999996179,1.889926e-05,553.0949999996179,4.870521e-06
553.1099999996179,0.0001160896,553.1099999996179,9.101082e-06,553.1099999996179,1.70398e-05,553.1099999996179,4.753424e-06
553.1249999996179,0.0001191835,553.1249999996179,9.639282e-06,553.1249999996179,1.445649e-05,553.1249999996179,5.018664e-06
553.1399999996179,0.0001180119,553.1399999996179,9.767037e-06,553.1399999996179,1.365472e-05,553.1399999996179,4.87919e-06
553.1549999996179,0.0001208933,553.1549999996179,9.049861e-06,553.1549999996179,1.390416e-05,553.1549999996179,4.882076e-06
553.1699999996179,0.0001225697,553.1699999996179,9.068521e-06,553.1699999996179,1.371442e-05,553.1699999996179,5.173461e-06
553.1849999996178,0.0001229404,553.1849999996178,9.054529e-06,553.1849999996178,1.445454e-05,553.1849999996178,5.121465e-06
553.1999999996178,0.000164315,553.1999999996178,9.184283e-06,553.1999999996178,1.536623e-05,553.1999999996178,5.394728e-06
553.2149999996178,0.0002050243,553.2149999996178,9.301635e-06,553.2149999996178,1.45971e-05,553.2149999996178,5.441526e-06
553.2299999996178,0.0002135292,553.2299999996178,9.658262e-06,553.2299999996178,1.337538e-05,553.2299999996178,5.48022e-06
553.2449999996178,0.000217255,553.2449999996178,1.026217e-05,553.2449999996178,1.272559e-05,553.2449999996178,5.446701e-06
553.2599999996178,0.0002189507,553.2599999996178,1.057583e-05,553.2599999996178,1.254498e-05,553.2599999996178,5.564399e-06
553.2749999996178,0.000219963,553.2749999996178,1.042964e-05,553.2749999996178,1.244124e-05,553.2749999996178,5.609782e-06
553.2899999996177,0.0002209171,553.2899999996177,1.022779e-05,553.2899999996177,1.214561e-05,553.2899999996177,5.61731e-06
553.3049999996177,0.0002209754,553.3049999996177,9.729466e-06,553.3049999996177,1.130337e-05,553.3049999996177,5.609782e-06
553.3199999996177,0.0002227533,553.3199999996177,8.973265e-06,553.3199999996177,1.148879e-05,553.3199999996177,5.597212e-06
553.3349999996177,0.000225941,553.3349999996177,9.743934e-06,553.3349999996177,1.187941e-05,553.3349999996177,5.554263e-06
553.3499999996177,0.0002264547,553.3499999996177,1.013509e-05,553.3499999996177,1.258869e-05,553.3499999996177,5.475077e-06
553.3649999996177,0.0002305777,553.3649999996177,1.156821e-05,553.3649999996177,1.278632e-05,553.3649999996177,5.48279e-06
553.3799999996177,0.0002359565,553.3799999996177,1.139522e-05,553.3799999996177,1.263114e-05,553.3799999996177,5.321112e-06
553.3949999996177,0.0002372673,553.3949999996177,1.139769e-05,553.3949999996177,1.234691e-05,553.3949999996177,5.350154e-06
553.4099999996176,0.000234406,553.4099999996176,1.11465e-05,553.4099999996176,1.522995e-05,553.4099999996176,5.363302e-06
553.4249999996176,0.0002450033,553.4249999996176,1.127092e-05,553.4249999996176,1.85099e-05,553.4249999996176,5.124215e-06
553.4399999996176,0.0002487594,553.4399999996176,1.197037e-05,553.4399999996176,1.820603e-05,553.4399999996176,5.195198e-06
553.4549999996176,0.0002114058,553.4549999996176,1.235261e-05,553.4549999996176,1.781417e-05,553.4549999996176,4.774123e-06
553.4699999996176,0.0001886271,553.4699999996176,1.244464e-05,553.4699999996176,1.813549e-05,553.4699999996176,4.79767e-06
553.4849999996176,0.0001904649,553.4849999996176,1.199036e-05,553.4849999996176,2.095227e-05,553.4849999996176,4.794733e-06
553.4999999996176,0.0002106616,553.4999999996176,1.146915e-05,553.4999999996176,2.766459e-05,553.4999999996176,4.708762e-06
553.5149999996175,0.0002325143,553.5149999996175,1.124715e-05,553.5149999996175,3.071962e-05,553.5149999996175,4.777073e-06
553.5299999996175,0.0002462228,553.5299999996175,1.125466e-05,553.5299999996175,3.110831e-05,553.5299999996175,4.867628e-06
553.5449999996175,0.0002492375,553.5449999996175,1.170741e-05,553.5449999996175,3.455779e-05,553.5449999996175,4.841512e-06
553.5599999996175,0.0002591806,553.5599999996175,1.188652e-05,553.5599999996175,3.912328e-05,553.5599999996175,4.913713e-06
553.5749999996175,0.0002653019,553.5749999996175,1.16797e-05,553.5749999996175,4.157514e-05,553.5749999996175,4.916579e-06
553.5899999996175,0.0002699248,553.5899999996175,1.098355e-05,553.5899999996175,4.242238e-05,553.5899999996175,4.910845e-06
553.6049999996175,0.0002866074,553.6049999996175,8.876988e-06,553.6049999996175,4.221033e-05,553.6049999996175,4.788854e-06
553.6199999996174,0.0003492748,553.6199999996174,8.604628e-06,553.6199999996174,4.396145e-05,553.6199999996174,4.996159e-06
553.6349999996174,0.000388632,553.6349999996174,8.282642e-06,553.6349999996174,4.500833e-05,553.6349999996174,5.024275e-06
553.6499999996174,0.0004362708,553.6499999996174,8.323359e-06,553.6499999996174,4.481669e-05,553.6499999996174,5.451871e-06
553.6649999996174,0.000601084,553.6649999996174,8.048017e-06,553.6649999996174,4.607607e-05,553.6649999996174,5.778013e-06
553.6799999996174,0.00060124,553.6799999996174,7.616361e-06,553.6799999996174,5.02775e-05,553.6799999996174,6.095956e-06
553.6949999996174,0.0006249288,553.6949999996174,6.466009e-06,553.6949999996174,5.05268e-05,553.6949999996174,6.040241e-06
553.7099999996174,0.0006262755,553.7099999996174,5.508422e-06,553.7099999996174,5.515808e-05,553.7099999996174,6.151165e-06
553.7249999996174,0.0006496917,553.7249999996174,5.493057e-06,553.7249999996174,5.984737e-05,553.7249999996174,6.107498e-06
553.7399999996173,0.0006816188,553.7399999996173,5.533936e-06,553.7399999996173,5.876881e-05,553.7399999996173,6.11211e-06
553.7549999996173,0.00071541,553.7549999996173,5.498184e-06,553.7549999996173,5.627607e-05,553.7549999996173,6.132817e-06
553.7699999996173,0.0007319844,553.7699999996173,5.397339e-06,553.7699999996173,5.580097e-05,553.7699999996173,6.148874e-06
553.7849999996173,0.0007301233,553.7849999996173,5.066156e-06,553.7849999996173,5.976376e-05,553.7849999996173,6.040241e-06
553.7999999996173,0.0007520544,553.7999999996173,4.108022e-06,553.7999999996173,6.241306e-05,553.7999999996173,7.899621e-06
553.8149999996173,0.0007925424,553.8149999996173,3.556662e-06,553.8149999996173,6.195274e-05,553.8149999996173,8.495891e-06
553.8299999996173,0.0007950802,553.8299999996173,3.592131e-06,553.8299999996173,6.162399e-05,553.8299999996173,8.550433e-06
553.8449999996172,0.001052701,553.8449999996172,3.627253e-06,553.8449999996172,6.151257e-05,553.8449999996172,8.58824e-06
553.8599999996172,0.001514664,553.8599999996172,3.520835e-06,553.8599999996172,6.116072e-05,553.8599999996172,8.638938e-06
553.8749999996172,0.002040445,553.8749999996172,3.356985e-06,553.8749999996172,6.245277e-05,553.8749999996172,8.794083e-06
553.8899999996172,0.002409378,553.8899999996172,3.301983e-06,553.8899999996172,6.996636e-05,553.8899999996172,8.566891e-06
553.9049999996172,0.002561487,553.9049999996172,3.271984e-06,553.9049999996172,7.348539e-05,553.9049999996172,8.50749e-06
553.9199999996172,0.002659203,553.9199999996172,3.377901e-06,553.9199999996172,7.115125e-05,553.9199999996172,8.169621e-06
553.9349999996172,0.002731678,553.9349999996172,3.406967e-06,553.9349999996172,6.928109e-05,553.9349999996172,8.243432e-06
553.9499999996171,0.003035146,553.9499999996171,3.500774e-06,553.9499999996171,7.128694e-05,553.9499999996171,8.634045e-06
553.9649999996171,0.003099707,553.9649999996171,3.631134e-06,553.9649999996171,6.747226e-05,553.9649999996171,8.630781e-06
553.9799999996171,0.00310491,553.9799999996171,3.711708e-06,553.9799999996171,6.723845e-05,553.9799999996171,8.768416e-06
553.9949999996171,0.003118811,553.9949999996171,3.878734e-06,553.9949999996171,6.735922e-05,553.9949999996171,8.977973e-06
554.0099999996171,0.003127219,554.0099999996171,3.936414e-06,554.0099999996171,6.796547e-05,554.0099999996171,9.080939e-06
554.0249999996171,0.003223056,554.0249999996171,4.17604e-06,554.0249999996171,6.777432e-05,554.0249999996171,9.392062e-06
554.0399999996171,0.003261365,554.0399999996171,4.239647e-06,554.0399999996171,6.146423e-05,554.0399999996171,9.374045e-06
554.054999999617,0.003324644,554.054999999617,4.488202e-06,554.054999999617,5.748414e-05,554.054999999617,7.461272e-06
554.069999999617,0.003442416,554.069999999617,4.633369e-06,554.069999999617,5.577648e-05,554.069999999617,7.625604e-06
554.084999999617,0.003450667,554.084999999617,4.627284e-06,554.084999999617,6.419614e-05,554.084999999617,7.686323e-06
554.099999999617,0.003409705,554.099999999617,4.642481e-06,554.099999999617,6.426062e-05,554.099999999617,7.784659e-06
554.114999999617,0.003282897,554.114999999617,4.861837e-06,554.114999999617,6.421259e-05,554.114999999617,8.067247e-06
554.129999999617,0.003105109,554.129999999617,5.227635e-06,554.129999999617,5.996378e-05,554.129999999617,8.17996e-06
554.144999999617,0.002985834,554.144999999617,5.731505e-06,554.144999999617,5.045092e-05,554.144999999617,8.37566e-06
554.159999999617,0.002806649,554.159999999617,5.8867e-06,554.159999999617,4.662252e-05,554.159999999617,8.607901e-06
554.174999999617,0.002776419,554.174999999617,6.201342e-06,554.174999999617,4.658353e-05,554.174999999617,8.821272e-06
554.1899999996169,0.002686078,554.1899999996169,6.554722e-06,554.1899999996169,4.430902e-05,554.1899999996169,8.627516e-06
554.2049999996169,0.00251515,554.2049999996169,6.759971e-06,554.2049999996169,4.082672e-05,554.2049999996169,8.728161e-06
554.2199999996169,0.00249172,554.2199999996169,6.718165e-06,554.2199999996169,3.917114e-05,554.2199999996169,8.811686e-06
554.2349999996169,0.002456857,554.2349999996169,6.995509e-06,554.2349999996169,6.291078e-05,554.2349999996169,9.817387e-06
554.2499999996169,0.002448855,554.2499999996169,6.942956e-06,554.2499999996169,6.797604e-05,554.2499999996169,9.850334e-06
554.2649999996169,0.002389085,554.2649999996169,6.963215e-06,554.2649999996169,8.396439e-05,554.2649999996169,9.904527e-06
554.2799999996168,0.002471107,554.2799999996168,6.842817e-06,554.2799999996168,0.0001002805,554.2799999996168,1.003031e-05
554.2949999996168,0.002795792,554.2949999996168,6.75163e-06,554.2949999996168,0.0001004797,554.2949999996168,1.027314e-05
554.3099999996168,0.00274243,554.3099999996168,6.633762e-06,554.3099999996168,0.000103941,554.3099999996168,1.053179e-05
554.3249999996168,0.002925693,554.3249999996168,6.595429e-06,554.3249999996168,0.0001017771,554.3249999996168,1.242198e-05
554.3399999996168,0.003149095,554.3399999996168,6.571893e-06,554.3399999996168,9.920572e-05,554.3399999996168,1.288291e-05
554.3549999996168,0.003247018,554.3549999996168,6.654963e-06,554.3549999996168,9.924078e-05,554.3549999996168,1.351056e-05
554.3699999996168,0.003227904,554.3699999996168,6.697164e-06,554.3699999996168,9.924646e-05,554.3699999996168,1.616241e-05
554.3849999996168,0.003298445,554.3849999996168,6.535352e-06,554.3849999996168,9.91901e-05,554.3849999996168,1.723298e-05
554.3999999996167,0.003489157,554.3999999996167,6.079758e-06,554.3999999996167,9.929074e-05,554.3999999996167,1.754165e-05
554.4149999996167,0.003620289,554.4149999996167,6.275856e-06,554.4149999996167,9.913114e-05,554.4149999996167,1.830096e-05
554.4299999996167,0.003604251,554.4299999996167,5.912964e-06,554.4299999996167,0.000100398,554.4299999996167,1.872253e-05
554.4449999996167,0.00362938,554.4449999996167,5.462197e-06,554.4449999996167,0.0001026148,554.4449999996167,1.937623e-05
554.4599999996167,0.003628726,554.4599999996167,5.689569e-06,554.4599999996167,0.0001062763,554.4599999996167,2.152662e-05
554.4749999996167,0.00371863,554.4749999996167,5.711809e-06,554.4749999996167,0.0001055067,554.4749999996167,2.175769e-05
554.4899999996167,0.003722618,554.4899999996167,5.528843e-06,554.4899999996167,9.324913e-05,554.4899999996167,2.200234e-05
554.5049999996166,0.003795361,554.5049999996166,5.652309e-06,554.5049999996166,8.933333e-05,554.5049999996166,2.253497e-05
554.5199999996166,0.003778586,554.5199999996166,6.230803e-06,554.5199999996166,7.22493e-05,554.5199999996166,2.317353e-05
554.5349999996166,0.003621506,554.5349999996166,6.539662e-06,554.5349999996166,5.167113e-05,554.5349999996166,2.374696e-05
554.5499999996166,0.003393327,554.5499999996166,6.667651e-06,554.5499999996166,5.163977e-05,554.5499999996166,2.421047e-05
554.5649999996166,0.003332707,554.5649999996166,6.75163e-06,554.5649999996166,4.840203e-05,554.5649999996166,2.41965e-05
554.5799999996166,0.003097634,554.5799999996166,6.914493e-06,554.5799999996166,4.786235e-05,554.5799999996166,2.402649e-05
554.5949999996166,0.002804986,554.5949999996166,6.930771e-06,554.5949999996166,4.845962e-05,554.5949999996166,2.449161e-05
554.6099999996165,0.002556711,554.6099999996165,6.973323e-06,554.6099999996165,5.774087e-05,554.6099999996165,2.40429e-05
554.6249999996165,0.002532573,554.6249999996165,6.855157e-06,554.6249999996165,9.027543e-05,554.6249999996165,2.359163e-05
554.6399999996165,0.002342834,554.6399999996165,6.797376e-06,554.6399999996165,0.000116488,554.6399999996165,2.336604e-05
554.6549999996165,0.002245012,554.6549999996165,6.629514e-06,554.6549999996165,0.0001358012,554.6549999996165,2.335518e-05
554.6699999996165,0.002168415,554.6699999996165,6.612493e-06,554.6699999996165,0.0001505152,554.6699999996165,2.337869e-05
554.6849999996165,0.002304987,554.6849999996165,6.774542e-06,554.6849999996165,0.0001556266,554.6849999996165,2.318386e-05
554.6999999996165,0.002308751,554.6999999996165,6.887957e-06,554.6999999996165,0.0001603654,554.6999999996165,2.326877e-05
554.7149999996165,0.002288658,554.7149999996165,6.7391e-06,554.7149999996165,0.0001577277,554.7149999996165,2.243159e-05
554.7299999996164,0.002526582,554.7299999996164,6.838698e-06,554.7299999996164,0.0001577664,554.7299999996164,2.260301e-05
554.7449999996164,0.002574533,554.7449999996164,6.780777e-06,554.7449999996164,0.0001577876,554.7449999996164,2.34599e-05
554.7599999996164,0.002672517,554.7599999996164,6.520246e-06,554.7599999996164,0.0001578075,554.7599999996164,2.311998e-05
554.7749999996164,0.002805339,554.7749999996164,5.879517e-06,554.7749999996164,0.0001578344,554.7749999996164,2.306813e-05
554.7899999996164,0.002991411,554.7899999996164,5.763367e-06,554.7899999996164,0.0001565579,554.7899999996164,2.35492e-05
554.8049999996164,0.00325923,554.8049999996164,5.657291e-06,554.8049999996164,0.0001567893,554.8049999996164,2.364113e-05
554.8199999996164,0.003438253,554.8199999996164,5.729046e-06,554.8199999996164,0.0001565202,554.8199999996164,3.233092e-05
554.8349999996163,0.003660412,554.8349999996163,5.704405e-06,554.8349999996163,0.0001590145,554.8349999996163,3.878335e-05
554.8499999996163,0.003899943,554.8499999996163,5.679657e-06,554.8499999996163,0.0001587269,554.8499999996163,3.958859e-05
554.8649999996163,0.004099199,554.8649999996163,5.230329e-06,554.8649999996163,0.0001597713,554.8649999996163,4.088533e-05
554.8799999996163,0.004221698,554.8799999996163,5.259872e-06,554.8799999996163,0.0001435989,554.8799999996163,4.20773e-05
554.8949999996163,0.004249819,554.8949999996163,5.246463e-06,554.8949999996163,0.0001327151,554.8949999996163,4.178772e-05
554.9099999996163,0.004136151,554.9099999996163,5.110451e-06,554.9099999996163,0.0001178524,554.9099999996163,4.202336e-05
554.9249999996163,0.003994332,554.9249999996163,5.259872e-06,554.9249999996163,9.884995e-05,554.9249999996163,4.579517e-05
554.9399999996162,0.004118907,554.9399999996162,4.962209e-06,554.9399999996162,0.0001116368,554.9399999996162,5.026321e-05
554.9549999996162,0.004422722,554.9549999996162,5.627332e-06,554.9549999996162,0.0001161936,554.9549999996162,5.178224e-05
554.9699999996162,0.004604233,554.9699999996162,5.533936e-06,554.9699999996162,0.0001306162,554.9699999996162,5.196256e-05
554.9849999996162,0.004595711,554.9849999996162,7.632989e-06,554.9849999996162,0.0001431729,554.9849999996162,5.30624e-05
554.9999999996162,0.004731926,554.9999999996162,8.174792e-06,554.9999999996162,0.00014478,554.9999999996162,5.359151e-05
555.0149999996162,0.004722591,555.0149999996162,9.564462e-06,555.0149999996162,0.0001455136,555.0149999996162,5.386418e-05
555.0299999996162,0.004752102,555.0299999996162,1.04053e-05,555.0299999996162,0.0001507562,555.0299999996162,5.397495e-05
555.0449999996162,0.00474976,555.0449999996162,1.170982e-05,555.0449999996162,0.0001647392,555.0449999996162,5.320609e-05
555.0599999996161,0.004717484,555.0599999996161,1.261552e-05,555.0599999996161,0.0001660569,555.0599999996161,5.365744e-05
555.0749999996161,0.004719194,555.0749999996161,1.312448e-05,555.0749999996161,0.0002066126,555.0749999996161,4.75295e-05
555.0899999996161,0.004801763,555.0899999996161,1.378205e-05,555.0899999996161,0.0002831888,555.0899999996161,4.259536e-05
555.1049999996161,0.004713122,555.1049999996161,1.425533e-05,555.1049999996161,0.00032303,555.1049999996161,4.332787e-05
555.1199999996161,0.004643724,555.1199999996161,1.520032e-05,555.1199999996161,0.0003541597,555.1199999996161,4.192974e-05
555.1349999996161,0.00453831,555.1349999996161,1.52964e-05,555.1349999996161,0.0004804512,555.1349999996161,4.210742e-05
555.149999999616,0.004430193,555.149999999616,1.548131e-05,555.149999999616,0.0005354538,555.149999999616,4.228768e-05
555.164999999616,0.004446936,555.164999999616,1.589081e-05,555.164999999616,0.0005407443,555.164999999616,4.04461e-05
555.179999999616,0.004440435,555.179999999616,1.620767e-05,555.179999999616,0.0005529466,555.179999999616,3.481082e-05
555.194999999616,0.004475541,555.194999999616,1.644152e-05,555.194999999616,0.0005525033,555.194999999616,2.881586e-05
555.209999999616,0.00440562,555.209999999616,1.698017e-05,555.209999999616,0.0005516166,555.209999999616,2.806799e-05
555.224999999616,0.004235667,555.224999999616,1.812772e-05,555.224999999616,0.0005480097,555.224999999616,2.800619e-05
555.239999999616,0.004321317,555.239999999616,1.775953e-05,555.239999999616,0.0005453811,555.239999999616,2.627846e-05
555.254999999616,0.004203267,555.254999999616,3.101489e-05,555.254999999616,0.0005450433,555.254999999616,2.570012e-05
555.269999999616,0.004202413,555.269999999616,3.377567e-05,555.269999999616,0.0005439957,555.269999999616,2.485246e-05
555.2849999996159,0.004181673,555.2849999996159,3.523635e-05,555.2849999996159,0.0005428674,555.2849999996159,2.518746e-05
555.2999999996159,0.004233629,555.2999999996159,3.509976e-05,555.2999999996159,0.0005394499,555.2999999996159,2.447896e-05
555.3149999996159,0.004131663,555.3149999996159,3.923653e-05,555.3149999996159,0.0005279693,555.3149999996159,2.409908e-05
555.3299999996159,0.00411631,555.3299999996159,4.26489e-05,555.3299999996159,0.0005232375,555.3299999996159,2.414813e-05
555.3449999996159,0.004025761,555.3449999996159,4.815694e-05,555.3449999996159,0.0004856765,555.3449999996159,2.505175e-05
555.3599999996159,0.004069361,555.3599999996159,8.166879e-05,555.3599999996159,0.0004428916,555.3599999996159,2.460581e-05
555.3749999996159,0.004027816,555.3749999996159,0.0001040801,555.3749999996159,0.0004187112,555.3749999996159,2.682124e-05
555.3899999996158,0.004294471,555.3899999996158,0.0001934262,555.3899999996158,0.0002779154,555.3899999996158,2.970268e-05
555.4049999996158,0.004459278,555.4049999996158,0.0003335185,555.4049999996158,0.0001387967,555.4049999996158,7.297467e-05
555.4199999996158,0.004587574,555.4199999996158,0.0003582971,555.4199999996158,0.0001054761,555.4199999996158,0.0001130685
555.4349999996158,0.004658302,555.4349999996158,0.0003910485,555.4349999996158,5.5483e-05,555.4349999996158,0.0001159208
555.4499999996158,0.004675483,555.4499999996158,0.0004847442,555.4499999996158,6.495787e-05,555.4499999996158,0.0001317552
555.4649999996158,0.004753402,555.4649999996158,0.0005029895,555.4649999996158,0.0001053193,555.4649999996158,0.000154383
555.4799999996158,0.004705957,555.4799999996158,0.0005186611,555.4799999996158,0.0001232228,555.4799999996158,0.0001621229
555.4949999996157,0.004517766,555.4949999996157,0.0005205548,555.4949999996157,0.0001604597,555.4949999996157,0.0001634422
555.5099999996157,0.004705574,555.5099999996157,0.0005228592,555.5099999996157,0.0001806476,555.5099999996157,0.0001718959
555.5249999996157,0.004827906,555.5249999996157,0.0005233263,555.5249999996157,0.0001907024,555.5249999996157,0.0001844575
555.5399999996157,0.004907197,555.5399999996157,0.0005232635,555.5399999996157,0.0001936488,555.5399999996157,0.0001986486
555.5549999996157,0.004905296,555.5549999996157,0.0005230684,555.5549999996157,0.0001978048,555.5549999996157,0.0002069301
555.5699999996157,0.005016703,555.5699999996157,0.0005230524,555.5699999996157,0.0001989129,555.5699999996157,0.0002123436
555.5849999996157,0.005044451,555.5849999996157,0.0005228733,555.5849999996157,0.0002001228,555.5849999996157,0.0002144185
555.5999999996156,0.005055944,555.5999999996156,0.0005223173,555.5999999996156,0.0002001703,555.5999999996156,0.0002571178
555.6149999996156,0.005100287,555.6149999996156,0.0005163239,555.6149999996156,0.0002001297,555.6149999996156,0.0002696659
555.6299999996156,0.005153333,555.6299999996156,0.0005136105,555.6299999996156,0.0002001483,555.6299999996156,0.0002941974
555.6449999996156,0.005166186,555.6449999996156,0.0004631874,555.6449999996156,0.0002005454,555.6449999996156,0.0003242143
555.6599999996156,0.005108687,555.6599999996156,0.0003941242,555.6599999996156,0.0002030984,555.6599999996156,0.0003491043
555.6749999996156,0.005051455,555.6749999996156,0.0003696813,555.6749999996156,0.0002015662,555.6749999996156,0.0003520835
555.6899999996156,0.005007894,555.6899999996156,0.0003128581,555.6899999996156,0.0002153635,555.6899999996156,0.0003547009
555.7049999996156,0.004928757,555.7049999996156,0.0001963431,555.7049999996156,0.0002138214,555.7049999996156,0.0003627238
555.7199999996155,0.005087291,555.7199999996155,0.0001394536,555.7199999996155,0.0002000608,555.7199999996155,0.0004516962
555.7349999996155,0.005194312,555.7349999996155,8.84129e-05,555.7349999996155,0.0001928343,555.7349999996155,0.0004737653
555.7499999996155,0.005241588,555.7499999996155,7.580897e-05,555.7499999996155,0.0001663533,555.7499999996155,0.0004844705
555.7649999996155,0.005241605,555.7649999996155,5.276637e-05,555.7649999996155,0.0001628749,555.7649999996155,0.0005073264
555.7799999996155,0.005226378,555.7799999996155,4.855893e-05,555.7799999996155,0.0001561037,555.7799999996155,0.0005159901
555.7949999996155,0.005196236,555.7949999996155,4.866383e-05,555.7949999996155,0.0001524891,555.7949999996155,0.0005111534
555.8099999996155,0.005213557,555.8099999996155,4.711304e-05,555.8099999996155,0.0001498545,555.8099999996155,0.000512787
555.8249999996154,0.005223866,555.8249999996154,4.735193e-05,555.8249999996154,0.0001511806,555.8249999996154,0.0005163131
555.8399999996154,0.00519477,555.8399999996154,4.600998e-05,555.8399999996154,0.0001518499,555.8399999996154,0.0005315316
555.8549999996154,0.005105961,555.8549999996154,5.012766e-05,555.8549999996154,0.0001532399,555.8549999996154,0.0005255864
555.8699999996154,0.004967022,555.8699999996154,5.208305e-05,555.8699999996154,0.0001532262,555.8699999996154,0.0005273969
555.8849999996154,0.004933054,555.8849999996154,4.800107e-05,555.8849999996154,0.0001530673,555.8849999996154,0.0005414128
555.8999999996154,0.004933054,555.8999999996154,4.441381e-05,555.8999999996154,0.0001492021,555.8999999996154,0.0005743686
555.9149999996154,0.004932896,555.9149999996154,4.308171e-05,555.9149999996154,0.0001492622,555.9149999996154,0.0005558802
555.9299999996153,0.004876139,555.9299999996153,4.253182e-05,555.9299999996153,0.0001420423,555.9299999996153,0.0005544724
555.9449999996153,0.004876007,555.9449999996153,3.889831e-05,555.9449999996153,0.0001185788,555.9449999996153,0.0005605234
555.9599999996153,0.004930137,555.9599999996153,4.030514e-05,555.9599999996153,0.0001109709,555.9599999996153,0.000545626
555.9749999996153,0.004929902,555.9749999996153,4.145163e-05,555.9749999996153,0.0001065239,555.9749999996153,0.0004686875
555.9899999996153,0.0047965,555.9899999996153,4.839708e-05,555.9899999996153,9.705925e-05,555.9899999996153,0.0004592474
556.0049999996153,0.004677583,556.0049999996153,4.911534e-05,556.0049999996153,8.147278e-05,556.0049999996153,0.0004436087
556.0199999996153,0.004510859,556.0199999996153,4.960818e-05,556.0199999996153,7.813198e-05,556.0199999996153,0.0004203922
556.0349999996153,0.004286721,556.0349999996153,4.990432e-05,556.0349999996153,7.741999e-05,556.0349999996153,0.0004099287
556.0499999996152,0.004175656,556.0499999996152,5.006721e-05,556.0499999996152,7.484552e-05,556.0499999996152,0.0004092817
556.0649999996152,0.004093276,556.0649999996152,5.030411e-05,556.0649999996152,7.429637e-05,556.0649999996152,0.0004061325
556.0799999996152,0.004037187,556.0799999996152,4.980684e-05,556.0799999996152,6.966148e-05,556.0799999996152,0.0003937928
556.0949999996152,0.003852666,556.0949999996152,4.941015e-05,556.0949999996152,6.280815e-05,556.0949999996152,0.0003583361
556.1099999996152,0.003759813,556.1099999996152,4.516829e-05,556.1099999996152,6.19366e-05,556.1099999996152,0.0003422396
556.1249999996152,0.003744973,556.1249999996152,4.256327e-05,556.1249999996152,6.149631e-05,556.1249999996152,0.0003257775
556.1399999996152,0.003572056,556.1399999996152,4.181704e-05,556.1399999996152,6.137662e-05,556.1399999996152,0.0002401144
556.1549999996151,0.003365981,556.1549999996151,3.960602e-05,556.1549999996151,6.115428e-05,556.1549999996151,0.000152746
556.1699999996151,0.003119527,556.1699999996151,3.801961e-05,556.1699999996151,6.068441e-05,556.1699999996151,0.0001301892
556.1849999996151,0.00298248,556.1849999996151,3.616518e-05,556.1849999996151,6.053543e-05,556.1849999996151,0.0001222977
556.1999999996151,0.002889575,556.1999999996151,3.570694e-05,556.1999999996151,6.046674e-05,556.1999999996151,8.987774e-05
556.2149999996151,0.002630879,556.2149999996151,3.274566e-05,556.2149999996151,6.017577e-05,556.2149999996151,4.8223e-05
556.2299999996151,0.002362022,556.2299999996151,2.7474e-05,556.2299999996151,5.997294e-05,556.2299999996151,1.815101e-05
556.2449999996151,0.00234554,556.2449999996151,1.619984e-05,556.2449999996151,5.956804e-05,556.2449999996151,1.355532e-05
556.259999999615,0.00219545,556.259999999615,1.348342e-05,556.259999999615,3.986446e-05,556.259999999615,1.297769e-05
556.274999999615,0.002125878,556.274999999615,1.21096e-05,556.274999999615,2.308095e-05,556.274999999615,1.261887e-05
556.289999999615,0.002100034,556.289999999615,1.061439e-05,556.289999999615,1.877812e-05,556.289999999615,1.07266e-05
556.304999999615,0.002031045,556.304999999615,8.444335e-06,556.304999999615,1.638745e-05,556.304999999615,8.571823e-06
556.319999999615,0.001871875,556.319999999615,5.706874e-06,556.319999999615,1.498848e-05,556.319999999615,8.461e-06
556.334999999615,0.001716552,556.334999999615,5.877121e-06,556.334999999615,1.441453e-05,556.334999999615,8.387425e-06
556.349999999615,0.001656546,556.349999999615,5.841057e-06,556.349999999615,1.123462e-05,556.349999999615,7.693649e-06
556.364999999615,0.0016738,556.364999999615,6.608231e-06,556.364999999615,6.846933e-06,556.364999999615,7.196016e-06
556.3799999996149,0.001674653,556.3799999996149,6.189974e-06,556.3799999996149,5.714275e-06,556.3799999996149,7.075597e-06
556.3949999996149,0.001644019,556.3949999996149,6.21269e-06,556.3949999996149,4.916579e-06,556.3949999996149,7.117283e-06
556.4099999996149,0.001617711,556.4099999996149,6.684531e-06,556.4099999996149,6.463831e-06,556.4099999996149,7.119262e-06
556.4249999996149,0.001629303,556.4249999996149,7.451826e-06,556.4249999996149,6.896133e-06,556.4249999996149,7.279705e-06
556.4399999996149,0.001434945,556.4399999996149,8.941813e-06,556.4399999996149,7.140994e-06,556.4399999996149,7.463159e-06
556.4549999996149,0.00133268,556.4549999996149,9.23781e-06,556.4549999996149,7.176414e-06,556.4549999996149,7.448044e-06
556.4699999996149,0.001116641,556.4699999996149,9.158172e-06,556.4699999996149,1.36846e-05,556.4699999996149,7.423416e-06
556.4849999996148,0.001066679,556.4849999996148,1.033466e-05,556.4849999996148,2.863097e-05,556.4849999996148,6.80152e-06
556.4999999996148,0.001069208,556.4999999996148,1.070031e-05,556.4999999996148,4.229401e-05,556.4999999996148,6.999535e-06
556.5149999996148,0.001020414,556.5149999996148,1.075939e-05,556.5149999996148,4.762987e-05,556.5149999996148,7.291306e-06
556.5299999996148,0.0007878778,556.5299999996148,1.086362e-05,556.5299999996148,5.221298e-05,556.5299999996148,7.180339e-06
556.5449999996148,0.0007463226,556.5449999996148,1.076069e-05,556.5449999996148,5.344041e-05,556.5449999996148,7.295169e-06
556.5599999996148,0.0007649045,556.5599999996148,1.076069e-05,556.5599999996148,5.345201e-05,556.5599999996148,7.27777e-06
556.5749999996148,0.0007714268,556.5749999996148,1.100149e-05,556.5749999996148,5.3571e-05,556.5749999996148,7.256447e-06
556.5899999996147,0.0007736031,556.5899999996147,1.122207e-05,556.5899999996147,5.366978e-05,556.5899999996147,7.1823e-06
556.6049999996147,0.0007600851,556.6049999996147,1.109457e-05,556.6049999996147,5.370599e-05,556.6049999996147,7.119262e-06
556.6199999996147,0.0007823314,556.6199999996147,1.073711e-05,556.6199999996147,5.371149e-05,556.6199999996147,7.049668e-06
556.6349999996147,0.0007925315,556.6349999996147,1.069109e-05,556.6349999996147,5.371359e-05,556.6349999996147,7.083556e-06
556.6499999996147,0.0008443989,556.6499999996147,1.069241e-05,556.6499999996147,5.363433e-05,556.6499999996147,7.786468e-06
556.6649999996147,0.000821705,556.6649999996147,1.019468e-05,556.6649999996147,5.356521e-05,556.6649999996147,8.048017e-06
556.6799999996147,0.0008337736,556.6799999996147,1.00961e-05,556.6799999996147,5.347151e-05,556.6799999996147,9.70337e-06
556.6949999996147,0.000837033,556.6949999996147,8.872225e-06,556.6949999996147,5.347151e-05,556.6949999996147,9.523133e-06
556.7099999996146,0.0008287706,556.7099999996146,8.963841e-06,556.7099999996146,5.347467e-05,556.7099999996146,9.754049e-06
556.7249999996146,0.0008482321,556.7249999996146,9.056085e-06,556.7249999996146,4.650121e-05,556.7249999996146,9.821691e-06
556.7399999996146,0.0008603347,556.7399999996146,7.827967e-06,556.7399999996146,4.149918e-05,556.7399999996146,9.767037e-06
556.7549999996146,0.0009505881,556.7549999996146,7.874616e-06,556.7549999996146,2.713297e-05,556.7549999996146,9.520175e-06
556.7699999996146,0.0009720629,556.7699999996146,7.917432e-06,556.7699999996146,2.145124e-05,556.7699999996146,9.579178e-06
556.7849999996146,0.001018654,556.7849999996146,7.721065e-06,556.7849999996146,9.798716e-06,556.7849999996146,9.774246e-06
556.7999999996146,0.001014292,556.7999999996146,7.842351e-06,556.7999999996146,6.187698e-06,556.7999999996146,1.095658e-05
556.8149999996145,0.0009939607,556.8149999996145,7.915653e-06,556.8149999996145,5.965146e-06,556.8149999996145,1.128716e-05
556.8299999996145,0.001006934,556.8299999996145,7.584854e-06,556.8299999996145,5.622323e-06,556.8299999996145,1.133448e-05
556.8449999996145,0.001005113,556.8449999996145,7.463159e-06,556.8449999996145,5.227635e-06,556.8449999996145,1.168573e-05
556.8599999996145,0.0009755904,556.8599999996145,7.644054e-06,556.8599999996145,5.674694e-06,556.8599999996145,1.205714e-05
556.8749999996145,0.0009626544,556.8749999996145,7.66246e-06,556.8749999996145,6.183143e-06,556.8749999996145,1.20548e-05
556.8899999996145,0.0009591402,556.8899999996145,7.69548e-06,556.8899999996145,6.612493e-06,556.8899999996145,1.180327e-05
556.9049999996145,0.0009282232,556.9049999996145,7.623756e-06,556.9049999996145,6.522406e-06,556.9049999996145,1.157551e-05
556.9199999996144,0.0009171154,556.9199999996144,7.744747e-06,556.9199999996144,6.515924e-06,556.9199999996144,1.049158e-05
556.9349999996144,0.0009021577,556.9349999996144,7.638524e-06,556.9349999996144,6.778699e-06,556.9349999996144,9.589467e-06
556.9499999996144,0.0008842449,556.9499999996144,7.2409e-06,556.9499999996144,6.995509e-06,556.9499999996144,9.536437e-06
556.9649999996144,0.0007969327,556.9649999996144,7.335607e-06,556.9649999996144,7.229218e-06,556.9649999996144,9.582119e-06
556.9799999996144,0.0007540214,556.9799999996144,7.043671e-06,556.9799999996144,7.474476e-06,556.9799999996144,9.567407e-06
556.9949999996144,0.0007422753,556.9949999996144,6.511599e-06,556.9949999996144,7.523317e-06,556.9949999996144,9.570351e-06
557.0099999996144,0.0006658527,557.0099999996144,6.269119e-06,557.0099999996144,7.560672e-06,557.0099999996144,9.623194e-06
557.0249999996144,0.0006403097,557.0249999996144,6.109804e-06,557.0249999996144,7.60896e-06,557.0249999996144,9.077836e-06
557.0399999996143,0.0005648662,557.0399999996143,6.019215e-06,557.0399999996143,7.732004e-06,557.0399999996143,8.609537e-06
557.0549999996143,0.0005604874,557.0549999996143,5.905813e-06,557.0549999996143,7.757469e-06,557.0549999996143,7.001547e-06
557.0699999996143,0.0004904712,557.0699999996143,5.544109e-06,557.0699999996143,7.396802e-06,557.0699999996143,6.395915e-06
557.0849999996143,0.0004035016,557.0849999996143,5.436346e-06,557.0849999996143,6.877724e-06,557.0849999996143,6.612493e-06
557.0999999996143,0.0003713076,557.0999999996143,4.919443e-06,557.0999999996143,6.730734e-06,557.0999999996143,6.365006e-06
557.1149999996143,0.0003800917,557.1149999996143,4.500739e-06,557.1149999996143,6.275856e-06,557.1149999996143,5.924864e-06
557.1299999996143,0.0003846202,557.1299999996143,4.399444e-06,557.1299999996143,5.60727e-06,557.1299999996143,6.070483e-06
557.1449999996142,0.0003882747,557.1449999996142,3.936414e-06,557.1449999996142,5.08004e-06,557.1449999996142,6.061194e-06
557.1599999996142,0.0004595052,557.1599999996142,3.556662e-06,557.1599999996142,4.916579e-06,557.1599999996142,6.266871e-06
557.1749999996142,0.0004804198,557.1749999996142,3.352786e-06,557.1749999996142,5.310512e-06,557.1749999996142,7.697311e-06
557.1899999996142,0.0006256975,557.1899999996142,2.551088e-06,557.1899999996142,5.48022e-06,557.1899999996142,8.854743e-06
557.2049999996142,0.0007819147,557.2049999996142,2.420756e-06,557.2049999996142,5.173461e-06,557.2049999996142,8.723317e-06
557.2199999996142,0.0008090723,557.2199999996142,2.214083e-06,557.2199999996142,4.890725e-06,557.2199999996142,9.141237e-06
557.2349999996142,0.0008212609,557.2349999996142,2.109832e-06,557.2349999996142,4.450379e-06,557.2349999996142,9.465269e-06
557.2499999996141,0.0008545392,557.2499999996141,2.089706e-06,557.2499999996141,4.35762e-06,557.2499999996141,9.834591e-06
557.2649999996141,0.0008783365,557.2649999996141,2.116498e-06,557.2649999996141,4.373753e-06,557.2649999996141,1.011701e-05
557.2799999996141,0.0008837219,557.2799999996141,2.123144e-06,557.2799999996141,4.35762e-06,557.2799999996141,1.026765e-05
557.2949999996141,0.0009096816,557.2949999996141,2.103145e-06,557.2949999996141,4.256228e-06,557.2949999996141,1.040124e-05
557.3099999996141,0.0009663118,557.3099999996141,2.055725e-06,557.3099999996141,4.299038e-06,557.3099999996141,1.103984e-05
557.3249999996141,0.001023891,557.3249999996141,2.014191e-06,557.3249999996141,4.440873e-06,557.3249999996141,1.241404e-05
557.3399999996141,0.001042517,557.3399999996141,2.000155e-06,557.3399999996141,4.459865e-06,557.3399999996141,1.33817e-05
557.354999999614,0.001261733,557.354999999614,2.089706e-06,557.354999999614,4.672725e-06,557.354999999614,1.50354e-05
557.369999999614,0.001502391,557.369999999614,2.149519e-06,557.369999999614,4.756387e-06,557.369999999614,1.583131e-05
557.384999999614,0.001609522,557.384999999614,2.142956e-06,557.384999999614,4.599804e-06,557.384999999614,1.605572e-05
557.399999999614,0.001613008,557.399999999614,2.149519e-06,557.399999999614,4.747494e-06,557.399999999614,1.612489e-05
557.414999999614,0.001640737,557.414999999614,2.194914e-06,557.414999999614,4.753424e-06,557.414999999614,1.595451e-05
557.429999999614,0.001694507,557.429999999614,2.233089e-06,557.429999999614,4.34467e-06,557.429999999614,1.588106e-05
557.444999999614,0.001649586,557.444999999614,2.706488e-06,557.444999999614,4.000309e-06,557.444999999614,1.518178e-05
557.459999999614,0.001579792,557.459999999614,3.975583e-06,557.459999999614,4.702775e-06,557.459999999614,1.531205e-05
557.4749999996139,0.00156478,557.4749999996139,4.469331e-06,557.4749999996139,5.459618e-06,557.4749999996139,1.520959e-05
557.4899999996139,0.001559654,557.4899999996139,4.711753e-06,557.4899999996139,5.541568e-06,557.4899999996139,1.502415e-05
557.5049999996139,0.001547544,557.5049999996139,5.444114e-06,557.5049999996139,5.614802e-06,557.5049999996139,1.493764e-05
557.5199999996139,0.001597883,557.5199999996139,5.539025e-06,557.5199999996139,8.030494e-06,557.5199999996139,1.484019e-05
557.5349999996139,0.002003669,557.5349999996139,5.587136e-06,557.5349999996139,8.916571e-06,557.5349999996139,1.490649e-05
557.5499999996139,0.002354553,557.5499999996139,5.652309e-06,557.5499999996139,9.10263e-06,557.5499999996139,1.49367e-05
557.5649999996139,0.002710818,557.5649999996139,5.657291e-06,557.5649999996139,9.260655e-06,557.5649999996139,1.425039e-05
557.5799999996138,0.002798823,557.5799999996138,5.677176e-06,557.5799999996138,9.697562e-06,557.5799999996138,1.282702e-05
557.5949999996138,0.003062998,557.5949999996138,5.677176e-06,557.5949999996138,1.203609e-05,557.5949999996138,1.207232e-05
557.6099999996138,0.003225048,557.6099999996138,5.652309e-06,557.6099999996138,1.25562e-05,557.6099999996138,9.947104e-06
557.6249999996138,0.00317433,557.6249999996138,5.684616e-06,557.6249999996138,1.349491e-05,557.6249999996138,9.306177e-06
557.6399999996138,0.00321205,557.6399999996138,5.704405e-06,557.6399999996138,1.398699e-05,557.6399999996138,9.362016e-06
557.6549999996138,0.003231706,557.6549999996138,5.682137e-06,557.6549999996138,1.407634e-05,557.6549999996138,9.306177e-06
557.6699999996138,0.003284156,557.6699999996138,5.662269e-06,557.6699999996138,1.461542e-05,557.6699999996138,9.23476e-06
557.6849999996138,0.003333572,557.6849999996138,5.664756e-06,557.6849999996138,1.480122e-05,557.6849999996138,9.301635e-06
557.6999999996137,0.003340886,557.6999999996137,5.48022e-06,557.6999999996137,1.47936e-05,557.6999999996137,9.454845e-06
557.7149999996137,0.003365767,557.7149999996137,4.399444e-06,557.7149999996137,1.474783e-05,557.7149999996137,9.549722e-06
557.7299999996137,0.003366949,557.7299999996137,4.179412e-06,557.7299999996137,1.457971e-05,557.7299999996137,9.484596e-06
557.7449999996137,0.003373526,557.7449999996137,3.83123e-06,557.7449999996137,1.456328e-05,557.7449999996137,9.561515e-06
557.7599999996137,0.00337636,557.7599999996137,2.823661e-06,557.7599999996137,1.454005e-05,557.7599999996137,9.430977e-06
557.7749999996137,0.003273841,557.7749999996137,2.763147e-06,557.7749999996137,1.3061e-05,557.7749999996137,9.280408e-06
557.7899999996137,0.003081087,557.7899999996137,2.838588e-06,557.7899999996137,1.293964e-05,557.7899999996137,9.216436e-06
557.8049999996136,0.002809986,557.8049999996136,3.058359e-06,557.8049999996136,1.305561e-05,557.8049999996136,9.094889e-06
557.8199999996136,0.002465511,557.8199999996136,3.094987e-06,557.8199999996136,1.267123e-05,557.8199999996136,9.219493e-06
557.8349999996136,0.002366702,557.8349999996136,3.072146e-06,557.8349999996136,1.229087e-05,557.8349999996136,9.44441e-06
557.8499999996136,0.002019515,557.8499999996136,3.122176e-06,557.8499999996136,9.86034e-06,557.8499999996136,9.139696e-06
557.8649999996136,0.001625126,557.8649999996136,3.135683e-06,557.8649999996136,9.546771e-06,557.8649999996136,9.161248e-06
557.8799999996136,0.00160666,557.8799999996136,3.149131e-06,557.8799999996136,7.919212e-06,557.8799999996136,9.67866e-06
557.8949999996136,0.001547411,557.8949999996136,3.327482e-06,557.8949999996136,7.446153e-06,557.8949999996136,9.390561e-06
557.9099999996135,0.001499788,557.9099999996135,3.615583e-06,557.9099999996135,7.115304e-06,557.9099999996135,9.451865e-06
557.9249999996135,0.001275031,557.9249999996135,3.642754e-06,557.9249999996135,5.833818e-06,557.9249999996135,9.236285e-06
557.9399999996135,0.001151869,557.9399999996135,3.623367e-06,557.9399999996135,5.500745e-06,557.9399999996135,9.324323e-06
557.9549999996135,0.001199572,557.9549999996135,3.638885e-06,557.9549999996135,5.384273e-06,557.9549999996135,9.0374e-06
557.9699999996135,0.001151074,557.9699999996135,5.099414e-06,557.9699999996135,4.575239e-06,557.9699999996135,9.20114e-06
557.9849999996135,0.001155929,557.9849999996135,6.883865e-06,557.9849999996135,4.630328e-06,557.9849999996135,9.23476e-06
557.9999999996135,0.001136277,557.9999999996135,7.015617e-06,557.9999999996135,4.519479e-06,557.9999999996135,9.618801e-06
558.0149999996135,0.001188612,558.0149999996135,7.781039e-06,558.0149999996135,5.634837e-06,558.0149999996135,9.741042e-06
558.0299999996134,0.001259399,558.0299999996134,7.797315e-06,558.0299999996134,5.582091e-06,558.0299999996134,1.000359e-05
558.0449999996134,0.001176169,558.0449999996134,7.777418e-06,558.0449999996134,5.206033e-06,558.0449999996134,1.000218e-05
558.0599999996134,0.001124001,558.0599999996134,7.833364e-06,558.0599999996134,4.907976e-06,558.0599999996134,1.007095e-05
558.0749999996134,0.00117533,558.0749999996134,7.854914e-06,558.0749999996134,4.876302e-06,558.0749999996134,9.914478e-06
558.0899999996134,0.001140628,558.0899999996134,7.887128e-06,558.0899999996134,4.723696e-06,558.0899999996134,9.881745e-06
558.1049999996134,0.001126392,558.1049999996134,8.018206e-06,558.1049999996134,4.690778e-06,558.1049999996134,9.694656e-06
558.1199999996134,0.001126306,558.1199999996134,8.007658e-06,558.1199999996134,4.645514e-06,558.1199999996134,9.870335e-06
558.1349999996133,0.001126714,558.1349999996133,7.96002e-06,558.1349999996133,4.627284e-06,558.1349999996133,9.185817e-06
558.1499999996133,0.001115539,558.1499999996133,7.954708e-06,558.1499999996133,4.572159e-06,558.1499999996133,9.599744e-06
558.1649999996133,0.001119792,558.1649999996133,7.872827e-06,558.1649999996133,4.575239e-06,558.1649999996133,9.460803e-06
558.1799999996133,0.001118983,558.1799999996133,7.922768e-06,558.1799999996133,4.593675e-06,558.1799999996133,9.662636e-06
558.1949999996133,0.001081495,558.1949999996133,7.910313e-06,558.1949999996133,4.627284e-06,558.1949999996133,9.800154e-06
558.2099999996133,0.001062633,558.2099999996133,7.967094e-06,558.2099999996133,4.608983e-06,558.2099999996133,9.838886e-06
558.2249999996133,0.001064268,558.2249999996133,6.455107e-06,558.2249999996133,4.642481e-06,558.2249999996133,9.709175e-06
558.2399999996132,0.001083007,558.2399999996132,5.462197e-06,558.2399999996132,4.531929e-06,558.2399999996132,9.94852e-06
558.2549999996132,0.001084447,558.2549999996132,5.206033e-06,558.2549999996132,4.469331e-06,558.2549999996132,9.623194e-06
558.2699999996132,0.001010401,558.2699999996132,4.308857e-06,558.2699999996132,2.873116e-06,558.2699999996132,9.907371e-06
558.2849999996132,0.000915774,558.2849999996132,4.497608e-06,558.2849999996132,2.912075e-06,558.2849999996132,9.788648e-06
558.2999999996132,0.0009449645,558.2999999996132,4.936594e-06,558.2999999996132,2.892662e-06,558.2999999996132,1.004575e-05
558.3149999996132,0.001069537,558.3149999996132,4.982041e-06,558.3149999996132,3.241707e-06,558.3149999996132,1.018639e-05
558.3299999996132,0.00102606,558.3299999996132,5.041069e-06,558.3299999996132,4.299038e-06,558.3299999996132,1.020573e-05
558.3449999996132,0.0009811653,558.3449999996132,5.438937e-06,558.3449999996132,5.571988e-06,558.3449999996132,1.041207e-05
558.3599999996131,0.0009779297,558.3599999996131,5.281253e-06,558.3599999996131,6.676181e-05,558.3599999996131,1.045931e-05
558.3749999996131,0.0009780623,558.3749999996131,5.402556e-06,558.3749999996131,6.893762e-05,558.3749999996131,1.080642e-05
558.3899999996131,0.001000966,558.3899999996131,5.418178e-06,558.3899999996131,6.947479e-05,558.3899999996131,1.088176e-05
558.4049999996131,0.001039786,558.4049999996131,5.420777e-06,558.4049999996131,6.963114e-05,558.4049999996131,1.105641e-05
558.4199999996131,0.001069541,558.4199999996131,5.368553e-06,558.4199999996131,6.965784e-05,558.4199999996131,1.107551e-05
558.4349999996131,0.001156097,558.4349999996131,5.412975e-06,558.4349999996131,6.980087e-05,558.4349999996131,1.135807e-05
558.449999999613,0.001174424,558.449999999613,5.469929e-06,558.449999999613,7.050967e-05,558.449999999613,1.184616e-05
558.464999999613,0.001152233,558.464999999613,5.294573e-06,558.464999999613,7.303814e-05,558.464999999613,1.197625e-05
558.479999999613,0.001556362,558.479999999613,5.505864e-06,558.479999999613,7.31349e-05,558.479999999613,1.338696e-05
558.494999999613,0.001696186,558.494999999613,5.498184e-06,558.494999999613,7.316032e-05,558.494999999613,1.35574e-05
558.509999999613,0.001782174,558.509999999613,5.662269e-06,558.509999999613,7.331554e-05,558.509999999613,1.389504e-05
558.524999999613,0.001765347,558.524999999613,5.609782e-06,558.524999999613,7.332591e-05,558.524999999613,1.385748e-05
558.539999999613,0.001736256,558.539999999613,5.513535e-06,558.539999999613,7.332573e-05,558.539999999613,1.413924e-05
558.554999999613,0.00173361,558.554999999613,5.407768e-06,558.554999999613,7.332495e-05,558.554999999613,1.469232e-05
558.569999999613,0.001701576,558.569999999613,5.392116e-06,558.569999999613,7.331727e-05,558.569999999613,1.491593e-05
558.5849999996129,0.001733727,558.5849999996129,6.11211e-06,558.5849999996129,7.323518e-05,558.5849999996129,1.484209e-05
558.5999999996129,0.001770227,558.5999999996129,6.325044e-06,558.5999999996129,6.297345e-05,558.5999999996129,1.501008e-05
558.6149999996129,0.001801051,558.6149999996129,6.515924e-06,558.6149999996129,2.779869e-05,558.6149999996129,1.52355e-05
558.6299999996129,0.001844783,558.6299999996129,6.663425e-06,558.6299999996129,2.588636e-05,558.6299999996129,1.534238e-05
558.6449999996129,0.001823051,558.6449999996129,6.671875e-06,558.6449999996129,2.950807e-05,558.6449999996129,1.532676e-05
558.6599999996129,0.001792652,558.6599999996129,6.780777e-06,558.6599999996129,4.474182e-05,558.6599999996129,1.527613e-05
558.6749999996129,0.001809013,558.6749999996129,6.898175e-06,558.6749999996129,5.146927e-05,558.6749999996129,1.571879e-05
558.6899999996128,0.001891501,558.6899999996128,6.809799e-06,558.6899999996128,5.406622e-05,558.6899999996128,1.761857e-05
558.7049999996128,0.001926626,558.7049999996128,6.75163e-06,558.7049999996128,6.388422e-05,558.7049999996128,1.766728e-05
558.7199999996128,0.001949907,558.7199999996128,6.80152e-06,558.7199999996128,0.0001033455,558.7199999996128,1.802407e-05
558.7349999996128,0.001614581,558.7349999996128,6.902258e-06,558.7349999996128,0.00010791,558.7349999996128,1.754326e-05
558.7499999996128,0.001583048,558.7499999996128,6.904299e-06,558.7499999996128,0.0001082222,558.7499999996128,2.032155e-05
558.7649999996128,0.001524323,558.7649999996128,6.79323e-06,558.7649999996128,0.000112156,558.7649999996128,2.150371e-05
558.7799999996128,0.001776595,558.7799999996128,7.144938e-06,558.7799999996128,0.0001136686,558.7799999996128,2.340579e-05
558.7949999996127,0.002100037,558.7949999996127,7.087532e-06,558.7949999996127,0.0001224201,558.7949999996127,2.434161e-05
558.8099999996127,0.00233283,558.8099999996127,7.219469e-06,558.8099999996127,0.0001224657,558.8099999996127,2.43254e-05
558.8249999996127,0.002433778,558.8249999996127,6.711871e-06,558.8249999996127,0.0001224698,558.8249999996127,2.434624e-05
558.8399999996127,0.002622168,558.8399999996127,6.135114e-06,558.8399999996127,0.0001225017,558.8399999996127,2.447723e-05
558.8549999996127,0.003016913,558.8549999996127,5.953326e-06,558.8549999996127,0.0001225027,558.8549999996127,2.473656e-05
558.8699999996127,0.003341617,558.8699999996127,5.903427e-06,558.8699999996127,0.0001225495,558.8699999996127,2.57078e-05
558.8849999996127,0.003436185,558.8849999996127,5.75603e-06,558.8849999996127,0.0001232334,558.8849999996127,2.589833e-05
558.8999999996126,0.003583967,558.8999999996126,5.753582e-06,558.8999999996126,0.0001198723,558.8999999996126,3.024315e-05
558.9149999996126,0.003832409,558.9149999996126,5.533936e-06,558.9149999996126,0.0001199072,558.9149999996126,3.213382e-05
558.9299999996126,0.003982762,558.9299999996126,5.523745e-06,558.9299999996126,0.0001178644,558.9299999996126,3.295963e-05
558.9449999996126,0.003938979,558.9449999996126,5.604757e-06,558.9449999996126,0.000119052,558.9449999996126,3.320277e-05
558.9599999996126,0.003954634,558.9599999996126,5.556798e-06,558.9599999996126,0.0001044187,558.9599999996126,3.342856e-05
558.9749999996126,0.003964277,558.9749999996126,5.797484e-06,558.9749999996126,7.738706e-05,558.9749999996126,3.489327e-05
558.9899999996126,0.003971037,558.9899999996126,5.765811e-06,558.9899999996126,7.559629e-05,558.9899999996126,3.788599e-05
559.0049999996126,0.0042234,559.0049999996126,6.764137e-06,559.0049999996126,8.514657e-05,559.0049999996126,4.527389e-05
559.0199999996125,0.004417372,559.0199999996125,6.513761e-06,559.0199999996125,8.183524e-05,559.0199999996125,4.892625e-05
559.0349999996125,0.004330647,559.0349999996125,6.963215e-06,559.0349999996125,6.867824e-05,559.0349999996125,4.753276e-05
559.0499999996125,0.004327853,559.0499999996125,7.603404e-06,559.0499999996125,6.72286e-05,559.0499999996125,4.799344e-05
559.0649999996125,0.00433444,559.0649999996125,8.002378e-06,559.0649999996125,7.03078e-05,559.0649999996125,4.973467e-05
559.0799999996125,0.004531332,559.0799999996125,8.889673e-06,559.0799999996125,7.03915e-05,559.0799999996125,5.005314e-05
559.0949999996125,0.004417218,559.0949999996125,9.216436e-06,559.0949999996125,7.052765e-05,559.0949999996125,5.009984e-05
559.1099999996125,0.004417218,559.1099999996125,9.714977e-06,559.1099999996125,7.173783e-05,559.1099999996125,5.024079e-05
559.1249999996124,0.0044717,559.1249999996124,9.983855e-06,559.1249999996124,7.045451e-05,559.1249999996124,4.951979e-05
559.1399999996124,0.004503629,559.1399999996124,1.044179e-05,559.1399999996124,6.999495e-05,559.1399999996124,4.937964e-05
559.1549999996124,0.004553664,559.1549999996124,1.187704e-05,559.1549999996124,6.562283e-05,559.1549999996124,4.588889e-05
559.1699999996124,0.004478108,559.1699999996124,1.485537e-05,559.1699999996124,6.546142e-05,559.1699999996124,4.557006e-05
559.1849999996124,0.004366807,559.1849999996124,4.665182e-05,559.1849999996124,6.256771e-05,559.1849999996124,4.446168e-05
559.1999999996124,0.004395981,559.1999999996124,7.0751e-05,559.1999999996124,5.89691e-05,559.1999999996124,4.529131e-05
559.2149999996124,0.004328018,559.2149999996124,9.728438e-05,559.2149999996124,5.826811e-05,559.2149999996124,4.484434e-05
559.2299999996123,0.004288173,559.2299999996123,0.000111522,559.2299999996123,5.671392e-05,559.2299999996123,4.274985e-05
559.2449999996123,0.004220121,559.2449999996123,0.0001124006,559.2449999996123,4.702506e-05,559.2449999996123,3.95448e-05
559.2599999996123,0.004131454,559.2599999996123,0.0001131067,559.2599999996123,3.046545e-05,559.2599999996123,2.64276e-05
559.2749999996123,0.004048519,559.2749999996123,0.0001144481,559.2749999996123,2.926311e-05,559.2749999996123,2.554619e-05
559.2899999996123,0.004053836,559.2899999996123,0.00011555,559.2899999996123,2.95834e-05,559.2899999996123,2.600526e-05
559.3049999996123,0.004054868,559.3049999996123,0.000115615,559.3049999996123,3.273189e-05,559.3049999996123,2.548823e-05
559.3199999996123,0.003931473,559.3199999996123,0.0001157113,559.3199999996123,2.711584e-05,559.3199999996123,2.351927e-05
559.3349999996123,0.003898979,559.3349999996123,0.000115882,559.3349999996123,2.747657e-05,559.3349999996123,2.265094e-05
559.3499999996122,0.004001533,559.3499999996122,0.0001160163,559.3499999996122,2.376179e-05,559.3499999996122,2.316806e-05
559.3649999996122,0.003890689,559.3649999996122,0.0001162917,559.3649999996122,2.415513e-05,559.3649999996122,2.441327e-05
559.3799999996122,0.003744606,559.3799999996122,0.0001167009,559.3799999996122,2.420291e-05,559.3799999996122,2.450599e-05
559.3949999996122,0.003649118,559.3949999996122,0.0001193501,559.3949999996122,2.412771e-05,559.3949999996122,2.495032e-05
559.4099999996122,0.003607374,559.4099999996122,0.0001202691,559.4099999996122,2.408505e-05,559.4099999996122,2.500165e-05
559.4249999996122,0.003588196,559.4249999996122,0.0001241712,559.4249999996122,2.38405e-05,559.4249999996122,2.49136e-05
559.4399999996122,0.003584306,559.4399999996122,0.0001090418,559.4399999996122,2.392249e-05,559.4399999996122,2.384345e-05
559.4549999996121,0.00367259,559.4549999996121,0.0001093369,559.4549999996121,2.409499e-05,559.4549999996121,2.279724e-05
559.4699999996121,0.003763617,559.4699999996121,0.000169413,559.4699999996121,2.427671e-05,559.4699999996121,2.589506e-05
559.4849999996121,0.003776334,559.4849999996121,0.0001812553,559.4849999996121,2.424245e-05,559.4849999996121,2.91966e-05
559.4999999996121,0.003755575,559.4999999996121,0.0002570572,559.4999999996121,2.48224e-05,559.4999999996121,3.032595e-05
559.5149999996121,0.003650184,559.5149999996121,0.0003292329,559.5149999996121,5.949303e-05,559.5149999996121,3.056055e-05
559.5299999996121,0.003595624,559.5299999996121,0.000384357,559.5299999996121,7.026651e-05,559.5299999996121,3.295749e-05
559.5449999996121,0.003497201,559.5449999996121,0.000399203,559.5449999996121,8.246558e-05,559.5449999996121,4.233696e-05
559.559999999612,0.003281235,559.559999999612,0.0004268239,559.559999999612,0.0001175345,559.559999999612,5.087438e-05
559.574999999612,0.003208131,559.574999999612,0.0004374772,559.574999999612,0.0001475143,559.574999999612,5.500515e-05
559.589999999612,0.003183562,559.589999999612,0.0004393523,559.589999999612,0.0001812262,559.589999999612,0.0001178563
559.604999999612,0.003104216,559.604999999612,0.0004406145,559.604999999612,0.0001966607,559.604999999612,0.0001496831
559.619999999612,0.003186654,559.619999999612,0.0004411451,559.619999999612,0.0002016186,559.619999999612,0.0001643586
559.634999999612,0.003407405,559.634999999612,0.0004406876,559.634999999612,0.000206674,559.634999999612,0.0001668258
559.649999999612,0.003492968,559.649999999612,0.0004402754,559.649999999612,0.0002072435,559.649999999612,0.0001689384
559.664999999612,0.003613263,559.664999999612,0.0004391034,559.664999999612,0.0002082708,559.664999999612,0.0001709612
559.6799999996119,0.003810296,559.6799999996119,0.0004389917,559.6799999996119,0.0002096585,559.6799999996119,0.0001737142
559.6949999996119,0.003987978,559.6949999996119,0.0004384409,559.6949999996119,0.0002102017,559.6949999996119,0.0001785508
559.7099999996119,0.00393036,559.7099999996119,0.0004360032,559.7099999996119,0.0002105897,559.7099999996119,0.0001800328
559.7249999996119,0.004090752,559.7249999996119,0.000406607,559.7249999996119,0.0002106399,559.7249999996119,0.0001851929
559.7399999996119,0.004276448,559.7399999996119,0.0003923475,559.7399999996119,0.0002115005,559.7399999996119,0.0002043791
559.7549999996119,0.004430467,559.7549999996119,0.0003381144,559.7549999996119,0.0002205399,559.7549999996119,0.0002077328
559.7699999996119,0.004492963,559.7699999996119,0.0002863999,559.7699999996119,0.0002150343,559.7699999996119,0.0002078195
559.7849999996118,0.004473211,559.7849999996118,0.0002122297,559.7849999996118,0.0002163621,559.7849999996118,0.0002079932
559.7999999996118,0.004498185,559.7999999996118,0.0001530063,559.7999999996118,0.0002102321,559.7999999996118,0.0002071143
559.8149999996118,0.004662409,559.8149999996118,9.044723e-05,559.8149999996118,0.0001873784,559.8149999996118,0.0002064028
559.8299999996118,0.004904548,559.8299999996118,5.959286e-05,559.8299999996118,0.0001652477,559.8299999996118,0.000215745
559.8449999996118,0.004893546,559.8449999996118,4.584682e-05,559.8449999996118,0.0001445453,559.8449999996118,0.0001972084
559.8599999996118,0.005027981,559.8599999996118,3.804073e-05,559.8599999996118,0.0001211794,559.8599999996118,0.0001992752
559.8749999996118,0.005089717,559.8749999996118,3.447372e-05,559.8749999996118,0.0001113466,559.8749999996118,0.0001924285
559.8899999996117,0.005021634,559.8899999996117,3.401009e-05,559.8899999996117,0.0001092331,559.8899999996117,0.0001982373
559.9049999996117,0.005037145,559.9049999996117,3.378902e-05,559.9049999996117,0.0001078182,559.9049999996117,0.0002156702
559.9199999996117,0.004998971,559.9199999996117,3.378651e-05,559.9199999996117,0.0001068999,559.9199999996117,0.0002287732
559.9349999996117,0.004986594,559.9349999996117,3.159001e-05,559.9349999996117,0.0001049636,559.9349999996117,0.0002255009
559.9499999996117,0.005018621,559.9499999996117,3.027202e-05,559.9499999996117,0.0001039456,559.9499999996117,0.0002292021
559.9649999996117,0.004958323,559.9649999996117,3.011432e-05,559.9649999996117,0.0001033086,559.9649999996117,0.0002399485
559.9799999996117,0.004848063,559.9799999996117,2.850029e-05,559.9799999996117,0.0001031623,559.9799999996117,0.000237793
559.9949999996117,0.004758937,559.9949999996117,2.958197e-05,559.9949999996117,9.322405e-05,559.9949999996117,0.0002251676
560.0099999996116,0.00466611,560.0099999996116,3.050749e-05,560.0099999996116,7.907979e-05,560.0099999996116,0.0002392243
560.0249999996116,0.004519544,560.0249999996116,2.962147e-05,560.0249999996116,7.175216e-05,560.0249999996116,0.0002461406
560.0399999996116,0.004472996,560.0399999996116,2.995909e-05,560.0399999996116,5.332721e-05,560.0399999996116,0.0002465542
560.0549999996116,0.004409748,560.0549999996116,3.642909e-05,560.0549999996116,5.028899e-05,560.0549999996116,0.0002470566
560.0699999996116,0.004296035,560.0699999996116,3.754049e-05,560.0699999996116,4.505681e-05,560.0699999996116,0.0002477982
560.0849999996116,0.004278339,560.0849999996116,3.908041e-05,560.0849999996116,3.669416e-05,560.0849999996116,0.0002341113
560.0999999996116,0.004215404,560.0999999996116,4.878411e-05,560.0999999996116,2.835013e-05,560.0999999996116,0.0002090872
560.1149999996115,0.003995104,560.1149999996115,4.860678e-05,560.1149999996115,2.873263e-05,560.1149999996115,0.0002035364
560.1299999996115,0.003789952,560.1299999996115,4.896252e-05,560.1299999996115,2.816018e-05,560.1299999996115,0.0002026936
560.1449999996115,0.003742906,560.1449999996115,4.929084e-05,560.1449999996115,2.621083e-05,560.1449999996115,0.0001942834
560.1599999996115,0.003567523,560.1599999996115,4.983483e-05,560.1599999996115,2.61468e-05,560.1599999996115,0.0001722296
560.1749999996115,0.003540222,560.1749999996115,4.980656e-05,560.1749999996115,2.428309e-05,560.1749999996115,0.0001583317
560.1899999996115,0.003446461,560.1899999996115,4.959256e-05,560.1899999996115,2.288112e-05,560.1899999996115,0.0001565232
560.2049999996115,0.003341273,560.2049999996115,4.960875e-05,560.2049999996115,2.260238e-05,560.2049999996115,0.0001453677
560.2199999996114,0.003196132,560.2199999996114,4.961017e-05,560.2199999996114,2.243913e-05,560.2199999996114,0.0001237793
560.2349999996114,0.003091278,560.2349999996114,5.003991e-05,560.2349999996114,2.229554e-05,560.2349999996114,0.0001169119
560.2499999996114,0.003082055,560.2499999996114,4.929941e-05,560.2499999996114,2.214402e-05,560.2499999996114,0.000101669
560.2649999996114,0.003278875,560.2649999996114,4.814729e-05,560.2649999996114,2.190352e-05,560.2649999996114,6.528624e-05
560.2799999996114,0.003338243,560.2799999996114,4.770463e-05,560.2799999996114,2.03541e-05,560.2799999996114,4.454208e-05
560.2949999996114,0.003246985,560.2949999996114,4.556976e-05,560.2949999996114,2.014121e-05,560.2949999996114,4.330901e-05
560.3099999996114,0.003232644,560.3099999996114,3.966004e-05,560.3099999996114,1.996348e-05,560.3099999996114,3.510859e-05
560.3249999996114,0.003166676,560.3249999996114,3.813873e-05,560.3249999996114,1.893872e-05,560.3249999996114,2.292909e-05
560.3399999996113,0.00305953,560.3399999996113,3.523555e-05,560.3399999996113,1.769357e-05,560.3399999996113,1.087528e-05
560.3549999996113,0.003012307,560.3549999996113,1.929171e-05,560.3549999996113,1.132329e-05,560.3549999996113,7.3106e-06
560.3699999996113,0.00300269,560.3699999996113,1.837087e-05,560.3699999996113,7.081567e-06,560.3699999996113,6.433248e-06
560.3849999996113,0.002907625,560.3849999996113,1.741916e-05,560.3849999996113,5.523745e-06,560.3849999996113,6.230803e-06
560.3999999996113,0.002839629,560.3999999996113,1.658058e-05,560.3999999996113,5.379038e-06,560.3999999996113,5.444114e-06
560.4149999996113,0.002797748,560.4149999996113,1.554759e-05,560.4149999996113,3.56062e-06,560.4149999996113,5.475077e-06
560.4299999996113,0.002703428,560.4299999996113,1.511575e-05,560.4299999996113,3.460301e-06,560.4299999996113,5.379038e-06
560.4449999996112,0.002531142,560.4449999996112,1.521607e-05,560.4449999996112,3.516832e-06,560.4449999996112,5.736418e-06
560.4599999996112,0.002398695,560.4599999996112,1.556117e-05,560.4599999996112,3.723076e-06,560.4599999996112,5.826569e-06
560.4749999996112,0.002371917,560.4749999996112,1.637283e-05,560.4749999996112,3.749468e-06,560.4749999996112,5.881913e-06
560.4899999996112,0.002295732,560.4899999996112,1.340694e-05,560.4899999996112,3.775675e-06,560.4899999996112,5.773135e-06
560.5049999996112,0.002119067,560.5049999996112,1.263114e-05,560.5049999996112,3.771943e-06,560.5049999996112,5.824151e-06
560.5199999996112,0.001873131,560.5199999996112,1.258757e-05,560.5199999996112,3.468433e-06,560.5199999996112,5.765811e-06
560.5349999996112,0.001788274,560.5349999996112,1.215604e-05,560.5349999996112,3.335938e-06,560.5349999996112,5.612292e-06
560.5499999996111,0.001822802,560.5499999996111,1.18295e-05,560.5499999996111,3.319004e-06,560.5499999996111,5.493057e-06
560.5649999996111,0.001869693,560.5649999996111,1.349387e-05,560.5649999996111,3.331712e-06,560.5649999996111,5.546649e-06
560.5799999996111,0.001749151,560.5799999996111,1.552492e-05,560.5799999996111,3.301983e-06,560.5799999996111,5.624828e-06
560.5949999996111,0.001657029,560.5949999996111,1.579567e-05,560.5949999996111,3.456227e-06,560.5949999996111,5.684616e-06
560.6099999996111,0.001681893,560.6099999996111,1.619637e-05,560.6099999996111,3.584279e-06,560.6099999996111,6.965238e-06
560.6249999996111,0.001804237,560.6249999996111,1.609866e-05,560.6249999996111,3.805405e-06,560.6249999996111,7.231167e-06
560.6399999996111,0.001748711,560.6399999996111,1.590942e-05,560.6399999996111,3.96849e-06,560.6399999996111,7.013608e-06
560.654999999611,0.001958906,560.654999999611,1.747648e-05,560.654999999611,3.982663e-06,560.654999999611,7.089519e-06
560.669999999611,0.002108799,560.669999999611,1.872554e-05,560.669999999611,4.162526e-06,560.669999999611,7.04567e-06
560.684999999611,0.002075266,560.684999999611,1.931725e-05,560.684999999611,4.226336e-06,560.684999999611,7.1823e-06
560.699999999611,0.002055701,560.699999999611,1.924492e-05,560.699999999611,4.165909e-06,560.699999999611,6.983416e-06
560.714999999611,0.00207967,560.714999999611,1.856992e-05,560.714999999611,4.035369e-06,560.714999999611,6.797376e-06
560.729999999611,0.002098848,560.729999999611,1.838926e-05,560.729999999611,4.500739e-06,560.729999999611,7.8585e-06
560.744999999611,0.002097724,560.744999999611,2.035825e-05,560.744999999611,4.578317e-06,560.744999999611,7.919212e-06
560.759999999611,0.001985637,560.759999999611,2.279291e-05,560.759999999611,4.809401e-06,560.759999999611,9.88887e-06
560.7749999996109,0.001896618,560.7749999996109,2.626934e-05,560.7749999996109,5.068936e-06,560.7749999996109,1.042694e-05
560.7899999996109,0.001887,560.7899999996109,2.846963e-05,560.7899999996109,5.057808e-06,560.7899999996109,1.051037e-05
560.8049999996109,0.001842809,560.8049999996109,2.850968e-05,560.8049999996109,5.093886e-06,560.8049999996109,1.080642e-05
560.8199999996109,0.001782903,560.8199999996109,2.701434e-05,560.8199999996109,5.173461e-06,560.8199999996109,1.098868e-05
560.8349999996109,0.001778655,560.8349999996109,2.655574e-05,560.8349999996109,5.082812e-06,560.8349999996109,1.107805e-05
560.8499999996109,0.001749141,560.8499999996109,2.641533e-05,560.8499999996109,4.962209e-06,560.8499999996109,1.093084e-05
560.8649999996109,0.001663656,560.8649999996109,2.661721e-05,560.8649999996109,4.939447e-06,560.8649999996109,1.033194e-05
560.8799999996108,0.001542222,560.8799999996108,3.100853e-05,560.8799999996108,4.780021e-06,560.8799999996108,1.03019e-05
560.8949999996108,0.001508367,560.8949999996108,3.20996e-05,560.8949999996108,4.765263e-06,560.8949999996108,1.026628e-05
560.9099999996108,0.001142292,560.9099999996108,3.214039e-05,560.9099999996108,4.907976e-06,560.9099999996108,1.029095e-05
560.9249999996108,0.0009396587,560.9249999996108,3.162522e-05,560.9249999996108,4.73561e-06,560.9249999996108,1.035373e-05
560.9399999996108,0.0009162144,560.9399999996108,3.130377e-05,560.9399999996108,4.660651e-06,560.9399999996108,1.042964e-05
560.9549999996108,0.0009091307,560.9549999996108,3.141876e-05,560.9549999996108,4.636408e-06,560.9549999996108,1.033875e-05
560.9699999996108,0.0008469747,560.9699999996108,3.17164e-05,560.9699999996108,4.627284e-06,560.9699999996108,1.037683e-05
560.9849999996107,0.0008252399,560.9849999996107,3.304116e-05,560.9849999996107,4.031877e-06,560.9849999996107,9.736703e-06
560.9999999996107,0.0008133202,560.9999999996107,3.314502e-05,560.9999999996107,4.070128e-06,560.9999999996107,9.690296e-06
561.0149999996107,0.0008247051,561.0149999996107,3.190196e-05,561.0149999996107,3.707911e-06,561.0149999996107,7.83696e-06
561.0299999996107,0.0008403014,561.0299999996107,2.851215e-05,561.0299999996107,3.528828e-06,561.0299999996107,7.304818e-06
561.0449999996107,0.0009108867,561.0449999996107,2.753239e-05,561.0449999996107,3.508812e-06,561.0449999996107,7.304818e-06
561.0599999996107,0.0009214829,561.0599999996107,2.737796e-05,561.0599999996107,3.524834e-06,561.0599999996107,6.826328e-06
561.0749999996107,0.000925844,561.0749999996107,2.736715e-05,561.0749999996107,3.484641e-06,561.0749999996107,6.574036e-06
561.0899999996107,0.0009045813,561.0899999996107,2.734655e-05,561.0899999996107,3.552699e-06,561.0899999996107,6.384893e-06
561.1049999996106,0.0009145015,561.1049999996106,2.711843e-05,561.1049999996106,3.540784e-06,561.1049999996106,6.384893e-06
561.1199999996106,0.0009385057,561.1199999996106,2.640627e-05,561.1199999996106,3.460301e-06,561.1199999996106,6.391509e-06
561.1349999996106,0.0008228498,561.1349999996106,1.998605e-05,561.1349999996106,3.456227e-06,561.1349999996106,6.219488e-06
561.1499999996106,0.0008080107,561.1499999996106,1.82331e-05,561.1499999996106,3.228645e-06,561.1499999996106,6.599699e-06
561.1649999996106,0.0007682714,561.1649999996106,1.810283e-05,561.1649999996106,3.099535e-06,561.1649999996106,6.387099e-06
561.1799999996106,0.0007149205,561.1799999996106,1.787653e-05,561.1799999996106,3.094987e-06,561.1799999996106,6.327271e-06
561.1949999996106,0.0006897353,561.1949999996106,1.770949e-05,561.1949999996106,3.090432e-06,561.1949999996106,6.313899e-06
561.2099999996105,0.0006862353,561.2099999996105,1.714447e-05,561.2099999996105,3.081303e-06,561.2099999996105,6.342836e-06
561.2249999996105,0.0006841343,561.2249999996105,1.577068e-05,561.2249999996105,2.955291e-06,561.2249999996105,6.246608e-06
561.2399999996105,0.0006824802,561.2399999996105,9.811646e-06,561.2399999996105,2.988471e-06,561.2399999996105,5.679657e-06
561.2549999996105,0.0006594901,561.2549999996105,6.095956e-06,561.2549999996105,2.979029e-06,561.2549999996105,5.684616e-06
561.2699999996105,0.0006515672,561.2699999996105,4.121716e-06,561.2699999996105,3.01662e-06,561.2699999996105,5.780451e-06
561.2849999996105,0.0005911525,561.2849999996105,2.863294e-06,561.2849999996105,3.104077e-06,561.2849999996105,5.667242e-06
561.2999999996105,0.0005013257,561.2999999996105,2.675077e-06,561.2999999996105,3.11314e-06,561.2999999996105,5.664756e-06
561.3149999996104,0.0004925459,561.3149999996104,2.438151e-06,561.3149999996104,3.062961e-06,561.3149999996104,5.659781e-06
561.3299999996104,0.0004819006,561.3299999996104,2.325787e-06,561.3299999996104,3.085871e-06,561.3299999996104,5.714275e-06
561.3449999996104,0.0004716385,561.3449999996104,2.361848e-06,561.3449999996104,3.021286e-06,561.3449999996104,5.644828e-06
561.3599999996104,0.0004013208,561.3599999996104,2.40909e-06,561.3599999996104,3.011947e-06,561.3599999996104,5.819312e-06
561.3749999996104,0.0004117755,561.3749999996104,2.319723e-06,561.3749999996104,3.044509e-06,561.3749999996104,5.910582e-06
561.3899999996104,0.0004515334,561.3899999996104,2.24567e-06,561.3899999996104,3.039879e-06,561.3899999996104,6.233063e-06
561.4049999996104,0.0004736054,561.4049999996104,2.270622e-06,561.4049999996104,3.011947e-06,561.4049999996104,6.100575e-06
561.4199999996104,0.0004894045,561.4199999996104,2.149519e-06,561.4199999996104,2.993181e-06,561.4199999996104,6.640129e-06
561.4349999996103,0.0005121088,561.4349999996103,2.276818e-06,561.4349999996103,3.053749e-06,561.4349999996103,6.957143e-06
561.4499999996103,0.0008007924,561.4499999996103,3.144655e-06,561.4499999996103,3.104077e-06,561.4499999996103,1.0625e-05
561.4649999996103,0.0009456123,561.4649999996103,3.254718e-06,561.4649999996103,3.135683e-06,561.4649999996103,1.067131e-05
561.4799999996103,0.0009535431,561.4799999996103,3.911283e-06,561.4799999996103,3.131187e-06,561.4799999996103,1.097072e-05
561.4949999996103,0.000968094,561.4949999996103,4.049309e-06,561.4949999996103,3.135683e-06,561.4949999996103,1.127592e-05
561.5099999996103,0.0009937646,561.5099999996103,5.157098e-06,561.5099999996103,3.058359e-06,561.5099999996103,1.138533e-05
561.5249999996103,0.0009950547,561.5249999996103,5.582091e-06,561.5249999996103,3.035241e-06,561.5249999996103,1.139893e-05
561.5399999996102,0.0009908942,561.5399999996102,6.524566e-06,561.5399999996102,3.053749e-06,561.5399999996102,1.142238e-05
561.5549999996102,0.0009892794,561.5549999996102,6.701369e-06,561.5549999996102,2.983753e-06,561.5549999996102,1.152062e-05
561.5699999996102,0.0009961812,561.5699999996102,7.109361e-06,561.5699999996102,2.916909e-06,561.5699999996102,1.155237e-05
561.5849999996102,0.0009975909,561.5849999996102,7.293238e-06,561.5849999996102,2.926552e-06,561.5849999996102,1.171944e-05
561.5999999996102,0.0009914255,561.5999999996102,7.318304e-06,561.5999999996102,2.974296e-06,561.5999999996102,1.18414e-05
561.6149999996102,0.0009889876,561.6149999996102,7.432898e-06,561.6149999996102,2.979029e-06,561.6149999996102,1.186755e-05
561.6299999996102,0.0009760393,561.6299999996102,7.444261e-06,561.6299999996102,2.997883e-06,561.6299999996102,1.179969e-05
561.6449999996101,0.0009935286,561.6449999996101,7.935205e-06,561.6449999996101,2.988471e-06,561.6449999996101,1.189126e-05
561.6599999996101,0.0009856099,561.6599999996101,7.979462e-06,561.6599999996101,2.979029e-06,561.6599999996101,1.186636e-05
561.6749999996101,0.0009805635,561.6749999996101,7.990047e-06,561.6749999996101,3.002579e-06,561.6749999996101,1.151206e-05
561.6899999996101,0.0009874601,561.6899999996101,7.928101e-06,561.6899999996101,3.021286e-06,561.6899999996101,1.091794e-05
561.7049999996101,0.0007445105,561.7049999996101,7.689987e-06,561.7049999996101,2.818668e-06,561.7049999996101,8.005899e-06
561.7199999996101,0.0006412299,561.7199999996101,7.653262e-06,561.7199999996101,2.788521e-06,561.7199999996101,8.282642e-06
561.7349999996101,0.0006464342,561.7349999996101,7.349037e-06,561.7349999996101,2.907234e-06,561.7349999996101,8.527336e-06
561.74999999961,0.0006745622,561.74999999961,7.329844e-06,561.74999999961,2.979029e-06,561.74999999961,8.219473e-06
561.76499999961,0.0008223172,561.76499999961,6.597564e-06,561.76499999961,3.099535e-06,561.76499999961,8.70068e-06
561.77999999961,0.0008713782,561.77999999961,6.194524e-06,561.77999999961,3.011947e-06,561.77999999961,8.697441e-06
561.79499999961,0.000870185,561.79499999961,5.467352e-06,561.79499999961,2.960054e-06,561.79499999961,8.721702e-06
561.80999999961,0.0008805239,561.80999999961,5.195198e-06,561.80999999961,2.907234e-06,561.80999999961,9.248478e-06
561.82499999961,0.0008776002,561.82499999961,4.756387e-06,561.82499999961,2.940956e-06,561.82499999961,9.316767e-06
561.83999999961,0.0009134536,561.83999999961,4.572159e-06,561.83999999961,2.892662e-06,561.83999999961,8.872225e-06
561.85499999961,0.0009831076,561.85499999961,4.466178e-06,561.85499999961,2.848496e-06,561.85499999961,8.92131e-06
561.86999999961,0.001008294,561.86999999961,4.370531e-06,561.86999999961,2.878015e-06,561.86999999961,8.913411e-06
561.8849999996099,0.000983056,561.8849999996099,4.035369e-06,561.8849999996099,2.848496e-06,561.8849999996099,8.663363e-06
561.8999999996099,0.0009587058,561.8999999996099,3.373728e-06,561.8999999996099,2.853437e-06,561.8999999996099,8.794083e-06
561.9149999996099,0.0009610141,561.9149999996099,3.344373e-06,561.9149999996099,2.783465e-06,561.9149999996099,8.779654e-06
561.9299999996099,0.0009353255,561.9299999996099,3.284874e-06,561.9299999996099,2.838588e-06,561.9299999996099,8.884918e-06
561.9449999996099,0.0009378103,561.9449999996099,3.228645e-06,561.9449999996099,3.011947e-06,561.9449999996099,9.185817e-06
561.9599999996099,0.0009509778,561.9599999996099,3.276286e-06,561.9599999996099,3.206755e-06,561.9599999996099,1.010726e-05
561.9749999996098,0.0009581032,561.9749999996098,3.297714e-06,561.9749999996098,3.215529e-06,561.9749999996098,1.006396e-05
561.9899999996098,0.0009481248,561.9899999996098,3.280583e-06,561.9899999996098,3.267676e-06,561.9899999996098,1.002047e-05
562.0049999996098,0.0008677659,562.0049999996098,3.140172e-06,562.0049999996098,3.263362e-06,562.0049999996098,9.662636e-06
562.0199999996098,0.0007499016,562.0199999996098,2.611121e-06,562.0199999996098,3.398688e-06,562.0199999996098,9.545296e-06
562.0349999996098,0.0006804927,562.0349999996098,2.680338e-06,562.0349999996098,3.464369e-06,562.0349999996098,9.772805e-06
562.0499999996098,0.0006701728,562.0499999996098,2.621889e-06,562.0499999996098,3.536803e-06,562.0499999996098,9.631973e-06
562.0649999996098,0.0006672991,562.0649999996098,2.57308e-06,562.0649999996098,3.642754e-06,562.0649999996098,9.318279e-06
562.0799999996098,0.0006518279,562.0799999996098,2.46687e-06,562.0799999996098,3.764466e-06,562.0799999996098,9.243908e-06
562.0949999996097,0.0006098439,562.0949999996097,2.41493e-06,562.0949999996097,3.797995e-06,562.0949999996097,9.316767e-06
562.1099999996097,0.000543841,562.1099999996097,2.40909e-06,562.1099999996097,3.786851e-06,562.1099999996097,9.133529e-06
562.1249999996097,0.0004844108,562.1249999996097,2.343887e-06,562.1249999996097,3.914884e-06,562.1249999996097,9.007736e-06
562.1399999996097,0.0004664142,562.1399999996097,2.325787e-06,562.1399999996097,3.92925e-06,562.1399999996097,8.91025e-06
562.1549999996097,0.0004676279,562.1549999996097,2.301433e-06,562.1549999996097,3.922073e-06,562.1549999996097,8.872225e-06
562.1699999996097,0.0004592767,562.1699999996097,2.24567e-06,562.1699999996097,3.893234e-06,562.1699999996097,8.813284e-06
562.1849999996097,0.0004269728,562.1849999996097,2.921734e-06,562.1849999996097,3.878734e-06,562.1849999996097,8.294538e-06
562.1999999996096,0.0003565147,562.1999999996096,3.007266e-06,562.1999999996096,3.619477e-06,562.1999999996096,7.809951e-06
562.2149999996096,0.000317035,562.2149999996096,2.969556e-06,562.2149999996096,3.40283e-06,562.2149999996096,6.121322e-06
562.2299999996096,0.0003036803,562.2299999996096,3.035241e-06,562.2299999996096,3.552699e-06,562.2299999996096,6.11902e-06
562.2449999996096,0.0003113146,562.2449999996096,3.011947e-06,562.2449999996096,3.439886e-06,562.2449999996096,6.063518e-06
562.2599999996096,0.0002925252,562.2599999996096,3.058359e-06,562.2599999996096,3.267676e-06,562.2599999996096,6.105191e-06
562.2749999996096,0.000280356,562.2749999996096,3.072146e-06,562.2749999996096,3.126685e-06,562.2749999996096,5.472503e-06
562.2899999996096,0.0002757682,562.2899999996096,3.01662e-06,562.2899999996096,3.184716e-06,562.2899999996096,5.262549e-06
562.3049999996095,0.0002674723,562.3049999996095,3.085871e-06,562.3049999996095,3.081303e-06,562.3049999996095,5.162558e-06
562.3199999996095,0.0002743444,562.3199999996095,3.635012e-06,562.3199999996095,2.997883e-06,562.3199999996095,5.222243e-06
562.3349999996095,0.0002808536,562.3349999996095,5.162558e-06,562.3349999996095,2.878015e-06,562.3349999996095,5.140683e-06
562.3499999996095,0.0002815107,562.3499999996095,5.297233e-06,562.3499999996095,2.798606e-06,562.3499999996095,5.113207e-06
562.3649999996095,0.0002798897,562.3649999996095,6.056544e-06,562.3649999996095,2.798606e-06,562.3649999996095,5.208738e-06
562.3799999996095,0.0002721343,562.3799999996095,6.494269e-06,562.3799999996095,2.594886e-06,562.3799999996095,5.135199e-06
562.3949999996095,0.000303605,562.3949999996095,6.526725e-06,562.3949999996095,2.701278e-06,562.3949999996095,5.624828e-06
562.4099999996095,0.0003361818,562.4099999996095,6.612493e-06,562.4099999996095,2.680338e-06,562.4099999996095,5.891484e-06
562.4249999996094,0.0003990223,562.4249999996094,6.608231e-06,562.4249999996094,2.632612e-06,562.4249999996094,7.50457e-06
562.4399999996094,0.0004895132,562.4399999996094,6.347276e-06,562.4399999996094,2.594886e-06,562.4399999996094,8.485937e-06
562.4549999996094,0.0004870132,562.4549999996094,6.33617e-06,562.4549999996094,2.616511e-06,562.4549999996094,8.319974e-06
562.4699999996094,0.0004842377,562.4699999996094,6.347276e-06,562.4699999996094,2.616511e-06,562.4699999996094,8.343643e-06
562.4849999996094,0.0004974198,562.4849999996094,6.329497e-06,562.4849999996094,2.556603e-06,562.4849999996094,8.377342e-06
562.4999999996094,0.0005176265,562.4999999996094,6.33617e-06,562.4999999996094,2.556603e-06,562.4999999996094,8.323359e-06
562.5149999996094,0.0005209797,562.5149999996094,6.309435e-06,562.5149999996094,2.562108e-06,562.5149999996094,8.404203e-06
562.5299999996093,0.0005119999,562.5299999996093,6.320588e-06,562.5299999996093,2.611121e-06,562.5299999996093,8.538892e-06
562.5449999996093,0.0005171311,562.5449999996093,6.316129e-06,562.5449999996093,2.495258e-06,562.5449999996093,8.655229e-06
562.5599999996093,0.0005195051,562.5599999996093,6.171741e-06,562.5599999996093,2.495258e-06,562.5599999996093,8.806888e-06
562.5749999996093,0.0005239922,562.5749999996093,5.855509e-06,562.5749999996093,2.517739e-06,562.5749999996093,9.052973e-06
562.5899999996093,0.0005253872,562.5899999996093,4.654602e-06,562.5899999996093,2.523327e-06,562.5899999996093,9.115002e-06
562.6049999996093,0.0005265171,562.6049999996093,4.48192e-06,562.6049999996093,2.57308e-06,562.6049999996093,9.021799e-06
562.6199999996093,0.0005288727,562.6199999996093,3.398688e-06,562.6199999996093,2.562108e-06,562.6199999996093,8.984247e-06
562.6349999996092,0.0005370668,562.6349999996092,2.838588e-06,562.6349999996092,2.562108e-06,562.6349999996092,9.586528e-06
562.6499999996092,0.0005463593,562.6499999996092,2.818668e-06,562.6499999996092,2.605721e-06,562.6499999996092,1.033603e-05
562.6649999996092,0.0005794917,562.6649999996092,2.648616e-06,562.6649999996092,2.788521e-06,562.6649999996092,1.154749e-05
562.6799999996092,0.0005190325,562.6799999996092,2.659232e-06,562.6799999996092,2.818668e-06,562.6799999996092,1.050634e-05
562.6949999996092,0.0004412326,562.6949999996092,2.664524e-06,562.6949999996092,2.793568e-06,562.6949999996092,1.020849e-05
562.7099999996092,0.0004346861,562.7099999996092,2.659232e-06,562.7099999996092,2.722057e-06,562.7099999996092,1.028547e-05
562.7249999996092,0.0004410052,562.7249999996092,2.621889e-06,562.7249999996092,2.858369e-06,562.7249999996092,1.036461e-05
562.7399999996092,0.0004274823,562.7399999996092,2.788521e-06,562.7399999996092,2.863294e-06,562.7399999996092,1.05505e-05
562.7549999996091,0.0004034686,562.7549999996091,2.803635e-06,562.7549999996091,2.863294e-06,562.7549999996091,1.045662e-05
562.7699999996091,0.0003864093,562.7699999996091,2.798606e-06,562.7699999996091,2.873116e-06,562.7699999996091,1.044044e-05
562.7849999996091,0.0003925901,562.7849999996091,2.892662e-06,562.7849999996091,2.788521e-06,562.7849999996091,1.039988e-05
562.7999999996091,0.0004013067,562.7999999996091,3.011947e-06,562.7999999996091,2.838588e-06,562.7999999996091,1.034964e-05
562.8149999996091,0.0003977394,562.8149999996091,3.623367e-06,562.8149999996091,2.882905e-06,562.8149999996091,9.999364e-06
562.8299999996091,0.0003991675,562.8299999996091,3.715501e-06,562.8299999996091,2.931361e-06,562.8299999996091,1.013231e-05
562.8449999996091,0.0004093758,562.8449999996091,3.809105e-06,562.8449999996091,2.940956e-06,562.8449999996091,1.00961e-05
562.859999999609,0.0004127934,562.859999999609,3.896851e-06,562.859999999609,2.897527e-06,562.859999999609,1.018224e-05
562.874999999609,0.0004125737,562.874999999609,3.84957e-06,562.874999999609,2.979029e-06,562.874999999609,1.052911e-05
562.889999999609,0.0003592325,562.889999999609,3.79057e-06,562.889999999609,2.979029e-06,562.889999999609,9.413036e-06
562.904999999609,0.0003026018,562.904999999609,3.805405e-06,562.904999999609,2.983753e-06,562.904999999609,7.995334e-06
562.919999999609,0.0002535588,562.919999999609,3.871464e-06,562.919999999609,2.940956e-06,562.919999999609,6.612493e-06
562.934999999609,0.0002528104,562.934999999609,3.809105e-06,562.934999999609,2.955291e-06,562.934999999609,6.571893e-06
562.949999999609,0.0002546799,562.949999999609,3.809105e-06,562.949999999609,2.931361e-06,562.949999999609,6.610363e-06
562.964999999609,0.0002529236,562.964999999609,3.84957e-06,562.964999999609,3.099535e-06,562.964999999609,6.713969e-06
562.9799999996089,0.0002501768,562.9799999996089,3.83123e-06,562.9799999996089,3.144655e-06,562.9799999996089,6.66131e-06
562.9949999996089,0.0002486661,562.9949999996089,3.73441e-06,562.9949999996089,3.131187e-06,562.9949999996089,6.621009e-06
563.0099999996089,0.0002481578,563.0099999996089,3.756974e-06,563.0099999996089,3.171418e-06,563.0099999996089,6.690851e-06
563.0249999996089,0.0002543042,563.0249999996089,3.753223e-06,563.0249999996089,3.153601e-06,563.0249999996089,6.851046e-06
563.0399999996089,0.0002622287,563.0399999996089,3.696496e-06,563.0399999996089,3.11314e-06,563.0399999996089,6.842817e-06
563.0549999996089,0.0002444489,563.0549999996089,3.104077e-06,563.0549999996089,3.140172e-06,563.0549999996089,6.999535e-06
563.0699999996089,0.0002512359,563.0699999996089,2.858369e-06,563.0699999996089,3.131187e-06,563.0699999996089,6.922637e-06
563.0849999996088,0.0002369543,563.0849999996088,2.716877e-06,563.0849999996088,3.081303e-06,563.0849999996088,7.00758e-06
563.0999999996088,0.0002022569,563.0999999996088,2.669806e-06,563.0999999996088,3.099535e-06,563.0999999996088,6.983416e-06
563.1149999996088,0.0002413841,563.1149999996088,2.648616e-06,563.1149999996088,3.24605e-06,563.1149999996088,7.103415e-06
563.1299999996088,0.0002474449,563.1299999996088,3.500774e-06,563.1299999996088,3.158065e-06,563.1299999996088,6.652846e-06
563.1449999996088,0.0003170606,563.1449999996088,5.389503e-06,563.1449999996088,3.184716e-06,563.1449999996088,6.395915e-06
563.1599999996088,0.0003822657,563.1599999996088,5.867525e-06,563.1599999996088,3.707911e-06,563.1599999996088,6.448557e-06
563.1749999996088,0.0004838002,563.1749999996088,6.476893e-06,563.1749999996088,3.67356e-06,563.1749999996088,6.455107e-06
563.1899999996087,0.0007768957,563.1899999996087,7.075597e-06,563.1899999996087,3.741947e-06,563.1899999996087,6.470365e-06
563.2049999996087,0.0008155236,563.2049999996087,7.335607e-06,563.2049999996087,3.753223e-06,563.2049999996087,6.472542e-06
563.2199999996087,0.0008498561,563.2199999996087,8.098617e-06,563.2199999996087,3.588207e-06,563.2199999996087,6.316129e-06
563.2349999996087,0.0008765348,563.2349999996087,8.37566e-06,563.2349999996087,3.635012e-06,563.2349999996087,6.219488e-06
563.2499999996087,0.0009059784,563.2499999996087,9.08249e-06,563.2499999996087,3.642754e-06,563.2499999996087,6.382687e-06
563.2649999996087,0.0009630095,563.2649999996087,9.207261e-06,563.2649999996087,3.70411e-06,563.2649999996087,6.221753e-06
563.2799999996087,0.0009798961,563.2799999996087,9.716427e-06,563.2799999996087,3.797995e-06,563.2799999996087,6.541815e-06
563.2949999996086,0.0009699024,563.2949999996086,1.046066e-05,563.2949999996086,3.961384e-06,563.2949999996086,6.902258e-06
563.3099999996086,0.0009697948,563.3099999996086,1.308363e-05,563.3099999996086,4.010859e-06,563.3099999996086,7.364355e-06
563.3249999996086,0.001001971,563.3249999996086,1.466929e-05,563.3249999996086,4.125132e-06,563.3249999996086,7.586711e-06
563.3399999996086,0.001050099,563.3399999996086,1.50999e-05,563.3399999996086,4.376973e-06,563.3399999996086,9.324323e-06
563.3549999996086,0.00105936,563.3549999996086,1.571252e-05,563.3549999996086,4.494475e-06,563.3549999996086,9.417524e-06
563.3699999996086,0.001060073,563.3699999996086,1.605046e-05,563.3699999996086,4.553636e-06,563.3699999996086,9.398059e-06
563.3849999996086,0.001100535,563.3849999996086,1.600564e-05,563.3849999996086,4.538142e-06,563.3849999996086,9.874615e-06
563.3999999996086,0.001149036,563.3999999996086,1.711322e-05,563.3999999996086,4.236323e-06,563.3999999996086,1.032921e-05
563.4149999996085,0.001124723,563.4149999996085,1.95283e-05,563.4149999996085,4.162526e-06,563.4149999996085,1.062898e-05
563.4299999996085,0.001113419,563.4299999996085,2.043836e-05,563.4299999996085,4.118297e-06,563.4299999996085,1.059048e-05
563.4449999996085,0.001073093,563.4449999996085,2.064273e-05,563.4449999996085,4.077044e-06,563.4449999996085,1.077508e-05
563.4599999996085,0.0010957,563.4599999996085,2.071902e-05,563.4599999996085,4.087396e-06,563.4599999996085,1.073973e-05
563.4749999996085,0.001100378,563.4749999996085,2.205925e-05,563.4749999996085,4.101159e-06,563.4749999996085,1.066206e-05
563.4899999996085,0.001083621,563.4899999996085,2.224937e-05,563.4899999996085,4.101159e-06,563.4899999996085,1.063958e-05
563.5049999996085,0.001050505,563.5049999996085,2.323606e-05,563.5049999996085,4.097722e-06,563.5049999996085,1.103345e-05
563.5199999996084,0.0009843062,563.5199999996084,2.330507e-05,563.5199999996084,4.049309e-06,563.5199999996084,1.126592e-05
563.5349999996084,0.0009939271,563.5349999996084,2.336845e-05,563.5349999996084,4.192873e-06,563.5349999996084,1.137914e-05
563.5499999996084,0.001126324,563.5499999996084,2.286449e-05,563.5499999996084,5.877121e-06,563.5499999996084,1.127717e-05
563.5649999996084,0.001238871,563.5649999996084,2.20017e-05,563.5649999996084,7.327922e-06,563.5649999996084,1.127842e-05
563.5799999996084,0.001252519,563.5799999996084,2.208924e-05,563.5799999996084,7.724713e-06,563.5799999996084,1.082725e-05
563.5949999996084,0.001422896,563.5949999996084,2.213193e-05,563.5949999996084,7.594135e-06,563.5949999996084,9.997955e-06
563.6099999996084,0.001487593,563.6099999996084,2.20388e-05,563.6099999996084,7.551351e-06,563.6099999996084,9.907371e-06
563.6249999996083,0.001487665,563.6249999996083,2.250119e-05,563.6249999996083,7.629297e-06,563.6249999996083,1.038768e-05
563.6399999996083,0.001448489,563.6399999996083,2.343887e-05,563.6399999996083,7.66246e-06,563.6399999996083,1.0306e-05
563.6549999996083,0.001410206,563.6549999996083,2.311876e-05,563.6549999996083,7.693649e-06,563.6549999996083,9.927257e-06
563.6699999996083,0.001411477,563.6699999996083,2.30779e-05,563.6699999996083,7.739288e-06,563.6699999996083,1.033194e-05
563.6849999996083,0.001386941,563.6849999996083,2.351328e-05,563.6849999996083,7.775606e-06,563.6849999996083,1.023605e-05
563.6999999996083,0.001394802,563.6999999996083,2.372381e-05,563.6999999996083,7.800928e-06,563.6999999996083,1.018362e-05
563.7149999996083,0.001390672,563.7149999996083,2.381035e-05,563.7149999996083,7.808148e-06,563.7149999996083,1.027863e-05
563.7299999996083,0.001406118,563.7299999996083,2.555446e-05,563.7299999996083,7.771981e-06,563.7299999996083,1.042829e-05
563.7449999996082,0.001410125,563.7449999996082,2.522992e-05,563.7449999996082,7.833364e-06,563.7449999996082,1.099509e-05
563.7599999996082,0.001419302,563.7599999996082,2.525057e-05,563.7599999996082,7.968863e-06,563.7599999996082,1.110853e-05
563.7749999996082,0.001420372,563.7749999996082,2.620384e-05,563.7749999996082,7.968863e-06,563.7749999996082,1.08934e-05
563.7899999996082,0.001447263,563.7899999996082,2.678971e-05,563.7899999996082,7.752019e-06,563.7899999996082,1.06581e-05
563.8049999996082,0.001204639,563.8049999996082,2.709557e-05,563.8049999996082,5.270573e-06,563.8049999996082,1.047681e-05
563.8199999996082,0.001293533,563.8199999996082,2.67239e-05,563.8199999996082,5.176183e-06,563.8199999996082,1.032921e-05
563.8349999996082,0.001620757,563.8349999996082,2.874881e-05,563.8349999996082,4.696781e-06,563.8349999996082,9.945687e-06
563.8499999996081,0.001568716,563.8499999996081,3.073246e-05,563.8499999996081,4.630328e-06,563.8499999996081,9.97821e-06
563.8649999996081,0.001851913,563.8649999996081,3.247612e-05,563.8649999996081,5.206033e-06,563.8649999996081,1.06197e-05
563.8799999996081,0.002217531,563.8799999996081,3.450313e-05,563.8799999996081,5.627332e-06,563.8799999996081,1.12934e-05
563.8949999996081,0.002230665,563.8949999996081,3.929178e-05,563.8949999996081,5.733962e-06,563.8949999996081,1.136303e-05
563.9099999996081,0.002253206,563.9099999996081,4.131172e-05,563.9099999996081,6.187698e-06,563.9099999996081,1.141375e-05
563.9249999996081,0.002368978,563.9249999996081,4.109291e-05,563.9249999996081,6.214957e-06,563.9249999996081,1.14667e-05
563.9399999996081,0.002386505,563.9399999996081,4.10569e-05,563.9399999996081,6.393712e-06,563.9399999996081,1.177101e-05
563.954999999608,0.002367106,563.954999999608,4.146352e-05,563.954999999608,1.167367e-05,563.954999999608,1.234691e-05
563.969999999608,0.002361947,563.969999999608,4.270436e-05,563.969999999608,1.380452e-05,563.969999999608,1.271119e-05
563.984999999608,0.002367674,563.984999999608,4.189579e-05,563.984999999608,1.473445e-05,563.984999999608,1.235717e-05
563.999999999608,0.002472495,563.999999999608,4.227936e-05,563.999999999608,1.483449e-05,563.999999999608,1.194327e-05
564.014999999608,0.002549635,564.014999999608,4.220666e-05,564.014999999608,2.011601e-05,564.014999999608,1.173025e-05
564.029999999608,0.002576475,564.029999999608,4.201699e-05,564.029999999608,2.128908e-05,564.029999999608,1.175424e-05
564.044999999608,0.002643102,564.044999999608,4.210273e-05,564.044999999608,2.190416e-05,564.044999999608,1.171222e-05
564.059999999608,0.002657901,564.059999999608,4.207562e-05,564.059999999608,2.223416e-05,564.059999999608,1.161439e-05
564.0749999996079,0.002564497,564.0749999996079,4.466935e-05,564.0749999996079,2.27056e-05,564.0749999996079,1.152551e-05
564.0899999996079,0.002343862,564.0899999996079,4.339576e-05,564.0899999996079,2.417321e-05,564.0899999996079,1.147161e-05
564.1049999996079,0.002364461,564.1049999996079,4.301397e-05,564.1049999996079,2.795534e-05,564.1049999996079,1.120574e-05
564.1199999996079,0.002072389,564.1199999996079,4.026178e-05,564.1199999996079,3.003329e-05,564.1199999996079,1.020987e-05
564.1349999996079,0.001781892,564.1349999996079,3.867459e-05,564.1349999996079,3.039972e-05,564.1349999996079,9.667009e-06
564.1499999996079,0.001813744,564.1499999996079,3.308461e-05,564.1499999996079,3.252639e-05,564.1499999996079,9.224075e-06
564.1649999996079,0.001792106,564.1649999996079,3.212899e-05,564.1649999996079,3.259605e-05,564.1649999996079,9.291028e-06
564.1799999996078,0.001710587,564.1799999996078,3.169196e-05,564.1799999996078,3.294766e-05,564.1799999996078,8.765202e-06
564.1949999996078,0.001809155,564.1949999996078,3.13721e-05,564.1949999996078,3.387936e-05,564.1949999996078,7.96002e-06
564.2099999996078,0.001869365,564.2099999996078,2.86649e-05,564.2099999996078,3.411925e-05,564.2099999996078,7.28164e-06
564.2249999996078,0.001925018,564.2249999996078,2.788471e-05,564.2249999996078,3.471437e-05,564.2249999996078,7.217518e-06
564.2399999996078,0.002065545,564.2399999996078,2.775305e-05,564.2399999996078,3.500089e-05,564.2399999996078,7.258388e-06
564.2549999996078,0.001953442,564.2549999996078,2.719727e-05,564.2549999996078,3.484398e-05,564.2549999996078,7.129148e-06
564.2699999996078,0.001897844,564.2699999996078,2.945981e-05,564.2699999996078,3.1928e-05,564.2699999996078,7.252564e-06
564.2849999996077,0.001927167,564.2849999996077,3.062179e-05,564.2849999996077,3.199543e-05,564.2849999996077,7.156758e-06
564.2999999996077,0.001889454,564.2999999996077,2.986443e-05,564.2999999996077,3.203063e-05,564.2999999996077,7.406318e-06
564.3149999996077,0.001936007,564.3149999996077,2.856003e-05,564.3149999996077,3.210531e-05,564.3149999996077,7.29903e-06
564.3299999996077,0.002092411,564.3299999996077,2.515724e-05,564.3299999996077,3.270907e-05,564.3299999996077,7.3106e-06
564.3449999996077,0.002146287,564.3449999996077,2.4819e-05,564.3449999996077,3.108022e-05,564.3449999996077,7.213613e-06
564.3599999996077,0.002100756,564.3599999996077,2.471491e-05,564.3599999996077,2.944499e-05,564.3599999996077,7.314453e-06
564.3749999996077,0.002140146,564.3749999996077,2.397896e-05,564.3749999996077,2.851758e-05,564.3749999996077,7.095478e-06
564.3899999996077,0.002149232,564.3899999996077,2.461267e-05,564.3899999996077,2.821665e-05,564.3899999996077,7.025649e-06
564.4049999996076,0.002077798,564.4049999996076,2.414113e-05,564.4049999996076,2.566831e-05,564.4049999996076,7.117283e-06
564.4199999996076,0.002111566,564.4199999996076,2.457888e-05,564.4199999996076,2.563537e-05,564.4199999996076,1.053981e-05
564.4349999996076,0.002124464,564.4349999996076,2.38653e-05,564.4349999996076,2.595972e-05,564.4349999996076,1.500632e-05
564.4499999996076,0.002068193,564.4499999996076,2.444325e-05,564.4499999996076,2.68543e-05,564.4499999996076,1.513345e-05
564.4649999996076,0.002030443,564.4649999996076,2.449046e-05,564.4649999996076,2.472802e-05,564.4649999996076,1.531113e-05
564.4799999996076,0.001904342,564.4799999996076,2.450714e-05,564.4799999996076,2.366793e-05,564.4799999996076,1.558831e-05
564.4949999996076,0.001774336,564.4949999996076,2.388183e-05,564.4949999996076,2.365245e-05,564.4949999996076,1.588638e-05
564.5099999996075,0.001763823,564.5099999996075,2.410025e-05,564.5099999996075,2.36161e-05,564.5099999996075,1.619637e-05
564.5249999996075,0.001694552,564.5249999996075,2.033679e-05,564.5249999996075,2.356534e-05,564.5249999996075,1.61406e-05
564.5399999996075,0.001588373,564.5399999996075,1.804516e-05,564.5399999996075,2.353304e-05,564.5399999996075,1.60829e-05
564.5549999996075,0.001546722,564.5549999996075,1.794889e-05,564.5549999996075,2.34941e-05,564.5549999996075,1.594568e-05
564.5699999996075,0.001459484,564.5699999996075,1.743452e-05,564.5699999996075,2.307729e-05,564.5699999996075,1.596775e-05
564.5849999996075,0.001189064,564.5849999996075,1.610566e-05,564.5849999996075,2.26845e-05,564.5849999996075,1.603553e-05
564.5999999996075,0.001116935,564.5999999996075,1.564153e-05,564.5999999996075,2.204008e-05,564.5999999996075,1.606713e-05
564.6149999996074,0.001054982,564.6149999996074,1.604958e-05,564.6149999996074,1.971496e-05,564.6149999996074,1.599155e-05
564.6299999996074,0.0009970258,564.6299999996074,1.521607e-05,564.6299999996074,2.036724e-05,564.6299999996074,1.591119e-05
564.6449999996074,0.0009807439,564.6449999996074,1.436558e-05,564.6449999996074,2.058054e-05,564.6449999996074,1.573491e-05
564.6599999996074,0.0009010135,564.6599999996074,1.368254e-05,564.6599999996074,2.07523e-05,564.6599999996074,1.536256e-05
