X[s],a: EMG RMS 1-1,X[s].1,a: EMG RMS 1-2,X[s].2,a: EMG RMS 1-3,X[s].3,a: EMG RMS 1-4
475.0049999996889,0.0026787,475.0049999996889,3.062961e-06,475.0049999996889,1.972711e-05,475.0049999996889,2.627149e-05
475.0199999996889,0.00275389,475.0199999996889,3.01662e-06,475.0199999996889,1.969995e-05,475.0199999996889,2.609232e-05
475.03499999968886,0.002771093,475.03499999968886,3.049133e-06,475.03499999968886,1.962114e-05,475.03499999968886,2.630096e-05
475.04999999968885,0.002833749,475.04999999968885,3.11314e-06,475.04999999968885,1.932965e-05,475.04999999968885,2.639826e-05
475.06499999968884,0.002778883,475.06499999968884,3.11314e-06,475.06499999968884,1.825857e-05,475.06499999968884,2.57319e-05
475.0799999996888,0.002885637,475.0799999996888,3.076727e-06,475.0799999996888,1.770392e-05,475.0799999996888,2.598792e-05
475.0949999996888,0.002837602,475.0949999996888,3.002579e-06,475.0949999996888,1.218382e-05,475.0949999996888,2.622534e-05
475.1099999996888,0.002954311,475.1099999996888,2.960054e-06,475.1099999996888,1.010168e-05,475.1099999996888,2.639186e-05
475.1249999996888,0.002883858,475.1249999996888,3.01662e-06,475.1249999996888,8.862694e-06,475.1249999996888,2.643346e-05
475.13999999968877,0.003004847,475.13999999968877,2.960054e-06,475.13999999968877,8.444335e-06,475.13999999968877,2.6402e-05
475.15499999968875,0.002990525,475.15499999968875,3.280583e-06,475.15499999968875,7.947621e-06,475.15499999968875,2.661138e-05
475.16999999968874,0.003113744,475.16999999968874,4.186148e-06,475.16999999968874,7.954708e-06,475.16999999968874,2.647659e-05
475.1849999996887,0.003060787,475.1849999996887,4.782967e-06,475.1849999996887,7.737468e-06,475.1849999996887,2.651009e-05
475.1999999996887,0.003173329,475.1999999996887,5.200618e-06,475.1999999996887,7.910313e-06,475.1999999996887,2.618771e-05
475.2149999996887,0.003243121,475.2149999996887,5.526294e-06,475.2149999996887,8.160995e-06,475.2149999996887,2.598358e-05
475.2299999996887,0.003311302,475.2299999996887,5.905813e-06,475.2299999996887,7.730182e-06,475.2299999996887,2.503993e-05
475.2449999996887,0.003337083,475.2449999996887,6.021555e-06,475.2449999996887,7.180339e-06,475.2449999996887,2.2473e-05
475.25999999968866,0.003354602,475.25999999968866,6.098266e-06,475.25999999968866,6.784931e-06,475.25999999968866,2.048036e-05
475.27499999968865,0.003358995,475.27499999968865,6.151165e-06,475.27499999968865,6.930771e-06,475.27499999968865,2.05819e-05
475.28999999968863,0.003492194,475.28999999968863,6.11902e-06,475.28999999968863,7.209706e-06,475.28999999968863,2.047348e-05
475.3049999996886,0.003559507,475.3049999996886,6.162605e-06,475.3049999996886,7.017624e-06,475.3049999996886,2.035202e-05
475.3199999996886,0.003640159,475.3199999996886,6.219488e-06,475.3199999996886,7.197973e-06,475.3199999996886,2.000507e-05
475.3349999996886,0.003715365,475.3349999996886,6.246608e-06,475.3349999996886,7.521444e-06,475.3349999996886,1.994442e-05
475.3499999996886,0.003802512,475.3499999996886,6.260124e-06,475.3499999996886,7.766543e-06,475.3499999996886,1.98119e-05
475.36499999968856,0.00380179,475.36499999968856,6.280343e-06,475.36499999968856,7.99181e-06,475.36499999968856,2.014471e-05
475.37999999968855,0.003885608,475.37999999968855,6.266871e-06,475.37999999968855,8.143716e-06,475.37999999968855,1.988004e-05
475.39499999968854,0.003928975,475.39499999968854,6.373853e-06,475.39499999968854,8.336888e-06,475.39499999968854,2.008799e-05
475.4099999996885,0.003972213,475.4099999996885,6.042573e-06,475.4099999996885,8.570179e-06,475.4099999996885,2.012652e-05
475.4249999996885,0.004005956,475.4249999996885,5.386888e-06,475.4249999996885,8.617714e-06,475.4249999996885,2.034025e-05
475.4399999996885,0.004025433,475.4399999996885,4.916579e-06,475.4399999996885,8.724932e-06,475.4399999996885,2.023958e-05
475.4549999996885,0.004038161,475.4549999996885,4.663672e-06,475.4549999996885,8.930779e-06,475.4549999996885,2.163107e-05
475.46999999968847,0.004030025,475.46999999968847,4.104592e-06,475.46999999968847,9.13507e-06,475.46999999968847,2.198633e-05
475.48499999968845,0.004034655,475.48499999968845,4.000309e-06,475.48499999968845,9.21338e-06,475.48499999968845,2.33805e-05
475.49999999968844,0.004016748,475.49999999968844,3.812802e-06,475.49999999968844,9.34545e-06,475.49999999968844,2.384877e-05
475.5149999996884,0.003985192,475.5149999996884,3.842245e-06,475.5149999996884,9.435456e-06,475.5149999996884,2.472004e-05
475.5299999996884,0.003944166,475.5299999996884,4.007346e-06,475.5299999996884,9.480139e-06,475.5299999996884,2.490908e-05
475.5449999996884,0.003908407,475.5449999996884,4.15914e-06,475.5449999996884,9.548246e-06,475.5449999996884,2.529851e-05
475.5599999996884,0.003874759,475.5599999996884,4.192873e-06,475.5599999996884,9.714977e-06,475.5599999996884,2.64521e-05
475.5749999996884,0.003880214,475.5749999996884,4.15914e-06,475.5749999996884,9.800154e-06,475.5749999996884,2.781136e-05
475.58999999968836,0.003805172,475.58999999968836,4.169289e-06,475.58999999968836,9.634898e-06,475.58999999968836,2.838191e-05
475.60499999968835,0.003796677,475.60499999968835,4.256228e-06,475.60499999968835,9.675749e-06,475.60499999968835,2.890421e-05
475.61999999968833,0.003752026,475.61999999968833,4.347911e-06,475.61999999968833,9.517214e-06,475.61999999968833,2.985264e-05
475.6349999996883,0.003694763,475.6349999996883,4.318654e-06,475.6349999996883,9.503884e-06,475.6349999996883,3.006095e-05
475.6499999996883,0.003659838,475.6499999996883,4.35115e-06,475.6499999996883,9.484596e-06,475.6499999996883,3.021333e-05
475.6649999996883,0.003592325,475.6649999996883,4.478776e-06,475.6649999996883,9.487566e-06,475.6649999996883,3.027993e-05
475.6799999996883,0.003549799,475.6799999996883,4.4377e-06,475.6799999996883,9.360511e-06,475.6799999996883,3.061029e-05
475.69499999968826,0.003546547,475.69499999968826,4.52882e-06,475.69499999968826,9.136613e-06,475.69499999968826,3.110423e-05
475.70999999968825,0.003479339,475.70999999968825,4.541245e-06,475.70999999968825,9.006171e-06,475.70999999968825,3.063467e-05
475.72499999968824,0.003528423,475.72499999968824,4.556728e-06,475.72499999968824,8.761987e-06,475.72499999968824,3.079931e-05
475.7399999996882,0.003498908,475.7399999996882,4.48192e-06,475.7399999996882,8.548785e-06,475.7399999996882,3.028877e-05
475.7549999996882,0.003480751,475.7549999996882,4.440873e-06,475.7549999996882,8.461e-06,475.7549999996882,3.04451e-05
475.7699999996882,0.003449985,475.7699999996882,4.249604e-06,475.7699999996882,8.313199e-06,475.7699999996882,3.050195e-05
475.7849999996882,0.003435239,475.7849999996882,4.087396e-06,475.7849999996882,8.358825e-06,475.7849999996882,3.07187e-05
475.79999999968817,0.003385125,475.79999999968817,3.922073e-06,475.79999999968817,8.596438e-06,475.79999999968817,3.106209e-05
475.81499999968815,0.003440767,475.81499999968815,3.939991e-06,475.81499999968815,8.666614e-06,475.81499999968815,3.110831e-05
475.82999999968814,0.003443576,475.82999999968814,3.900464e-06,475.82999999968814,8.399174e-06,475.82999999968814,3.10326e-05
475.8449999996881,0.003349578,475.8449999996881,3.827552e-06,475.8449999996881,8.787673e-06,475.8449999996881,3.045435e-05
475.8599999996881,0.003328813,475.8599999996881,3.753223e-06,475.8599999996881,1.1332e-05,475.8599999996881,3.100126e-05
475.8749999996881,0.003357525,475.8749999996881,3.681221e-06,475.8749999996881,1.444284e-05,475.8749999996881,3.049502e-05
475.8899999996881,0.003346603,475.8899999996881,3.786851e-06,475.8899999996881,1.567122e-05,475.8899999996881,3.074346e-05
475.9049999996881,0.003459104,475.9049999996881,3.564574e-06,475.9049999996881,1.706458e-05,475.9049999996881,3.172573e-05
475.91999999968806,0.003416949,475.91999999968806,3.464369e-06,475.91999999968806,2.134987e-05,475.91999999968806,3.248392e-05
475.93499999968805,0.003383233,475.93499999968805,3.377901e-06,475.93499999968805,2.284477e-05,475.93499999968805,3.330909e-05
475.94999999968803,0.003330842,475.94999999968803,3.356985e-06,475.94999999968803,2.279539e-05,475.94999999968803,3.420791e-05
475.964999999688,0.003278731,475.964999999688,3.175857e-06,475.964999999688,2.282626e-05,475.964999999688,3.486581e-05
475.979999999688,0.003202029,475.979999999688,3.025945e-06,475.979999999688,2.281392e-05,475.979999999688,3.584436e-05
475.994999999688,0.003057805,475.994999999688,3.011947e-06,475.994999999688,2.277189e-05,475.994999999688,3.671028e-05
476.009999999688,0.002965337,476.009999999688,3.007266e-06,476.009999999688,2.274589e-05,476.009999999688,3.802184e-05
476.02499999968796,0.002935746,476.02499999968796,2.960054e-06,476.02499999968796,2.278921e-05,476.02499999968796,3.947563e-05
476.03999999968795,0.002853129,476.03999999968795,2.833621e-06,476.03999999968795,2.270312e-05,476.03999999968795,4.062749e-05
476.05499999968794,0.002820263,476.05499999968794,2.722057e-06,476.05499999968794,2.2664e-05,476.05499999968794,4.200123e-05
476.0699999996879,0.002737398,476.0699999996879,2.664524e-06,476.0699999996879,2.246485e-05,476.0699999996879,4.377166e-05
476.0849999996879,0.002573779,476.0849999996879,2.611121e-06,476.0849999996879,2.242343e-05,476.0849999996879,4.491528e-05
476.0999999996879,0.002577925,476.0999999996879,2.627256e-06,476.0999999996879,2.21472e-05,476.0999999996879,4.659018e-05
476.1149999996879,0.002485442,476.1149999996879,2.637958e-06,476.1149999996879,2.05408e-05,476.1149999996879,4.774832e-05
476.12999999968787,0.002292042,476.12999999968787,2.940956e-06,476.12999999968787,1.751754e-05,476.12999999968787,4.934967e-05
476.14499999968785,0.002081732,476.14499999968785,3.327482e-06,476.14499999968785,1.673786e-05,476.14499999968785,5.061288e-05
476.15999999968784,0.001867961,476.15999999968784,4.155752e-06,476.15999999968784,1.430958e-05,476.15999999968784,5.210144e-05
476.1749999996878,0.001834263,476.1749999996878,4.232997e-06,476.1749999996878,8.007658e-06,476.1749999996878,5.302548e-05
476.1899999996878,0.001823401,476.1899999996878,4.559819e-06,476.1899999996878,5.397339e-06,476.1899999996878,5.449287e-05
476.2049999996878,0.001727324,476.2049999996878,4.853136e-06,476.2049999996878,5.243778e-06,476.2049999996878,5.560625e-05
476.2199999996878,0.001702643,476.2199999996878,4.847328e-06,476.2199999996878,5.214144e-06,476.2199999996878,5.688331e-05
476.2349999996878,0.001663081,476.2349999996878,4.947995e-06,476.2349999996878,5.137942e-06,476.2349999996878,5.774746e-05
476.24999999968776,0.001621546,476.24999999968776,4.962209e-06,476.24999999968776,5.074491e-06,476.24999999968776,5.867693e-05
476.26499999968775,0.001577542,476.26499999968775,4.982041e-06,476.26499999968775,5.018664e-06,476.26499999968775,5.932277e-05
476.27999999968773,0.00153342,476.27999999968773,4.979213e-06,476.27999999968773,4.893604e-06,476.27999999968773,5.972415e-05
476.2949999996877,0.001484192,476.2949999996877,4.984868e-06,476.2949999996877,4.29576e-06,476.2949999996877,6.023988e-05
476.3099999996877,0.001435196,476.3099999996877,5.00461e-06,476.3099999996877,4.031877e-06,476.3099999996877,6.106783e-05
476.3249999996877,0.00140191,476.3249999996877,5.00461e-06,476.3249999996877,3.982663e-06,476.3249999996877,6.105584e-05
476.3399999996877,0.001346856,476.3399999996877,5.007424e-06,476.3399999996877,4.094283e-06,476.3399999996877,6.159724e-05
476.35499999968766,0.00131429,476.35499999968766,4.973552e-06,476.35499999968766,4.049309e-06,476.35499999968766,6.181662e-05
476.36999999968765,0.001289286,476.36999999968765,4.962209e-06,476.36999999968765,3.889614e-06,476.36999999968765,6.281734e-05
476.38499999968764,0.001245554,476.38499999968764,4.575239e-06,476.38499999968764,3.86418e-06,476.38499999968764,6.267837e-05
476.3999999996876,0.001211213,476.3999999996876,3.889614e-06,476.3999999996876,4.101159e-06,476.3999999996876,6.27709e-05
476.4149999996876,0.001190775,476.4149999996876,3.508812e-06,476.4149999996876,4.956529e-06,476.4149999996876,6.306844e-05
476.4299999996876,0.001138295,476.4299999996876,3.319004e-06,476.4299999996876,5.368553e-06,476.4299999996876,6.243247e-05
476.4449999996876,0.001240937,476.4449999996876,2.680338e-06,476.4449999996876,6.682424e-06,476.4449999996876,6.442481e-05
476.45999999968757,0.001282855,476.45999999968757,2.461153e-06,476.45999999968757,6.673986e-06,476.45999999968757,6.511404e-05
476.47499999968755,0.001270042,476.47499999968755,2.361848e-06,476.47499999968755,6.80152e-06,476.47499999968755,6.468101e-05
476.48999999968754,0.00131771,476.48999999968754,2.270622e-06,476.48999999968754,6.787006e-06,476.48999999968754,6.456547e-05
476.5049999996875,0.001374425,476.5049999996875,2.194914e-06,476.5049999996875,6.726546e-06,476.5049999996875,6.418867e-05
476.5199999996875,0.001382,476.5199999996875,2.194914e-06,476.5199999996875,6.737009e-06,476.5199999996875,6.422443e-05
476.5349999996875,0.001373918,476.5349999996875,2.220437e-06,476.5349999996875,6.644371e-06,476.5349999996875,6.443465e-05
476.5499999996875,0.001368815,476.5499999996875,2.194914e-06,476.5499999996875,6.936866e-06,476.5499999996875,6.424374e-05
476.5649999996875,0.001351627,476.5649999996875,2.18204e-06,476.5649999996875,7.049668e-06,476.5649999996875,6.350338e-05
476.57999999968746,0.001399023,476.57999999968746,2.270622e-06,476.57999999968746,7.287441e-06,476.57999999968746,6.547455e-05
476.59499999968745,0.001456,476.59499999968745,2.207712e-06,476.59499999968745,7.523317e-06,476.59499999968745,6.500188e-05
476.60999999968743,0.001484712,476.60999999968743,2.214083e-06,476.60999999968743,7.582997e-06,476.60999999968743,6.593912e-05
476.6249999996874,0.001446554,476.6249999996874,2.239388e-06,476.6249999996874,7.682656e-06,476.6249999996874,6.476393e-05
476.6399999996874,0.00145047,476.6399999996874,2.282997e-06,476.6399999996874,7.693649e-06,476.6399999996874,6.410677e-05
476.6549999996874,0.001517704,476.6549999996874,2.258181e-06,476.6549999996874,7.324076e-06,476.6549999996874,6.447946e-05
476.6699999996874,0.001566386,476.6699999996874,2.313642e-06,476.6699999996874,7.041671e-06,476.6699999996874,6.476893e-05
476.68499999968736,0.001558789,476.68499999968736,2.325787e-06,476.68499999968736,6.228541e-06,476.68499999968736,6.338659e-05
476.69999999968735,0.00147157,476.69999999968735,2.289158e-06,476.69999999968735,5.373798e-06,476.69999999968735,6.252649e-05
476.71499999968734,0.001408549,476.71499999968734,2.276818e-06,476.71499999968734,5.342249e-06,476.71499999968734,6.057311e-05
476.7299999996873,0.001384409,476.7299999996873,2.251934e-06,476.7299999996873,5.2679e-06,476.7299999996873,6.001004e-05
476.7449999996873,0.001341685,476.7449999996873,2.295304e-06,476.7449999996873,5.22494e-06,476.7449999996873,6.005368e-05
476.7599999996873,0.001275282,476.7599999996873,2.489606e-06,476.7599999996873,5.168013e-06,476.7599999996873,5.933607e-05
476.7749999996873,0.001268803,476.7749999996873,2.489606e-06,476.7749999996873,5.187057e-06,476.7749999996873,5.896933e-05
476.78999999968727,0.001266334,476.78999999968727,2.478264e-06,476.78999999968727,5.222243e-06,476.78999999968727,5.85356e-05
476.80499999968725,0.001271866,476.80499999968725,2.506524e-06,476.80499999968725,4.608983e-06,476.80499999968725,5.77316e-05
476.81999999968724,0.001295249,476.81999999968724,2.495258e-06,476.81999999968724,4.657627e-06,476.81999999968724,5.812554e-05
476.8349999996872,0.001188885,476.8349999996872,2.449679e-06,476.8349999996872,4.219664e-06,476.8349999996872,5.483766e-05
476.8499999996872,0.001093345,476.8499999996872,2.46687e-06,476.8499999996872,3.700305e-06,476.8499999996872,5.356837e-05
476.8649999996872,0.001106043,476.8649999996872,2.443922e-06,476.8649999996872,3.615583e-06,476.8649999996872,5.279572e-05
476.8799999996872,0.001115087,476.8799999996872,2.461153e-06,476.8799999996872,3.356985e-06,476.8799999996872,5.188904e-05
476.8949999996872,0.001119347,476.8949999996872,2.461153e-06,476.8949999996872,3.361178e-06,476.8949999996872,5.139148e-05
476.90999999968716,0.001100715,476.90999999968716,2.461153e-06,476.90999999968716,3.377901e-06,476.90999999968716,5.0855e-05
476.92499999968715,0.001032332,476.92499999968715,2.420756e-06,476.92499999968715,3.452149e-06,476.92499999968715,4.99551e-05
476.93999999968713,0.001069304,476.93999999968713,2.426568e-06,476.93999999968713,3.556662e-06,476.93999999968713,4.912882e-05
476.9549999996871,0.001092382,476.9549999996871,2.420756e-06,476.9549999996871,3.40283e-06,476.9549999996871,4.881788e-05
476.9699999996871,0.001108688,476.9699999996871,2.461153e-06,476.9699999996871,3.592131e-06,476.9699999996871,4.806529e-05
476.9849999996871,0.001135005,476.9849999996871,2.443922e-06,476.9849999996871,3.67356e-06,476.9849999996871,4.737959e-05
476.9999999996871,0.001170304,476.9999999996871,2.373747e-06,476.9999999996871,3.86418e-06,476.9999999996871,4.654541e-05
477.01499999968706,0.00118791,477.01499999968706,2.26441e-06,477.01499999968706,3.871464e-06,477.01499999968706,4.575331e-05
477.02999999968705,0.001236513,477.02999999968705,2.313642e-06,477.02999999968705,3.900464e-06,477.02999999968705,4.468921e-05
477.04499999968704,0.001355832,477.04499999968704,2.931361e-06,477.04499999968704,4.05626e-06,477.04499999968704,4.562104e-05
477.059999999687,0.001563008,477.059999999687,4.236323e-06,477.059999999687,4.376973e-06,477.059999999687,4.673569e-05
477.074999999687,0.001674293,477.074999999687,4.702775e-06,477.074999999687,4.360851e-06,477.074999999687,4.646029e-05
477.089999999687,0.001694696,477.089999999687,4.962209e-06,477.089999999687,4.409039e-06,477.089999999687,4.514676e-05
477.104999999687,0.001754533,477.104999999687,5.647323e-06,477.104999999687,4.578317e-06,477.104999999687,4.498704e-05
477.11999999968697,0.001796496,477.11999999968697,5.674694e-06,477.11999999968697,4.771172e-06,477.11999999968697,4.402324e-05
477.13499999968695,0.001815834,477.13499999968695,5.711809e-06,477.13499999968695,4.82986e-06,477.13499999968695,4.321295e-05
477.14999999968694,0.001879037,477.14999999968694,5.787757e-06,477.14999999968694,5.066156e-06,477.14999999968694,4.217795e-05
477.1649999996869,0.001899108,477.1649999996869,5.782887e-06,477.1649999996869,5.074491e-06,477.1649999996869,4.112478e-05
477.1799999996869,0.00194791,477.1799999996869,5.804769e-06,477.1799999996869,5.184341e-06,477.1799999996869,4.00404e-05
477.1949999996869,0.001952108,477.1949999996869,5.831403e-06,477.1949999996869,5.214144e-06,477.1949999996869,3.924909e-05
477.2099999996869,0.001981474,477.2099999996869,5.898653e-06,477.2099999996869,5.339611e-06,477.2099999996869,3.835713e-05
477.2249999996869,0.001994034,477.2249999996869,5.874723e-06,477.2249999996869,5.475077e-06,477.2249999996869,3.759411e-05
477.23999999968686,0.002010612,477.23999999968686,5.855509e-06,477.23999999968686,5.551726e-06,477.23999999968686,3.646619e-05
477.25499999968685,0.00206594,477.25499999968685,5.867525e-06,477.25499999968685,5.475077e-06,477.25499999968685,3.565483e-05
477.26999999968683,0.002041148,477.26999999968683,5.855509e-06,477.26999999968683,5.516089e-06,477.26999999968683,3.404486e-05
477.2849999996868,0.002070831,477.2849999996868,5.821732e-06,477.2849999996868,5.594695e-06,477.2849999996868,3.312206e-05
477.2999999996868,0.001965733,477.2999999996868,5.477649e-06,477.2999999996868,5.291911e-06,477.2999999996868,2.781895e-05
477.3149999996868,0.00189141,477.3149999996868,4.256228e-06,477.3149999996868,5.254512e-06,477.3149999996868,2.616511e-05
477.3299999996868,0.001830826,477.3299999996868,4.152361e-06,477.3299999996868,5.326404e-06,477.3299999996868,2.454677e-05
477.34499999968676,0.001813684,477.34499999968676,3.580347e-06,477.34499999968676,5.318464e-06,477.34499999968676,2.393544e-05
477.35999999968675,0.001790837,477.35999999968675,2.921734e-06,477.35999999968675,5.246463e-06,477.35999999968675,2.285771e-05
477.37499999968674,0.001765966,477.37499999968674,2.878015e-06,477.37499999968674,5.241091e-06,477.37499999968674,2.169415e-05
477.3899999996867,0.00172173,477.3899999996867,2.742679e-06,477.3899999996867,5.14616e-06,477.3899999996867,2.086333e-05
477.4049999996867,0.001686706,477.4049999996867,2.727227e-06,477.4049999996867,5.02147e-06,477.4049999996867,2.022287e-05
477.4199999996867,0.001657494,477.4199999996867,2.74781e-06,477.4199999996867,4.970719e-06,477.4199999996867,1.969209e-05
477.4349999996867,0.001610995,477.4349999996867,2.763147e-06,477.4349999996867,4.919443e-06,477.4349999996867,1.90544e-05
477.44999999968667,0.001570887,477.44999999968667,2.696058e-06,477.44999999968667,4.815255e-06,477.44999999968667,1.859267e-05
477.46499999968665,0.001581001,477.46499999968665,2.685588e-06,477.46499999968665,4.666692e-06,477.46499999968665,1.843134e-05
477.47999999968664,0.001605898,477.47999999968664,2.783465e-06,477.47999999968664,4.774123e-06,477.47999999968664,1.840764e-05
477.4949999996866,0.00160081,477.4949999996866,2.803635e-06,477.4949999996866,5.451871e-06,477.4949999996866,1.876912e-05
477.5099999996866,0.00156943,477.5099999996866,2.828646e-06,477.5099999996866,5.647323e-06,477.5099999996866,1.878187e-05
477.5249999996866,0.001857308,477.5249999996866,2.848496e-06,477.5249999996866,6.470365e-06,477.5249999996866,1.886942e-05
477.5399999996866,0.002136272,477.5399999996866,2.798606e-06,477.5399999996866,3.112461e-05,477.5399999996866,1.867658e-05
477.5549999996866,0.002445238,477.5549999996866,2.823661e-06,477.5549999996866,5.874867e-05,477.5549999996866,1.82948e-05
477.56999999968656,0.002694236,477.56999999968656,2.737538e-06,477.56999999968656,7.776693e-05,477.56999999968656,1.847486e-05
477.58499999968654,0.002973882,477.58499999968654,2.858369e-06,477.58499999968654,8.811989e-05,477.58499999968654,1.941908e-05
477.59999999968653,0.003204469,477.59999999968653,2.818668e-06,477.59999999968653,0.0001005254,477.59999999968653,2.093343e-05
477.6149999996865,0.003332059,477.6149999996865,2.788521e-06,477.6149999996865,0.0001014273,477.6149999996865,2.568971e-05
477.6299999996865,0.003378294,477.6299999996865,2.818668e-06,477.6299999996865,0.0001034559,477.6299999996865,2.77302e-05
477.6449999996865,0.003382027,477.6449999996865,2.818668e-06,477.6449999996865,0.0001091939,477.6449999996865,2.780984e-05
477.6599999996865,0.003352349,477.6599999996865,2.758045e-06,477.6599999996865,0.0001111361,477.6599999996865,2.777233e-05
477.67499999968646,0.003594565,477.67499999968646,2.675077e-06,477.67499999968646,0.0001112539,477.67499999968646,2.863933e-05
477.68999999968645,0.003879576,477.68999999968645,2.878015e-06,477.68999999968645,0.0001117084,477.68999999968645,2.871841e-05
477.70499999968644,0.004117866,477.70499999968644,2.813666e-06,477.70499999968644,0.0001142846,477.70499999968644,2.865605e-05
477.7199999996864,0.004164727,477.7199999996864,2.803635e-06,477.7199999996864,0.0001155063,477.7199999996864,2.786297e-05
477.7349999996864,0.004210203,477.7349999996864,2.798606e-06,477.7349999996864,0.0001155726,477.7349999996864,2.787207e-05
477.7499999996864,0.004207688,477.7499999996864,2.823661e-06,477.7499999996864,0.0001158832,477.7499999996864,2.683016e-05
477.7649999996864,0.004192133,477.7649999996864,2.783465e-06,477.7649999996864,0.0001163154,477.7649999996864,2.686217e-05
477.77999999968637,0.004109289,477.77999999968637,2.768241e-06,477.77999999968637,0.0001163072,477.77999999968637,2.63411e-05
477.79499999968635,0.003821081,477.79499999968635,2.818668e-06,477.79499999968635,0.0001096192,477.79499999968635,2.627953e-05
477.80999999968634,0.003651667,477.80999999968634,2.793568e-06,477.80999999968634,9.684712e-05,477.80999999968634,2.606856e-05
477.8249999996863,0.003453316,477.8249999996863,2.783465e-06,477.8249999996863,8.550613e-05,477.8249999996863,2.568697e-05
477.8399999996863,0.003274201,477.8399999996863,2.648616e-06,477.8399999996863,7.01395e-05,477.8399999996863,2.378075e-05
477.8549999996863,0.003078877,477.8549999996863,2.664524e-06,477.8549999996863,5.703689e-05,477.8549999996863,2.228858e-05
477.8699999996863,0.00291737,477.8699999996863,2.594886e-06,477.8699999996863,5.677896e-05,477.8699999996863,1.468561e-05
477.8849999996863,0.002798411,477.8849999996863,2.648616e-06,477.8849999996863,5.148897e-05,477.8849999996863,1.317483e-05
477.89999999968626,0.002738028,477.89999999968626,2.637958e-06,477.89999999968626,4.027507e-05,477.89999999968626,1.272116e-05
477.91499999968624,0.002745561,477.91499999968624,2.680338e-06,477.91499999968624,3.869025e-05,477.91499999968624,1.272559e-05
477.92999999968623,0.002443541,477.92999999968623,2.873116e-06,477.92999999968623,3.92882e-05,477.92999999968623,1.343843e-05
477.9449999996862,0.002017018,477.9449999996862,2.659232e-06,477.9449999996862,3.956972e-05,477.9449999996862,1.28665e-05
477.9599999996862,0.001484692,477.9599999996862,2.742679e-06,477.9599999996862,3.384733e-05,477.9599999996862,1.359682e-05
477.9749999996862,0.001298028,477.9749999996862,2.722057e-06,477.9749999996862,3.181485e-05,477.9749999996862,1.40503e-05
477.9899999996862,0.001123916,477.9899999996862,2.632612e-06,477.9899999996862,4.807877e-05,477.9899999996862,1.401214e-05
478.00499999968616,0.001118522,478.00499999968616,2.696058e-06,478.00499999968616,7.240745e-05,478.00499999968616,1.428988e-05
478.01999999968615,0.001099991,478.01999999968615,2.716877e-06,478.01999999968615,9.541531e-05,478.01999999968615,1.445941e-05
478.03499999968614,0.001038506,478.03499999968614,3.049133e-06,478.03499999968614,0.0001380605,478.03499999968614,1.440866e-05
478.0499999996861,0.0009726005,478.0499999996861,3.882364e-06,478.0499999996861,0.0001465983,478.0499999996861,1.434203e-05
478.0649999996861,0.0009611979,478.0649999996861,5.148897e-06,478.0649999996861,0.0001473408,478.0649999996861,1.439105e-05
478.0799999996861,0.0009425727,478.0799999996861,5.339611e-06,478.0799999996861,0.0001503033,478.0799999996861,1.448666e-05
478.0949999996861,0.0009554173,478.0949999996861,5.719203e-06,478.0949999996861,0.0001521082,478.0949999996861,1.438126e-05
478.10999999968607,0.0009722056,478.10999999968607,6.11211e-06,478.10999999968607,0.0001526447,478.10999999968607,1.43842e-05
478.12499999968605,0.0009997358,478.12499999968605,6.153455e-06,478.12499999968605,0.0001524424,478.12499999968605,1.422467e-05
478.13999999968604,0.001003078,478.13999999968604,6.217223e-06,478.13999999968604,0.0001525231,478.13999999968604,1.417606e-05
478.154999999686,0.0009898224,478.154999999686,6.275856e-06,478.154999999686,0.0001524054,478.154999999686,1.393755e-05
478.169999999686,0.000962192,478.169999999686,6.282586e-06,478.169999999686,0.0001521136,478.169999999686,1.292657e-05
478.184999999686,0.0009420065,478.184999999686,6.221753e-06,478.184999999686,0.0001517409,478.184999999686,1.114903e-05
478.199999999686,0.0009219224,478.199999999686,6.275856e-06,478.199999999686,0.0001509665,478.199999999686,9.90595e-06
478.214999999686,0.0009444719,478.214999999686,6.2781e-06,478.214999999686,0.0001508059,478.214999999686,8.547137e-06
478.22999999968596,0.0009788369,478.22999999968596,6.2781e-06,478.22999999968596,0.0001501196,478.22999999968596,8.188566e-06
478.24499999968594,0.00100126,478.24499999968594,6.289309e-06,478.24499999968594,0.0001462417,478.24499999968594,7.967094e-06
478.25999999968593,0.001014564,478.25999999968593,6.264623e-06,478.25999999968593,0.0001227096,478.25999999968593,7.784659e-06
478.2749999996859,0.001031224,478.2749999996859,6.230803e-06,478.2749999996859,0.0001055159,478.2749999996859,7.706456e-06
478.2899999996859,0.0009962806,478.2899999996859,5.884307e-06,478.2899999996859,5.109762e-05,478.2899999996859,7.449935e-06
478.3049999996859,0.001065326,478.3049999996859,4.984868e-06,478.3049999996859,3.962949e-05,478.3049999996859,8.484277e-06
478.3199999996859,0.001142961,478.3199999996859,4.289197e-06,478.3199999996859,3.476465e-05,478.3199999996859,9.94427e-06
478.33499999968586,0.001186394,478.33499999968586,3.972038e-06,478.33499999968586,2.343106e-05,478.33499999968586,1.103601e-05
478.34999999968585,0.001216774,478.34999999968585,3.237359e-06,478.34999999968585,1.279073e-05,478.34999999968585,1.150961e-05
478.36499999968584,0.001213275,478.36499999968584,2.940956e-06,478.36499999968584,8.525684e-06,478.36499999968584,1.174465e-05
478.3799999996858,0.001202429,478.3799999996858,2.882905e-06,478.3799999996858,7.813558e-06,478.3799999996858,1.184616e-05
478.3949999996858,0.001194063,478.3949999996858,2.873116e-06,478.3949999996858,5.770695e-06,478.3949999996858,1.197155e-05
478.4099999996858,0.001206914,478.4099999996858,2.793568e-06,478.4099999996858,4.984868e-06,478.4099999996858,1.237995e-05
478.4249999996858,0.001224325,478.4249999996858,2.727227e-06,478.4249999996858,4.984868e-06,478.4249999996858,1.287525e-05
478.43999999968577,0.001240765,478.43999999968577,2.54556e-06,478.43999999968577,4.982041e-06,478.43999999968577,1.299613e-05
478.45499999968575,0.001245938,478.45499999968575,2.449679e-06,478.45499999968575,4.976383e-06,478.45499999968575,1.298637e-05
478.46999999968574,0.001223372,478.46999999968574,2.432367e-06,478.46999999968574,4.956529e-06,478.46999999968574,1.299396e-05
478.4849999996857,0.001167649,478.4849999996857,2.349889e-06,478.4849999996857,4.925167e-06,478.4849999996857,1.297877e-05
478.4999999996857,0.001113285,478.4999999996857,2.449679e-06,478.4999999996857,4.841512e-06,478.4999999996857,1.30286e-05
478.5149999996857,0.001077194,478.5149999996857,2.449679e-06,478.5149999996857,7.178377e-06,478.5149999996857,1.296357e-05
478.5299999996857,0.001044485,478.5299999996857,2.506524e-06,478.5299999996857,9.009299e-06,478.5299999996857,1.280394e-05
478.5449999996857,0.001033001,478.5449999996857,2.523327e-06,478.5449999996857,1.104749e-05,478.5449999996857,1.253824e-05
478.55999999968566,0.0009388548,478.55999999968566,2.54002e-06,478.55999999968566,1.273112e-05,478.55999999968566,1.193501e-05
478.57499999968564,0.0008359446,478.57499999968564,2.495258e-06,478.57499999968564,1.369284e-05,478.57499999968564,1.09797e-05
478.58999999968563,0.0006706734,478.58999999968563,2.443922e-06,478.58999999968563,1.567751e-05,478.58999999968563,9.375548e-06
478.6049999996856,0.0005816533,478.6049999996856,2.432367e-06,478.6049999996856,1.929171e-05,478.6049999996856,8.619349e-06
478.6199999996856,0.0005472184,478.6199999996856,2.385586e-06,478.6199999996856,1.938931e-05,478.6199999996856,8.43432e-06
478.6349999996856,0.0005432187,478.6349999996856,2.349889e-06,478.6349999996856,1.961755e-05,478.6349999996856,8.407555e-06
478.6499999996856,0.0005344738,478.6499999996856,2.379674e-06,478.6499999996856,1.98531e-05,478.6499999996856,8.348708e-06
478.66499999968556,0.0004853985,478.66499999968556,2.355876e-06,478.66499999968556,2.05003e-05,478.66499999968556,7.865667e-06
478.67999999968555,0.0003861675,478.67999999968555,2.391484e-06,478.67999999968555,2.086333e-05,478.67999999968555,7.089519e-06
478.69499999968554,0.0003347229,478.69499999968554,2.40909e-06,478.69499999968554,2.089976e-05,478.69499999968554,6.724452e-06
478.7099999996855,0.000296219,478.7099999996855,2.41493e-06,478.7099999996855,2.089908e-05,478.7099999996855,6.692956e-06
478.7249999996855,0.000288947,478.7249999996855,2.449679e-06,478.7249999996855,2.089504e-05,478.7249999996855,6.635885e-06
478.7399999996855,0.0002796641,478.7399999996855,2.461153e-06,478.7399999996855,2.089167e-05,478.7399999996855,6.703471e-06
478.7549999996855,0.0002569646,478.7549999996855,2.40909e-06,478.7549999996855,2.088897e-05,478.7549999996855,6.737009e-06
478.76999999968547,0.0002343593,478.76999999968547,2.443922e-06,478.76999999968547,1.964338e-05,478.76999999968547,6.552573e-06
478.78499999968545,0.0002251281,478.78499999968545,2.355876e-06,478.78499999968545,1.895879e-05,478.78499999968545,5.831403e-06
478.79999999968544,0.0002193515,478.79999999968544,2.325787e-06,478.79999999968544,1.807636e-05,478.79999999968544,6.153455e-06
478.8149999996854,0.0002473654,478.8149999996854,2.319723e-06,478.8149999996854,1.667378e-05,478.8149999996854,6.180865e-06
478.8299999996854,0.0002485381,478.8299999996854,2.325787e-06,478.8299999996854,1.575907e-05,478.8299999996854,6.167175e-06
478.8449999996854,0.0002471064,478.8449999996854,2.355876e-06,478.8449999996854,1.273001e-05,478.8449999996854,6.219488e-06
478.8599999996854,0.0002514301,478.8599999996854,2.391484e-06,478.8599999996854,8.502521e-06,478.8599999996854,6.293787e-06
478.8749999996854,0.0002458762,478.8749999996854,2.331836e-06,478.8749999996854,8.99365e-06,478.8749999996854,6.248863e-06
478.88999999968536,0.0002745091,478.88999999968536,2.373747e-06,478.88999999968536,8.598076e-06,478.88999999968536,6.320588e-06
478.90499999968534,0.000291424,478.90499999968534,2.337869e-06,478.90499999968534,1.209214e-05,478.90499999968534,6.869526e-06
478.91999999968533,0.000294606,478.91999999968533,2.534468e-06,478.91999999968533,1.520403e-05,478.91999999968533,7.436688e-06
478.9349999996853,0.0003051403,478.9349999996853,2.534468e-06,478.9349999996853,2.113501e-05,478.9349999996853,7.62745e-06
478.9499999996853,0.0003085198,478.9499999996853,2.594886e-06,478.9499999996853,2.26814e-05,478.9499999996853,7.793701e-06
478.9649999996853,0.0003135749,478.9649999996853,2.664524e-06,478.9649999996853,2.288235e-05,478.9649999996853,7.732004e-06
478.9799999996853,0.0003285441,478.9799999996853,2.627256e-06,478.9799999996853,2.331051e-05,478.9799999996853,7.797315e-06
478.99499999968526,0.0004169829,478.99499999968526,2.643292e-06,478.99499999968526,2.360178e-05,478.99499999968526,7.800928e-06
479.00999999968525,0.0005237814,479.00999999968525,2.627256e-06,479.00999999968525,2.376475e-05,479.00999999968525,8.308113e-06
479.02499999968524,0.0005405915,479.02499999968524,2.848496e-06,479.02499999968524,2.38405e-05,479.02499999968524,9.764152e-06
479.0399999996852,0.000713232,479.0399999996852,2.853437e-06,479.0399999996852,2.39578e-05,479.0399999996852,1.104111e-05
479.0549999996852,0.0008738523,479.0549999996852,3.007266e-06,479.0549999996852,2.397484e-05,479.0549999996852,1.110472e-05
479.0699999996852,0.0009143626,479.0699999996852,3.91848e-06,479.0699999996852,2.404642e-05,479.0699999996852,1.116671e-05
479.0849999996852,0.0009200279,479.0849999996852,5.181623e-06,479.0849999996852,2.411486e-05,479.0849999996852,1.152429e-05
479.09999999968517,0.0009272523,479.09999999968517,5.326404e-06,479.09999999968517,2.411136e-05,479.09999999968517,1.163136e-05
479.11499999968515,0.0009390354,479.11499999968515,5.960421e-06,479.11499999968515,2.40347e-05,479.11499999968515,1.166764e-05
479.12999999968514,0.0009431416,479.12999999968514,6.228541e-06,479.12999999968514,2.390777e-05,479.12999999968514,1.181282e-05
479.1449999996851,0.0009886244,479.1449999996851,6.19907e-06,479.1449999996851,2.395133e-05,479.1449999996851,1.188652e-05
479.1599999996851,0.001454394,479.1599999996851,6.311667e-06,479.1599999996851,2.073737e-05,479.1599999996851,1.168814e-05
479.1749999996851,0.001734129,479.1749999996851,6.311667e-06,479.1749999996851,1.799983e-05,479.1749999996851,1.132454e-05
479.1899999996851,0.002114947,479.1899999996851,6.327271e-06,479.1899999996851,1.107551e-05,479.1899999996851,1.158281e-05
479.20499999968507,0.002304832,479.20499999968507,6.284828e-06,479.20499999968507,1.448375e-05,479.20499999968507,1.153773e-05
479.21999999968506,0.002559987,479.21999999968506,6.269119e-06,479.21999999968506,1.538547e-05,479.21999999968506,1.166039e-05
479.23499999968504,0.00277276,479.23499999968504,6.300498e-06,479.23499999968504,1.569278e-05,479.23499999968504,1.289274e-05
479.24999999968503,0.002780029,479.24999999968503,6.316129e-06,479.24999999968503,1.621375e-05,479.24999999968503,1.38035e-05
479.264999999685,0.00279856,479.264999999685,6.293787e-06,479.264999999685,1.620158e-05,479.264999999685,1.36351e-05
479.279999999685,0.002804268,479.279999999685,6.233063e-06,479.279999999685,1.612576e-05,479.279999999685,1.291676e-05
479.294999999685,0.002779257,479.294999999685,6.230803e-06,479.294999999685,1.600652e-05,479.294999999685,1.318765e-05
479.309999999685,0.002759438,479.309999999685,6.077441e-06,479.309999999685,1.596687e-05,479.309999999685,1.399504e-05
479.32499999968496,0.002752806,479.32499999968496,5.029879e-06,479.32499999968496,1.582063e-05,479.32499999968496,1.411232e-05
479.33999999968495,0.002752119,479.33999999968495,4.302314e-06,479.33999999968495,1.588283e-05,479.33999999968495,1.432335e-05
479.35499999968494,0.002748447,479.35499999968494,3.936414e-06,479.35499999968494,1.590056e-05,479.35499999968494,1.413227e-05
479.3699999996849,0.002744818,479.3699999996849,2.964809e-06,479.3699999996849,1.584198e-05,479.3699999996849,1.413526e-05
479.3849999996849,0.002739227,479.3849999996849,2.737538e-06,479.3849999996849,1.647832e-05,479.3849999996849,1.42316e-05
479.3999999996849,0.002718461,479.3999999996849,2.758045e-06,479.3999999996849,1.612751e-05,479.3999999996849,1.420485e-05
479.4149999996849,0.002386277,479.4149999996849,2.512137e-06,479.4149999996849,1.602675e-05,479.4149999996849,1.40523e-05
479.42999999968487,0.002236749,479.42999999968487,2.391484e-06,479.42999999968487,1.62233e-05,479.42999999968487,1.382287e-05
479.44499999968485,0.001803155,479.44499999968485,2.391484e-06,479.44499999968485,1.559102e-05,479.44499999968485,1.378205e-05
479.45999999968484,0.001670863,479.45999999968484,2.397367e-06,479.45999999968484,1.162894e-05,479.45999999968484,1.383917e-05
479.4749999996848,0.001093128,479.4749999996848,2.385586e-06,479.4749999996848,1.073186e-05,479.4749999996848,1.368872e-05
479.4899999996848,0.0008031342,479.4899999996848,2.295304e-06,479.4899999996848,9.567407e-06,479.4899999996848,1.226908e-05
479.5049999996848,0.0006137518,479.5049999996848,2.276818e-06,479.5049999996848,8.355453e-06,479.5049999996848,1.055984e-05
479.5199999996848,0.0004741043,479.5199999996848,2.449679e-06,479.5199999996848,8.253678e-06,479.5199999996848,1.062102e-05
479.53499999968477,0.0003455249,479.53499999968477,2.426568e-06,479.53499999968477,8.459336e-06,479.53499999968477,1.030326e-05
479.54999999968476,0.0003212207,479.54999999968476,2.420756e-06,479.54999999968476,8.728161e-06,479.54999999968476,8.622616e-06
479.56499999968474,0.0002915287,479.56499999968474,2.455423e-06,479.56499999968474,8.749116e-06,479.56499999968474,8.157542e-06
479.57999999968473,0.0002965257,479.57999999968473,2.438151e-06,479.57999999968473,9.546771e-06,479.57999999968473,7.788277e-06
479.5949999996847,0.0002956152,479.5949999996847,2.495258e-06,479.5949999996847,9.837455e-06,479.5949999996847,7.732004e-06
479.6099999996847,0.0002976647,479.6099999996847,2.528904e-06,479.6099999996847,9.814517e-06,479.6099999996847,7.83696e-06
479.6249999996847,0.0002917873,479.6249999996847,2.483942e-06,479.6249999996847,9.484596e-06,479.6249999996847,7.775606e-06
479.6399999996847,0.0002895314,479.6399999996847,2.455423e-06,479.6399999996847,8.492574e-06,479.6399999996847,7.472591e-06
479.65499999968466,0.0002900927,479.65499999968466,2.397367e-06,479.65499999968466,8.638938e-06,479.65499999968466,7.36818e-06
479.66999999968465,0.0003364193,479.66999999968465,2.355876e-06,479.66999999968465,8.612809e-06,479.66999999968465,7.434793e-06
479.68499999968463,0.0009874561,479.68499999968463,2.331836e-06,479.68499999968463,1.039175e-05,479.68499999968463,7.448044e-06
479.6999999996846,0.001555859,479.6999999996846,2.489606e-06,479.6999999996846,1.066999e-05,479.6999999996846,7.817162e-06
479.7149999996846,0.002078781,479.7149999996846,2.483942e-06,479.7149999996846,1.171944e-05,479.7149999996846,8.046266e-06
479.7299999996846,0.002383484,479.7299999996846,2.500897e-06,479.7299999996846,1.885299e-05,479.7299999996846,8.08469e-06
479.7449999996846,0.002697581,479.7449999996846,2.512137e-06,479.7449999996846,2.179715e-05,479.7449999996846,8.277538e-06
479.75999999968457,0.002860277,479.75999999968457,2.403235e-06,479.75999999968457,2.248679e-05,479.75999999968457,8.647087e-06
479.77499999968455,0.002913261,479.77499999968455,2.289158e-06,479.77499999968455,2.49475e-05,479.77499999968455,9.260655e-06
479.78999999968454,0.003043595,479.78999999968454,2.307546e-06,479.78999999968454,2.675498e-05,479.78999999968454,9.687388e-06
479.8049999996845,0.003090464,479.8049999996845,2.343887e-06,479.8049999996845,2.73481e-05,479.8049999996845,1.238677e-05
479.8199999996845,0.003111905,479.8199999996845,2.373747e-06,479.8199999996845,2.7454e-05,479.8199999996845,1.449736e-05
479.8349999996845,0.003123251,479.8349999996845,2.385586e-06,479.8349999996845,2.767579e-05,479.8349999996845,1.465104e-05
479.8499999996845,0.003137732,479.8499999996845,2.331836e-06,479.8499999996845,2.777233e-05,479.8499999996845,1.521051e-05
479.86499999968447,0.003135568,479.86499999968447,2.461153e-06,479.86499999968447,2.797146e-05,479.86499999968447,1.565683e-05
479.87999999968446,0.003135035,479.87999999968446,2.461153e-06,479.87999999968446,2.797851e-05,479.87999999968446,1.616502e-05
479.89499999968444,0.003136016,479.89499999968444,2.438151e-06,479.89499999968444,2.786853e-05,479.89499999968444,1.631163e-05
479.90999999968443,0.003134599,479.90999999968443,2.455423e-06,479.90999999968443,2.768291e-05,479.90999999968443,1.627099e-05
479.9249999996844,0.003118747,479.9249999996844,2.443922e-06,479.9249999996844,2.748631e-05,479.9249999996844,1.629953e-05
479.9399999996844,0.002911674,479.9399999996844,2.461153e-06,479.9399999996844,2.666321e-05,479.9399999996844,1.687281e-05
479.9549999996844,0.002633067,479.9549999996844,2.397367e-06,479.9549999996844,2.65515e-05,479.9549999996844,1.700504e-05
479.9699999996844,0.002273101,479.9699999996844,2.438151e-06,479.9699999996844,2.542459e-05,479.9699999996844,1.780073e-05
479.98499999968436,0.001939876,479.98499999968436,2.489606e-06,479.98499999968436,1.948787e-05,479.98499999968436,1.845349e-05
479.99999999968435,0.001406816,479.99999999968435,2.983753e-06,479.99999999968435,1.768162e-05,479.99999999968435,1.829557e-05
480.01499999968433,0.001126508,480.01499999968433,4.045829e-06,480.01499999968433,1.643638e-05,480.01499999968433,1.820913e-05
480.0299999996843,0.001009122,480.0299999996843,5.206033e-06,480.0299999996843,1.288291e-05,480.0299999996843,1.813626e-05
480.0449999996843,0.0007515447,480.0449999996843,5.597212e-06,480.0449999996843,8.889673e-06,480.0449999996843,1.817816e-05
480.0599999996843,0.0006475383,480.0599999996843,6.347276e-06,480.0599999996843,7.500814e-06,480.0599999996843,1.560005e-05
480.0749999996843,0.0006019021,480.0749999996843,6.50294e-06,480.0749999996843,7.051666e-06,480.0749999996843,1.417407e-05
480.08999999968427,0.0005407475,480.08999999968427,6.569749e-06,480.08999999968427,5.315815e-06,480.08999999968427,1.513159e-05
480.10499999968425,0.0005280513,480.10499999968425,6.711871e-06,480.10499999968425,4.01437e-06,480.10499999968425,1.509337e-05
480.11999999968424,0.0005437169,480.11999999968424,6.713969e-06,480.11999999968424,3.28916e-06,480.11999999968424,1.505319e-05
480.1349999996842,0.0005686809,480.1349999996842,6.722357e-06,480.1349999996842,3.310505e-06,480.1349999996842,1.516785e-05
480.1499999996842,0.0006270381,480.1499999996842,6.724452e-06,480.1499999996842,3.373728e-06,480.1499999996842,1.550586e-05
480.1649999996842,0.0006561305,480.1649999996842,6.720261e-06,480.1649999996842,3.386231e-06,480.1649999996842,1.563703e-05
480.1799999996842,0.0006487108,480.1799999996842,6.726546e-06,480.1799999996842,3.356985e-06,480.1799999996842,1.548495e-05
480.19499999968417,0.000644592,480.19499999968417,6.743279e-06,480.19499999968417,3.276286e-06,480.19499999968417,1.449347e-05
480.20999999968416,0.0006591596,480.20999999968416,6.703471e-06,480.20999999968416,3.144655e-06,480.20999999968416,1.436166e-05
480.22499999968414,0.0006702859,480.22499999968414,6.69506e-06,480.22499999968414,3.025945e-06,480.22499999968414,1.276868e-05
480.23999999968413,0.0006569788,480.23999999968413,6.665538e-06,480.23999999968413,3.135683e-06,480.23999999968413,1.212239e-05
480.2549999996841,0.0006477067,480.2549999996841,6.307202e-06,480.2549999996841,2.964809e-06,480.2549999996841,1.213981e-05
480.2699999996841,0.0006448437,480.2699999996841,5.270573e-06,480.2699999996841,2.848496e-06,480.2699999996841,1.177101e-05
480.2849999996841,0.0006485726,480.2849999996841,4.627284e-06,480.2849999996841,2.853437e-06,480.2849999996841,1.175544e-05
480.2999999996841,0.000644803,480.2999999996841,4.05626e-06,480.2999999996841,3.035241e-06,480.2999999996841,1.165072e-05
480.31499999968406,0.0006356437,480.31499999968406,2.897527e-06,480.31499999968406,3.049133e-06,480.31499999968406,1.126967e-05
480.32999999968405,0.0006449823,480.32999999968405,2.788521e-06,480.32999999968405,3.206755e-06,480.32999999968405,1.139522e-05
480.34499999968403,0.0005852454,480.34499999968403,2.578549e-06,480.34499999968403,3.197958e-06,480.34499999968403,8.930779e-06
480.359999999684,0.0005246539,480.359999999684,2.385586e-06,480.359999999684,3.122176e-06,480.359999999684,7.97063e-06
480.374999999684,0.0005244562,480.374999999684,2.495258e-06,480.374999999684,3.062961e-06,480.374999999684,7.733825e-06
480.389999999684,0.0005097415,480.389999999684,2.54556e-06,480.389999999684,2.873116e-06,480.389999999684,7.137048e-06
480.404999999684,0.0004698378,480.404999999684,2.551088e-06,480.404999999684,3.053749e-06,480.404999999684,6.830453e-06
480.41999999968397,0.0004154711,480.41999999968397,2.534468e-06,480.41999999968397,3.488681e-06,480.41999999968397,6.774542e-06
480.43499999968395,0.0004009716,480.43499999968395,2.54556e-06,480.43499999968395,3.756974e-06,480.43499999968395,6.836638e-06
480.44999999968394,0.0004048156,480.44999999968394,2.483942e-06,480.44999999968394,3.882364e-06,480.44999999968394,6.80152e-06
480.4649999996839,0.0003715639,480.4649999996839,2.528904e-06,480.4649999996839,4.887844e-06,480.4649999996839,6.784931e-06
480.4799999996839,0.0003590543,480.4799999996839,2.616511e-06,480.4799999996839,5.060592e-06,480.4799999996839,6.955118e-06
480.4949999996839,0.0003572873,480.4949999996839,2.648616e-06,480.4949999996839,5.802342e-06,480.4949999996839,7.097463e-06
480.5099999996839,0.0003595849,480.5099999996839,2.594886e-06,480.5099999996839,5.929618e-06,480.5099999996839,7.125195e-06
480.52499999968387,0.0003672441,480.52499999968387,2.54002e-06,480.52499999968387,5.920107e-06,480.52499999968387,7.160693e-06
480.53999999968386,0.0003660025,480.53999999968386,2.605721e-06,480.53999999968386,5.8867e-06,480.53999999968386,7.335607e-06
480.55499999968384,0.0003538511,480.55499999968384,2.594886e-06,480.55499999968384,5.821732e-06,480.55499999968384,7.215565e-06
480.56999999968383,0.0003803466,480.56999999968383,2.690828e-06,480.56999999968383,5.778013e-06,480.56999999968383,8.348708e-06
480.5849999996838,0.0004103548,480.5849999996838,2.675077e-06,480.5849999996838,5.729046e-06,480.5849999996838,9.387561e-06
480.5999999996838,0.0004459911,480.5999999996838,2.616511e-06,480.5999999996838,5.753582e-06,480.5999999996838,1.108568e-05
480.6149999996838,0.0004533444,480.6149999996838,2.562108e-06,480.6149999996838,5.807196e-06,480.6149999996838,1.130462e-05
480.6299999996838,0.0004629717,480.6299999996838,2.438151e-06,480.6299999996838,5.831403e-06,480.6299999996838,1.156577e-05
480.64499999968376,0.0004686998,480.64499999968376,2.432367e-06,480.64499999968376,5.908198e-06,480.64499999968376,1.165676e-05
480.65999999968375,0.000482,480.65999999968375,2.46687e-06,480.65999999968375,5.649817e-06,480.65999999968375,1.16253e-05
480.67499999968373,0.000625261,480.67499999968373,2.54002e-06,480.67499999968373,5.339611e-06,480.67499999968373,1.18164e-05
480.6899999996837,0.0006898554,480.6899999996837,2.5676e-06,480.6899999996837,5.516089e-06,480.6899999996837,1.217919e-05
480.7049999996837,0.0007016396,480.7049999996837,2.616511e-06,480.7049999996837,6.217223e-06,480.7049999996837,1.386154e-05
480.7199999996837,0.0007261036,480.7199999996837,2.611121e-06,480.7199999996837,8.306418e-06,480.7199999996837,1.505225e-05
480.7349999996837,0.0009256697,480.7349999996837,2.648616e-06,480.7349999996837,9.13507e-06,480.7349999996837,1.502133e-05
480.74999999968367,0.001088841,480.74999999968367,2.627256e-06,480.74999999968367,1.004294e-05,480.74999999968367,1.503821e-05
480.76499999968365,0.001140513,480.76499999968365,2.621889e-06,480.76499999968365,1.28391e-05,480.76499999968365,1.523919e-05
480.77999999968364,0.001198741,480.77999999968364,2.675077e-06,480.77999999968364,1.43381e-05,480.77999999968364,1.518456e-05
480.7949999996836,0.001253422,480.7949999996836,2.690828e-06,480.7949999996836,1.447694e-05,480.7949999996836,1.513252e-05
480.8099999996836,0.001328759,480.8099999996836,2.680338e-06,480.8099999996836,1.452842e-05,480.8099999996836,1.558198e-05
480.8249999996836,0.001311342,480.8249999996836,2.637958e-06,480.8249999996836,1.481739e-05,480.8249999996836,1.493387e-05
480.8399999996836,0.00131153,480.8399999996836,2.737538e-06,480.8399999996836,1.487622e-05,480.8399999996836,1.494989e-05
480.85499999968357,0.001327945,480.85499999968357,3.206755e-06,480.85499999968357,1.48658e-05,480.85499999968357,1.557022e-05
480.86999999968356,0.001456815,480.86999999968356,3.820184e-06,480.86999999968356,1.508964e-05,480.86999999968356,1.798338e-05
480.88499999968354,0.001462476,480.88499999968354,5.336972e-06,480.88499999968354,1.520125e-05,480.88499999968354,1.821764e-05
480.89999999968353,0.001466908,480.89999999968353,7.990047e-06,480.89999999968353,1.529087e-05,480.89999999968353,1.984884e-05
480.9149999996835,0.00150933,480.9149999996835,8.140256e-06,480.9149999996835,1.53286e-05,480.9149999996835,2.062839e-05
480.9299999996835,0.001453792,480.9299999996835,8.313199e-06,480.9299999996835,1.539554e-05,480.9299999996835,2.061883e-05
480.9449999996835,0.001575933,480.9449999996835,8.392462e-06,480.9449999996835,1.540377e-05,480.9449999996835,2.041629e-05
480.9599999996835,0.001666224,480.9599999996835,1.053045e-05,480.9599999996835,1.482974e-05,480.9599999996835,1.948787e-05
480.97499999968346,0.00191853,480.97499999968346,1.358024e-05,480.97499999968346,1.340274e-05,480.97499999968346,1.955786e-05
480.98999999968345,0.001885878,480.98999999968345,1.799748e-05,480.98999999968345,1.33353e-05,480.98999999968345,1.985593e-05
481.00499999968343,0.001863034,481.00499999968343,2.372263e-05,481.00499999968343,1.635217e-05,481.00499999968343,2.172465e-05
481.0199999996834,0.002023647,481.0199999996834,2.861374e-05,481.0199999996834,4.813851e-05,481.0199999996834,2.179392e-05
481.0349999996834,0.002204233,481.0349999996834,3.080114e-05,481.0349999996834,5.009899e-05,481.0349999996834,2.220056e-05
481.0499999996834,0.002359622,481.0499999996834,3.220125e-05,481.0499999996834,5.541542e-05,481.0499999996834,2.26814e-05
481.0649999996834,0.002707355,481.0649999996834,3.369257e-05,481.0649999996834,6.476719e-05,481.0649999996834,2.330749e-05
481.07999999968337,0.003005342,481.07999999968337,3.601491e-05,481.07999999968337,0.0001076572,481.07999999968337,2.377364e-05
481.09499999968335,0.003095445,481.09499999968335,3.687568e-05,481.09499999968335,0.0001231259,481.09499999968335,2.373984e-05
481.10999999968334,0.003198407,481.10999999968334,3.968241e-05,481.10999999968334,0.0001342544,481.10999999968334,2.279909e-05
481.1249999996833,0.003308126,481.1249999996833,4.227202e-05,481.1249999996833,0.0001640712,481.1249999996833,2.068704e-05
481.1399999996833,0.003399274,481.1399999996833,4.266178e-05,481.1399999996833,0.000179738,481.1399999996833,2.062908e-05
481.1549999996833,0.003403676,481.1549999996833,4.415839e-05,481.1549999996833,0.0001838686,481.1549999996833,1.917085e-05
481.1699999996833,0.003389075,481.1699999996833,4.735402e-05,481.1699999996833,0.0001872551,481.1699999996833,1.899887e-05
481.18499999968327,0.003374849,481.18499999968327,5.039923e-05,481.18499999968327,0.0001897803,481.18499999968327,1.862975e-05
481.19999999968326,0.003321148,481.19999999968326,5.534293e-05,481.19999999968326,0.0001907239,481.19999999968326,1.861916e-05
481.21499999968324,0.003243004,481.21499999968324,5.695137e-05,481.21499999968324,0.0001913352,481.21499999968324,1.846189e-05
481.22999999968323,0.003109156,481.22999999968323,5.884666e-05,481.22999999968323,0.0001957822,481.22999999968323,1.89833e-05
481.2449999996832,0.003089131,481.2449999996832,6.015985e-05,481.2449999996832,0.0001988361,481.2449999996832,1.829326e-05
481.2599999996832,0.003030196,481.2599999996832,5.794568e-05,481.2599999996832,0.0001940444,481.2599999996832,1.647661e-05
481.2749999996832,0.002884611,481.2749999996832,5.698723e-05,481.2749999996832,0.0001966658,481.2749999996832,1.622764e-05
481.2899999996832,0.0028012,481.2899999996832,5.820449e-05,481.2899999996832,0.000195397,481.2899999996832,1.622157e-05
481.30499999968316,0.00256069,481.30499999968316,5.99983e-05,481.30499999968316,0.0001946769,481.30499999968316,1.624239e-05
481.31999999968315,0.00227017,481.31999999968315,6.345168e-05,481.31999999968315,0.0001896606,481.31999999968315,1.788678e-05
481.33499999968313,0.001866519,481.33499999968313,7.025909e-05,481.33499999968313,0.0001641977,481.33499999968313,1.920096e-05
481.3499999996831,0.001842541,481.3499999996831,7.967572e-05,481.3499999996831,0.000156027,481.3499999996831,1.949943e-05
481.3649999996831,0.001614273,481.3649999996831,7.983398e-05,481.3649999996831,0.0001422584,481.3649999996831,1.993311e-05
481.3799999996831,0.001361983,481.3799999996831,8.023931e-05,481.3799999996831,0.0001148982,481.3799999996831,2.00971e-05
481.3949999996831,0.001285067,481.3949999996831,7.975029e-05,481.3949999996831,9.373655e-05,481.3949999996831,1.988287e-05
481.40999999968307,0.001263201,481.40999999968307,7.967643e-05,481.40999999968307,8.375122e-05,481.40999999968307,1.986941e-05
481.42499999968305,0.001240735,481.42499999968305,7.994189e-05,481.42499999968305,7.89716e-05,481.42499999968305,1.982114e-05
481.43999999968304,0.001270091,481.43999999968304,7.761843e-05,481.43999999968304,7.71612e-05,481.43999999968304,1.993665e-05
481.454999999683,0.001271831,481.454999999683,7.46365e-05,481.454999999683,7.760809e-05,481.454999999683,1.977133e-05
481.469999999683,0.001283048,481.469999999683,7.120073e-05,481.469999999683,7.700586e-05,481.469999999683,1.950954e-05
481.484999999683,0.001307113,481.484999999683,7.070498e-05,481.484999999683,6.512853e-05,481.484999999683,1.863731e-05
481.499999999683,0.001373621,481.499999999683,6.908092e-05,481.499999999683,6.119158e-05,481.499999999683,1.895879e-05
481.51499999968297,0.00154472,481.51499999968297,6.863679e-05,481.51499999968297,5.977932e-05,481.51499999968297,1.886718e-05
481.52999999968296,0.001575246,481.52999999968296,6.753424e-05,481.52999999968296,4.716982e-05,481.52999999968296,1.886419e-05
481.54499999968294,0.001568075,481.54499999968294,6.585853e-05,481.54499999968294,4.907144e-05,481.54499999968294,1.884253e-05
481.55999999968293,0.001585133,481.55999999968293,6.360932e-05,481.55999999968293,4.900508e-05,481.55999999968293,1.940529e-05
481.5749999996829,0.001371018,481.5749999996829,5.353049e-05,481.5749999996829,4.766741e-05,481.5749999996829,1.526875e-05
481.5899999996829,0.001497059,481.5899999996829,4.672544e-05,481.5899999996829,4.796936e-05,481.5899999996829,1.693864e-05
481.6049999996829,0.00160815,481.6049999996829,3.09799e-05,481.6049999996829,5.357652e-05,481.6049999996829,1.873907e-05
481.6199999996829,0.001581042,481.6199999996829,2.545006e-05,481.6199999996829,6.069439e-05,481.6199999996829,2.018383e-05
481.63499999968286,0.00184326,481.63499999968286,2.249117e-05,481.63499999968286,6.177514e-05,481.63499999968286,2.970031e-05
481.64999999968285,0.001866882,481.64999999968285,2.157369e-05,481.64999999968285,7.10623e-05,481.64999999968285,3.124657e-05
481.66499999968283,0.001879488,481.66499999968283,1.22461e-05,481.66499999968283,9.649507e-05,481.66499999968283,3.168485e-05
481.6799999996828,0.002084478,481.6799999996828,8.219473e-06,481.6799999996828,0.0001221042,481.6799999996828,3.168796e-05
481.6949999996828,0.002360218,481.6949999996828,7.961788e-06,481.6949999996828,0.0001486958,481.6949999996828,3.173816e-05
481.7099999996828,0.002396264,481.7099999996828,7.981227e-06,481.7099999996828,0.000181168,481.7099999996828,3.188517e-05
481.7249999996828,0.002643546,481.7249999996828,8.041013e-06,481.7249999996828,0.0001853085,481.7249999996828,3.189356e-05
481.73999999968277,0.002766996,481.73999999968277,8.674737e-06,481.73999999968277,0.0001988,481.73999999968277,3.167907e-05
481.75499999968275,0.002887248,481.75499999968275,1.801e-05,481.75499999968275,0.0003364724,481.75499999968275,3.202887e-05
481.76999999968274,0.002879228,481.76999999968274,1.896919e-05,481.76999999968274,0.0004224383,481.76999999968274,3.21325e-05
481.7849999996827,0.003059787,481.7849999996827,2.187778e-05,481.7849999996827,0.0004539648,481.7849999996827,3.193638e-05
481.7999999996827,0.003208854,481.7999999996827,3.389225e-05,481.7999999996827,0.0004626997,481.7999999996827,3.301983e-05
481.8149999996827,0.003225557,481.8149999996827,3.525753e-05,481.8149999996827,0.0004669739,481.8149999996827,3.464735e-05
481.8299999996827,0.003253247,481.8299999996827,3.662076e-05,481.8299999996827,0.0004675474,481.8299999996827,3.442997e-05
481.84499999968267,0.00313508,481.84499999968267,3.801628e-05,481.84499999968267,0.0004686768,481.84499999968267,3.252423e-05
481.85999999968266,0.003095746,481.85999999968266,3.982698e-05,481.85999999968266,0.0004684431,481.85999999968266,3.183609e-05
481.87499999968264,0.003096165,481.87499999968264,4.320154e-05,481.87499999968264,0.0004674983,481.87499999968264,3.371849e-05
481.88999999968263,0.003115328,481.88999999968263,4.432078e-05,481.88999999968263,0.0004672245,481.88999999968263,2.722626e-05
481.9049999996826,0.003176459,481.9049999996826,4.474119e-05,481.9049999996826,0.0004653989,481.9049999996826,2.588962e-05
481.9199999996826,0.003367217,481.9199999996826,4.481983e-05,481.9199999996826,0.0004578611,481.9199999996826,2.781592e-05
481.9349999996826,0.00354902,481.9349999996826,4.484811e-05,481.9349999996826,0.0004533395,481.9349999996826,2.877819e-05
481.9499999996826,0.003701934,481.9499999996826,4.487543e-05,481.9499999996826,0.0004438103,481.9499999996826,2.912511e-05
481.96499999968256,0.003794696,481.96499999968256,4.4893e-05,481.96499999968256,0.0004324152,481.96499999968256,2.914686e-05
481.97999999968255,0.003647518,481.97999999968255,4.483806e-05,481.97999999968255,0.0004302385,481.97999999968255,2.909607e-05
481.99499999968253,0.003778938,481.99499999968253,4.367275e-05,481.99499999968253,0.0003707389,481.99499999968253,2.875665e-05
482.0099999996825,0.003880202,482.0099999996825,4.188234e-05,482.0099999996825,0.0003149505,482.0099999996825,2.910914e-05
482.0249999996825,0.003883519,482.0249999996825,4.100643e-05,482.0249999996825,0.000148143,482.0249999996825,2.958959e-05
482.0399999996825,0.003703108,482.0399999996825,3.907175e-05,482.0399999996825,0.0001183275,482.0399999996825,2.961814e-05
482.0549999996825,0.003638117,482.0549999996825,2.964524e-05,482.0549999996825,7.790212e-05,482.0549999996825,2.776066e-05
482.06999999968247,0.003612203,482.06999999968247,2.736766e-05,482.06999999968247,5.737474e-05,482.06999999968247,2.485019e-05
482.08499999968245,0.003600085,482.08499999968245,2.608261e-05,482.08499999968245,4.771438e-05,482.08499999968245,2.486493e-05
482.09999999968244,0.003586852,482.09999999968244,2.45261e-05,482.09999999968244,4.051847e-05,482.09999999968244,2.53619e-05
482.1149999996824,0.003591407,482.1149999996824,1.905884e-05,482.1149999996824,3.798106e-05,482.1149999996824,2.435145e-05
482.1299999996824,0.003567996,482.1299999996824,1.087269e-05,482.1299999996824,3.716449e-05,482.1299999996824,1.985097e-05
482.1449999996824,0.003434681,482.1449999996824,8.325052e-06,482.1449999996824,3.522395e-05,482.1449999996824,1.80475e-05
482.1599999996824,0.003326973,482.1599999996824,7.59599e-06,482.1599999996824,3.260987e-05,482.1599999996824,1.717074e-05
482.17499999968237,0.003030424,482.17499999968237,7.618211e-06,482.17499999968237,3.178207e-05,482.17499999968237,1.487811e-05
482.18999999968236,0.002643862,482.18999999968236,8.640569e-06,482.18999999968236,3.090569e-05,482.18999999968236,1.387373e-05
482.20499999968234,0.002125354,482.20499999968234,8.609537e-06,482.20499999968234,2.852203e-05,482.20499999968234,1.303617e-05
482.21999999968233,0.001894969,482.21999999968233,8.716856e-06,482.21999999968233,2.721074e-05,482.21999999968233,1.306855e-05
482.2349999996823,0.001823528,482.2349999996823,8.519072e-06,482.2349999996823,1.812306e-05,482.2349999996823,1.299071e-05
482.2499999996823,0.001464254,482.2499999996823,8.352081e-06,482.2499999996823,1.800765e-05,482.2499999996823,1.250674e-05
482.2649999996823,0.00109961,482.2649999996823,8.447671e-06,482.2649999996823,1.699841e-05,482.2649999996823,1.119568e-05
482.2799999996823,0.001029407,482.2799999996823,8.451005e-06,482.2799999996823,1.150961e-05,482.2799999996823,9.733809e-06
482.29499999968226,0.001045234,482.29499999968226,8.594799e-06,482.29499999968226,5.241091e-06,482.29499999968226,9.804465e-06
482.30999999968225,0.0009613215,482.30999999968225,9.139696e-06,482.30999999968225,4.216325e-06,482.30999999968225,9.814517e-06
482.32499999968223,0.0009480168,482.32499999968223,9.275854e-06,482.32499999968223,4.232997e-06,482.32499999968223,1.017117e-05
482.3399999996822,0.0009422133,482.3399999996822,9.500919e-06,482.3399999996822,4.389827e-06,482.3399999996822,9.932932e-06
482.3549999996822,0.0009246551,482.3549999996822,9.62173e-06,482.3549999996822,4.38019e-06,482.3549999996822,8.377342e-06
482.3699999996822,0.0008921927,482.3699999996822,9.813081e-06,482.3699999996822,4.328428e-06,482.3699999996822,8.813284e-06
482.3849999996822,0.0008990933,482.3849999996822,1.007375e-05,482.3849999996822,4.500739e-06,482.3849999996822,8.907087e-06
482.39999999968217,0.0009121751,482.39999999968217,9.340927e-06,482.39999999968217,4.782967e-06,482.39999999968217,8.900759e-06
482.41499999968215,0.0009866221,482.41499999968215,9.178147e-06,482.41499999968215,4.864733e-06,482.41499999968215,9.413036e-06
482.42999999968214,0.0009970441,482.42999999968214,9.09334e-06,482.42999999968214,4.95937e-06,482.42999999968214,1.005696e-05
482.4449999996821,0.0009441879,482.4449999996821,7.968863e-06,482.4449999996821,5.043863e-06,482.4449999996821,1.049561e-05
482.4599999996821,0.0008268519,482.4599999996821,8.157542e-06,482.4599999996821,5.135199e-06,482.4599999996821,1.072398e-05
482.4749999996821,0.001027016,482.4749999996821,9.772805e-06,482.4749999996821,5.018664e-06,482.4749999996821,1.093599e-05
482.4899999996821,0.00124953,482.4899999996821,9.739596e-06,482.4899999996821,5.14616e-06,482.4899999996821,1.233435e-05
482.50499999968207,0.001467807,482.50499999968207,9.669923e-06,482.50499999968207,5.652309e-06,482.50499999968207,1.332473e-05
482.51999999968206,0.001599587,482.51999999968206,9.593873e-06,482.51999999968206,6.068162e-06,482.51999999968206,1.31962e-05
482.53499999968204,0.001576595,482.53499999968204,9.690296e-06,482.53499999968204,6.239839e-06,482.53499999968204,1.316199e-05
482.54999999968203,0.001553763,482.54999999968203,9.433964e-06,482.54999999968203,6.737009e-06,482.54999999968203,1.32122e-05
482.564999999682,0.001579848,482.564999999682,8.929201e-06,482.564999999682,6.989465e-06,482.564999999682,1.308148e-05
482.579999999682,0.001634821,482.579999999682,8.821272e-06,482.579999999682,7.061647e-06,482.579999999682,1.301454e-05
482.594999999682,0.001677283,482.594999999682,8.647087e-06,482.594999999682,7.463159e-06,482.594999999682,1.275875e-05
482.609999999682,0.001691862,482.609999999682,8.524032e-06,482.609999999682,7.811755e-06,482.609999999682,1.278963e-05
482.62499999968196,0.001693659,482.62499999968196,7.894269e-06,482.62499999968196,8.075974e-06,482.62499999968196,1.261887e-05
482.63999999968195,0.00169882,482.63999999968195,7.658783e-06,482.63999999968195,8.103833e-06,482.63999999968195,1.242311e-05
482.65499999968193,0.00166099,482.65499999968193,7.485775e-06,482.65499999968193,8.037508e-06,482.65499999968193,1.278081e-05
482.6699999996819,0.001571027,482.6699999996819,7.343284e-06,482.6699999996819,7.954708e-06,482.6699999996819,1.347297e-05
482.6849999996819,0.001641488,482.6849999996819,7.320229e-06,482.6849999996819,7.928101e-06,482.6849999996819,1.376568e-05
482.6999999996819,0.001677795,482.6999999996819,7.215565e-06,482.6999999996819,7.878193e-06,482.6999999996819,1.300696e-05
482.7149999996819,0.00167912,482.7149999996819,4.907976e-06,482.7149999996819,7.831566e-06,482.7149999996819,1.259988e-05
482.72999999968187,0.001576857,482.72999999968187,3.472492e-06,482.72999999968187,7.876405e-06,482.72999999968187,1.21514e-05
482.74499999968185,0.001421465,482.74499999968185,3.443979e-06,482.74499999968185,7.815361e-06,482.74499999968185,1.131209e-05
482.75999999968184,0.00129677,482.75999999968184,3.144655e-06,482.75999999968184,7.640368e-06,482.75999999968184,1.102962e-05
482.7749999996818,0.001301153,482.7749999996818,2.648616e-06,482.7749999996818,1.046604e-05,482.7749999996818,1.149124e-05
482.7899999996818,0.001326323,482.7899999996818,2.46687e-06,482.7899999996818,2.139337e-05,482.7899999996818,1.155725e-05
482.8049999996818,0.001352663,482.8049999996818,2.443922e-06,482.8049999996818,2.696267e-05,482.8049999996818,1.256741e-05
482.8199999996818,0.001490382,482.8199999996818,2.483942e-06,482.8199999996818,2.924337e-05,482.8199999996818,1.31652e-05
482.83499999968177,0.001537321,482.83499999968177,2.57308e-06,482.83499999968177,4.302969e-05,482.83499999968177,1.309869e-05
482.84999999968176,0.001565552,482.84999999968176,2.605721e-06,482.84999999968176,5.234986e-05,482.84999999968176,1.308363e-05
482.86499999968174,0.00166938,482.86499999968174,2.584006e-06,482.86499999968174,5.412845e-05,482.86499999968174,1.395977e-05
482.87999999968173,0.001672653,482.87999999968173,2.643292e-06,482.87999999968173,5.450218e-05,482.87999999968173,1.460481e-05
482.8949999996817,0.001723801,482.8949999996817,2.632612e-06,482.8949999996817,5.704331e-05,482.8949999996817,1.528442e-05
482.9099999996817,0.001933934,482.9099999996817,2.680338e-06,482.9099999996817,5.904286e-05,482.9099999996817,1.513624e-05
482.9249999996817,0.00227135,482.9249999996817,2.742679e-06,482.9249999996817,5.966255e-05,482.9249999996817,1.483734e-05
482.9399999996817,0.002397534,482.9399999996817,2.696058e-06,482.9399999996817,5.967153e-05,482.9399999996817,1.50831e-05
482.95499999968166,0.002456181,482.95499999968166,2.706488e-06,482.95499999968166,5.971141e-05,482.95499999968166,1.498284e-05
482.96999999968165,0.00251032,482.96999999968165,2.737538e-06,482.96999999968165,5.969277e-05,482.96999999968165,1.615456e-05
482.98499999968163,0.002583591,482.98499999968163,2.685588e-06,482.98499999968163,5.977743e-05,482.98499999968163,1.615979e-05
482.9999999996816,0.002720088,482.9999999996816,2.808655e-06,482.9999999996816,5.991983e-05,482.9999999996816,1.603553e-05
483.0149999996816,0.002763035,483.0149999996816,2.828646e-06,483.0149999996816,5.99163e-05,483.0149999996816,1.582686e-05
483.0299999996816,0.002687948,483.0299999996816,2.778399e-06,483.0299999996816,5.873141e-05,483.0299999996816,1.581528e-05
483.0449999996816,0.002711181,483.0449999996816,2.823661e-06,483.0449999996816,5.380687e-05,483.0449999996816,1.546856e-05
483.05999999968157,0.002730802,483.05999999968157,2.843547e-06,483.05999999968157,5.146352e-05,483.05999999968157,1.43842e-05
483.07499999968155,0.002605421,483.07499999968155,2.752932e-06,483.07499999968155,4.924023e-05,483.07499999968155,1.403926e-05
483.08999999968154,0.002562101,483.08999999968154,2.716877e-06,483.08999999968154,3.776384e-05,483.08999999968154,1.377489e-05
483.1049999996815,0.002482172,483.1049999996815,2.722057e-06,483.1049999996815,2.566776e-05,483.1049999996815,1.378103e-05
483.1199999996815,0.002380598,483.1199999996815,4.155752e-06,483.1199999996815,2.337448e-05,483.1199999996815,1.301238e-05
483.1349999996815,0.002379583,483.1349999996815,5.208738e-06,483.1349999996815,2.220183e-05,483.1349999996815,1.236401e-05
483.1499999996815,0.002396819,483.1499999996815,5.384273e-06,483.1499999996815,1.628397e-05,483.1499999996815,1.161803e-05
483.16499999968147,0.002293038,483.16499999968147,5.619817e-06,483.16499999968147,1.05785e-05,483.16499999968147,1.109711e-05
483.17999999968146,0.001996552,483.17999999968146,5.60727e-06,483.17999999968146,8.39414e-06,483.17999999968146,9.236285e-06
483.19499999968144,0.001681643,483.19499999968144,5.654801e-06,483.19499999968144,8.29284e-06,483.19499999968144,8.323359e-06
483.20999999968143,0.001581361,483.20999999968143,5.627332e-06,483.20999999968143,8.212614e-06,483.20999999968143,7.287441e-06
483.2249999996814,0.001577614,483.2249999996814,5.622323e-06,483.2249999996814,8.055015e-06,483.2249999996814,6.356147e-06
483.2399999996814,0.001556908,483.2399999996814,5.627332e-06,483.2399999996814,7.144938e-06,483.2399999996814,6.235322e-06
483.2549999996814,0.00128368,483.2549999996814,5.584614e-06,483.2549999996814,6.000464e-06,483.2549999996814,6.33617e-06
483.2699999996814,0.001196781,483.2699999996814,5.554263e-06,483.2699999996814,5.721665e-06,483.2699999996814,6.196798e-06
483.28499999968136,0.001184091,483.28499999968136,5.649817e-06,483.28499999968136,5.659781e-06,483.28499999968136,6.230803e-06
483.29999999968135,0.001127915,483.29999999968135,5.652309e-06,483.29999999968135,5.055022e-06,483.29999999968135,6.189974e-06
483.31499999968133,0.001077467,483.31499999968133,5.795054e-06,483.31499999968133,4.15914e-06,483.31499999968133,6.056544e-06
483.3299999996813,0.00102097,483.3299999996813,6.734918e-06,483.3299999996813,3.423466e-06,483.3299999996813,5.953326e-06
483.3449999996813,0.001016626,483.3449999996813,6.774542e-06,483.3449999996813,3.344373e-06,483.3449999996813,5.841057e-06
483.3599999996813,0.001002608,483.3599999996813,6.329497e-06,483.3599999996813,3.254718e-06,483.3599999996813,5.795054e-06
483.3749999996813,0.001000147,483.3749999996813,6.80152e-06,483.3749999996813,3.361178e-06,483.3749999996813,5.431162e-06
483.38999999968127,0.0009961991,483.38999999968127,6.382687e-06,483.38999999968127,3.476546e-06,483.38999999968127,5.485359e-06
483.40499999968125,0.0008990093,483.40499999968125,6.612493e-06,483.40499999968125,3.688867e-06,483.40499999968125,5.503306e-06
483.41999999968124,0.0006330793,483.41999999968124,7.099447e-06,483.41999999968124,3.73818e-06,483.41999999968124,5.979298e-06
483.4349999996812,0.0006229891,483.4349999996812,7.180339e-06,483.4349999996812,3.707911e-06,483.4349999996812,7.493299e-06
483.4499999996812,0.0006630927,483.4499999996812,7.176414e-06,483.4499999996812,4.34467e-06,483.4499999996812,9.06075e-06
483.4649999996812,0.0008451595,483.4649999996812,7.190141e-06,483.4649999996812,5.007424e-06,483.4649999996812,1.688283e-05
483.4799999996812,0.0008320407,483.4799999996812,7.302889e-06,483.4799999996812,5.297233e-06,483.4799999996812,1.731208e-05
483.49499999968117,0.0007814608,483.49499999968117,7.3567e-06,483.49499999968117,5.275916e-06,483.49499999968117,1.768481e-05
483.50999999968116,0.0007399475,483.50999999968116,7.431003e-06,483.50999999968116,7.381551e-06,483.50999999968116,1.784183e-05
483.52499999968114,0.0007208814,483.52499999968114,7.461272e-06,483.52499999968114,7.644054e-06,483.52499999968114,1.790331e-05
483.53999999968113,0.0007210915,483.53999999968113,7.480127e-06,483.53999999968113,7.706456e-06,483.53999999968113,1.790881e-05
483.5549999996811,0.0007132372,483.5549999996811,7.498936e-06,483.5549999996811,7.8907e-06,483.5549999996811,1.828555e-05
483.5699999996811,0.0007177334,483.5699999996811,7.101431e-06,483.5699999996811,8.03926e-06,483.5699999996811,1.83724e-05
483.5849999996811,0.0007123248,483.5849999996811,6.524566e-06,483.5849999996811,8.102095e-06,483.5849999996811,1.837393e-05
483.5999999996811,0.0007137984,483.5999999996811,6.690851e-06,483.5999999996811,8.114256e-06,483.5999999996811,1.846265e-05
483.61499999968106,0.0007289784,483.61499999968106,6.66131e-06,483.61499999968106,8.098617e-06,483.61499999968106,1.859115e-05
483.62999999968105,0.0007412554,483.62999999968105,5.785323e-06,483.62999999968105,7.995334e-06,483.62999999968105,1.862143e-05
483.64499999968103,0.0007432071,483.64499999968103,6.214957e-06,483.64499999968103,7.896054e-06,483.64499999968103,1.859191e-05
483.659999999681,0.0007365453,483.659999999681,5.597212e-06,483.659999999681,7.739288e-06,483.659999999681,1.853272e-05
483.674999999681,0.0007372642,483.674999999681,5.392116e-06,483.674999999681,7.726537e-06,483.674999999681,1.833172e-05
483.689999999681,0.0006691276,483.689999999681,5.339611e-06,483.689999999681,7.71011e-06,483.689999999681,1.716828e-05
483.704999999681,0.0006326728,483.704999999681,5.334332e-06,483.704999999681,7.335607e-06,483.704999999681,1.534421e-05
483.71999999968097,0.00038604,483.71999999968097,5.315815e-06,483.71999999968097,6.74119e-06,483.71999999968097,7.782849e-06
483.73499999968095,0.000371517,483.73499999968095,5.192486e-06,483.73499999968095,6.688745e-06,483.73499999968095,7.656943e-06
483.74999999968094,0.0003612919,483.74999999968094,5.043863e-06,483.74999999968094,4.584466e-06,483.74999999968094,7.069622e-06
483.7649999996809,0.0003434991,483.7649999996809,4.993339e-06,483.7649999996809,4.045829e-06,483.7649999996809,6.900217e-06
483.7799999996809,0.0003433636,483.7799999996809,4.896482e-06,483.7799999996809,3.771943e-06,483.7799999996809,6.965238e-06
483.7949999996809,0.0003374344,483.7949999996809,4.756387e-06,483.7949999996809,3.556662e-06,483.7949999996809,6.855157e-06
483.8099999996809,0.0003249969,483.8099999996809,4.741556e-06,483.8099999996809,4.059732e-06,483.8099999996809,5.699464e-06
483.82499999968087,0.0003074633,483.82499999968087,4.732634e-06,483.82499999968087,3.961384e-06,483.82499999968087,5.592176e-06
483.83999999968086,0.0003070186,483.83999999968086,4.550541e-06,483.83999999968086,3.812802e-06,483.83999999968086,5.731505e-06
483.85499999968084,0.000304449,483.85499999968084,4.125132e-06,483.85499999968084,3.834905e-06,483.85499999968084,5.181623e-06
483.86999999968083,0.0002686612,483.86999999968083,3.70411e-06,483.86999999968083,3.860533e-06,483.86999999968083,5.088352e-06
483.8849999996808,0.0002209642,483.8849999996808,3.053749e-06,483.8849999996808,4.021382e-06,483.8849999996808,5.14616e-06
483.8999999996808,0.0002251645,483.8999999996808,2.627256e-06,483.8999999996808,4.605925e-06,483.8999999996808,5.203327e-06
483.9149999996808,0.0002515567,483.9149999996808,2.512137e-06,483.9149999996808,6.08439e-06,483.9149999996808,5.305204e-06
483.9299999996808,0.0002596328,483.9299999996808,2.24567e-06,483.9299999996808,7.677153e-06,483.9299999996808,5.459618e-06
483.94499999968076,0.0002574876,483.94499999968076,2.201322e-06,483.94499999968076,8.103833e-06,483.94499999968076,5.498184e-06
483.95999999968075,0.0002530195,483.95999999968075,2.207712e-06,483.95999999968075,1.080642e-05,483.95999999968075,5.624828e-06
483.97499999968073,0.0002634738,483.97499999968073,2.276818e-06,483.97499999968073,1.545398e-05,483.97499999968073,5.884307e-06
483.9899999996807,0.0002555193,483.9899999996807,2.24567e-06,483.9899999996807,1.704724e-05,483.9899999996807,5.874723e-06
484.0049999996807,0.0002533383,484.0049999996807,2.289158e-06,484.0049999996807,1.733485e-05,484.0049999996807,5.853103e-06
484.0199999996807,0.0002676159,484.0199999996807,2.282997e-06,484.0199999996807,1.995783e-05,484.0199999996807,5.807196e-06
484.0349999996807,0.000269903,484.0349999996807,2.270622e-06,484.0349999996807,2.186748e-05,484.0349999996807,5.799914e-06
484.04999999968067,0.0002736942,484.04999999968067,2.233089e-06,484.04999999968067,2.20081e-05,484.04999999968067,5.93674e-06
484.06499999968065,0.0002848457,484.06499999968065,2.220437e-06,484.06499999968065,2.208988e-05,484.06499999968065,5.893875e-06
484.07999999968064,0.0002946964,484.07999999968064,2.16909e-06,484.07999999968064,2.219929e-05,484.07999999968064,6.06584e-06
484.0949999996806,0.0003050697,484.0949999996806,2.149519e-06,484.0949999996806,2.220627e-05,484.0949999996806,6.08439e-06
484.1099999996806,0.0003238384,484.1099999996806,2.226772e-06,484.1099999996806,2.222086e-05,484.1099999996806,6.413511e-06
484.1249999996806,0.0003488574,484.1249999996806,2.289158e-06,484.1249999996806,2.221769e-05,484.1249999996806,6.593293e-06
484.1399999996806,0.0003584626,484.1399999996806,2.500897e-06,484.1399999996806,2.219739e-05,484.1399999996806,6.515924e-06
484.15499999968057,0.0003512982,484.15499999968057,2.528904e-06,484.15499999968057,2.197543e-05,484.15499999968057,6.404719e-06
484.16999999968056,0.0003378345,484.16999999968056,2.562108e-06,484.16999999968056,2.145977e-05,484.16999999968056,6.049562e-06
484.18499999968054,0.000358404,484.18499999968054,2.500897e-06,484.18499999968054,2.08336e-05,484.18499999968054,6.137409e-06
484.19999999968053,0.0003501897,484.19999999968053,2.727227e-06,484.19999999968053,2.062703e-05,484.19999999968053,6.095956e-06
484.2149999996805,0.0003438246,484.2149999996805,2.863294e-06,484.2149999996805,1.866299e-05,484.2149999996805,6.08439e-06
484.2299999996805,0.000340312,484.2299999996805,2.773325e-06,484.2299999996805,1.514927e-05,484.2299999996805,5.848288e-06
484.2449999996805,0.0003415192,484.2449999996805,2.843547e-06,484.2449999996805,1.356155e-05,484.2449999996805,5.908198e-06
484.2599999996805,0.0003464282,484.2599999996805,3.076727e-06,484.2599999996805,1.304805e-05,484.2599999996805,5.979298e-06
484.27499999968046,0.0003457142,484.27499999968046,3.117661e-06,484.27499999968046,8.515764e-06,484.27499999968046,6.58688e-06
484.28999999968045,0.0003503959,484.28999999968045,3.11314e-06,484.28999999968045,4.418613e-06,484.28999999968045,6.768301e-06
484.30499999968043,0.0003551707,484.30499999968043,3.135683e-06,484.30499999968043,3.78313e-06,484.30499999968043,6.650728e-06
484.3199999996804,0.0003566049,484.3199999996804,3.094987e-06,484.3199999996804,3.094987e-06,484.3199999996804,6.883865e-06
484.3349999996804,0.0003573071,484.3349999996804,3.158065e-06,484.3349999996804,2.711688e-06,484.3349999996804,6.885912e-06
484.3499999996804,0.0003529618,484.3499999996804,3.386231e-06,484.3499999996804,2.648616e-06,484.3499999996804,6.834577e-06
484.3649999996804,0.0003214184,484.3649999996804,3.889614e-06,484.3649999996804,2.669806e-06,484.3649999996804,6.526725e-06
484.37999999968036,0.0003104222,484.37999999968036,5.770695e-06,484.37999999968036,2.696058e-06,484.37999999968036,6.442001e-06
484.39499999968035,0.0003113065,484.39499999968035,5.903427e-06,484.39499999968035,2.74781e-06,484.39499999968035,6.450741e-06
484.40999999968034,0.0003314328,484.40999999968034,6.64861e-06,484.40999999968034,2.803635e-06,484.40999999968034,6.822199e-06
484.4249999996803,0.0003305605,484.4249999996803,7.194059e-06,484.4249999996803,2.818668e-06,484.4249999996803,6.969281e-06
484.4399999996803,0.0003227436,484.4399999996803,7.248678e-06,484.4399999996803,2.803635e-06,484.4399999996803,6.953093e-06
484.4549999996803,0.0003159575,484.4549999996803,7.2971e-06,484.4549999996803,2.778399e-06,484.4549999996803,6.926705e-06
484.4699999996803,0.0003399962,484.4699999996803,7.370092e-06,484.4699999996803,2.768241e-06,484.4699999996803,7.275834e-06
484.48499999968027,0.0003386552,484.48499999968027,7.381551e-06,484.48499999968027,2.727227e-06,484.48499999968027,7.190141e-06
484.49999999968026,0.0003553749,484.49999999968026,7.36818e-06,484.49999999968026,2.637958e-06,484.49999999968026,7.556945e-06
484.51499999968024,0.0003673201,484.51499999968024,7.304818e-06,484.51499999968024,2.605721e-06,484.51499999968024,7.3567e-06
484.52999999968023,0.0003610404,484.52999999968023,7.500814e-06,484.52999999968023,2.611121e-06,484.52999999968023,6.813935e-06
484.5449999996802,0.0003694931,484.5449999996802,7.579281e-06,484.5449999996802,2.589452e-06,484.5449999996802,6.981399e-06
484.5599999996802,0.0003643853,484.5599999996802,7.590424e-06,484.5599999996802,2.528904e-06,484.5599999996802,6.914493e-06
484.5749999996802,0.0003705701,484.5749999996802,7.640368e-06,484.5749999996802,2.54002e-06,484.5749999996802,6.755802e-06
484.5899999996802,0.0003710411,484.5899999996802,7.664298e-06,484.5899999996802,2.54556e-06,484.5899999996802,6.667651e-06
484.60499999968016,0.0003708105,484.60499999968016,7.498936e-06,484.60499999968016,2.763147e-06,484.60499999968016,6.745368e-06
484.61999999968015,0.0003708926,484.61999999968015,6.940926e-06,484.61999999968015,3.476546e-06,484.61999999968015,6.902258e-06
484.63499999968013,0.0003721509,484.63499999968013,5.915346e-06,484.63499999968013,3.532818e-06,484.63499999968013,6.861319e-06
484.6499999996801,0.0003624834,484.6499999996801,5.960421e-06,484.6499999996801,3.73818e-06,484.6499999996801,6.947012e-06
484.6649999996801,0.0003539865,484.6649999996801,5.135199e-06,484.6649999996801,3.932833e-06,484.6649999996801,6.971302e-06
484.6799999996801,0.0003473392,484.6799999996801,4.850233e-06,484.6799999996801,3.936414e-06,484.6799999996801,6.737009e-06
484.6949999996801,0.0003399171,484.6949999996801,4.902232e-06,484.6949999996801,3.982663e-06,484.6949999996801,6.707672e-06
484.70999999968006,0.0003306647,484.70999999968006,4.876302e-06,484.70999999968006,4.135364e-06,484.70999999968006,6.461651e-06
484.72499999968005,0.0003231145,484.72499999968005,4.809401e-06,484.72499999968005,4.463023e-06,484.72499999968005,6.356147e-06
484.73999999968004,0.0003296921,484.73999999968004,4.777073e-06,484.73999999968004,6.387099e-06,484.73999999968004,7.360529e-06
484.75499999968,0.000374996,484.75499999968,4.800605e-06,484.75499999968,6.997522e-06,484.75499999968,8.520726e-06
484.76999999968,0.0003591602,484.76999999968,4.794733e-06,484.76999999968,7.306746e-06,484.76999999968,8.873813e-06
484.78499999968,0.0003546707,484.78499999968,4.463023e-06,484.78499999968,7.415822e-06,484.78499999968,8.968555e-06
484.79999999968,0.0003487152,484.79999999968,4.347911e-06,484.79999999968,7.442368e-06,484.79999999968,8.932356e-06
484.81499999967997,0.000349762,484.81499999967997,4.223002e-06,484.81499999967997,7.472591e-06,484.81499999967997,9.090241e-06
484.82999999967996,0.0003356315,484.82999999967996,4.212983e-06,484.82999999967996,7.48201e-06,484.82999999967996,9.031162e-06
484.84499999967994,0.0003303054,484.84499999967994,4.131956e-06,484.84499999967994,7.46882e-06,484.84499999967994,8.908669e-06
484.8599999996799,0.0003249351,484.8599999996799,4.038859e-06,484.8599999996799,7.123218e-06,484.8599999996799,8.830848e-06
484.8749999996799,0.0003209647,484.8749999996799,3.982663e-06,484.8749999996799,7.027653e-06,484.8749999996799,8.723317e-06
484.8899999996799,0.0003143792,484.8899999996799,3.882364e-06,484.8899999996799,6.965238e-06,484.8899999996799,8.640569e-06
484.9049999996799,0.0003142249,484.9049999996799,3.28916e-06,484.9049999996799,6.859265e-06,484.9049999996799,8.702299e-06
484.9199999996799,0.0003034217,484.9199999996799,2.632612e-06,484.9199999996799,7.264208e-06,484.9199999996799,8.497549e-06
484.93499999967986,0.0002970477,484.93499999967986,2.54002e-06,484.93499999967986,7.530803e-06,484.93499999967986,8.676361e-06
484.94999999967985,0.0003008003,484.94999999967985,2.461153e-06,484.94999999967985,7.744747e-06,484.94999999967985,8.702299e-06
484.96499999967983,0.0002916402,484.96499999967983,2.301433e-06,484.96499999967983,7.558809e-06,484.96499999967983,8.708772e-06
484.9799999996798,0.0002741601,484.9799999996798,2.270622e-06,484.9799999996798,6.376062e-06,484.9799999996798,8.43599e-06
484.9949999996798,0.0002180115,484.9949999996798,2.16909e-06,484.9949999996798,5.738873e-06,484.9949999996798,6.676097e-06
485.0099999996798,0.0001751371,485.0099999996798,2.214083e-06,485.0099999996798,5.208738e-06,485.0099999996798,6.137409e-06
485.0249999996798,0.0001732142,485.0249999996798,2.26441e-06,485.0249999996798,4.756387e-06,485.0249999996798,5.56946e-06
485.03999999967976,0.0001718315,485.03999999967976,2.307546e-06,485.03999999967976,4.696781e-06,485.03999999967976,5.574516e-06
485.05499999967975,0.0001686083,485.05499999967975,2.379674e-06,485.05499999967975,4.642481e-06,485.05499999967975,5.503306e-06
485.06999999967974,0.000158805,485.06999999967974,2.432367e-06,485.06999999967974,4.633369e-06,485.06999999967974,5.233022e-06
485.0849999996797,0.0001617879,485.0849999996797,2.403235e-06,485.0849999996797,4.615091e-06,485.0849999996797,5.262549e-06
485.0999999996797,0.0001606632,485.0999999996797,2.40909e-06,485.0999999996797,4.593675e-06,485.0999999996797,5.222243e-06
485.1149999996797,0.0001602672,485.1149999996797,2.385586e-06,485.1149999996797,4.621192e-06,485.1149999996797,5.157098e-06
485.1299999996797,0.0001664552,485.1299999996797,2.391484e-06,485.1299999996797,4.608983e-06,485.1299999996797,5.392116e-06
485.14499999967967,0.0001607268,485.14499999967967,2.461153e-06,485.14499999967967,4.615091e-06,485.14499999967967,5.462197e-06
485.15999999967966,0.0001610613,485.15999999967966,2.500897e-06,485.15999999967966,4.666692e-06,485.15999999967966,5.336972e-06
485.17499999967964,0.0001600268,485.17499999967964,2.54556e-06,485.17499999967964,3.707911e-06,485.17499999967964,5.350154e-06
485.1899999996796,0.0001543775,485.1899999996796,2.578549e-06,485.1899999996796,2.993181e-06,485.1899999996796,5.230329e-06
485.2049999996796,0.0001544271,485.2049999996796,2.594886e-06,485.2049999996796,2.737538e-06,485.2049999996796,5.28392e-06
485.2199999996796,0.000154779,485.2199999996796,2.584006e-06,485.2199999996796,2.793568e-06,485.2199999996796,5.302549e-06
485.2349999996796,0.0001586129,485.2349999996796,2.534468e-06,485.2349999996796,2.74781e-06,485.2349999996796,5.392116e-06
485.2499999996796,0.0001581554,485.2499999996796,2.506524e-06,485.2499999996796,2.793568e-06,485.2499999996796,5.302549e-06
485.26499999967956,0.0001570982,485.26499999967956,2.489606e-06,485.26499999967956,2.838588e-06,485.26499999967956,5.302549e-06
485.27999999967955,0.0001604583,485.27999999967955,2.391484e-06,485.27999999967955,2.873116e-06,485.27999999967955,5.376418e-06
485.29499999967953,0.0001658096,485.29499999967953,2.355876e-06,485.29499999967953,2.921734e-06,485.29499999967953,5.503306e-06
485.3099999996795,0.000162149,485.3099999996795,2.282997e-06,485.3099999996795,2.878015e-06,485.3099999996795,5.541568e-06
485.3249999996795,0.0001645945,485.3249999996795,2.367805e-06,485.3249999996795,2.838588e-06,485.3249999996795,5.48279e-06
485.3399999996795,0.0001645495,485.3399999996795,2.41493e-06,485.3399999996795,2.873116e-06,485.3399999996795,5.592176e-06
485.3549999996795,0.0001667149,485.3549999996795,2.461153e-06,485.3549999996795,2.873116e-06,485.3549999996795,5.619817e-06
485.36999999967946,0.0001728666,485.36999999967946,2.489606e-06,485.36999999967946,2.843547e-06,485.36999999967946,5.689569e-06
485.38499999967945,0.0001693718,485.38499999967945,2.46687e-06,485.38499999967945,2.931361e-06,485.38499999967945,5.48022e-06
485.39999999967944,0.0001712463,485.39999999967944,2.455423e-06,485.39999999967944,2.848496e-06,485.39999999967944,5.477649e-06
485.4149999996794,0.0001722987,485.4149999996794,2.449679e-06,485.4149999996794,2.798606e-06,485.4149999996794,5.436346e-06
485.4299999996794,0.0001746601,485.4299999996794,2.355876e-06,485.4299999996794,2.675077e-06,485.4299999996794,5.490492e-06
485.4449999996794,0.000177248,485.4449999996794,2.289158e-06,485.4449999996794,2.690828e-06,485.4449999996794,5.384273e-06
485.4599999996794,0.0001769495,485.4599999996794,2.26441e-06,485.4599999996794,2.653929e-06,485.4599999996794,5.412975e-06
485.47499999967937,0.000178645,485.47499999967937,2.258181e-06,485.47499999967937,2.556603e-06,485.47499999967937,5.490492e-06
485.48999999967936,0.0001770743,485.48999999967936,2.331836e-06,485.48999999967936,2.506524e-06,485.48999999967936,5.399948e-06
485.50499999967934,0.0001803538,485.50499999967934,2.325787e-06,485.50499999967934,2.438151e-06,485.50499999967934,5.674694e-06
485.5199999996793,0.0001816019,485.5199999996793,2.367805e-06,485.5199999996793,2.331836e-06,485.5199999996793,5.597212e-06
485.5349999996793,0.0001786454,485.5349999996793,2.988471e-06,485.5349999996793,2.307546e-06,485.5349999996793,5.389503e-06
485.5499999996793,0.0001771482,485.5499999996793,4.418613e-06,485.5499999996793,2.355876e-06,485.5499999996793,5.365928e-06
485.5649999996793,0.0001775447,485.5649999996793,5.168013e-06,485.5649999996793,2.420756e-06,485.5649999996793,5.451871e-06
485.5799999996793,0.0001768212,485.5799999996793,5.629835e-06,485.5799999996793,2.420756e-06,485.5799999996793,5.376418e-06
485.59499999967926,0.0001782639,485.59499999967926,6.391509e-06,485.59499999967926,2.426568e-06,485.59499999967926,5.358047e-06
485.60999999967925,0.0001777033,485.60999999967925,6.659195e-06,485.60999999967925,2.46687e-06,485.60999999967925,5.203327e-06
485.62499999967923,0.0001750147,485.62499999967923,6.766219e-06,485.62499999967923,2.506524e-06,485.62499999967923,5.082812e-06
485.6399999996792,0.0001750395,485.6399999996792,6.920602e-06,485.6399999996792,2.438151e-06,485.6399999996792,5.066156e-06
485.6549999996792,0.0001753912,485.6549999996792,6.94904e-06,485.6549999996792,2.506524e-06,485.6549999996792,5.035477e-06
485.6699999996792,0.0001747756,485.6699999996792,6.94904e-06,485.6699999996792,2.551088e-06,485.6699999996792,5.077266e-06
485.6849999996792,0.0001730853,485.6849999996792,6.963215e-06,485.6849999996792,2.685588e-06,485.6849999996792,5.046655e-06
485.69999999967916,0.0001717454,485.69999999967916,6.961192e-06,485.69999999967916,2.690828e-06,485.69999999967916,5.206033e-06
485.71499999967915,0.0001709427,485.71499999967915,6.959168e-06,485.71499999967915,2.653929e-06,485.71499999967915,4.945147e-06
485.72999999967914,0.0001700628,485.72999999967914,6.936866e-06,485.72999999967914,2.611121e-06,485.72999999967914,4.907976e-06
485.7449999996791,0.0001704015,485.7449999996791,6.947012e-06,485.7449999996791,2.584006e-06,485.7449999996791,4.794733e-06
485.7599999996791,0.0001664922,485.7599999996791,6.936866e-06,485.7599999996791,2.706488e-06,485.7599999996791,4.738583e-06
485.7749999996791,0.0001665685,485.7749999996791,6.898175e-06,485.7749999996791,2.737538e-06,485.7749999996791,4.720713e-06
485.7899999996791,0.0001675763,485.7899999996791,6.64861e-06,485.7899999996791,2.716877e-06,485.7899999996791,4.753424e-06
485.80499999967907,0.0001643133,485.80499999967907,5.318464e-06,485.80499999967907,2.659232e-06,485.80499999967907,4.771172e-06
485.81999999967906,0.0001614313,485.81999999967906,4.93374e-06,485.81999999967906,2.664524e-06,485.81999999967906,4.633369e-06
485.83499999967904,0.0001640803,485.83499999967904,4.266145e-06,485.83499999967904,2.664524e-06,485.83499999967904,4.639445e-06
485.849999999679,0.0001563486,485.849999999679,3.030597e-06,485.849999999679,2.637958e-06,485.849999999679,4.572159e-06
485.864999999679,0.0001544928,485.864999999679,2.818668e-06,485.864999999679,2.605721e-06,485.864999999679,4.699779e-06
485.879999999679,0.0001556403,485.879999999679,2.512137e-06,485.879999999679,2.611121e-06,485.879999999679,4.774123e-06
485.894999999679,0.0001519796,485.894999999679,2.239388e-06,485.894999999679,2.57308e-06,485.894999999679,4.75046e-06
485.909999999679,0.0001530049,485.909999999679,2.136372e-06,485.909999999679,2.461153e-06,485.909999999679,4.844421e-06
485.92499999967896,0.0001522401,485.92499999967896,2.18204e-06,485.92499999967896,2.455423e-06,485.92499999967896,4.753424e-06
485.93999999967895,0.0001547133,485.93999999967895,2.156062e-06,485.93999999967895,2.319723e-06,485.93999999967895,4.738583e-06
485.95499999967893,0.0001538583,485.95499999967893,2.156062e-06,485.95499999967893,2.373747e-06,485.95499999967893,4.687774e-06
485.9699999996789,0.0001539737,485.9699999996789,2.162586e-06,485.9699999996789,2.391484e-06,485.9699999996789,4.996159e-06
485.9849999996789,0.0001592333,485.9849999996789,2.142956e-06,485.9849999996789,2.403235e-06,485.9849999996789,4.976383e-06
485.9999999996789,0.0001578863,485.9999999996789,2.116498e-06,485.9999999996789,2.461153e-06,485.9999999996789,5.181623e-06
486.0149999996789,0.0001608687,486.0149999996789,2.116498e-06,486.0149999996789,2.313642e-06,486.0149999996789,5.135199e-06
486.02999999967886,0.0001623415,486.02999999967886,2.116498e-06,486.02999999967886,2.301433e-06,486.02999999967886,5.197909e-06
486.04499999967885,0.0001670011,486.04499999967885,2.201322e-06,486.04499999967885,2.337869e-06,486.04499999967885,5.197909e-06
486.05999999967884,0.0001681501,486.05999999967884,2.194914e-06,486.05999999967884,2.373747e-06,486.05999999967884,5.159829e-06
486.0749999996788,0.00016997,486.0749999996788,2.207712e-06,486.0749999996788,2.295304e-06,486.0749999996788,5.22494e-06
486.0899999996788,0.0001690278,486.0899999996788,2.276818e-06,486.0899999996788,2.289158e-06,486.0899999996788,5.251831e-06
486.1049999996788,0.0001705555,486.1049999996788,2.361848e-06,486.1049999996788,2.251934e-06,486.1049999996788,5.187057e-06
486.1199999996788,0.0001752443,486.1199999996788,2.403235e-06,486.1199999996788,2.233089e-06,486.1199999996788,5.208738e-06
486.13499999967877,0.000174978,486.13499999967877,2.41493e-06,486.13499999967877,2.289158e-06,486.13499999967877,5.197909e-06
486.14999999967876,0.0001800936,486.14999999967876,2.420756e-06,486.14999999967876,2.426568e-06,486.14999999967876,5.216845e-06
486.16499999967874,0.0001801603,486.16499999967874,2.46687e-06,486.16499999967874,2.455423e-06,486.16499999967874,5.124215e-06
486.1799999996787,0.0001812103,486.1799999996787,2.611121e-06,486.1799999996787,2.478264e-06,486.1799999996787,5.088352e-06
486.1949999996787,0.0001834438,486.1949999996787,2.611121e-06,486.1949999996787,2.455423e-06,486.1949999996787,5.157098e-06
486.2099999996787,0.0001847101,486.2099999996787,2.752932e-06,486.2099999996787,2.46687e-06,486.2099999996787,5.038274e-06
486.2249999996787,0.0001969064,486.2249999996787,2.763147e-06,486.2249999996787,2.512137e-06,486.2249999996787,4.853136e-06
486.2399999996787,0.0001919999,486.2399999996787,2.742679e-06,486.2399999996787,2.528904e-06,486.2399999996787,4.83569e-06
486.25499999967866,0.0002085008,486.25499999967866,2.803635e-06,486.25499999967866,2.517739e-06,486.25499999967866,4.956529e-06
486.26999999967865,0.0002244732,486.26999999967865,2.907234e-06,486.26999999967865,2.57308e-06,486.26999999967865,5.041069e-06
486.28499999967863,0.0002341025,486.28499999967863,2.868209e-06,486.28499999967863,2.600309e-06,486.28499999967863,5.208738e-06
486.2999999996786,0.000245146,486.2999999996786,2.808655e-06,486.2999999996786,2.605721e-06,486.2999999996786,5.286585e-06
486.3149999996786,0.0002954667,486.3149999996786,2.793568e-06,486.3149999996786,2.621889e-06,486.3149999996786,5.302549e-06
486.3299999996786,0.0003306216,486.3299999996786,2.912075e-06,486.3299999996786,2.632612e-06,486.3299999996786,5.178904e-06
486.3449999996786,0.000329026,486.3449999996786,2.858369e-06,486.3449999996786,2.664524e-06,486.3449999996786,5.262549e-06
486.35999999967856,0.0003705347,486.35999999967856,2.848496e-06,486.35999999967856,2.685588e-06,486.35999999967856,5.431162e-06
486.37499999967855,0.0003935221,486.37499999967855,2.833621e-06,486.37499999967855,2.664524e-06,486.37499999967855,5.363302e-06
486.38999999967854,0.0003949899,486.38999999967854,2.988471e-06,486.38999999967854,2.627256e-06,486.38999999967854,5.467352e-06
486.4049999996785,0.0004054745,486.4049999996785,2.964809e-06,486.4049999996785,2.600309e-06,486.4049999996785,5.528843e-06
486.4199999996785,0.0004150981,486.4199999996785,3.067557e-06,486.4199999996785,2.562108e-06,486.4199999996785,5.61731e-06
486.4349999996785,0.0004222689,486.4349999996785,2.926552e-06,486.4349999996785,2.556603e-06,486.4349999996785,5.699464e-06
486.4499999996785,0.0004219889,486.4499999996785,2.940956e-06,486.4499999996785,2.523327e-06,486.4499999996785,5.541568e-06
486.46499999967847,0.0004235447,486.46499999967847,2.858369e-06,486.46499999967847,2.472574e-06,486.46499999967847,5.561867e-06
486.47999999967845,0.000417947,486.47999999967845,2.853437e-06,486.47999999967845,2.489606e-06,486.47999999967845,5.425972e-06
486.49499999967844,0.0004200775,486.49499999967844,2.838588e-06,486.49499999967844,2.472574e-06,486.49499999967844,5.297233e-06
486.5099999996784,0.0004099884,486.5099999996784,2.868209e-06,486.5099999996784,2.41493e-06,486.5099999996784,5.110451e-06
486.5249999996784,0.0003943159,486.5249999996784,2.742679e-06,486.5249999996784,2.337869e-06,486.5249999996784,4.973552e-06
486.5399999996784,0.0003942382,486.5399999996784,2.803635e-06,486.5399999996784,2.337869e-06,486.5399999996784,4.919443e-06
486.5549999996784,0.0003762352,486.5549999996784,2.843547e-06,486.5549999996784,2.367805e-06,486.5549999996784,4.636408e-06
486.5699999996784,0.0003374679,486.5699999996784,2.848496e-06,486.5699999996784,2.391484e-06,486.5699999996784,4.729657e-06
486.58499999967836,0.0003233367,486.58499999967836,2.664524e-06,486.58499999967836,2.40909e-06,486.58499999967836,4.899358e-06
486.59999999967835,0.0003149071,486.59999999967835,2.696058e-06,486.59999999967835,2.443922e-06,486.59999999967835,4.608983e-06
486.61499999967833,0.0002842464,486.61499999967833,2.696058e-06,486.61499999967833,2.41493e-06,486.61499999967833,4.672725e-06
486.6299999996783,0.0002486525,486.6299999996783,2.523327e-06,486.6299999996783,2.40909e-06,486.6299999996783,4.578317e-06
486.6449999996783,0.0002488278,486.6449999996783,2.449679e-06,486.6449999996783,2.397367e-06,486.6449999996783,4.633369e-06
486.6599999996783,0.0002303961,486.6599999996783,3.021286e-06,486.6599999996783,2.355876e-06,486.6599999996783,4.732634e-06
486.6749999996783,0.0002031963,486.6749999996783,3.871464e-06,486.6749999996783,2.337869e-06,486.6749999996783,4.729657e-06
486.68999999967826,0.0002025694,486.68999999967826,5.559333e-06,486.68999999967826,2.361848e-06,486.68999999967826,4.744526e-06
486.70499999967825,0.0002005423,486.70499999967825,6.040241e-06,486.70499999967825,2.367805e-06,486.70499999967825,4.747494e-06
486.71999999967824,0.000207622,486.71999999967824,7.137048e-06,486.71999999967824,2.379674e-06,486.71999999967824,4.873412e-06
486.7349999996782,0.0002253236,486.7349999996782,7.349037e-06,486.7349999996782,2.426568e-06,486.7349999996782,4.95937e-06
486.7499999996782,0.0002226655,486.7499999996782,7.434793e-06,486.7499999996782,2.495258e-06,486.7499999996782,4.993339e-06
486.7649999996782,0.000223478,486.7649999996782,7.603404e-06,486.7649999996782,2.551088e-06,486.7649999996782,4.925167e-06
486.7799999996782,0.0002246958,486.7799999996782,7.642211e-06,486.7799999996782,2.556603e-06,486.7799999996782,5.035477e-06
486.79499999967817,0.0002257615,486.79499999967817,7.612662e-06,486.79499999967817,2.57308e-06,486.79499999967817,5.060592e-06
486.80999999967815,0.0002189537,486.80999999967815,7.594135e-06,486.80999999967815,2.556603e-06,486.80999999967815,5.110451e-06
486.82499999967814,0.0002175474,486.82499999967814,7.59599e-06,486.82499999967814,2.594886e-06,486.82499999967814,5.104936e-06
486.8399999996781,0.0002207547,486.8399999996781,7.614512e-06,486.8399999996781,2.551088e-06,486.8399999996781,5.096651e-06
486.8549999996781,0.0002238788,486.8549999996781,7.605257e-06,486.8549999996781,2.506524e-06,486.8549999996781,5.077266e-06
486.8699999996781,0.0002203836,486.8699999996781,7.601551e-06,486.8699999996781,2.506524e-06,486.8699999996781,5.074491e-06
486.8849999996781,0.0002205199,486.8849999996781,7.612662e-06,486.8849999996781,2.385586e-06,486.8849999996781,5.358047e-06
486.8999999996781,0.0002199072,486.8999999996781,7.618211e-06,486.8999999996781,2.379674e-06,486.8999999996781,5.227635e-06
486.91499999967806,0.0002183397,486.91499999967806,7.1921e-06,486.91499999967806,2.355876e-06,486.91499999967806,5.046655e-06
486.92999999967805,0.0002218353,486.92999999967805,6.091332e-06,486.92999999967805,2.295304e-06,486.92999999967805,5.091119e-06
486.94499999967803,0.0002217507,486.94499999967803,5.365928e-06,486.94499999967803,2.355876e-06,486.94499999967803,5.00461e-06
486.959999999678,0.0002209328,486.959999999678,4.651575e-06,486.959999999678,2.331836e-06,486.959999999678,4.984868e-06
486.974999999678,0.000198771,486.974999999678,3.030597e-06,486.974999999678,2.295304e-06,486.974999999678,4.956529e-06
486.989999999678,0.0001959016,486.989999999678,2.838588e-06,486.989999999678,2.307546e-06,486.989999999678,4.896482e-06
487.004999999678,0.0001929788,487.004999999678,2.523327e-06,487.004999999678,2.194914e-06,487.004999999678,4.916579e-06
487.01999999967796,0.0001966872,487.01999999967796,2.251934e-06,487.01999999967796,2.194914e-06,487.01999999967796,4.870521e-06
487.03499999967795,0.0001974722,487.03499999967795,2.149519e-06,487.03499999967795,2.220437e-06,487.03499999967795,4.782967e-06
487.04999999967794,0.0001966604,487.04999999967794,2.188486e-06,487.04999999967794,2.201322e-06,487.04999999967794,4.645514e-06
487.0649999996779,0.0001965096,487.0649999996779,2.220437e-06,487.0649999996779,2.214083e-06,487.0649999996779,4.624239e-06
487.0799999996779,0.0001960486,487.0799999996779,2.233089e-06,487.0799999996779,2.149519e-06,487.0799999996779,4.553636e-06
487.0949999996779,0.0001944069,487.0949999996779,2.18204e-06,487.0949999996779,2.175575e-06,487.0949999996779,4.428167e-06
487.1099999996779,0.0001886254,487.1099999996779,2.207712e-06,487.1099999996779,2.24567e-06,487.1099999996779,4.399444e-06
487.12499999967787,0.0001893299,487.12499999967787,2.270622e-06,487.12499999967787,2.258181e-06,487.12499999967787,4.39624e-06
487.13999999967785,0.0001882945,487.13999999967785,2.226772e-06,487.13999999967785,2.319723e-06,487.13999999967785,4.15914e-06
487.15499999967784,0.0001906984,487.15499999967784,2.251934e-06,487.15499999967784,2.307546e-06,487.15499999967784,4.042345e-06
487.1699999996778,0.000190355,487.1699999996778,2.301433e-06,487.1699999996778,2.337869e-06,487.1699999996778,4.155752e-06
487.1849999996778,0.0001897371,487.1849999996778,2.349889e-06,487.1849999996778,2.307546e-06,487.1849999996778,4.219664e-06
487.1999999996778,0.0001892338,487.1999999996778,2.325787e-06,487.1999999996778,2.373747e-06,487.1999999996778,4.334932e-06
487.2149999996778,0.0001849736,487.2149999996778,2.349889e-06,487.2149999996778,2.367805e-06,487.2149999996778,4.38019e-06
487.2299999996778,0.0001886473,487.2299999996778,2.349889e-06,487.2299999996778,2.379674e-06,487.2299999996778,4.389827e-06
487.24499999967776,0.0001885118,487.24499999967776,2.349889e-06,487.24499999967776,2.289158e-06,487.24499999967776,4.412233e-06
487.25999999967775,0.0001891252,487.25999999967775,2.270622e-06,487.25999999967775,2.295304e-06,487.25999999967775,4.35115e-06
487.27499999967773,0.0001895912,487.27499999967773,2.270622e-06,487.27499999967773,2.361848e-06,487.27499999967773,4.360851e-06
487.2899999996777,0.00018508,487.2899999996777,2.251934e-06,487.2899999996777,2.420756e-06,487.2899999996777,4.651575e-06
487.3049999996777,0.0001846809,487.3049999996777,2.289158e-06,487.3049999996777,2.432367e-06,487.3049999996777,4.581393e-06
487.3199999996777,0.0001859377,487.3199999996777,2.307546e-06,487.3199999996777,2.495258e-06,487.3199999996777,4.503868e-06
487.3349999996777,0.000183455,487.3349999996777,2.385586e-06,487.3349999996777,2.495258e-06,487.3349999996777,4.516361e-06
487.34999999967766,0.0001846886,487.34999999967766,2.337869e-06,487.34999999967766,2.512137e-06,487.34999999967766,4.575239e-06
487.36499999967765,0.0001850998,487.36499999967765,2.282997e-06,487.36499999967765,2.483942e-06,487.36499999967765,4.565993e-06
487.37999999967764,0.0001842651,487.37999999967764,2.282997e-06,487.37999999967764,2.701278e-06,487.37999999967764,4.572159e-06
487.3949999996776,0.000186103,487.3949999996776,2.361848e-06,487.3949999996776,2.669806e-06,487.3949999996776,4.575239e-06
487.4099999996776,0.0001843246,487.4099999996776,2.343887e-06,487.4099999996776,2.737538e-06,487.4099999996776,4.675739e-06
487.4249999996776,0.0001834878,487.4249999996776,2.207712e-06,487.4249999996776,2.803635e-06,487.4249999996776,4.73561e-06
487.4399999996776,0.0001854856,487.4399999996776,2.201322e-06,487.4399999996776,2.882905e-06,487.4399999996776,4.618143e-06
487.45499999967757,0.0001838827,487.45499999967757,2.162586e-06,487.45499999967757,2.897527e-06,487.45499999967757,4.547444e-06
487.46999999967755,0.0001851545,487.46999999967755,2.136372e-06,487.46999999967755,2.95052e-06,487.46999999967755,4.79767e-06
487.48499999967754,0.0001850351,487.48499999967754,2.129768e-06,487.48499999967754,2.988471e-06,487.48499999967754,5.001795e-06
487.4999999996775,0.0001827431,487.4999999996775,2.16909e-06,487.4999999996775,2.993181e-06,487.4999999996775,5.197909e-06
487.5149999996775,0.0001830263,487.5149999996775,2.214083e-06,487.5149999996775,2.993181e-06,487.5149999996775,5.181623e-06
487.5299999996775,0.0001816817,487.5299999996775,2.24567e-06,487.5299999996775,2.993181e-06,487.5299999996775,5.066156e-06
487.5449999996775,0.0001812096,487.5449999996775,2.270622e-06,487.5449999996775,2.979029e-06,487.5449999996775,4.953686e-06
487.5599999996775,0.0001823087,487.5599999996775,2.239388e-06,487.5599999996775,3.039879e-06,487.5599999996775,4.947995e-06
487.57499999967746,0.0001806735,487.57499999967746,2.307546e-06,487.57499999967746,2.988471e-06,487.57499999967746,4.893604e-06
487.58999999967745,0.0001813306,487.58999999967745,2.214083e-06,487.58999999967745,2.955291e-06,487.58999999967745,4.993339e-06
487.60499999967743,0.0001809097,487.60499999967743,2.270622e-06,487.60499999967743,2.931361e-06,487.60499999967743,5.088352e-06
487.6199999996774,0.0001805259,487.6199999996774,2.26441e-06,487.6199999996774,2.887788e-06,487.6199999996774,5.206033e-06
487.6349999996774,0.0001803796,487.6349999996774,2.282997e-06,487.6349999996774,2.74781e-06,487.6349999996774,5.124215e-06
487.6499999996774,0.0001803734,487.6499999996774,2.251934e-06,487.6499999996774,2.783465e-06,487.6499999996774,5.063375e-06
487.6649999996774,0.0001792501,487.6649999996774,2.295304e-06,487.6649999996774,2.706488e-06,487.6649999996774,4.953686e-06
487.67999999967736,0.0001798861,487.67999999967736,2.251934e-06,487.67999999967736,2.534468e-06,487.67999999967736,5.110451e-06
487.69499999967735,0.0001787494,487.69499999967735,2.239388e-06,487.69499999967735,2.556603e-06,487.69499999967735,5.148897e-06
487.70999999967734,0.0001789105,487.70999999967734,2.420756e-06,487.70999999967734,2.500897e-06,487.70999999967734,5.173461e-06
487.7249999996773,0.0001787164,487.7249999996773,2.455423e-06,487.7249999996773,2.449679e-06,487.7249999996773,5.082812e-06
487.7399999996773,0.000178102,487.7399999996773,2.455423e-06,487.7399999996773,2.472574e-06,487.7399999996773,4.826943e-06
487.7549999996773,0.0001782269,487.7549999996773,2.449679e-06,487.7549999996773,2.495258e-06,487.7549999996773,4.782967e-06
487.7699999996773,0.0001766156,487.7699999996773,2.438151e-06,487.7699999996773,2.5676e-06,487.7699999996773,4.850233e-06
487.78499999967727,0.0001766237,487.78499999967727,2.438151e-06,487.78499999967727,2.584006e-06,487.78499999967727,4.936594e-06
487.79999999967725,0.0001762602,487.79999999967725,2.379674e-06,487.79999999967725,2.523327e-06,487.79999999967725,5.046655e-06
487.81499999967724,0.0001757103,487.81499999967724,2.361848e-06,487.81499999967724,2.432367e-06,487.81499999967724,5.200618e-06
487.8299999996772,0.0001766798,487.8299999996772,2.833621e-06,487.8299999996772,2.40909e-06,487.8299999996772,5.307859e-06
487.8449999996772,0.0001748573,487.8449999996772,3.460301e-06,487.8449999996772,2.461153e-06,487.8449999996772,5.222243e-06
487.8599999996772,0.0001746872,487.8599999996772,5.485359e-06,487.8599999996772,2.483942e-06,487.8599999996772,5.165286e-06
487.8749999996772,0.0001742126,487.8749999996772,5.624828e-06,487.8749999996772,2.551088e-06,487.8749999996772,5.192486e-06
487.8899999996772,0.0001736543,487.8899999996772,6.367219e-06,487.8899999996772,2.611121e-06,487.8899999996772,5.251831e-06
487.90499999967716,0.0001738665,487.90499999967716,6.844875e-06,487.90499999967716,2.621889e-06,487.90499999967716,5.28392e-06
487.91999999967715,0.000173734,487.91999999967715,6.916529e-06,487.91999999967715,2.627256e-06,487.91999999967715,5.342249e-06
487.93499999967713,0.0001736365,487.93499999967713,7.061647e-06,487.93499999967713,2.637958e-06,487.93499999967713,5.173461e-06
487.9499999996771,0.0001726935,487.9499999996771,7.15085e-06,487.9499999996771,2.611121e-06,487.9499999996771,5.352786e-06
487.9649999996771,0.0001737575,487.9649999996771,7.117283e-06,487.9649999996771,2.680338e-06,487.9649999996771,5.310512e-06
487.9799999996771,0.0001722022,487.9799999996771,7.103415e-06,487.9799999996771,2.648616e-06,487.9799999996771,5.397339e-06
487.9949999996771,0.0001741532,487.9949999996771,7.097463e-06,487.9949999996771,2.621889e-06,487.9949999996771,5.597212e-06
488.00999999967706,0.0001732957,488.00999999967706,7.105398e-06,488.00999999967706,2.653929e-06,488.00999999967706,5.795054e-06
488.02499999967705,0.0001744448,488.02499999967705,7.111343e-06,488.02499999967705,2.589452e-06,488.02499999967705,5.896265e-06
488.03999999967704,0.0001746373,488.03999999967704,7.10738e-06,488.03999999967704,2.54556e-06,488.03999999967704,5.790191e-06
488.054999999677,0.0001749434,488.054999999677,7.105398e-06,488.054999999677,2.594886e-06,488.054999999677,5.741327e-06
488.069999999677,0.0001762316,488.069999999677,7.099447e-06,488.069999999677,2.690828e-06,488.069999999677,5.699464e-06
488.084999999677,0.0001763452,488.084999999677,6.869526e-06,488.084999999677,2.706488e-06,488.084999999677,5.612292e-06
488.099999999677,0.0001770711,488.099999999677,6.072803e-06,488.099999999677,2.669806e-06,488.099999999677,5.587136e-06
488.11499999967697,0.0001770688,488.11499999967697,5.029879e-06,488.11499999967697,2.685588e-06,488.11499999967697,5.549188e-06
488.12999999967695,0.0001768644,488.12999999967695,4.759348e-06,488.12999999967695,2.637958e-06,488.12999999967695,5.544109e-06
488.14499999967694,0.0001777149,488.14499999967694,3.476546e-06,488.14499999967694,2.669806e-06,488.14499999967694,5.659781e-06
488.1599999996769,0.000178183,488.1599999996769,3.007266e-06,488.1599999996769,2.653929e-06,488.1599999996769,5.564399e-06
488.1749999996769,0.0001786935,488.1749999996769,2.912075e-06,488.1749999996769,2.653929e-06,488.1749999996769,5.513535e-06
488.1899999996769,0.0001795461,488.1899999996769,2.589452e-06,488.1899999996769,2.653929e-06,488.1899999996769,5.436346e-06
488.2049999996769,0.0001803666,488.2049999996769,2.426568e-06,488.2049999996769,2.643292e-06,488.2049999996769,5.265225e-06
488.2199999996769,0.0001809696,488.2199999996769,2.385586e-06,488.2199999996769,2.637958e-06,488.2199999996769,5.321112e-06
488.23499999967686,0.0001810365,488.23499999967686,2.40909e-06,488.23499999967686,2.637958e-06,488.23499999967686,5.246463e-06
488.24999999967685,0.0001790801,488.24999999967685,2.455423e-06,488.24999999967685,2.5676e-06,488.24999999967685,4.996159e-06
488.26499999967683,0.0001798195,488.26499999967683,2.512137e-06,488.26499999967683,2.517739e-06,488.26499999967683,4.699779e-06
488.2799999996768,0.000179904,488.2799999996768,2.584006e-06,488.2799999996768,2.483942e-06,488.2799999996768,4.768218e-06
488.2949999996768,0.0001786057,488.2949999996768,2.637958e-06,488.2949999996768,2.472574e-06,488.2949999996768,4.856038e-06
488.3099999996768,0.0001807315,488.3099999996768,2.637958e-06,488.3099999996768,2.331836e-06,488.3099999996768,5.060592e-06
488.3249999996768,0.0001808312,488.3249999996768,2.551088e-06,488.3249999996768,2.313642e-06,488.3249999996768,4.930884e-06
488.33999999967676,0.0001811379,488.33999999967676,2.512137e-06,488.33999999967676,2.397367e-06,488.33999999967676,4.982041e-06
488.35499999967675,0.0001816526,488.35499999967675,2.512137e-06,488.35499999967675,2.403235e-06,488.35499999967675,5.099414e-06
488.36999999967674,0.0001819223,488.36999999967674,2.443922e-06,488.36999999967674,2.432367e-06,488.36999999967674,5.093886e-06
488.3849999996767,0.0001824073,488.3849999996767,2.397367e-06,488.3849999996767,2.331836e-06,488.3849999996767,5.001795e-06
488.3999999996767,0.0001829807,488.3999999996767,2.367805e-06,488.3999999996767,2.337869e-06,488.3999999996767,5.184341e-06
488.4149999996767,0.0001818861,488.4149999996767,2.391484e-06,488.4149999996767,2.391484e-06,488.4149999996767,5.249148e-06
488.4299999996767,0.0001851995,488.4299999996767,2.379674e-06,488.4299999996767,2.478264e-06,488.4299999996767,5.457037e-06
488.44499999967667,0.0001844899,488.44499999967667,2.483942e-06,488.44499999967667,2.478264e-06,488.44499999967667,5.549188e-06
488.45999999967665,0.0001856005,488.45999999967665,2.449679e-06,488.45999999967665,2.41493e-06,488.45999999967665,5.60727e-06
488.47499999967664,0.0001863907,488.47499999967664,2.500897e-06,488.47499999967664,2.426568e-06,488.47499999967664,5.516089e-06
488.4899999996766,0.0001859421,488.4899999996766,2.495258e-06,488.4899999996766,2.472574e-06,488.4899999996766,5.500745e-06
488.5049999996766,0.0001863652,488.5049999996766,2.438151e-06,488.5049999996766,2.500897e-06,488.5049999996766,5.56693e-06
488.5199999996766,0.0001866142,488.5199999996766,2.343887e-06,488.5199999996766,2.478264e-06,488.5199999996766,5.536481e-06
488.5349999996766,0.0001862084,488.5349999996766,2.24567e-06,488.5349999996766,2.478264e-06,488.5349999996766,5.521194e-06
488.5499999996766,0.0001868528,488.5499999996766,2.26441e-06,488.5499999996766,2.455423e-06,488.5499999996766,5.438937e-06
488.56499999967656,0.000185724,488.56499999967656,2.276818e-06,488.56499999967656,2.512137e-06,488.56499999967656,5.410373e-06
488.57999999967655,0.0001860875,488.57999999967655,2.355876e-06,488.57999999967655,2.495258e-06,488.57999999967655,5.418178e-06
488.59499999967653,0.0001860339,488.59499999967653,2.313642e-06,488.59499999967653,2.512137e-06,488.59499999967653,5.451871e-06
488.6099999996765,0.0001872134,488.6099999996765,2.313642e-06,488.6099999996765,2.534468e-06,488.6099999996765,5.556798e-06
488.6249999996765,0.0001852365,488.6249999996765,2.343887e-06,488.6249999996765,2.534468e-06,488.6249999996765,5.53139e-06
488.6399999996765,0.0001872302,488.6399999996765,2.461153e-06,488.6399999996765,2.517739e-06,488.6399999996765,5.302549e-06
488.6549999996765,0.0001865588,488.6549999996765,2.551088e-06,488.6549999996765,2.506524e-06,488.6549999996765,5.392116e-06
488.66999999967646,0.0001862043,488.66999999967646,2.523327e-06,488.66999999967646,2.379674e-06,488.66999999967646,5.249148e-06
488.68499999967645,0.0001852937,488.68499999967645,2.54002e-06,488.68499999967645,2.337869e-06,488.68499999967645,5.235713e-06
488.69999999967644,0.0001824931,488.69999999967644,2.696058e-06,488.69999999967644,2.313642e-06,488.69999999967644,5.265225e-06
488.7149999996764,0.0001831449,488.7149999996764,2.669806e-06,488.7149999996764,2.331836e-06,488.7149999996764,5.265225e-06
488.7299999996764,0.0001822643,488.7299999996764,2.706488e-06,488.7299999996764,2.337869e-06,488.7299999996764,5.321112e-06
488.7449999996764,0.0001822918,488.7449999996764,2.808655e-06,488.7449999996764,2.397367e-06,488.7449999996764,5.305204e-06
488.7599999996764,0.000182567,488.7599999996764,2.882905e-06,488.7599999996764,2.403235e-06,488.7599999996764,5.355417e-06
488.77499999967637,0.0001825647,488.77499999967637,3.149131e-06,488.77499999967637,2.483942e-06,488.77499999967637,5.342249e-06
488.78999999967635,0.0001811878,488.78999999967635,3.158065e-06,488.78999999967635,2.632612e-06,488.78999999967635,5.297233e-06
488.80499999967634,0.0001821218,488.80499999967634,3.131187e-06,488.80499999967634,2.752932e-06,488.80499999967634,5.165286e-06
488.8199999996763,0.0001813971,488.8199999996763,3.117661e-06,488.8199999996763,2.722057e-06,488.8199999996763,5.342249e-06
488.8349999996763,0.00018319,488.8349999996763,3.044509e-06,488.8349999996763,2.664524e-06,488.8349999996763,5.389503e-06
488.8499999996763,0.0001820371,488.8499999996763,3.085871e-06,488.8499999996763,2.632612e-06,488.8499999996763,5.485359e-06
488.8649999996763,0.0001786885,488.8649999996763,3.090432e-06,488.8649999996763,2.562108e-06,488.8649999996763,5.459618e-06
488.8799999996763,0.000190269,488.8799999996763,3.904074e-06,488.8799999996763,2.54556e-06,488.8799999996763,5.423375e-06
488.89499999967626,0.0001858087,488.89499999967626,4.121716e-06,488.89499999967626,2.605721e-06,488.89499999967626,5.394728e-06
488.90999999967624,0.0002079679,488.90999999967624,4.922306e-06,488.90999999967624,2.664524e-06,488.90999999967624,5.159829e-06
488.92499999967623,0.0002083272,488.92499999967623,9.901682e-06,488.92499999967623,2.752932e-06,488.92499999967623,5.307859e-06
488.9399999996762,0.0002365096,488.9399999996762,1.082075e-05,488.9399999996762,2.763147e-06,488.9399999996762,5.165286e-06
488.9549999996762,0.0002808914,488.9549999996762,1.137295e-05,488.9549999996762,2.716877e-06,488.9549999996762,5.249148e-06
488.9699999996762,0.000288975,488.9699999996762,1.2397e-05,488.9699999996762,2.773325e-06,488.9699999996762,5.428567e-06
488.9849999996762,0.0002871608,488.9849999996762,1.249998e-05,488.9849999996762,2.858369e-06,488.9849999996762,5.649817e-06
488.99999999967616,0.000299652,488.99999999967616,1.264452e-05,488.99999999967616,3.126685e-06,488.99999999967616,5.792623e-06
489.01499999967615,0.0003072407,489.01499999967615,1.288181e-05,489.01499999967615,3.867824e-06,489.01499999967615,6.135114e-06
489.02999999967614,0.0003291206,489.02999999967614,1.289274e-05,489.02999999967614,3.90768e-06,489.02999999967614,6.132817e-06
489.0449999996761,0.0003771812,489.0449999996761,1.353868e-05,489.0449999996761,4.066665e-06,489.0449999996761,6.311667e-06
489.0599999996761,0.000468239,489.0599999996761,1.415617e-05,489.0599999996761,4.36408e-06,489.0599999996761,6.569749e-06
489.0749999996761,0.0005513387,489.0749999996761,1.484873e-05,489.0749999996761,4.538142e-06,489.0749999996761,6.461651e-06
489.0899999996761,0.0005735795,489.0899999996761,1.649028e-05,489.0899999996761,5.551726e-06,489.0899999996761,7.3567e-06
489.10499999967607,0.0007389809,489.10499999967607,1.802016e-05,489.10499999967607,5.597212e-06,489.10499999967607,7.295169e-06
489.11999999967605,0.0007485115,489.11999999967605,1.857599e-05,489.11999999967605,5.758477e-06,489.11999999967605,7.291306e-06
489.13499999967604,0.0007600091,489.13499999967604,2.01538e-05,489.13499999967604,5.819312e-06,489.13499999967604,8.845193e-06
489.149999999676,0.000772694,489.149999999676,2.636142e-05,489.149999999676,6.056544e-06,489.149999999676,1.076593e-05
489.164999999676,0.0007708862,489.164999999676,2.70477e-05,489.164999999676,6.063518e-06,489.164999999676,1.175544e-05
489.179999999676,0.0007832049,489.179999999676,2.889836e-05,489.179999999676,6.035575e-06,489.179999999676,1.184259e-05
489.194999999676,0.0008268134,489.194999999676,3.201788e-05,489.194999999676,6.148874e-06,489.194999999676,1.205013e-05
489.209999999676,0.0008376574,489.209999999676,3.303647e-05,489.209999999676,6.322817e-06,489.209999999676,1.197978e-05
489.22499999967596,0.0008571008,489.22499999967596,3.407133e-05,489.22499999967596,6.550423e-06,489.22499999967596,1.202087e-05
489.23999999967594,0.0008644261,489.23999999967594,3.527391e-05,489.23999999967594,6.688745e-06,489.23999999967594,1.222537e-05
489.25499999967593,0.0009049103,489.25499999967593,3.679307e-05,489.25499999967593,6.468188e-06,489.25499999967593,1.208398e-05
489.2699999996759,0.0009219419,489.2699999996759,3.885193e-05,489.2699999996759,6.221753e-06,489.2699999996759,1.196566e-05
489.2849999996759,0.0009869757,489.2849999996759,4.166686e-05,489.2849999996759,6.196798e-06,489.2849999996759,1.194917e-05
489.2999999996759,0.00115419,489.2999999996759,4.571635e-05,489.2999999996759,6.086705e-06,489.2999999996759,1.231835e-05
489.3149999996759,0.001117634,489.3149999996759,4.757986e-05,489.3149999996759,5.965146e-06,489.3149999996759,1.327602e-05
489.32999999967586,0.001125874,489.32999999967586,5.094079e-05,489.32999999967586,5.270573e-06,489.32999999967586,1.354492e-05
489.34499999967585,0.001142646,489.34499999967585,5.317007e-05,489.34499999967585,7.497057e-06,489.34499999967585,1.354388e-05
489.35999999967584,0.001379086,489.35999999967584,5.292763e-05,489.35999999967584,1.018224e-05,489.35999999967584,1.550858e-05
489.3749999996758,0.001395348,489.3749999996758,5.346123e-05,489.3749999996758,2.543235e-05,489.3749999996758,1.697021e-05
489.3899999996758,0.001387899,489.3899999996758,5.162995e-05,489.3899999996758,3.465264e-05,489.3899999996758,1.644152e-05
489.4049999996758,0.001410314,489.4049999996758,5.104908e-05,489.4049999996758,3.566076e-05,489.4049999996758,1.547858e-05
489.4199999996758,0.001465313,489.4199999996758,5.092254e-05,489.4199999996758,3.588521e-05,489.4199999996758,1.696938e-05
