X[s],a: EMG RMS 1-1,X[s].1,a: EMG RMS 1-2,X[s].2,a: EMG RMS 1-3,X[s].3,a: EMG RMS 1-4
580.0049999995935,0.002521349,580.0049999995935,8.380839e-05,580.0049999995935,1.879537e-05,580.0049999995935,7.071614e-06
580.0199999995934,0.002439892,580.0199999995934,8.997408e-05,580.0199999995934,2.158935e-05,580.0199999995934,7.360529e-06
580.0349999995934,0.002174184,580.0349999995934,9.034827e-05,580.0349999995934,2.255621e-05,580.0349999995934,7.354785e-06
580.0499999995934,0.001931243,580.0499999995934,9.085188e-05,580.0499999995934,2.522267e-05,580.0499999995934,7.483893e-06
580.0649999995934,0.002017254,580.0649999995934,8.888009e-05,580.0649999995934,3.715805e-05,580.0649999995934,7.532673e-06
580.0799999995934,0.002180103,580.0799999995934,8.864459e-05,580.0799999995934,4.483931e-05,580.0799999995934,7.517698e-06
580.0949999995934,0.00225213,580.0949999995934,8.793282e-05,580.0949999995934,4.491653e-05,580.0949999995934,7.538281e-06
580.1099999995934,0.002182233,580.1099999995934,8.842469e-05,580.1099999995934,4.749926e-05,580.1099999995934,7.872827e-06
580.1249999995933,0.002073492,580.1249999995933,8.687426e-05,580.1249999995933,5.128447e-05,580.1249999995933,9.217965e-06
580.1399999995933,0.002008465,580.1399999995933,8.576702e-05,580.1399999995933,5.586355e-05,580.1399999995933,1.021125e-05
580.1549999995933,0.002013825,580.1549999995933,8.177308e-05,580.1549999995933,5.713732e-05,580.1549999995933,1.036325e-05
580.1699999995933,0.002012159,580.1699999995933,7.629704e-05,580.1699999995933,6.065562e-05,580.1699999995933,1.060775e-05
580.1849999995933,0.002011806,580.1849999995933,7.441005e-05,580.1849999995933,6.519555e-05,580.1849999995933,1.067131e-05
580.1999999995933,0.002014107,580.1999999995933,6.797956e-05,580.1999999995933,6.677953e-05,580.1999999995933,1.081293e-05
580.2149999995933,0.002029418,580.2149999995933,6.341681e-05,580.2149999995933,6.692451e-05,580.2149999995933,1.076462e-05
580.2299999995932,0.00202723,580.2299999995932,6.319296e-05,580.2299999995932,6.758741e-05,580.2299999995932,1.086751e-05
580.2449999995932,0.002016285,580.2449999995932,6.353997e-05,580.2449999995932,6.806965e-05,580.2449999995932,1.264229e-05
580.2599999995932,0.001927581,580.2599999995932,5.287677e-05,580.2599999995932,6.758616e-05,580.2599999995932,1.738192e-05
580.2749999995932,0.001691284,580.2749999995932,5.336735e-05,580.2749999995932,6.684341e-05,580.2749999995932,1.987224e-05
580.2899999995932,0.001866363,580.2899999995932,5.999736e-05,580.2899999995932,6.667525e-05,580.2899999995932,2.076994e-05
580.3049999995932,0.002194701,580.3049999995932,6.372349e-05,580.3049999995932,6.464484e-05,580.3049999995932,2.505456e-05
580.3199999995932,0.002094263,580.3199999995932,6.898073e-05,580.3199999995932,5.696226e-05,580.3199999995932,2.818418e-05
580.3349999995932,0.001944357,580.3349999995932,7.207342e-05,580.3349999995932,5.280933e-05,580.3349999995932,2.878211e-05
580.3499999995931,0.001930905,580.3499999995931,7.263257e-05,580.3499999995931,5.28885e-05,580.3499999995931,3.007547e-05
580.3649999995931,0.001948437,580.3649999995931,8.152982e-05,580.3649999995931,5.047939e-05,580.3649999995931,3.296433e-05
580.3799999995931,0.001950707,580.3799999995931,8.174447e-05,580.3799999995931,4.640599e-05,580.3799999995931,3.313439e-05
580.3949999995931,0.002015063,580.3949999995931,8.314351e-05,580.3949999995931,3.967886e-05,580.3949999995931,3.280498e-05
580.4099999995931,0.002119099,580.4099999995931,8.953746e-05,580.4099999995931,3.81003e-05,580.4099999995931,3.389225e-05
580.4249999995931,0.002136678,580.4249999995931,8.888089e-05,580.4249999995931,3.107977e-05,580.4249999995931,3.518554e-05
580.439999999593,0.002179909,580.439999999593,0.0001042598,580.439999999593,2.242468e-05,580.439999999593,3.566865e-05
580.454999999593,0.002187758,580.454999999593,0.0001031048,580.454999999593,1.714529e-05,580.454999999593,3.570063e-05
580.469999999593,0.002212795,580.469999999593,0.0001024316,580.469999999593,1.899294e-05,580.469999999593,3.567971e-05
580.484999999593,0.002305823,580.484999999593,0.0001022196,580.484999999593,1.699261e-05,580.484999999593,3.553928e-05
580.499999999593,0.002242123,580.499999999593,0.0001017425,580.499999999593,1.58562e-05,580.499999999593,3.454719e-05
580.514999999593,0.002244615,580.514999999593,0.0001010854,580.514999999593,1.510084e-05,580.514999999593,3.20491e-05
580.529999999593,0.002270609,580.529999999593,0.0001000486,580.529999999593,1.465584e-05,580.529999999593,3.188164e-05
580.544999999593,0.002078501,580.544999999593,9.703878e-05,580.544999999593,1.421377e-05,580.544999999593,3.185556e-05
580.559999999593,0.001880591,580.559999999593,9.28179e-05,580.559999999593,1.646121e-05,580.559999999593,2.851857e-05
580.5749999995929,0.001867916,580.5749999995929,8.924135e-05,580.5749999995929,1.640721e-05,580.5749999995929,3.399393e-05
580.5899999995929,0.001765449,580.5899999995929,8.837402e-05,580.5899999995929,1.599595e-05,580.5899999995929,4.076802e-05
580.6049999995929,0.001804912,580.6049999995929,8.168242e-05,580.6049999995929,1.661284e-05,580.6049999995929,3.918552e-05
580.6199999995929,0.001877598,580.6199999995929,8.021262e-05,580.6199999995929,1.660181e-05,580.6199999995929,3.848692e-05
580.6349999995929,0.001874804,580.6349999995929,8.102234e-05,580.6349999995929,1.686864e-05,580.6349999995929,3.955406e-05
580.6499999995929,0.001738184,580.6499999995929,7.940493e-05,580.6499999995929,1.724687e-05,580.6499999995929,4.044296e-05
580.6649999995929,0.001593934,580.6649999995929,7.619098e-05,580.6649999995929,1.747165e-05,580.6649999995929,4.031458e-05
580.6799999995928,0.001625495,580.6799999995928,7.358442e-05,580.6799999995928,1.755048e-05,580.6799999995928,3.930218e-05
580.6949999995928,0.001616599,580.6949999995928,5.280719e-05,580.6949999995928,1.777538e-05,580.6949999995928,3.922217e-05
580.7099999995928,0.001610314,580.7099999995928,5.586683e-05,580.7099999995928,1.712803e-05,580.7099999995928,3.918947e-05
580.7249999995928,0.001459045,580.7249999995928,6.020104e-05,580.7249999995928,1.558288e-05,580.7249999995928,3.918264e-05
580.7399999995928,0.00135728,580.7399999995928,6.066142e-05,580.7399999995928,1.538181e-05,580.7399999995928,3.920349e-05
580.7549999995928,0.001346408,580.7549999995928,6.046768e-05,580.7549999995928,1.563072e-05,580.7549999995928,3.909014e-05
580.7699999995928,0.001216513,580.7699999995928,6.183804e-05,580.7699999995928,1.581439e-05,580.7699999995928,3.881348e-05
580.7849999995927,0.001163572,580.7849999995927,6.015095e-05,580.7849999995927,1.486295e-05,580.7849999995927,3.814243e-05
580.7999999995927,0.001200378,580.7999999995927,6.502203e-05,580.7999999995927,1.38137e-05,580.7999999995927,3.780448e-05
580.8149999995927,0.001233666,580.8149999995927,6.601364e-05,580.8149999995927,1.236059e-05,580.8149999995927,3.681183e-05
580.8299999995927,0.001231566,580.8299999995927,6.667314e-05,580.8299999995927,1.481169e-05,580.8299999995927,2.55164e-05
580.8449999995927,0.001211028,580.8449999995927,6.610043e-05,580.8449999995927,1.471914e-05,580.8449999995927,1.820758e-05
580.8599999995927,0.001169252,580.8599999995927,6.399614e-05,580.8599999995927,1.478598e-05,580.8599999995927,1.957298e-05
580.8749999995927,0.001216424,580.8749999995927,6.353266e-05,580.8749999995927,1.517992e-05,580.8749999995927,1.614846e-05
580.8899999995926,0.001301845,580.8899999995926,6.155606e-05,580.8899999995926,1.550313e-05,580.8899999995926,1.468465e-05
580.9049999995926,0.001320253,580.9049999995926,5.920559e-05,580.9049999995926,1.690868e-05,580.9049999995926,1.533319e-05
580.9199999995926,0.001357969,580.9199999995926,5.652608e-05,580.9199999995926,1.891788e-05,580.9199999995926,1.554125e-05
580.9349999995926,0.00150659,580.9349999995926,5.431784e-05,580.9349999995926,2.065501e-05,580.9349999995926,1.565233e-05
580.9499999995926,0.001732411,580.9499999995926,5.183281e-05,580.9499999995926,2.053668e-05,580.9499999995926,1.673449e-05
580.9649999995926,0.001878813,580.9649999995926,5.040371e-05,580.9649999995926,2.052021e-05,580.9649999995926,1.916277e-05
580.9799999995926,0.001901411,580.9799999995926,4.606017e-05,580.9799999995926,2.045145e-05,580.9799999995926,2.07428e-05
580.9949999995926,0.001907391,580.9949999995926,4.6556e-05,580.9949999995926,2.042043e-05,580.9949999995926,2.113968e-05
581.0099999995925,0.001935218,581.0099999995925,4.645029e-05,581.0099999995925,2.005851e-05,581.0099999995925,2.119824e-05
581.0249999995925,0.001965976,581.0249999995925,4.41418e-05,581.0249999995925,1.942198e-05,581.0249999995925,2.155671e-05
581.0399999995925,0.001945532,581.0399999995925,4.354063e-05,581.0399999995925,1.933839e-05,581.0399999995925,2.2205e-05
581.0549999995925,0.001944339,581.0549999995925,3.938417e-05,581.0549999995925,1.934203e-05,581.0549999995925,2.214147e-05
581.0699999995925,0.001925832,581.0699999995925,3.805109e-05,581.0699999995925,1.807792e-05,581.0699999995925,2.213447e-05
581.0849999995925,0.001925807,581.0849999995925,3.858489e-05,581.0849999995925,1.689784e-05,581.0849999995925,2.273412e-05
581.0999999995925,0.001908695,581.0999999995925,3.959748e-05,581.0999999995925,1.652356e-05,581.0999999995925,2.210773e-05
581.1149999995924,0.001810383,581.1149999995924,4.295891e-05,581.1149999995924,1.601268e-05,581.1149999995924,2.117164e-05
581.1299999995924,0.001705561,581.1299999995924,4.351635e-05,581.1299999995924,1.579211e-05,581.1299999995924,2.101738e-05
581.1449999995924,0.001608725,581.1449999995924,4.578532e-05,581.1449999995924,1.441453e-05,581.1449999995924,1.965127e-05
581.1599999995924,0.001589414,581.1599999995924,4.597047e-05,581.1599999995924,1.154017e-05,581.1599999995924,1.882158e-05
581.1749999995924,0.001558156,581.1749999995924,4.666028e-05,581.1749999995924,7.233115e-06,581.1749999995924,1.8067e-05
581.1899999995924,0.001414301,581.1899999995924,4.582346e-05,581.1899999995924,3.78313e-06,581.1899999995924,1.799826e-05
581.2049999995924,0.001095865,581.2049999995924,4.434779e-05,581.2049999995924,3.700305e-06,581.2049999995924,1.689367e-05
581.2199999995923,0.0008502571,581.2199999995923,4.413861e-05,581.2199999995923,3.688867e-06,581.2199999995923,1.361753e-05
581.2349999995923,0.0007682214,581.2349999995923,4.436208e-05,581.2349999995923,3.760722e-06,581.2349999995923,1.104749e-05
581.2499999995923,0.0007413487,581.2499999995923,4.501209e-05,581.2499999995923,3.922073e-06,581.2499999995923,1.035373e-05
581.2649999995923,0.000560286,581.2649999995923,4.439097e-05,581.2649999995923,3.669723e-06,581.2649999995923,1.039853e-05
581.2799999995923,0.0005180945,581.2799999995923,4.366597e-05,581.2799999995923,3.677393e-06,581.2799999995923,9.937185e-06
581.2949999995923,0.0005533962,581.2949999995923,4.293759e-05,581.2949999995923,3.646619e-06,581.2949999995923,9.260655e-06
581.3099999995923,0.0005411016,581.3099999995923,4.100265e-05,581.3099999995923,3.669723e-06,581.3099999995923,9.210321e-06
581.3249999995923,0.0005389411,581.3249999995923,4.195559e-05,581.3249999995923,3.745709e-06,581.3249999995923,9.280408e-06
581.3399999995922,0.000702709,581.3399999995922,4.335712e-05,581.3399999995922,4.165909e-06,581.3399999995922,8.42262e-06
581.3549999995922,0.001240293,581.3549999995922,4.143735e-05,581.3549999995922,4.17604e-06,581.3549999995922,9.650967e-06
581.3699999995922,0.001586157,581.3699999995922,3.991707e-05,581.3699999995922,4.20629e-06,581.3699999995922,9.521654e-06
581.3849999995922,0.001629094,581.3849999995922,4.0331e-05,581.3849999995922,4.209638e-06,581.3849999995922,9.841749e-06
581.3999999995922,0.001741047,581.3999999995922,3.983229e-05,581.3999999995922,4.212983e-06,581.3999999995922,1.199271e-05
581.4149999995922,0.001906734,581.4149999995922,4.017878e-05,581.4149999995922,4.216325e-06,581.4149999995922,1.199858e-05
581.4299999995922,0.001984491,581.4299999995922,4.172869e-05,581.4299999995922,4.262842e-06,581.4299999995922,1.215836e-05
581.4449999995921,0.002000595,581.4449999995921,4.229168e-05,581.4449999995921,4.370531e-06,581.4449999995921,1.209796e-05
581.4599999995921,0.002003514,581.4599999995921,4.285911e-05,581.4599999995921,4.424985e-06,581.4599999995921,1.188534e-05
581.4749999995921,0.002004213,581.4749999995921,4.341751e-05,581.4749999995921,4.347911e-06,581.4749999995921,1.198683e-05
581.4899999995921,0.002006165,581.4899999995921,4.221266e-05,581.4899999995921,4.17604e-06,581.4899999995921,1.201031e-05
581.5049999995921,0.001999494,581.5049999995921,4.273898e-05,581.5049999995921,4.070128e-06,581.5049999995921,1.204194e-05
581.5199999995921,0.002013234,581.5199999995921,4.457685e-05,581.5199999995921,3.975583e-06,581.5199999995921,1.200797e-05
581.5349999995921,0.002033537,581.5349999995921,4.449746e-05,581.5349999995921,3.954266e-06,581.5349999995921,1.201969e-05
581.549999999592,0.002018027,581.549999999592,4.472891e-05,581.549999999592,3.996786e-06,581.549999999592,1.203375e-05
581.564999999592,0.002034195,581.564999999592,5.236143e-05,581.564999999592,3.943564e-06,581.564999999592,1.193619e-05
581.579999999592,0.002057126,581.579999999592,5.209712e-05,581.579999999592,3.816494e-06,581.579999999592,1.159254e-05
581.594999999592,0.00200812,581.594999999592,5.465678e-05,581.594999999592,3.314757e-06,581.594999999592,1.093342e-05
581.609999999592,0.001791292,581.609999999592,5.654402e-05,581.609999999592,3.211145e-06,581.609999999592,1.15816e-05
581.624999999592,0.001635545,581.624999999592,5.761143e-05,581.624999999592,3.323245e-06,581.624999999592,1.231149e-05
581.639999999592,0.001767309,581.639999999592,5.782619e-05,581.639999999592,3.431686e-06,581.639999999592,1.220808e-05
581.654999999592,0.001732535,581.654999999592,5.942408e-05,581.654999999592,3.464369e-06,581.654999999592,1.150227e-05
581.6699999995919,0.001653432,581.6699999995919,6.046884e-05,581.6699999995919,3.548731e-06,581.6699999995919,1.151818e-05
581.6849999995919,0.001610828,581.6849999995919,5.953705e-05,581.6849999995919,3.448066e-06,581.6849999995919,1.128342e-05
581.6999999995919,0.001605217,581.6999999995919,6.103392e-05,581.6999999995919,3.386231e-06,581.6999999995919,1.119442e-05
581.7149999995919,0.001599168,581.7149999995919,6.235977e-05,581.7149999995919,5.363302e-06,581.7149999995919,1.115661e-05
581.7299999995919,0.001602118,581.7299999995919,6.22517e-05,581.7299999995919,5.508422e-06,581.7299999995919,1.110853e-05
581.7449999995919,0.001605141,581.7449999995919,6.16665e-05,581.7449999995919,5.632336e-06,581.7449999995919,1.115913e-05
581.7599999995919,0.001596613,581.7599999995919,6.067326e-05,581.7599999995919,5.637336e-06,581.7599999995919,1.11604e-05
581.7749999995918,0.001550111,581.7749999995918,5.955716e-05,581.7749999995918,6.203613e-06,581.7749999995918,1.116671e-05
581.7899999995918,0.001487947,581.7899999995918,6.0877e-05,581.7899999995918,7.205797e-06,581.7899999995918,1.120951e-05
581.8049999995918,0.001472981,581.8049999995918,6.087677e-05,581.8049999995918,7.3567e-06,581.8049999995918,1.140016e-05
581.8199999995918,0.001453458,581.8199999995918,5.388405e-05,581.8199999995918,7.40822e-06,581.8199999995918,1.201383e-05
581.8349999995918,0.001447349,581.8349999995918,5.371071e-05,581.8349999995918,7.34712e-06,581.8349999995918,1.144702e-05
581.8499999995918,0.001262628,581.8499999995918,5.02046e-05,581.8499999995918,7.375824e-06,581.8499999995918,9.374045e-06
581.8649999995918,0.001241088,581.8649999995918,4.982098e-05,581.8649999995918,7.448044e-06,581.8649999995918,9.554146e-06
581.8799999995917,0.001290262,581.8799999995917,4.836272e-05,581.8799999995917,7.547619e-06,581.8799999995917,1.085584e-05
581.8949999995917,0.001165829,581.8949999995917,4.661467e-05,581.8949999995917,7.752019e-06,581.8949999995917,1.693448e-05
581.9099999995917,0.001202495,581.9099999995917,4.5609e-05,581.9099999995917,7.83696e-06,581.9099999995917,2.182815e-05
581.9249999995917,0.001211026,581.9249999995917,4.547352e-05,581.9249999995917,7.845942e-06,581.9249999995917,2.485473e-05
581.9399999995917,0.001287142,581.9399999995917,4.575331e-05,581.9399999995917,7.883556e-06,581.9399999995917,2.744784e-05
581.9549999995917,0.001376197,581.9549999995917,4.294776e-05,581.9549999995917,7.634834e-06,581.9549999995917,3.252076e-05
581.9699999995917,0.001438184,581.9699999995917,4.221634e-05,581.9699999995917,6.612493e-06,581.9699999995917,3.529626e-05
581.9849999995917,0.001452554,581.9849999995917,4.277851e-05,581.9849999995917,6.470365e-06,581.9849999995917,3.578261e-05
581.9999999995916,0.001449105,581.9999999995916,4.478776e-05,581.9999999995916,6.435437e-06,581.9999999995916,3.585143e-05
582.0149999995916,0.001454562,582.0149999995916,4.757275e-05,582.0149999995916,6.452925e-06,582.0149999995916,3.586008e-05
582.0299999995916,0.001468439,582.0299999995916,5.18445e-05,582.0299999995916,4.95937e-06,582.0299999995916,3.589424e-05
582.0449999995916,0.001468494,582.0449999995916,4.964622e-05,582.0449999995916,4.593675e-06,582.0449999995916,3.586872e-05
582.0599999995916,0.001472539,582.0599999995916,5.00416e-05,582.0599999995916,4.405843e-06,582.0599999995916,3.567142e-05
582.0749999995916,0.001465815,582.0749999995916,5.750619e-05,582.0749999995916,4.312125e-06,582.0749999995916,3.548215e-05
582.0899999995916,0.00148398,582.0899999995916,5.93337e-05,582.0899999995916,4.444044e-06,582.0899999995916,3.574598e-05
582.1049999995915,0.001588083,582.1049999995915,7.017704e-05,582.1049999995915,4.418613e-06,582.1049999995915,3.661346e-05
582.1199999995915,0.002046656,582.1199999995915,7.459817e-05,582.1199999995915,4.39624e-06,582.1199999995915,3.760385e-05
582.1349999995915,0.001988316,582.1349999995915,7.804629e-05,582.1349999995915,3.78313e-06,582.1349999995915,3.637491e-05
582.1499999995915,0.001852482,582.1499999995915,8.317552e-05,582.1499999995915,4.621192e-06,582.1499999995915,3.324729e-05
582.1649999995915,0.001912545,582.1649999995915,8.766118e-05,582.1649999995915,4.47563e-06,582.1649999995915,2.855016e-05
582.1799999995915,0.002023963,582.1799999995915,9.021143e-05,582.1799999995915,4.444044e-06,582.1799999995915,2.683226e-05
582.1949999995915,0.002019407,582.1949999995915,8.949167e-05,582.1949999995915,4.450379e-06,582.1949999995915,2.464013e-05
582.2099999995914,0.001984391,582.2099999995914,8.984828e-05,582.2099999995914,4.440873e-06,582.2099999995914,1.955858e-05
582.2249999995914,0.001960126,582.2249999995914,9.47626e-05,582.2249999995914,4.456705e-06,582.2249999995914,1.551403e-05
582.2399999995914,0.00195371,582.2399999995914,0.0001007476,582.2399999995914,5.230329e-06,582.2399999995914,1.493858e-05
582.2549999995914,0.001957784,582.2549999995914,0.0001028415,582.2549999995914,5.948592e-06,582.2549999995914,1.535614e-05
582.2699999995914,0.001949258,582.2699999995914,0.0001079793,582.2699999995914,5.924864e-06,582.2699999995914,1.573133e-05
582.2849999995914,0.001964106,582.2849999995914,0.0001094625,582.2849999995914,6.932803e-06,582.2849999995914,1.613799e-05
582.2999999995914,0.002011924,582.2999999995914,0.0001105607,582.2999999995914,7.373913e-06,582.2999999995914,1.623893e-05
582.3149999995914,0.00202175,582.3149999995914,0.0001156066,582.3149999995914,7.892485e-06,582.3149999995914,1.727706e-05
582.3299999995913,0.002213216,582.3299999995913,0.0001131532,582.3299999995913,7.924546e-06,582.3299999995913,1.792454e-05
582.3449999995913,0.002384396,582.3449999995913,0.0001098216,582.3449999995913,8.255384e-06,582.3449999995913,1.705302e-05
582.3599999995913,0.002536986,582.3599999995913,0.0001112624,582.3599999995913,8.373978e-06,582.3599999995913,1.462794e-05
582.3749999995913,0.002386022,582.3749999995913,0.0001079474,582.3749999995913,8.640569e-06,582.3749999995913,1.381981e-05
582.3899999995913,0.002616605,582.3899999995913,0.0001046369,582.3899999995913,8.538892e-06,582.3899999995913,1.501852e-05
582.4049999995913,0.002717211,582.4049999995913,0.0001011658,582.4049999995913,8.231461e-06,582.4049999995913,1.664841e-05
582.4199999995913,0.00299542,582.4199999995913,9.590113e-05,582.4199999995913,8.363879e-06,582.4199999995913,1.652782e-05
582.4349999995912,0.003256549,582.4349999995912,9.458912e-05,582.4349999995912,8.432649e-06,582.4349999995912,1.916203e-05
582.4499999995912,0.00334769,582.4499999995912,9.408814e-05,582.4499999995912,9.035841e-06,582.4499999995912,2.361669e-05
582.4649999995912,0.003387186,582.4649999995912,9.364152e-05,582.4649999995912,1.006956e-05,582.4649999995912,2.432598e-05
582.4799999995912,0.003393197,582.4799999995912,8.650898e-05,582.4799999995912,1.159011e-05,582.4799999995912,2.469324e-05
582.4949999995912,0.003466636,582.4949999995912,7.873006e-05,582.4949999995912,1.211425e-05,582.4949999995912,2.735582e-05
582.5099999995912,0.003556593,582.5099999995912,7.673116e-05,582.5099999995912,1.382797e-05,582.5099999995912,3.017461e-05
582.5249999995912,0.003811791,582.5249999995912,6.9313e-05,582.5249999995912,1.406432e-05,582.5249999995912,3.447086e-05
582.5399999995911,0.003957637,582.5399999995911,6.496329e-05,582.5399999995911,1.375237e-05,582.5399999995911,3.555434e-05
582.5549999995911,0.003964903,582.5549999995911,6.343947e-05,582.5549999995911,1.343947e-05,582.5549999995911,3.634818e-05
582.5699999995911,0.00396462,582.5699999995911,5.3236e-05,582.5699999995911,1.408334e-05,582.5699999995911,3.753186e-05
582.5849999995911,0.003903519,582.5849999995911,5.38197e-05,582.5849999995911,1.423061e-05,582.5849999995911,3.842794e-05
582.5999999995911,0.003675464,582.5999999995911,4.594871e-05,582.5999999995911,1.398195e-05,582.5999999995911,3.862648e-05
582.6149999995911,0.003599933,582.6149999995911,4.406162e-05,582.6149999995911,1.383102e-05,582.6149999995911,3.848509e-05
582.6299999995911,0.003547625,582.6299999995911,4.567813e-05,582.6299999995911,1.378205e-05,582.6299999995911,3.827257e-05
582.644999999591,0.003329489,582.644999999591,4.66325e-05,582.644999999591,1.381574e-05,582.644999999591,3.797698e-05
582.659999999591,0.003331276,582.659999999591,4.783821e-05,582.659999999591,1.397389e-05,582.659999999591,3.743904e-05
582.674999999591,0.003111658,582.674999999591,5.067324e-05,582.674999999591,1.385748e-05,582.674999999591,3.739047e-05
582.689999999591,0.002849686,582.689999999591,5.560701e-05,582.689999999591,1.383204e-05,582.689999999591,3.590483e-05
582.704999999591,0.002841124,582.704999999591,6.197343e-05,582.704999999591,1.365678e-05,582.704999999591,3.452721e-05
582.719999999591,0.002854223,582.719999999591,6.908867e-05,582.719999999591,1.342899e-05,582.719999999591,3.435706e-05
582.734999999591,0.002835098,582.734999999591,7.356968e-05,582.734999999591,1.230004e-05,582.734999999591,3.350138e-05
582.749999999591,0.002735492,582.749999999591,7.595192e-05,582.749999999591,1.162409e-05,582.749999999591,3.215222e-05
582.7649999995909,0.002647179,582.7649999995909,7.83935e-05,582.7649999995909,9.598277e-06,582.7649999995909,2.755847e-05
582.7799999995909,0.002337519,582.7799999995909,8.071891e-05,582.7799999995909,9.894567e-06,582.7799999995909,2.118361e-05
582.7949999995909,0.002134718,582.7949999995909,8.258882e-05,582.7949999995909,1.289165e-05,582.7949999995909,1.989208e-05
582.8099999995909,0.002172041,582.8099999995909,8.262633e-05,582.8099999995909,1.333636e-05,582.8099999995909,1.857751e-05
582.8249999995909,0.002085184,582.8249999995909,8.121874e-05,582.8249999995909,1.310407e-05,582.8249999995909,1.632285e-05
582.8399999995909,0.002010474,582.8399999995909,8.331733e-05,582.8399999995909,1.730557e-05,582.8399999995909,1.494895e-05
582.8549999995909,0.002009101,582.8549999995909,8.303382e-05,582.8549999995909,1.731697e-05,582.8549999995909,1.457778e-05
582.8699999995908,0.001889374,582.8699999995908,8.001129e-05,582.8699999995908,1.733079e-05,582.8699999995908,1.473923e-05
582.8849999995908,0.001800629,582.8849999995908,7.934601e-05,582.8849999995908,1.765611e-05,582.8849999995908,1.434792e-05
582.8999999995908,0.001752205,582.8999999995908,7.842746e-05,582.8999999995908,1.765372e-05,582.8999999995908,1.461638e-05
582.9149999995908,0.001654077,582.9149999995908,7.767612e-05,582.9149999995908,1.747487e-05,582.9149999995908,1.403224e-05
582.9299999995908,0.001986622,582.9299999995908,7.550418e-05,582.9299999995908,1.74046e-05,582.9299999995908,1.603553e-05
582.9449999995908,0.002317622,582.9449999995908,7.206951e-05,582.9449999995908,1.738435e-05,582.9449999995908,2.151353e-05
582.9599999995908,0.002474375,582.9599999995908,7.001789e-05,582.9599999995908,1.713214e-05,582.9599999995908,3.209741e-05
582.9749999995908,0.002537576,582.9749999995908,6.363611e-05,582.9749999995908,1.672186e-05,582.9749999995908,3.389433e-05
582.9899999995907,0.002774886,582.9899999995907,5.960799e-05,582.9899999995907,1.659247e-05,582.9899999995907,3.712657e-05
583.0049999995907,0.002830401,583.0049999995907,5.730448e-05,583.0049999995907,1.650309e-05,583.0049999995907,4.094902e-05
583.0199999995907,0.002746306,583.0199999995907,5.826037e-05,583.0199999995907,1.615543e-05,583.0199999995907,4.236622e-05
583.0349999995907,0.002714859,583.0349999995907,8.197816e-05,583.0349999995907,1.581439e-05,583.0349999995907,4.249205e-05
583.0499999995907,0.002695694,583.0499999995907,8.879463e-05,583.0499999995907,1.407634e-05,583.0499999995907,4.250664e-05
583.0649999995907,0.00267334,583.0649999995907,9.777863e-05,583.0649999995907,1.344262e-05,583.0649999995907,4.248244e-05
583.0799999995907,0.002720098,583.0799999995907,0.0001043002,583.0799999995907,1.022779e-05,583.0799999995907,4.257584e-05
583.0949999995906,0.002931545,583.0949999995906,0.0001082162,583.0949999995906,6.894089e-06,583.0949999995906,4.267268e-05
583.1099999995906,0.003055553,583.1099999995906,0.0001093262,583.1099999995906,7.061647e-06,583.1099999995906,4.284465e-05
583.1249999995906,0.003062982,583.1249999995906,0.0001134776,583.1249999995906,8.679607e-06,583.1249999995906,4.292349e-05
583.1399999995906,0.00318216,583.1399999995906,0.0001139564,583.1399999995906,8.630781e-06,583.1399999995906,4.283215e-05
583.1549999995906,0.003249747,583.1549999995906,0.0001139705,583.1549999995906,8.979542e-06,583.1549999995906,4.228102e-05
583.1699999995906,0.003259775,583.1699999995906,0.0001137036,583.1699999995906,1.021125e-05,583.1699999995906,4.227069e-05
583.1849999995906,0.003120691,583.1849999995906,0.0001128419,583.1849999995906,1.24469e-05,583.1849999995906,4.134137e-05
583.1999999995905,0.002829937,583.1999999995905,0.000112138,583.1999999995905,1.515484e-05,583.1999999995905,3.781565e-05
583.2149999995905,0.002975022,583.2149999995905,0.0001105605,583.2149999995905,1.836397e-05,583.2149999995905,2.714958e-05
583.2299999995905,0.003181516,583.2299999995905,0.0001103139,583.2299999995905,1.971711e-05,583.2299999995905,2.653452e-05
583.2449999995905,0.003136954,583.2449999995905,0.0001095145,583.2449999995905,2.068499e-05,583.2449999995905,2.451633e-05
583.2599999995905,0.003355546,583.2599999995905,0.0001079575,583.2599999995905,2.118694e-05,583.2599999995905,2.595863e-05
583.2749999995905,0.003594966,583.2749999995905,0.0001031448,583.2749999995905,2.127584e-05,583.2749999995905,2.591681e-05
583.2899999995905,0.003792285,583.2899999995905,8.965428e-05,583.2899999995905,2.231259e-05,583.2899999995905,2.639186e-05
583.3049999995904,0.003928575,583.3049999995904,8.714819e-05,583.3049999995904,2.250995e-05,583.3049999995904,2.668856e-05
583.3199999995904,0.004193442,583.3199999995904,8.254941e-05,583.3199999995904,2.295733e-05,583.3199999995904,2.762943e-05
583.3349999995904,0.004364874,583.3349999995904,8.901471e-05,583.3349999995904,2.327725e-05,583.3349999995904,2.765135e-05
583.3499999995904,0.004333786,583.3499999995904,0.0001144708,583.3499999995904,2.671335e-05,583.3499999995904,2.817618e-05
583.3649999995904,0.004499126,583.3649999995904,0.000131401,583.3649999995904,3.103124e-05,583.3649999995904,4.000133e-05
583.3799999995904,0.004653711,583.3799999995904,0.0001909466,583.3799999995904,3.231262e-05,583.3799999995904,4.553079e-05
583.3949999995904,0.004674095,583.3949999995904,0.000204414,583.3949999995904,3.319556e-05,583.3949999995904,6.888284e-05
583.4099999995904,0.004783252,583.4099999995904,0.0002067052,583.4099999995904,6.43316e-05,583.4099999995904,7.887611e-05
583.4249999995903,0.004811505,583.4249999995903,0.0002073642,583.4249999995903,8.812277e-05,583.4249999995903,8.607361e-05
583.4399999995903,0.004904371,583.4399999995903,0.0002074253,583.4399999995903,0.0001617875,583.4399999995903,9.634693e-05
583.4549999995903,0.00497168,583.4549999995903,0.0002076613,583.4549999995903,0.0001997621,583.4549999995903,0.0001096061
583.4699999995903,0.004926123,583.4699999995903,0.0002077206,583.4699999995903,0.0002153185,583.4699999995903,0.0001336662
583.4849999995903,0.004902428,583.4849999995903,0.0002076937,583.4849999995903,0.0002233074,583.4849999995903,0.0001723308
583.4999999995903,0.004954082,583.4999999995903,0.0002076331,583.4999999995903,0.0002283718,583.4999999995903,0.0001769368
583.5149999995903,0.004969033,583.5149999995903,0.0002077231,583.5149999995903,0.0002490198,583.5149999995903,0.00017855
583.5299999995902,0.004894231,583.5299999995902,0.0002068114,583.5299999995902,0.0002730966,583.5299999995902,0.0001796905
583.5449999995902,0.00480009,583.5449999995902,0.0002055784,583.5449999995902,0.0002938026,583.5449999995902,0.0001809286
583.5599999995902,0.004929939,583.5599999995902,0.0002049395,583.5599999995902,0.0003030553,583.5599999995902,0.0001949315
583.5749999995902,0.004978437,583.5749999995902,0.0002002965,583.5749999995902,0.0003126319,583.5749999995902,0.0002058472
583.5899999995902,0.004966683,583.5899999995902,0.00019776,583.5899999995902,0.0003131814,583.5899999995902,0.0002424683
583.6049999995902,0.004985753,583.6049999995902,0.0001819486,583.6049999995902,0.0003144822,583.6049999995902,0.0002432185
583.6199999995902,0.004914621,583.6199999995902,0.0001383263,583.6199999995902,0.0003200625,583.6199999995902,0.0002481298
583.6349999995901,0.004869952,583.6349999995901,9.899847e-05,583.6349999995901,0.0003205592,583.6349999995901,0.0002463074
583.6499999995901,0.004886432,583.6499999995901,7.16677e-05,583.6499999995901,0.000320958,583.6499999995901,0.0002474502
583.6649999995901,0.004969798,583.6649999995901,6.941515e-05,583.6649999995901,0.0003140952,583.6649999995901,0.000244459
583.6799999995901,0.005101907,583.6799999995901,7.284521e-05,583.6799999995901,0.0002930693,583.6799999995901,0.0002425905
583.6949999995901,0.005101923,583.6949999995901,7.470649e-05,583.6949999995901,0.0002722844,583.6949999995901,0.0002383892
583.7099999995901,0.005141071,583.7099999995901,7.619487e-05,583.7099999995901,0.0002438334,583.7099999995901,0.0002368179
583.7249999995901,0.005140548,583.7249999995901,8.264594e-05,583.7249999995901,0.0002355108,583.7249999995901,0.0002042532
583.73999999959,0.005032685,583.73999999959,8.355117e-05,583.73999999959,0.0002325284,583.73999999959,0.0001962981
583.75499999959,0.005083057,583.75499999959,8.413333e-05,583.75499999959,0.000228355,583.75499999959,0.0001907622
583.76999999959,0.005083057,583.76999999959,8.201956e-05,583.76999999959,0.000198407,583.76999999959,0.0001901759
583.78499999959,0.005105662,583.78499999959,8.363526e-05,583.78499999959,0.000153071,583.78499999959,0.0001891376
583.79999999959,0.005046012,583.79999999959,8.380234e-05,583.79999999959,0.0001325707,583.79999999959,0.0001810161
583.81499999959,0.004966994,583.81499999959,8.333373e-05,583.81499999959,9.41148e-05,583.81499999959,0.0001705582
583.82999999959,0.004912518,583.82999999959,8.080647e-05,583.82999999959,7.946665e-05,583.82999999959,0.0001380964
583.84499999959,0.004912518,583.84499999959,7.619745e-05,583.84499999959,7.782795e-05,583.84499999959,8.841736e-05
583.85999999959,0.004871882,583.85999999959,7.674511e-05,583.85999999959,6.518648e-05,583.85999999959,8.396187e-05
583.8749999995899,0.004736144,583.8749999995899,7.566539e-05,583.8749999995899,3.805109e-05,583.8749999995899,7.198991e-05
583.8899999995899,0.00465967,583.8899999995899,6.771152e-05,583.8899999995899,3.688943e-05,583.8899999995899,5.864692e-05
583.9049999995899,0.004535047,583.9049999995899,6.684574e-05,583.9049999995899,3.122176e-05,583.9049999995899,5.0619e-05
583.9199999995899,0.004412404,583.9199999995899,6.426062e-05,583.9199999995899,3.115356e-05,583.9199999995899,4.609288e-05
583.9349999995899,0.004224677,583.9349999995899,5.997928e-05,583.9349999995899,2.970884e-05,583.9349999995899,3.492676e-05
583.9499999995899,0.003993632,583.9499999995899,5.926814e-05,583.9499999995899,2.66262e-05,583.9499999995899,3.05951e-05
583.9649999995898,0.003909218,583.9649999995898,5.041572e-05,583.9649999995898,2.567709e-05,583.9649999995898,2.732749e-05
583.9799999995898,0.003747711,583.9799999995898,4.67366e-05,583.9799999995898,2.474112e-05,583.9799999995898,2.72304e-05
583.9949999995898,0.003672438,583.9949999995898,4.485439e-05,583.9949999995898,2.463899e-05,583.9949999995898,2.722989e-05
584.0099999995898,0.003626619,584.0099999995898,4.347619e-05,584.0099999995898,2.404876e-05,584.0099999995898,2.713765e-05
584.0249999995898,0.003589544,584.0249999995898,4.109908e-05,584.0249999995898,2.382159e-05,584.0249999995898,2.668856e-05
584.0399999995898,0.003527151,584.0399999995898,3.832186e-05,584.0399999995898,2.379141e-05,584.0399999995898,2.576363e-05
584.0549999995898,0.003533146,584.0549999995898,3.782236e-05,584.0549999995898,2.353663e-05,584.0549999995898,2.391719e-05
584.0699999995898,0.003678388,584.0699999995898,3.487873e-05,584.0699999995898,2.098451e-05,584.0699999995898,2.314494e-05
584.0849999995897,0.003472513,584.0849999995897,3.35018e-05,584.0849999995897,2.067341e-05,584.0849999995897,2.285463e-05
584.0999999995897,0.003186409,584.0999999995897,2.994404e-05,584.0999999995897,2.006343e-05,584.0999999995897,2.146765e-05
584.1149999995897,0.003031599,584.1149999995897,2.739853e-05,584.1149999995897,2.124338e-05,584.1149999995897,2.012232e-05
584.1299999995897,0.003039545,584.1299999995897,2.638599e-05,584.1299999995897,1.979838e-05,584.1299999995897,1.91635e-05
584.1449999995897,0.00296715,584.1449999995897,2.278117e-05,584.1449999995897,1.928879e-05,584.1449999995897,1.594656e-05
584.1599999995897,0.002965075,584.1599999995897,2.084306e-05,584.1599999995897,1.635734e-05,584.1599999995897,9.827426e-06
584.1749999995897,0.002867437,584.1749999995897,2.07394e-05,584.1749999995897,1.221846e-05,584.1749999995897,9.580649e-06
584.1899999995896,0.002862952,584.1899999995896,1.867733e-05,584.1899999995896,1.203609e-05,584.1899999995896,9.478654e-06
584.2049999995896,0.002852696,584.2049999995896,1.896622e-05,584.2049999995896,1.175065e-05,584.2049999995896,8.133331e-06
584.2199999995896,0.00295871,584.2199999995896,1.905736e-05,584.2199999995896,1.185448e-05,584.2199999995896,9.032722e-06
584.2349999995896,0.002992796,584.2349999995896,2.015449e-05,584.2349999995896,1.24503e-05,584.2349999995896,9.880319e-06
584.2499999995896,0.003004714,584.2499999995896,2.112701e-05,584.2499999995896,1.243445e-05,584.2499999995896,9.756936e-06
584.2649999995896,0.002787834,584.2649999995896,2.214338e-05,584.2649999995896,1.19739e-05,584.2649999995896,1.018639e-05
584.2799999995896,0.002521659,584.2799999995896,2.609664e-05,584.2799999995896,1.176622e-05,584.2799999995896,1.011422e-05
584.2949999995895,0.002466721,584.2949999995895,2.73831e-05,584.2949999995895,1.159983e-05,584.2949999995895,1.016424e-05
584.3099999995895,0.00218541,584.3099999995895,2.819068e-05,584.3099999995895,1.153651e-05,584.3099999995895,1.017394e-05
584.3249999995895,0.002003038,584.3249999995895,2.871154e-05,584.3249999995895,1.141622e-05,584.3249999995895,1.021263e-05
584.3399999995895,0.001997393,584.3399999995895,3.065168e-05,584.3399999995895,1.123337e-05,584.3399999995895,1.095015e-05
584.3549999995895,0.001985837,584.3549999995895,3.255669e-05,584.3549999995895,1.077901e-05,584.3549999995895,1.096558e-05
584.3699999995895,0.001950412,584.3699999995895,3.36365e-05,584.3699999995895,7.829767e-06,584.3699999995895,1.100661e-05
584.3849999995895,0.001943911,584.3849999995895,3.385316e-05,584.3849999995895,8.007658e-06,584.3849999995895,1.093986e-05
584.3999999995895,0.001932316,584.3999999995895,3.397984e-05,584.3999999995895,9.996546e-06,584.3999999995895,1.095658e-05
584.4149999995894,0.00190168,584.4149999995894,3.384691e-05,584.4149999995894,1.032512e-05,584.4149999995894,1.095658e-05
584.4299999995894,0.001895302,584.4299999995894,3.281571e-05,584.4299999995894,1.021539e-05,584.4299999995894,1.083766e-05
584.4449999995894,0.001872126,584.4449999995894,3.219032e-05,584.4449999995894,1.008074e-05,584.4449999995894,1.029643e-05
584.4599999995894,0.001833334,584.4599999995894,3.073108e-05,584.4599999995894,9.797278e-06,584.4599999995894,9.903105e-06
584.4749999995894,0.001420833,584.4749999995894,2.985594e-05,584.4749999995894,8.805288e-06,584.4749999995894,9.162785e-06
584.4899999995894,0.001334104,584.4899999995894,2.889592e-05,584.4899999995894,8.634045e-06,584.4899999995894,8.535592e-06
584.5049999995894,0.001143769,584.5049999995894,2.791248e-05,584.5049999995894,8.677985e-06,584.5049999995894,8.336888e-06
584.5199999995893,0.0008656124,584.5199999995893,2.528068e-05,584.5199999995893,8.703918e-06,584.5199999995893,8.109047e-06
584.5349999995893,0.0007742036,584.5349999995893,2.249556e-05,584.5349999995893,8.291141e-06,584.5349999995893,7.732004e-06
584.5499999995893,0.0007280719,584.5499999995893,2.13802e-05,584.5499999995893,7.910313e-06,584.5499999995893,7.545752e-06
584.5649999995893,0.0006305237,584.5649999995893,2.045076e-05,584.5649999995893,7.844146e-06,584.5649999995893,7.406318e-06
584.5799999995893,0.0005050076,584.5799999995893,1.999027e-05,584.5799999995893,7.879981e-06,584.5799999995893,7.314453e-06
584.5949999995893,0.000528263,584.5949999995893,1.290694e-05,584.5949999995893,7.949394e-06,584.5949999995893,6.214957e-06
584.6099999995893,0.0005557562,584.6099999995893,1.057184e-05,584.6099999995893,7.815361e-06,584.6099999995893,6.280343e-06
584.6249999995892,0.0005555618,584.6249999995892,8.11252e-06,584.6249999995892,7.85312e-06,584.6249999995892,5.910582e-06
584.6399999995892,0.0006410377,584.6399999995892,5.915346e-06,584.6399999995892,7.46882e-06,584.6399999995892,6.844875e-06
584.6549999995892,0.00078602,584.6549999995892,4.550541e-06,584.6549999995892,4.950841e-06,584.6549999995892,1.282922e-05
584.6699999995892,0.0008865306,584.6699999995892,4.615091e-06,584.6699999995892,4.142171e-06,584.6699999995892,1.695693e-05
584.6849999995892,0.0008824749,584.6849999995892,4.684768e-06,584.6849999995892,4.080498e-06,584.6849999995892,1.716582e-05
584.6999999995892,0.000896115,584.6999999995892,4.726678e-06,584.6999999995892,4.216325e-06,584.6999999995892,1.952758e-05
584.7149999995892,0.0009196579,584.7149999995892,4.696781e-06,584.7149999995892,4.279333e-06,584.7149999995892,1.996065e-05
584.7299999995892,0.0009668446,584.7299999995892,4.696781e-06,584.7299999995892,5.206033e-06,584.7299999995892,2.0095e-05
584.7449999995891,0.0009806543,584.7449999995891,4.624239e-06,584.7449999995891,5.508422e-06,584.7449999995891,2.064477e-05
584.7599999995891,0.0009725031,584.7599999995891,4.70577e-06,584.7599999995891,5.459618e-06,584.7599999995891,2.062771e-05
584.7749999995891,0.0009713929,584.7749999995891,4.714741e-06,584.7749999995891,5.410373e-06,584.7749999995891,2.065432e-05
584.7899999995891,0.0009635143,584.7899999995891,4.711753e-06,584.7899999995891,5.549188e-06,584.7899999995891,2.061541e-05
584.8049999995891,0.0009656282,584.8049999995891,4.696781e-06,584.8049999995891,5.574516e-06,584.8049999995891,2.063727e-05
584.8199999995891,0.0009718203,584.8199999995891,4.687774e-06,584.8199999995891,5.699464e-06,584.8199999995891,2.063931e-05
584.8349999995891,0.0009698623,584.8349999995891,4.726678e-06,584.8349999995891,5.518642e-06,584.8349999995891,2.067069e-05
584.849999999589,0.0009503092,584.849999999589,4.774123e-06,584.849999999589,5.451871e-06,584.849999999589,2.068363e-05
584.864999999589,0.0009579305,584.864999999589,4.726678e-06,584.864999999589,5.451871e-06,584.864999999589,2.068159e-05
584.879999999589,0.0009646768,584.879999999589,4.513241e-06,584.879999999589,5.384273e-06,584.879999999589,2.064477e-05
584.894999999589,0.0008509514,584.894999999589,4.494475e-06,584.894999999589,5.124215e-06,584.894999999589,1.977632e-05
584.909999999589,0.0007088382,584.909999999589,4.321914e-06,584.909999999589,5.792623e-06,584.909999999589,1.411232e-05
584.924999999589,0.0006306019,584.924999999589,4.936594e-06,584.924999999589,5.941484e-06,584.924999999589,1.273886e-05
584.939999999589,0.0006131844,584.939999999589,6.132817e-06,584.939999999589,5.931993e-06,584.939999999589,1.122207e-05
584.954999999589,0.0005987681,584.954999999589,6.457289e-06,584.954999999589,6.082075e-06,584.954999999589,7.72289e-06
584.9699999995889,0.0005406349,584.9699999995889,7.256447e-06,584.9699999995889,6.189974e-06,584.9699999995889,7.27777e-06
584.9849999995889,0.000487047,584.9849999995889,7.556945e-06,584.9849999995889,6.828391e-06,584.9849999995889,6.208153e-06
584.9999999995889,0.0005416296,584.9999999995889,7.560672e-06,584.9999999995889,1.199858e-05,584.9999999995889,5.539025e-06
585.0149999995889,0.0005675771,585.0149999995889,7.519571e-06,585.0149999995889,1.831173e-05,585.0149999995889,5.326404e-06
585.0299999995889,0.000602462,585.0299999995889,7.52706e-06,585.0299999995889,2.120554e-05,585.0299999995889,5.230329e-06
585.0449999995889,0.0007194455,585.0449999995889,7.474476e-06,585.0449999995889,5.241252e-05,585.0449999995889,5.34752e-06
585.0599999995889,0.0007295812,585.0599999995889,7.491418e-06,585.0599999995889,7.655084e-05,585.0599999995889,5.629835e-06
585.0749999995888,0.0007969043,585.0749999995888,7.434793e-06,585.0749999995888,7.789127e-05,585.0749999995888,5.797484e-06
585.0899999995888,0.0008155973,585.0899999995888,7.519571e-06,585.0899999995888,8.016027e-05,585.0899999995888,5.652309e-06
585.1049999995888,0.0008314167,585.1049999995888,7.489538e-06,585.1049999995888,8.293027e-05,585.1049999995888,5.704405e-06
585.1199999995888,0.0008363507,585.1199999995888,7.474476e-06,585.1199999995888,8.470984e-05,585.1199999995888,5.773135e-06
585.1349999995888,0.0008438245,585.1349999995888,7.438582e-06,585.1349999995888,9.410417e-05,585.1349999995888,5.853103e-06
585.1499999995888,0.0008440391,585.1499999995888,7.429107e-06,585.1499999995888,0.0001023203,585.1499999995888,5.95096e-06
585.1649999995888,0.0008420456,585.1649999995888,7.015617e-06,585.1649999995888,0.0001030187,585.1649999995888,6.03324e-06
585.1799999995887,0.0008456865,585.1799999995887,6.056544e-06,585.1799999995887,0.0001045396,585.1799999995887,6.005157e-06
585.1949999995887,0.0008525937,585.1949999995887,4.919443e-06,585.1949999995887,0.0001069128,585.1949999995887,5.974584e-06
585.2099999995887,0.0008593784,585.2099999995887,4.684768e-06,585.2099999995887,0.0001081828,585.2099999995887,5.833818e-06
585.2249999995887,0.0008609401,585.2249999995887,3.131187e-06,585.2249999995887,0.0001085094,585.2249999995887,5.853103e-06
585.2399999995887,0.0008488449,585.2399999995887,3.162522e-06,585.2399999995887,0.0001084042,585.2399999995887,5.869926e-06
585.2549999995887,0.0008182386,585.2549999995887,3.206755e-06,585.2549999995887,0.0001073771,585.2549999995887,5.812045e-06
585.2699999995887,0.0008288644,585.2699999995887,3.021286e-06,585.2699999995887,0.0001061221,585.2699999995887,6.021555e-06
585.2849999995886,0.0007350705,585.2849999995886,2.969556e-06,585.2849999995886,0.0001048081,585.2849999995886,6.082075e-06
585.2999999995886,0.0006249118,585.2999999995886,2.988471e-06,585.2999999995886,8.668808e-05,585.2999999995886,5.912964e-06
585.3149999995886,0.0006369916,585.3149999995886,2.907234e-06,585.3149999995886,7.171898e-05,585.3149999995886,6.535352e-06
585.3299999995886,0.0006080995,585.3299999995886,3.007266e-06,585.3299999995886,7.109896e-05,585.3299999995886,7.00557e-06
585.3449999995886,0.0006368402,585.3449999995886,2.768241e-06,585.3449999995886,6.973545e-05,585.3449999995886,9.828859e-06
585.3599999995886,0.0006485676,585.3599999995886,2.808655e-06,585.3599999995886,6.847941e-05,585.3599999995886,1.100917e-05
585.3749999995886,0.0006497235,585.3749999995886,2.974296e-06,585.3749999995886,6.538584e-05,585.3749999995886,1.196095e-05
585.3899999995886,0.0007405756,585.3899999995886,3.162522e-06,585.3899999995886,4.688285e-05,585.3899999995886,1.310837e-05
585.4049999995885,0.0007590804,585.4049999995885,3.254718e-06,585.4049999995885,2.997507e-05,585.4049999995885,1.334164e-05
585.4199999995885,0.0007609556,585.4199999995885,3.406967e-06,585.4199999995885,2.919853e-05,585.4199999995885,1.355636e-05
585.4349999995885,0.0007432895,585.4349999995885,3.419349e-06,585.4349999995885,2.545172e-05,585.4349999995885,1.368666e-05
585.4499999995885,0.0007324748,585.4499999995885,3.500774e-06,585.4499999995885,1.792297e-05,585.4499999995885,1.372264e-05
585.4649999995885,0.0007230613,585.4649999995885,3.504795e-06,585.4649999995885,2.372797e-05,585.4649999995885,1.367018e-05
585.4799999995885,0.0007207752,585.4799999995885,3.516832e-06,585.4799999995885,3.882292e-05,585.4799999995885,1.367431e-05
585.4949999995885,0.0007198613,585.4949999995885,3.556662e-06,585.4949999995885,4.028102e-05,585.4949999995885,1.368254e-05
585.5099999995884,0.0007113444,585.5099999995884,5.667242e-06,585.5099999995884,4.03006e-05,585.5099999995884,1.3632e-05
585.5249999995884,0.0006902628,585.5249999995884,8.859515e-06,585.5249999995884,4.186686e-05,585.5249999995884,1.347925e-05
585.5399999995884,0.0006878506,585.5399999995884,8.971695e-06,585.5399999995884,5.310167e-05,585.5399999995884,1.346565e-05
585.5549999995884,0.0007043246,585.5549999995884,9.315255e-06,585.5549999995884,6.35433e-05,585.5549999995884,1.342374e-05
585.5699999995884,0.0006836733,585.5699999995884,9.475681e-06,585.5699999995884,6.577528e-05,585.5699999995884,1.312663e-05
585.5849999995884,0.0007004258,585.5849999995884,9.573294e-06,585.5849999995884,6.616284e-05,585.5849999995884,1.243445e-05
585.5999999995884,0.0006051424,585.5999999995884,9.658262e-06,585.5999999995884,6.809923e-05,585.5999999995884,1.008912e-05
585.6149999995883,0.0006145303,585.6149999995883,9.903105e-06,585.6149999995883,6.992326e-05,585.6149999995883,9.195013e-06
585.6299999995883,0.0005635127,585.6299999995883,1.088952e-05,585.6299999995883,7.069742e-05,585.6299999995883,7.644054e-06
585.6449999995883,0.0004005839,585.6449999995883,1.116544e-05,585.6449999995883,7.083735e-05,585.6449999995883,5.931993e-06
585.6599999995883,0.0003873867,585.6599999995883,1.211658e-05,585.6599999995883,7.080732e-05,585.6599999995883,5.48279e-06
585.6749999995883,0.0003871156,585.6749999995883,1.231034e-05,585.6749999995883,7.065316e-05,585.6749999995883,5.165286e-06
585.6899999995883,0.0003869297,585.6899999995883,1.233435e-05,585.6899999995883,7.051347e-05,585.6899999995883,5.12971e-06
585.7049999995883,0.0003872358,585.7049999995883,1.235945e-05,585.7049999995883,7.043311e-05,585.7049999995883,5.015856e-06
585.7199999995883,0.0003921445,585.7199999995883,1.239473e-05,585.7199999995883,6.425755e-05,585.7199999995883,4.998978e-06
585.7349999995882,0.0003938006,585.7349999995882,1.235603e-05,585.7349999995882,5.761925e-05,585.7349999995882,5.029879e-06
585.7499999995882,0.0004045442,585.7499999995882,1.200093e-05,585.7499999995882,5.669877e-05,585.7499999995882,5.132455e-06
585.7649999995882,0.0004166044,585.7649999995882,9.688843e-06,585.7649999995882,5.648295e-05,585.7649999995882,5.462197e-06
585.7799999995882,0.0004036761,585.7799999995882,9.254569e-06,585.7799999995882,5.455126e-05,585.7799999995882,6.665538e-06
585.7949999995882,0.0004332128,585.7949999995882,9.222548e-06,585.7949999995882,4.188738e-05,585.7949999995882,7.808148e-06
585.8099999995882,0.0004574289,585.8099999995882,8.818078e-06,585.8099999995882,2.589615e-05,585.8099999995882,7.753835e-06
585.8249999995882,0.000457887,585.8249999995882,8.69096e-06,585.8249999995882,2.254934e-05,585.8249999995882,7.601551e-06
585.8399999995881,0.0004434925,585.8399999995881,8.5866e-06,585.8399999995881,2.233972e-05,585.8399999995881,7.940529e-06
585.8549999995881,0.0004342599,585.8549999995881,8.563602e-06,585.8549999995881,1.75561e-05,585.8549999995881,8.162721e-06
585.8699999995881,0.0004327572,585.8699999995881,7.375824e-06,585.8699999995881,1.229775e-05,585.8699999995881,8.282642e-06
585.8849999995881,0.0004408918,585.8849999995881,7.186222e-06,585.8849999995881,9.187351e-06,585.8849999995881,8.348708e-06
585.8999999995881,0.0004441371,585.8999999995881,6.53104e-06,585.8999999995881,8.362194e-06,585.8999999995881,8.492574e-06
585.9149999995881,0.0004570867,585.9149999995881,5.088352e-06,585.9149999995881,8.350395e-06,585.9149999995881,8.517419e-06
585.9299999995881,0.0004771097,585.9299999995881,4.824024e-06,585.9299999995881,8.854743e-06,585.9299999995881,8.548785e-06
585.944999999588,0.000488701,585.944999999588,4.756387e-06,585.944999999588,8.674737e-06,585.944999999588,8.583318e-06
585.959999999588,0.0004971485,585.959999999588,4.729657e-06,585.959999999588,9.50833e-06,585.959999999588,8.723317e-06
585.974999999588,0.0004934957,585.974999999588,4.699779e-06,585.974999999588,9.86034e-06,585.974999999588,8.733001e-06
585.989999999588,0.0005030602,585.989999999588,4.68176e-06,585.989999999588,9.837455e-06,585.989999999588,9.259134e-06
586.004999999588,0.0004972837,586.004999999588,5.063375e-06,586.004999999588,1.017255e-05,586.004999999588,9.242383e-06
586.019999999588,0.000491954,586.019999999588,5.539025e-06,586.019999999588,1.028958e-05,586.019999999588,9.131986e-06
586.034999999588,0.0004835813,586.034999999588,6.137409e-06,586.034999999588,9.973975e-06,586.034999999588,8.202317e-06
586.049999999588,0.0004611446,586.049999999588,6.342836e-06,586.049999999588,9.910215e-06,586.049999999588,7.90675e-06
586.0649999995879,0.0004243523,586.0649999995879,6.327271e-06,586.0649999995879,9.713527e-06,586.0649999995879,8.136793e-06
586.0799999995879,0.0004083733,586.0799999995879,6.376062e-06,586.0799999995879,9.914478e-06,586.0799999995879,8.197163e-06
586.0949999995879,0.000392721,586.0949999995879,6.380479e-06,586.0949999995879,9.951351e-06,586.0949999995879,8.115992e-06
586.1099999995879,0.0003889867,586.1099999995879,6.703471e-06,586.1099999995879,1.122835e-05,586.1099999995879,8.095138e-06
586.1249999995879,0.0003845723,586.1249999995879,6.869526e-06,586.1249999995879,1.282482e-05,586.1249999995879,7.984756e-06
586.1399999995879,0.0003625301,586.1399999995879,6.275856e-06,586.1399999995879,1.283471e-05,586.1399999995879,8.021719e-06
586.1549999995879,0.0003563215,586.1549999995879,6.371642e-06,586.1549999995879,1.318552e-05,586.1549999995879,8.053266e-06
586.1699999995878,0.0003277182,586.1699999995878,6.520246e-06,586.1699999995878,1.355636e-05,586.1699999995878,8.019962e-06
586.1849999995878,0.0003033622,586.1849999995878,8.294538e-06,586.1849999995878,1.436656e-05,586.1849999995878,8.02523e-06
586.1999999995878,0.0002954451,586.1999999995878,8.749116e-06,586.1999999995878,1.735678e-05,586.1999999995878,7.97063e-06
586.2149999995878,0.0002796364,586.2149999995878,8.724932e-06,586.2149999995878,1.793004e-05,586.2149999995878,7.863876e-06
586.2299999995878,0.0002903668,586.2299999995878,8.749116e-06,586.2299999995878,1.798182e-05,586.2299999995878,7.863876e-06
586.2449999995878,0.0002884654,586.2449999995878,8.710389e-06,586.2449999995878,1.826706e-05,586.2449999995878,7.123218e-06
586.2599999995878,0.0002339956,586.2599999995878,8.637307e-06,586.2599999995878,1.803579e-05,586.2599999995878,6.718165e-06
586.2749999995877,0.0002248298,586.2749999995877,8.734614e-06,586.2749999995877,1.803813e-05,586.2749999995877,6.728641e-06
586.2899999995877,0.0002283681,586.2899999995877,9.121181e-06,586.2899999995877,1.8377e-05,586.2899999995877,6.614623e-06
586.3049999995877,0.0002440306,586.3049999995877,9.253046e-06,586.3049999995877,1.845807e-05,586.3049999995877,6.446372e-06
586.3199999995877,0.0002598989,586.3199999995877,9.94427e-06,586.3199999995877,1.831019e-05,586.3199999995877,6.417902e-06
586.3349999995877,0.0002627934,586.3349999995877,1.022917e-05,586.3349999995877,1.779519e-05,586.3349999995877,6.318359e-06
586.3499999995877,0.0002531907,586.3499999995877,1.024568e-05,586.3499999995877,1.698764e-05,586.3499999995877,5.726587e-06
586.3649999995877,0.0002519035,586.3649999995877,1.009889e-05,586.3649999995877,1.617983e-05,586.3649999995877,5.60727e-06
586.3799999995877,0.0002734612,586.3799999995877,9.945687e-06,586.3799999995877,1.69536e-05,586.3799999995877,5.574516e-06
586.3949999995876,0.0002849918,586.3949999995876,9.91874e-06,586.3949999995876,1.75304e-05,586.3949999995876,5.464775e-06
586.4099999995876,0.0002912699,586.4099999995876,9.710626e-06,586.4099999995876,1.689201e-05,586.4099999995876,5.571988e-06
586.4249999995876,0.0002913918,586.4249999995876,9.40555e-06,586.4249999995876,1.690618e-05,586.4249999995876,5.503306e-06
586.4399999995876,0.0002941862,586.4399999995876,8.103833e-06,586.4399999995876,1.288509e-05,586.4399999995876,5.589657e-06
586.4549999995876,0.0003003709,586.4549999995876,7.69548e-06,586.4549999995876,1.36846e-05,586.4549999995876,5.751133e-06
586.4699999995876,0.0003073677,586.4699999995876,7.653262e-06,586.4699999995876,1.2838e-05,586.4699999995876,5.797484e-06
586.4849999995876,0.00031369,586.4849999995876,7.634834e-06,586.4849999995876,1.310837e-05,586.4849999995876,5.962784e-06
586.4999999995875,0.000329944,586.4999999995875,7.597844e-06,586.4999999995875,1.456231e-05,586.4999999995875,6.05887e-06
586.5149999995875,0.0003398485,586.5149999995875,7.203842e-06,586.5149999995875,1.454295e-05,586.5149999995875,6.169459e-06
586.5299999995875,0.000338572,586.5299999995875,6.393712e-06,586.5299999995875,1.454295e-05,586.5299999995875,5.958057e-06
586.5449999995875,0.000364539,586.5449999995875,5.495621e-06,586.5449999995875,1.441453e-05,586.5449999995875,6.035575e-06
586.5599999995875,0.000342964,586.5599999995875,4.916579e-06,586.5599999995875,1.433712e-05,586.5599999995875,5.893875e-06
586.5749999995875,0.0003418478,586.5749999995875,3.382069e-06,586.5749999995875,1.421674e-05,586.5749999995875,5.865124e-06
586.5899999995875,0.0003464921,586.5899999995875,3.189136e-06,586.5899999995875,1.459323e-05,586.5899999995875,5.853103e-06
586.6049999995874,0.0003490673,586.6049999995874,4.405843e-06,586.6049999995874,1.470478e-05,586.6049999995874,5.941484e-06
586.6199999995874,0.0003658015,586.6199999995874,4.289197e-06,586.6199999995874,1.413127e-05,586.6199999995874,5.93674e-06
586.6349999995874,0.0003550597,586.6349999995874,4.305587e-06,586.6349999995874,1.327602e-05,586.6349999995874,6.079758e-06
586.6499999995874,0.0003405413,586.6499999995874,5.157098e-06,586.6499999995874,1.290148e-05,586.6499999995874,5.95096e-06
586.6649999995874,0.0003407075,586.6649999995874,5.622323e-06,586.6649999995874,1.28665e-05,586.6649999995874,5.855509e-06
586.6799999995874,0.0003450348,586.6799999995874,5.826569e-06,586.6799999995874,1.28391e-05,586.6799999995874,6.567604e-06
586.6949999995874,0.0004586591,586.6949999995874,5.826569e-06,586.6949999995874,1.274439e-05,586.6949999995874,8.795684e-06
586.7099999995874,0.0004892834,586.7099999995874,5.841057e-06,586.7099999995874,1.222422e-05,586.7099999995874,9.825992e-06
586.7249999995873,0.0006039396,586.7249999995873,5.867525e-06,586.7249999995873,1.364337e-05,586.7249999995873,1.340064e-05
586.7399999995873,0.00069697,586.7399999995873,5.877121e-06,586.7399999995873,1.262222e-05,586.7399999995873,1.451775e-05
586.7549999995873,0.0007047765,586.7549999995873,5.922486e-06,586.7549999995873,1.184497e-05,586.7549999995873,1.469903e-05
586.7699999995873,0.0007108963,586.7699999995873,5.929618e-06,586.7699999995873,1.222076e-05,586.7699999995873,1.478694e-05
586.7849999995873,0.0007256931,586.7849999995873,6.095956e-06,586.7849999995873,1.226449e-05,586.7849999995873,1.552492e-05
586.7999999995873,0.0008663249,586.7999999995873,6.089019e-06,586.7999999995873,1.185567e-05,586.7999999995873,1.928514e-05
586.8149999995873,0.0009746089,586.8149999995873,6.114414e-06,586.8149999995873,1.177579e-05,586.8149999995873,2.066796e-05
586.8299999995872,0.00100331,586.8299999995872,6.19225e-06,586.8299999995872,1.18295e-05,586.8299999995872,2.088425e-05
586.8449999995872,0.001013679,586.8449999995872,6.160319e-06,586.8449999995872,1.164467e-05,586.8449999995872,2.140588e-05
586.8599999995872,0.001017493,586.8599999995872,5.407768e-06,586.8599999995872,1.230577e-05,586.8599999995872,2.154755e-05
586.8749999995872,0.001015087,586.8749999995872,5.384273e-06,586.8749999995872,1.199623e-05,586.8749999995872,2.155017e-05
586.8899999995872,0.001017007,586.8899999995872,5.270573e-06,586.8899999995872,1.203726e-05,586.8899999995872,2.166231e-05
586.9049999995872,0.00102819,586.9049999995872,4.279333e-06,586.9049999995872,1.251237e-05,586.9049999995872,2.167401e-05
586.9199999995872,0.001026632,586.9199999995872,5.931993e-06,586.9199999995872,1.376261e-05,586.9199999995872,2.174992e-05
586.9349999995871,0.001028543,586.9349999995871,7.99181e-06,586.9349999995871,1.508964e-05,586.9349999995871,2.140588e-05
586.9499999995871,0.0009766852,586.9499999995871,8.270727e-06,586.9499999995871,1.518363e-05,586.9499999995871,2.036794e-05
586.9649999995871,0.0009722809,586.9649999995871,9.20267e-06,586.9649999995871,1.493481e-05,586.9649999995871,1.97071e-05
586.9799999995871,0.0008681233,586.9799999995871,9.251524e-06,586.9799999995871,1.339958e-05,586.9799999995871,1.726075e-05
586.9949999995871,0.0008013532,586.9949999995871,1.006816e-05,586.9949999995871,1.317376e-05,586.9949999995871,1.671933e-05
587.0099999995871,0.0007995782,587.0099999995871,1.037819e-05,587.0099999995871,1.342584e-05,587.0099999995871,1.664926e-05
587.0249999995871,0.0007899121,587.0249999995871,1.041207e-05,587.0249999995871,1.311804e-05,587.0249999995871,1.663148e-05
587.039999999587,0.0007512382,587.039999999587,1.042153e-05,587.039999999587,1.309439e-05,587.039999999587,1.452066e-05
587.054999999587,0.0006099769,587.054999999587,1.045123e-05,587.054999999587,1.308578e-05,587.054999999587,1.029643e-05
587.069999999587,0.0004463998,587.069999999587,1.063825e-05,587.069999999587,1.307932e-05,587.069999999587,7.594135e-06
587.084999999587,0.0004619923,587.084999999587,1.11174e-05,587.084999999587,1.333002e-05,587.084999999587,7.379642e-06
587.099999999587,0.0004486368,587.099999999587,1.137914e-05,587.099999999587,1.285445e-05,587.099999999587,6.376062e-06
587.114999999587,0.0005066122,587.114999999587,1.197037e-05,587.114999999587,1.18414e-05,587.114999999587,6.463831e-06
587.129999999587,0.0005076755,587.129999999587,1.214213e-05,587.129999999587,1.160468e-05,587.129999999587,6.618881e-06
587.144999999587,0.0005411784,587.144999999587,1.212936e-05,587.144999999587,1.20068e-05,587.144999999587,6.936866e-06
587.159999999587,0.0005379567,587.159999999587,1.201266e-05,587.159999999587,1.41223e-05,587.159999999587,7.035667e-06
587.1749999995869,0.0005739266,587.1749999995869,1.078684e-05,587.1749999995869,1.291131e-05,587.1749999995869,8.352081e-06
587.1899999995869,0.000631872,587.1899999995869,9.767037e-06,587.1899999995869,1.168814e-05,587.1899999995869,9.848904e-06
587.2049999995869,0.000646722,587.2049999995869,8.750726e-06,587.2049999995869,1.130213e-05,587.2049999995869,9.775687e-06
587.2199999995869,0.0006487801,587.2199999995869,8.581677e-06,587.2199999995869,1.255059e-05,587.2199999995869,1.028958e-05
587.2349999995869,0.0006567513,587.2349999995869,8.461e-06,587.2349999995869,1.250336e-05,587.2349999995869,1.041071e-05
587.2499999995869,0.0006629077,587.2499999995869,7.451826e-06,587.2499999995869,1.225299e-05,587.2499999995869,1.037276e-05
587.2649999995868,0.0006783862,587.2649999995868,7.142966e-06,587.2649999995868,1.198683e-05,587.2649999995868,1.037411e-05
587.2799999995868,0.0006842031,587.2799999995868,7.178377e-06,587.2799999995868,1.196448e-05,587.2799999995868,1.041883e-05
587.2949999995868,0.0006881058,587.2949999995868,7.077588e-06,587.2949999995868,1.195506e-05,587.2949999995868,1.037683e-05
587.3099999995868,0.0006845374,587.3099999995868,7.063642e-06,587.3099999995868,1.195742e-05,587.3099999995868,1.047008e-05
587.3249999995868,0.0006702419,587.3249999995868,6.051891e-06,587.3249999995868,1.186636e-05,587.3249999995868,1.044718e-05
587.3399999995868,0.0006587604,587.3399999995868,5.729046e-06,587.3399999995868,1.161197e-05,587.3399999995868,1.034556e-05
587.3549999995868,0.0006294293,587.3549999995868,4.806471e-06,587.3549999995868,1.160711e-05,587.3549999995868,1.038497e-05
587.3699999995868,0.0006037544,587.3699999995868,3.241707e-06,587.3699999995868,1.138656e-05,587.3699999995868,1.038633e-05
587.3849999995867,0.0005992294,587.3849999995867,2.940956e-06,587.3849999995867,1.092697e-05,587.3849999995867,1.048621e-05
587.3999999995867,0.0005516611,587.3999999995867,2.945742e-06,587.3999999995867,1.005976e-05,587.3999999995867,1.027725e-05
587.4149999995867,0.0005347662,587.4149999995867,2.936162e-06,587.4149999995867,6.498606e-06,587.4149999995867,9.767037e-06
587.4299999995867,0.0005115561,587.4299999995867,3.011947e-06,587.4299999995867,6.524566e-06,587.4299999995867,8.653601e-06
587.4449999995867,0.0004104694,587.4449999995867,3.058359e-06,587.4449999995867,6.428867e-06,587.4449999995867,7.41962e-06
587.4599999995867,0.0004175153,587.4599999995867,3.053749e-06,587.4599999995867,5.291911e-06,587.4599999995867,7.543885e-06
587.4749999995867,0.0004310618,587.4749999995867,3.081303e-06,587.4749999995867,2.600309e-06,587.4749999995867,7.035667e-06
587.4899999995866,0.0004296996,587.4899999995866,3.228645e-06,587.4899999995866,2.54002e-06,587.4899999995866,6.778699e-06
587.5049999995866,0.000510676,587.5049999995866,3.323245e-06,587.5049999995866,2.701278e-06,587.5049999995866,7.246734e-06
587.5199999995866,0.0005790656,587.5199999995866,3.82387e-06,587.5199999995866,2.711688e-06,587.5199999995866,7.829767e-06
587.5349999995866,0.0005734104,587.5349999995866,4.615091e-06,587.5349999995866,3.053749e-06,587.5349999995866,9.913058e-06
587.5499999995866,0.0005917242,587.5499999995866,5.275916e-06,587.5499999995866,3.171418e-06,587.5499999995866,1.208981e-05
587.5649999995866,0.0007060056,587.5649999995866,6.922637e-06,587.5649999995866,3.386231e-06,587.5649999995866,1.228973e-05
587.5799999995866,0.0007446771,587.5799999995866,9.023361e-06,587.5799999995866,3.564574e-06,587.5799999995866,1.277089e-05
587.5949999995865,0.0007502522,587.5949999995865,9.087142e-06,587.5949999995865,5.041069e-06,587.5949999995865,1.278081e-05
587.6099999995865,0.0008651663,587.6099999995865,1.132578e-05,587.6099999995865,6.068162e-06,587.6099999995865,1.402219e-05
587.6249999995865,0.0009156269,587.6249999995865,1.256293e-05,587.6249999995865,6.300498e-06,587.6249999995865,1.447402e-05
587.6399999995865,0.0009170212,587.6399999995865,1.269011e-05,587.6399999995865,6.518086e-06,587.6399999995865,1.671933e-05
587.6549999995865,0.0009936186,587.6549999995865,1.359061e-05,587.6549999995865,6.606099e-06,587.6549999995865,1.727951e-05
587.6699999995865,0.001129723,587.6699999995865,1.391834e-05,587.6699999995865,6.705572e-06,587.6699999995865,1.738111e-05
587.6849999995865,0.001128511,587.6849999995865,1.491499e-05,587.6849999995865,6.890002e-06,587.6849999995865,1.81316e-05
587.6999999995865,0.001128357,587.6999999995865,1.492821e-05,587.6999999995865,6.981399e-06,587.6999999995865,1.87007e-05
587.7149999995864,0.001116885,587.7149999995864,1.520681e-05,587.7149999995864,7.203842e-06,587.7149999995864,1.867507e-05
587.7299999995864,0.001206213,587.7299999995864,1.527336e-05,587.7299999995864,7.266147e-06,587.7299999995864,1.865998e-05
587.7449999995864,0.001217944,587.7449999995864,1.547312e-05,587.7449999995864,7.689987e-06,587.7449999995864,1.884626e-05
587.7599999995864,0.001150783,587.7599999995864,1.546492e-05,587.7599999995864,8.255384e-06,587.7599999995864,1.885448e-05
587.7749999995864,0.001138514,587.7749999995864,1.542844e-05,587.7749999995864,8.241723e-06,587.7749999995864,1.865242e-05
587.7899999995864,0.001141878,587.7899999995864,1.519476e-05,587.7899999995864,8.202317e-06,587.7899999995864,1.784183e-05
587.8049999995864,0.001119264,587.8049999995864,1.498002e-05,587.8049999995864,8.212614e-06,587.8049999995864,1.685277e-05
587.8199999995863,0.001044503,587.8199999995863,1.376261e-05,587.8199999995863,8.287742e-06,587.8199999995863,1.694612e-05
587.8349999995863,0.001051846,587.8349999995863,1.369901e-05,587.8349999995863,7.831566e-06,587.8349999995863,1.680086e-05
587.8499999995863,0.001126403,587.8499999995863,1.26512e-05,587.8499999995863,7.377733e-06,587.8499999995863,1.664503e-05
587.8649999995863,0.001051122,587.8649999995863,1.135187e-05,587.8649999995863,6.543968e-06,587.8649999995863,1.620419e-05
587.8799999995863,0.001212167,587.8799999995863,1.067922e-05,587.8799999995863,6.507271e-06,587.8799999995863,1.560547e-05
587.8949999995863,0.001259328,587.8949999995863,1.028137e-05,587.8949999995863,6.561167e-06,587.8949999995863,1.323989e-05
587.9099999995863,0.001151241,587.9099999995863,9.165859e-06,587.9099999995863,6.498606e-06,587.9099999995863,1.307609e-05
587.9249999995862,0.001055946,587.9249999995862,8.849969e-06,587.9249999995862,6.472542e-06,587.9249999995862,1.305669e-05
587.9399999995862,0.001056443,587.9399999995862,7.172487e-06,587.9399999995862,6.42229e-06,587.9399999995862,1.203258e-05
587.9549999995862,0.00105371,587.9549999995862,6.908378e-06,587.9549999995862,6.180865e-06,587.9549999995862,1.175424e-05
587.9699999995862,0.001045241,587.9699999995862,6.690851e-06,587.9699999995862,6.056544e-06,587.9699999995862,1.205597e-05
587.9849999995862,0.001010839,587.9849999995862,6.446372e-06,587.9849999995862,5.984008e-06,587.9849999995862,1.187941e-05
587.9999999995862,0.00101321,587.9999999995862,5.893875e-06,587.9999999995862,4.984868e-06,587.9999999995862,1.165918e-05
588.0149999995862,0.001013167,588.0149999995862,5.768253e-06,588.0149999995862,4.618143e-06,588.0149999995862,1.118813e-05
588.0299999995862,0.001033689,588.0299999995862,5.795054e-06,588.0299999995862,4.503868e-06,588.0299999995862,1.106533e-05
588.0449999995861,0.00106859,588.0449999995861,5.903427e-06,588.0449999995861,4.469331e-06,588.0449999995861,1.024431e-05
588.0599999995861,0.001094636,588.0599999995861,5.768253e-06,588.0599999995861,4.456705e-06,588.0599999995861,9.874615e-06
588.0749999995861,0.001117274,588.0749999995861,5.085583e-06,588.0749999995861,4.29576e-06,588.0749999995861,9.907371e-06
588.0899999995861,0.001104858,588.0899999995861,4.48192e-06,588.0899999995861,4.262842e-06,588.0899999995861,1.001907e-05
588.1049999995861,0.00100335,588.1049999995861,4.69378e-06,588.1049999995861,4.101159e-06,588.1049999995861,9.878894e-06
588.1199999995861,0.0009350539,588.1199999995861,4.612038e-06,588.1199999995861,4.073587e-06,588.1199999995861,8.121197e-06
588.1349999995861,0.0007027832,588.1349999995861,4.559819e-06,588.1349999995861,3.947135e-06,588.1349999995861,7.306746e-06
588.149999999586,0.0006435461,588.149999999586,4.759348e-06,588.149999999586,3.925663e-06,588.149999999586,7.333686e-06
588.164999999586,0.0006696886,588.164999999586,4.782967e-06,588.164999999586,4.179412e-06,588.164999999586,6.993494e-06
588.179999999586,0.0006710796,588.179999999586,4.782967e-06,588.179999999586,3.86418e-06,588.179999999586,6.673986e-06
588.194999999586,0.0006956878,588.194999999586,4.744526e-06,588.194999999586,3.845909e-06,588.194999999586,6.749543e-06
588.209999999586,0.0007022132,588.209999999586,4.602866e-06,588.209999999586,3.827552e-06,588.209999999586,6.298262e-06
588.224999999586,0.0007023136,588.224999999586,4.415424e-06,588.224999999586,3.723076e-06,588.224999999586,5.972226e-06
588.239999999586,0.0006119407,588.239999999586,4.35115e-06,588.239999999586,3.642754e-06,588.239999999586,5.93674e-06
588.254999999586,0.0005945247,588.254999999586,4.531929e-06,588.254999999586,3.599965e-06,588.254999999586,5.901041e-06
588.2699999995859,0.000597085,588.2699999995859,5.132455e-06,588.2699999995859,3.627253e-06,588.2699999995859,5.622323e-06
588.2849999995859,0.000582092,588.2849999995859,6.08439e-06,588.2849999995859,3.696496e-06,588.2849999995859,5.662269e-06
588.2999999995859,0.000569521,588.2999999995859,6.16489e-06,588.2999999995859,3.57641e-06,588.2999999995859,5.741327e-06
588.3149999995859,0.0005253819,588.3149999995859,6.894089e-06,588.3149999995859,3.271984e-06,588.3149999995859,5.724127e-06
588.3299999995859,0.0004938262,588.3299999995859,7.279705e-06,588.3299999995859,3.310505e-06,588.3299999995859,6.016875e-06
588.3449999995859,0.0004942053,588.3449999995859,7.318304e-06,588.3449999995859,3.280583e-06,588.3449999995859,5.804769e-06
588.3599999995859,0.0004748853,588.3599999995859,7.099447e-06,588.3599999995859,3.206755e-06,588.3599999995859,5.843468e-06
588.3749999995858,0.0006378542,588.3749999995858,7.117283e-06,588.3749999995858,3.081303e-06,588.3749999995858,6.795303e-06
588.3899999995858,0.0006598433,588.3899999995858,7.091506e-06,588.3899999995858,3.11314e-06,588.3899999995858,7.125195e-06
588.4049999995858,0.0006599212,588.4049999995858,6.934835e-06,588.4049999995858,3.021286e-06,588.4049999995858,6.987449e-06
588.4199999995858,0.0006560122,588.4199999995858,6.924671e-06,588.4199999995858,2.798606e-06,588.4199999995858,7.1921e-06
588.4349999995858,0.0006333317,588.4349999995858,6.951067e-06,588.4349999995858,2.940956e-06,588.4349999995858,7.472591e-06
588.4499999995858,0.0006197944,588.4499999995858,6.940926e-06,588.4499999995858,2.926552e-06,588.4499999995858,7.655103e-06
588.4649999995858,0.0006277551,588.4649999995858,6.930771e-06,588.4649999995858,2.878015e-06,588.4649999995858,7.786468e-06
588.4799999995857,0.0006680187,588.4799999995857,6.947012e-06,588.4799999995857,2.897527e-06,588.4799999995857,7.791894e-06
588.4949999995857,0.0006915447,588.4949999995857,6.993494e-06,588.4949999995857,2.892662e-06,588.4949999995857,7.887128e-06
588.5099999995857,0.0007094631,588.5099999995857,6.759971e-06,588.5099999995857,2.863294e-06,588.5099999995857,7.885342e-06
588.5249999995857,0.0007034488,588.5249999995857,5.812045e-06,588.5249999995857,2.808655e-06,588.5249999995857,7.935205e-06
588.5399999995857,0.0007128742,588.5399999995857,5.143422e-06,588.5399999995857,2.758045e-06,588.5399999995857,7.899621e-06
588.5549999995857,0.0008078028,588.5549999995857,4.771172e-06,588.5549999995857,2.808655e-06,588.5549999995857,7.782849e-06
588.5699999995857,0.0008517005,588.5699999995857,3.753223e-06,588.5699999995857,2.858369e-06,588.5699999995857,7.808148e-06
588.5849999995856,0.0008845273,588.5849999995856,3.162522e-06,588.5849999995856,2.808655e-06,588.5849999995856,7.532673e-06
588.5999999995856,0.0009767228,588.5999999995856,2.945742e-06,588.5999999995856,3.11314e-06,588.5999999995856,7.568121e-06
588.6149999995856,0.001065799,588.6149999995856,3.049133e-06,588.6149999995856,3.228645e-06,588.6149999995856,7.237009e-06
588.6299999995856,0.001035199,588.6299999995856,3.439886e-06,588.6299999995856,3.377901e-06,588.6299999995856,6.861319e-06
588.6449999995856,0.001054779,588.6449999995856,3.696496e-06,588.6449999995856,4.308857e-06,588.6449999995856,6.500773e-06
588.6599999995856,0.001044398,588.6599999995856,3.73818e-06,588.6599999995856,5.024275e-06,588.6599999995856,6.58688e-06
588.6749999995856,0.001036451,588.6749999995856,3.719291e-06,588.6749999995856,5.118714e-06,588.6749999995856,6.21269e-06
588.6899999995856,0.001063666,588.6899999995856,3.801702e-06,588.6899999995856,5.344885e-06,588.6899999995856,6.19225e-06
588.7049999995855,0.001111132,588.7049999995855,3.812802e-06,588.7049999995855,5.809621e-06,588.7049999995855,6.2781e-06
588.7199999995855,0.001216129,588.7199999995855,3.760722e-06,588.7199999995855,6.64861e-06,588.7199999995855,6.316129e-06
588.7349999995855,0.00127684,588.7349999995855,3.753223e-06,588.7349999995855,6.699267e-06,588.7349999995855,6.275856e-06
588.7499999995855,0.001322076,588.7499999995855,3.677393e-06,588.7499999995855,6.762054e-06,588.7499999995855,6.457289e-06
588.7649999995855,0.001324818,588.7649999995855,3.638885e-06,588.7649999995855,6.879772e-06,588.7649999995855,7.233115e-06
588.7799999995855,0.001320764,588.7799999995855,3.623367e-06,588.7799999995855,6.877724e-06,588.7799999995855,7.569982e-06
588.7949999995855,0.001315979,588.7949999995855,3.552699e-06,588.7949999995855,6.853102e-06,588.7949999995855,7.677153e-06
588.8099999995854,0.001239891,588.8099999995854,3.580347e-06,588.8099999995854,6.873626e-06,588.8099999995854,7.689987e-06
588.8249999995854,0.00126814,588.8249999995854,3.488681e-06,588.8249999995854,6.932803e-06,588.8249999995854,8.060259e-06
588.8399999995854,0.001292183,588.8399999995854,3.516832e-06,588.8399999995854,6.957143e-06,588.8399999995854,8.068993e-06
588.8549999995854,0.001227221,588.8549999995854,3.512824e-06,588.8549999995854,6.805661e-06,588.8549999995854,8.058511e-06
588.8699999995854,0.001149951,588.8699999995854,3.306247e-06,588.8699999995854,6.774542e-06,588.8699999995854,8.192006e-06
588.8849999995854,0.001100218,588.8849999995854,3.19355e-06,588.8849999995854,6.709772e-06,588.8849999995854,7.8585e-06
588.8999999995854,0.001078442,588.8999999995854,3.331712e-06,588.8999999995854,5.819312e-06,588.8999999995854,7.817162e-06
588.9149999995853,0.001056285,588.9149999995853,3.911283e-06,588.9149999995853,5.539025e-06,588.9149999995853,7.924546e-06
588.9299999995853,0.001053923,588.9299999995853,4.252917e-06,588.9299999995853,5.571988e-06,588.9299999995853,8.02874e-06
588.9449999995853,0.001045691,588.9449999995853,4.302314e-06,588.9449999995853,5.241091e-06,588.9449999995853,7.742928e-06
588.9599999995853,0.001043079,588.9599999995853,5.140683e-06,588.9599999995853,3.99326e-06,588.9599999995853,7.671647e-06
588.9749999995853,0.001000296,588.9749999995853,5.173461e-06,588.9749999995853,3.896851e-06,588.9749999995853,7.644054e-06
588.9899999995853,0.0009984898,588.9899999995853,5.254512e-06,588.9899999995853,3.911283e-06,588.9899999995853,7.737468e-06
589.0049999995853,0.0009310051,589.0049999995853,5.358047e-06,589.0049999995853,3.853228e-06,589.0049999995853,7.381551e-06
589.0199999995853,0.0009549824,589.0199999995853,5.384273e-06,589.0199999995853,4.017877e-06,589.0199999995853,6.774542e-06
589.0349999995852,0.0009754627,589.0349999995852,5.384273e-06,589.0349999995852,4.35115e-06,589.0349999995852,6.965238e-06
589.0499999995852,0.0009939921,589.0499999995852,5.510979e-06,589.0499999995852,4.488202e-06,589.0499999995852,7.60896e-06
589.0649999995852,0.001112899,589.0649999995852,5.561867e-06,589.0649999995852,4.456705e-06,589.0649999995852,8.205751e-06
589.0799999995852,0.001191859,589.0799999995852,5.587136e-06,589.0799999995852,4.386617e-06,589.0799999995852,8.996782e-06
589.0949999995852,0.001178493,589.0949999995852,5.657291e-06,589.0949999995852,4.777073e-06,589.0949999995852,1.704972e-05
589.1099999995852,0.001543699,589.1099999995852,5.662269e-06,589.1099999995852,4.780021e-06,589.1099999995852,1.970281e-05
589.1249999995852,0.001822525,589.1249999995852,5.647323e-06,589.1249999995852,4.756387e-06,589.1249999995852,2.003743e-05
589.1399999995851,0.001868174,589.1399999995851,5.399948e-06,589.1399999995851,4.708762e-06,589.1399999995851,2.125199e-05
589.1549999995851,0.001942947,589.1549999995851,5.329048e-06,589.1549999995851,4.756387e-06,589.1549999995851,2.190031e-05
589.1699999995851,0.00204053,589.1699999995851,4.812329e-06,589.1699999995851,5.195198e-06,589.1699999995851,2.208159e-05
589.1849999995851,0.002298853,589.1849999995851,4.618143e-06,589.1849999995851,5.384273e-06,589.1849999995851,2.208988e-05
589.1999999995851,0.00239685,589.1999999995851,4.321914e-06,589.1999999995851,5.423375e-06,589.1999999995851,2.204775e-05
589.2149999995851,0.002512866,589.2149999995851,3.588207e-06,589.2149999995851,5.500745e-06,589.2149999995851,2.199978e-05
589.2299999995851,0.002501754,589.2299999995851,3.552699e-06,589.2299999995851,5.768253e-06,589.2299999995851,2.197672e-05
589.244999999585,0.00249073,589.244999999585,3.480596e-06,589.244999999585,5.8867e-06,589.244999999585,2.196774e-05
589.259999999585,0.002536467,589.259999999585,3.162522e-06,589.259999999585,5.879517e-06,589.259999999585,2.196133e-05
589.274999999585,0.002574545,589.274999999585,3.211145e-06,589.274999999585,5.682137e-06,589.274999999585,2.187327e-05
589.289999999585,0.002607925,589.289999999585,3.24605e-06,589.289999999585,5.556798e-06,589.289999999585,2.160827e-05
589.304999999585,0.002610215,589.304999999585,2.95052e-06,589.304999999585,5.472503e-06,589.304999999585,2.126525e-05
589.319999999585,0.002525733,589.319999999585,2.931361e-06,589.319999999585,5.469929e-06,589.319999999585,2.085725e-05
589.334999999585,0.002478459,589.334999999585,2.979029e-06,589.334999999585,5.451871e-06,589.334999999585,1.947775e-05
589.349999999585,0.002426228,589.349999999585,2.858369e-06,589.349999999585,5.8867e-06,589.349999999585,1.24095e-05
589.3649999995849,0.002126665,589.3649999995849,2.897527e-06,589.3649999995849,7.415822e-06,589.3649999995849,9.043632e-06
589.3799999995849,0.001862501,589.3799999995849,2.882905e-06,589.3799999995849,8.370614e-06,589.3799999995849,8.770023e-06
589.3949999995849,0.001823186,589.3949999995849,3.011947e-06,589.3949999995849,8.946537e-06,589.3949999995849,6.409116e-06
589.4099999995849,0.001765683,589.4099999995849,3.030597e-06,589.4099999995849,1.177101e-05,589.4099999995849,5.399948e-06
589.4249999995849,0.001644531,589.4249999995849,2.926552e-06,589.4249999995849,1.938713e-05,589.4249999995849,4.998978e-06
589.4399999995849,0.001388483,589.4399999995849,2.882905e-06,589.4399999995849,3.236706e-05,589.4399999995849,5.035477e-06
589.4549999995849,0.001260193,589.4549999995849,2.964809e-06,589.4549999995849,0.0001175429,589.4549999995849,6.505105e-06
589.4699999995848,0.001089669,589.4699999995848,3.081303e-06,589.4699999995848,0.0003772121,589.4699999995848,8.632413e-06
589.4849999995848,0.001092434,589.4849999995848,7.83696e-06,589.4849999995848,0.0009588624,589.4849999995848,1.280724e-05
589.4999999995848,0.001191318,589.4999999995848,8.36893e-06,589.4999999995848,0.001524976,589.4999999995848,1.435675e-05
589.5149999995848,0.001284121,589.5149999995848,8.663363e-06,589.5149999995848,0.001556765,589.5149999995848,1.715186e-05
589.5299999995848,0.001442789,589.5299999995848,9.848904e-06,589.5299999995848,0.001787097,589.5299999995848,2.647499e-05
589.5449999995848,0.001945879,589.5449999995848,1.084935e-05,589.5449999995848,0.002198193,589.5449999995848,5.82785e-05
589.5599999995848,0.002266374,589.5599999995848,1.599948e-05,589.5599999995848,0.002242977,589.5599999995848,8.267099e-05
589.5749999995847,0.002602535,589.5749999995847,1.759217e-05,589.5749999995847,0.002300039,589.5749999995847,8.831183e-05
589.5899999995847,0.002662193,589.5899999995847,1.810906e-05,589.5899999995847,0.002307491,589.5899999995847,8.874496e-05
589.6049999995847,0.002657055,589.6049999995847,1.877437e-05,589.6049999995847,0.002308749,589.6049999995847,8.99985e-05
589.6199999995847,0.002637155,589.6199999995847,1.883879e-05,589.6199999995847,0.002308703,589.6199999995847,9.05565e-05
589.6349999995847,0.002651508,589.6349999995847,1.886718e-05,589.6349999995847,0.00230869,589.6349999995847,9.063097e-05
589.6499999995847,0.002658544,589.6499999995847,1.890745e-05,589.6499999995847,0.002308886,589.6499999995847,9.062087e-05
589.6649999995847,0.002658611,589.6649999995847,1.893947e-05,589.6649999995847,0.002308929,589.6649999995847,9.060222e-05
589.6799999995847,0.002696375,589.6799999995847,1.89469e-05,589.6799999995847,0.002308779,589.6799999995847,9.059957e-05
589.6949999995846,0.002728325,589.6949999995846,1.894988e-05,589.6949999995846,0.002308355,589.6949999995846,9.062413e-05
589.7099999995846,0.002712477,589.7099999995846,1.894095e-05,589.7099999995846,0.002299438,589.7099999995846,9.048475e-05
589.7249999995846,0.002718038,589.7249999995846,1.886569e-05,589.7249999995846,0.002254674,589.7249999995846,9.029556e-05
589.7399999995846,0.002731855,589.7399999995846,1.74321e-05,589.7399999995846,0.001951478,589.7399999995846,8.982287e-05
589.7549999995846,0.002758579,589.7549999995846,1.723052e-05,589.7549999995846,0.001672495,589.7549999995846,8.972715e-05
589.7699999995846,0.002772542,589.7699999995846,1.698681e-05,589.7699999995846,0.001656872,589.7699999995846,8.933822e-05
589.7849999995846,0.002531411,589.7849999995846,1.572865e-05,589.7849999995846,0.001234262,589.7849999995846,8.514623e-05
589.7999999995845,0.002155971,589.7999999995845,1.539279e-05,589.7999999995845,0.000618392,589.7999999995845,6.402805e-05
589.8149999995845,0.001931083,589.8149999995845,9.316767e-06,589.8149999995845,0.0004013123,589.8149999995845,2.746118e-05
589.8299999995845,0.001514739,589.8299999995845,7.252564e-06,589.8299999995845,0.0001608757,589.8299999995845,2.063317e-05
589.8449999995845,0.001488252,589.8449999995845,5.799914e-06,589.8449999995845,8.006444e-05,589.8449999995845,1.820681e-05
589.8599999995845,0.001484657,589.8599999995845,4.186148e-06,589.8599999995845,3.580465e-05,589.8599999995845,1.400008e-05
589.8749999995845,0.001549407,589.8749999995845,4.196231e-06,589.8749999995845,3.505237e-05,589.8749999995845,1.214793e-05
589.8899999995845,0.001612406,589.8899999995845,3.979125e-06,589.8899999995845,3.411925e-05,589.8899999995845,1.223459e-05
589.9049999995844,0.001630913,589.9049999995844,3.73818e-06,589.9049999995844,3.081897e-05,589.9049999995844,1.227711e-05
589.9199999995844,0.001635632,589.9199999995844,3.584279e-06,589.9199999995844,2.9551e-05,589.9199999995844,1.239018e-05
589.9349999995844,0.001625273,589.9349999995844,3.556662e-06,589.9349999995844,2.862211e-05,589.9349999995844,1.242878e-05
589.9499999995844,0.00164114,589.9499999995844,3.615583e-06,589.9499999995844,2.855658e-05,589.9499999995844,1.213516e-05
589.9649999995844,0.001606217,589.9649999995844,3.619477e-06,589.9649999995844,2.862654e-05,589.9649999995844,1.295596e-05
589.9799999995844,0.001613028,589.9799999995844,3.67356e-06,589.9799999995844,2.830637e-05,589.9799999995844,1.293964e-05
589.9949999995844,0.001585892,589.9949999995844,3.696496e-06,589.9949999995844,2.250056e-05,589.9949999995844,1.601268e-05
590.0099999995844,0.001426784,590.0099999995844,3.719291e-06,590.0099999995844,1.880061e-05,590.0099999995844,1.717238e-05
590.0249999995843,0.001358338,590.0249999995843,3.760722e-06,590.0249999995843,1.836703e-05,590.0249999995843,1.959599e-05
590.0399999995843,0.001365557,590.0399999995843,3.631134e-06,590.0399999995843,1.82948e-05,590.0399999995843,1.994583e-05
590.0549999995843,0.00130881,590.0549999995843,3.520835e-06,590.0549999995843,1.687031e-05,590.0549999995843,2.134261e-05
590.0699999995843,0.001259857,590.0699999995843,3.340158e-06,590.0699999995843,1.526967e-05,590.0699999995843,2.194079e-05
590.0849999995843,0.001477563,590.0849999995843,3.219907e-06,590.0849999995843,1.543118e-05,590.0849999995843,2.306752e-05
590.0999999995843,0.001583409,590.0999999995843,3.002579e-06,590.0999999995843,2.221832e-05,590.0999999995843,2.327119e-05
590.1149999995843,0.001816022,590.1149999995843,3.058359e-06,590.1149999995843,2.956578e-05,590.1149999995843,2.262854e-05
590.1299999995842,0.001751303,590.1299999995842,3.135683e-06,590.1299999995842,4.072342e-05,590.1299999995842,2.359402e-05
590.1449999995842,0.001772868,590.1449999995842,3.171418e-06,590.1449999995842,4.186956e-05,590.1449999995842,2.450656e-05
590.1599999995842,0.001776491,590.1599999995842,3.233005e-06,590.1599999995842,4.513366e-05,590.1599999995842,2.450886e-05
590.1749999995842,0.001921375,590.1749999995842,3.756974e-06,590.1749999995842,5.009702e-05,590.1749999995842,2.456283e-05
590.1899999995842,0.001919655,590.1899999995842,5.371176e-06,590.1899999995842,5.089016e-05,590.1899999995842,2.504668e-05
590.2049999995842,0.001982668,590.2049999995842,5.597212e-06,590.2049999995842,5.254781e-05,590.2049999995842,2.497854e-05
590.2199999995842,0.001979991,590.2199999995842,6.01219e-06,590.2199999995842,5.306187e-05,590.2199999995842,2.451518e-05
590.2349999995841,0.001976597,590.2349999995841,7.231167e-06,590.2349999995841,5.418698e-05,590.2349999995841,2.467441e-05
590.2499999995841,0.001948218,590.2499999995841,7.568121e-06,590.2499999995841,5.484639e-05,590.2499999995841,2.263726e-05
590.2649999995841,0.001960197,590.2649999995841,8.58496e-06,590.2649999995841,5.646425e-05,590.2649999995841,2.148601e-05
590.2799999995841,0.001996132,590.2799999995841,9.756936e-06,590.2799999995841,5.768839e-05,590.2799999995841,2.08613e-05
590.2949999995841,0.002065908,590.2949999995841,1.003873e-05,590.2949999995841,5.997951e-05,590.2949999995841,2.173761e-05
590.3099999995841,0.002153272,590.3099999995841,1.069899e-05,590.3099999995841,6.017694e-05,590.3099999995841,2.364113e-05
590.3249999995841,0.002252521,590.3249999995841,1.119694e-05,590.3249999995841,6.030274e-05,590.3249999995841,2.432482e-05
590.339999999584,0.002054567,590.339999999584,1.287853e-05,590.339999999584,6.09302e-05,590.339999999584,2.34635e-05
590.354999999584,0.002081601,590.354999999584,1.522532e-05,590.354999999584,5.877959e-05,590.354999999584,2.459378e-05
590.369999999584,0.001966673,590.369999999584,2.438902e-05,590.369999999584,5.406752e-05,590.369999999584,2.437689e-05
590.384999999584,0.002260709,590.384999999584,3.708367e-05,590.384999999584,5.136214e-05,590.384999999584,2.570067e-05
590.399999999584,0.002372485,590.399999999584,3.838136e-05,590.399999999584,6.043482e-05,590.399999999584,2.967278e-05
590.414999999584,0.002475044,590.414999999584,4.66186e-05,590.414999999584,6.251658e-05,590.414999999584,3.499043e-05
590.429999999584,0.002720832,590.429999999584,5.61435e-05,590.429999999584,6.029176e-05,590.429999999584,3.632492e-05
590.444999999584,0.002928012,590.444999999584,5.882248e-05,590.444999999584,6.12675e-05,590.444999999584,3.737878e-05
590.4599999995839,0.003003007,590.4599999995839,6.435809e-05,590.4599999995839,6.156178e-05,590.4599999995839,4.157819e-05
590.4749999995839,0.003006371,590.4749999995839,6.876147e-05,590.4749999995839,6.152035e-05,590.4749999995839,4.519043e-05
590.4899999995839,0.002982972,590.4899999995839,7.043351e-05,590.4899999995839,6.11317e-05,590.4899999995839,4.567042e-05
590.5049999995839,0.003104414,590.5049999995839,7.276027e-05,590.5049999995839,6.120033e-05,590.5049999995839,4.576347e-05
590.5199999995839,0.003420463,590.5199999995839,7.349516e-05,590.5199999995839,5.972768e-05,590.5199999995839,4.662403e-05
590.5349999995839,0.003636666,590.5349999995839,7.385443e-05,590.5349999995839,5.758428e-05,590.5349999995839,4.591467e-05
590.5499999995839,0.003656386,590.5499999995839,7.389695e-05,590.5499999995839,5.679533e-05,590.5499999995839,4.541183e-05
590.5649999995838,0.003618598,590.5649999995838,7.388055e-05,590.5649999995838,5.654228e-05,590.5649999995838,4.404212e-05
590.5799999995838,0.003626304,590.5799999995838,7.376396e-05,590.5799999995838,5.75581e-05,590.5799999995838,4.344475e-05
590.5949999995838,0.003651398,590.5949999995838,7.355398e-05,590.5949999995838,5.85878e-05,590.5949999995838,4.365984e-05
590.6099999995838,0.003615988,590.6099999995838,7.118926e-05,590.6099999995838,5.879781e-05,590.6099999995838,4.332787e-05
590.6249999995838,0.003567669,590.6249999995838,6.933576e-05,590.6249999995838,5.746428e-05,590.6249999995838,4.328949e-05
590.6399999995838,0.003281918,590.6399999995838,6.433423e-05,590.6399999995838,5.662966e-05,590.6399999995838,4.18258e-05
590.6549999995838,0.003245514,590.6549999995838,6.400098e-05,590.6549999995838,0.0001447384,590.6549999995838,3.725875e-05
590.6699999995838,0.003141507,590.6699999995838,5.702997e-05,590.6699999995838,0.0007125954,590.6699999995838,3.370344e-05
590.6849999995837,0.002948941,590.6849999995837,4.785382e-05,590.6849999995837,0.001097652,590.6849999995837,3.590169e-05
590.6999999995837,0.003018317,590.6999999995837,4.281439e-05,590.6999999995837,0.001106109,590.6999999995837,3.535249e-05
590.7149999995837,0.003132026,590.7149999995837,3.883634e-05,590.7149999995837,0.001189331,590.7149999995837,3.119423e-05
590.7299999995837,0.00338065,590.7299999995837,4.245458e-05,590.7299999995837,0.001243572,590.7299999995837,2.788319e-05
590.7449999995837,0.00345932,590.7449999995837,0.0001294174,590.7449999995837,0.001265951,590.7449999995837,2.812063e-05
590.7599999995837,0.00348659,590.7599999995837,0.0001372222,590.7599999995837,0.001547945,590.7599999995837,2.812164e-05
590.7749999995837,0.003479931,590.7749999995837,0.0001536583,590.7749999995837,0.001599629,590.7749999995837,2.774086e-05
590.7899999995836,0.003399288,590.7899999995836,0.0001998407,590.7899999995836,0.001599649,590.7899999995836,2.915073e-05
590.8049999995836,0.003575525,590.8049999995836,0.0002070838,590.8049999995836,0.001642589,590.8049999995836,2.959816e-05
590.8199999995836,0.003648082,590.8199999995836,0.0002081226,590.8199999995836,0.001734987,590.8199999995836,2.962194e-05
590.8349999995836,0.003859071,590.8349999995836,0.0002094027,590.8349999995836,0.001747863,590.8349999995836,2.892223e-05
590.8499999995836,0.004092593,590.8499999995836,0.0002176405,590.8499999995836,0.001764659,590.8499999995836,2.87493e-05
590.8649999995836,0.004332088,590.8649999995836,0.0002215619,590.8649999995836,0.001796777,590.8649999995836,2.903792e-05
590.8799999995836,0.004468677,590.8799999995836,0.0002231703,590.8799999995836,0.001799287,590.8799999995836,2.887544e-05
590.8949999995835,0.004633336,590.8949999995835,0.0002247685,590.8949999995835,0.00180196,590.8949999995835,2.892661e-05
590.9099999995835,0.00473467,590.9099999995835,0.0002247441,590.9099999995835,0.00179982,590.9099999995835,3.076361e-05
590.9249999995835,0.004847264,590.9249999995835,0.0002247402,590.9249999995835,0.00153576,590.9249999995835,2.952239e-05
590.9399999995835,0.004966465,590.9399999995835,0.0002253111,590.9399999995835,0.001443093,590.9399999995835,2.59054e-05
590.9549999995835,0.004943546,590.9549999995835,0.0002251766,590.9549999995835,0.001425157,590.9549999995835,2.703519e-05
590.9699999995835,0.004853593,590.9699999995835,0.0002250957,590.9699999995835,0.001335875,590.9699999995835,2.649255e-05
590.9849999995835,0.004791076,590.9849999995835,0.0002156017,590.9849999995835,0.001291852,590.9849999995835,2.638065e-05
590.9999999995835,0.004618288,590.9999999995835,0.0001740656,590.9999999995835,0.00121539,590.9999999995835,2.572368e-05
591.0149999995834,0.004599562,591.0149999995834,0.0001713243,591.0149999995834,0.0008781589,591.0149999995834,2.643399e-05
591.0299999995834,0.004574638,591.0299999995834,0.0001502267,591.0299999995834,0.0008416066,591.0299999995834,2.401007e-05
591.0449999995834,0.004488312,591.0449999995834,9.093371e-05,591.0449999995834,0.0008364437,591.0449999995834,2.298861e-05
591.0599999995834,0.004253829,591.0599999995834,8.464763e-05,591.0599999995834,0.0006712503,591.0599999995834,2.263912e-05
591.0749999995834,0.004359694,591.0749999995834,8.185314e-05,591.0749999995834,0.0005366773,591.0749999995834,2.277808e-05
591.0899999995834,0.004326657,591.0899999995834,7.522998e-05,591.0899999995834,0.000510644,591.0899999995834,2.290081e-05
591.1049999995834,0.004114789,591.1049999995834,5.421582e-05,591.1049999995834,0.00040625,591.1049999995834,2.26385e-05
591.1199999995833,0.004043797,591.1199999995833,4.028067e-05,591.1199999995833,0.0002954976,591.1199999995833,2.264597e-05
591.1349999995833,0.004140889,591.1349999995833,2.713972e-05,591.1349999995833,0.0003042636,591.1349999995833,2.306507e-05
591.1499999995833,0.003983528,591.1499999995833,2.34064e-05,591.1499999995833,0.0002836929,591.1499999995833,2.258555e-05
591.1649999995833,0.003875871,591.1649999995833,2.219802e-05,591.1649999995833,0.000235802,591.1649999995833,1.984742e-05
591.1799999995833,0.003802821,591.1799999995833,2.143416e-05,591.1799999995833,0.0002298532,591.1799999995833,1.995854e-05
591.1949999995833,0.00366566,591.1949999995833,1.184735e-05,591.1949999995833,0.0002327196,591.1949999995833,1.801704e-05
591.2099999995833,0.003461476,591.2099999995833,9.772805e-06,591.2099999995833,0.0002251493,591.2099999995833,1.621896e-05
591.2249999995832,0.003310959,591.2249999995832,9.040516e-06,591.2249999995832,0.0002225293,591.2249999995832,1.637713e-05
591.2399999995832,0.003310455,591.2399999995832,8.341955e-06,591.2399999995832,0.0002338959,591.2399999995832,1.656783e-05
591.2549999995832,0.003300084,591.2549999995832,8.169621e-06,591.2549999995832,0.0002646787,591.2549999995832,1.687615e-05
591.2699999995832,0.003119844,591.2699999995832,8.17996e-06,591.2699999995832,0.0004384081,591.2699999995832,1.662894e-05
591.2849999995832,0.002968996,591.2849999995832,8.016449e-06,591.2849999995832,0.0004622308,591.2849999995832,1.708933e-05
591.2999999995832,0.002931688,591.2999999995832,7.773794e-06,591.2999999995832,0.0005902365,591.2999999995832,1.743694e-05
591.3149999995832,0.002914537,591.3149999995832,7.558809e-06,591.3149999995832,0.0006222223,591.3149999995832,1.728684e-05
591.3299999995832,0.00257023,591.3299999995832,7.22532e-06,591.3299999995832,0.0007361531,591.3299999995832,1.743129e-05
591.3449999995831,0.002374867,591.3449999995831,6.365006e-06,591.3449999995831,0.0007566412,591.3449999995831,1.734216e-05
591.3599999995831,0.002357479,591.3599999995831,5.049445e-06,591.3599999995831,0.0008357335,591.3599999995831,1.726809e-05
591.3749999995831,0.00203031,591.3749999995831,4.838602e-06,591.3749999995831,0.0008622248,591.3749999995831,1.72632e-05
591.3899999995831,0.001574954,591.3899999995831,4.36408e-06,591.3899999995831,0.0008589367,591.3899999995831,1.698432e-05
591.4049999995831,0.001487453,591.4049999995831,4.506994e-06,591.4049999995831,0.0008639472,591.4049999995831,1.724278e-05
591.4199999995831,0.001450776,591.4199999995831,4.541245e-06,591.4199999995831,0.0008696477,591.4199999995831,1.715843e-05
591.434999999583,0.001195227,591.434999999583,6.226279e-06,591.434999999583,0.0008736247,591.434999999583,1.744098e-05
591.449999999583,0.001008,591.449999999583,6.569749e-06,591.449999999583,0.0008703482,591.449999999583,2.167011e-05
591.464999999583,0.001057854,591.464999999583,7.373913e-06,591.464999999583,0.0008691775,591.464999999583,2.529962e-05
591.479999999583,0.00112825,591.479999999583,7.919212e-06,591.479999999583,0.0008684634,591.479999999583,2.560953e-05
591.494999999583,0.001060075,591.494999999583,7.990047e-06,591.494999999583,0.0008639616,591.494999999583,2.554233e-05
591.509999999583,0.001059911,591.509999999583,8.792481e-06,591.509999999583,0.0008430819,591.509999999583,2.543235e-05
591.524999999583,0.001043345,591.524999999583,8.819675e-06,591.524999999583,0.000768211,591.524999999583,2.569464e-05
591.539999999583,0.001031352,591.539999999583,8.827657e-06,591.539999999583,0.0007511196,591.539999999583,2.542791e-05
591.554999999583,0.0009602781,591.554999999583,8.878575e-06,591.554999999583,0.0006515119,591.554999999583,2.509725e-05
591.5699999995829,0.0009675988,591.5699999995829,8.818078e-06,591.5699999995829,0.0006240881,591.5699999995829,2.518466e-05
591.5849999995829,0.0009807891,591.5849999995829,8.76681e-06,591.5849999995829,0.0004910635,591.5849999995829,2.485473e-05
591.5999999995829,0.001116208,591.5999999995829,8.776445e-06,591.5999999995829,0.00045076,591.5999999995829,2.507198e-05
591.6149999995829,0.001158655,591.6149999995829,8.790878e-06,591.6149999995829,0.0003151788,591.6149999995829,2.542016e-05
591.6299999995829,0.001565875,591.6299999995829,8.933933e-06,591.6299999995829,0.0002745836,591.6299999995829,2.54932e-05
591.6449999995829,0.002056419,591.6449999995829,8.938661e-06,591.6449999995829,0.0002704106,591.6449999995829,2.632345e-05
591.6599999995829,0.002350783,591.6599999995829,8.604628e-06,591.6599999995829,0.0002592299,591.6599999995829,2.62672e-05
591.6749999995828,0.002403551,591.6749999995828,7.919212e-06,591.6749999995828,0.0002464588,591.6749999995828,2.612739e-05
591.6899999995828,0.002414487,591.6899999995828,7.105398e-06,591.6899999995828,0.0002405551,591.6899999995828,2.416971e-05
591.7049999995828,0.002470806,591.7049999995828,6.813935e-06,591.7049999995828,0.0002411024,591.7049999995828,2.01524e-05
591.7199999995828,0.002558291,591.7199999995828,5.733962e-06,591.7199999995828,0.0002389104,591.7199999995828,1.65406e-05
591.7349999995828,0.002560526,591.7349999995828,5.170737e-06,591.7349999995828,0.0002327501,591.7349999995828,1.703732e-05
591.7499999995828,0.002563846,591.7499999995828,4.593675e-06,591.7499999995828,0.0002314436,591.7499999995828,1.671175e-05
591.7649999995828,0.002571068,591.7649999995828,3.619477e-06,591.7649999995828,0.0002253727,591.7649999995828,1.649797e-05
591.7799999995827,0.002585007,591.7799999995827,3.627253e-06,591.7799999995827,0.0002236545,591.7799999995827,1.619028e-05
591.7949999995827,0.002590395,591.7949999995827,3.556662e-06,591.7949999995827,0.0002091734,591.7949999995827,1.608728e-05
591.8099999995827,0.002613743,591.8099999995827,3.496747e-06,591.8099999995827,0.0002018686,591.8099999995827,1.584554e-05
591.8249999995827,0.002617939,591.8249999995827,3.516832e-06,591.8249999995827,0.0001470766,591.8249999995827,1.577604e-05
591.8399999995827,0.002589363,591.8399999995827,3.607783e-06,591.8399999995827,0.0001156446,591.8399999995827,1.537906e-05
591.8549999995827,0.002518666,591.8549999995827,3.584279e-06,591.8549999995827,0.0001078637,591.8549999995827,1.485632e-05
591.8699999995827,0.002499538,591.8699999995827,3.144655e-06,591.8699999995827,7.673593e-05,591.8699999995827,1.416711e-05
591.8849999995826,0.002232856,591.8849999995826,3.135683e-06,591.8849999995826,5.174332e-05,591.8849999995826,1.355012e-05
591.8999999995826,0.001774538,591.8999999995826,3.135683e-06,591.8999999995826,4.608616e-05,591.8999999995826,1.240268e-05
591.9149999995826,0.001304301,591.9149999995826,3.131187e-06,591.9149999995826,4.308792e-05,591.9149999995826,1.159011e-05
591.9299999995826,0.001252504,591.9299999995826,3.144655e-06,591.9299999995826,4.36337e-05,591.9299999995826,1.147284e-05
591.9449999995826,0.001228204,591.9449999995826,3.067557e-06,591.9449999995826,4.643816e-05,591.9449999995826,1.170741e-05
591.9599999995826,0.001084125,591.9599999995826,3.149131e-06,591.9599999995826,4.563462e-05,591.9599999995826,1.164588e-05
591.9749999995826,0.0009543574,591.9749999995826,3.175857e-06,591.9749999995826,5.065711e-05,591.9749999995826,1.164104e-05
591.9899999995826,0.0009030343,591.9899999995826,3.259043e-06,591.9899999995826,6.717221e-05,591.9899999995826,1.134939e-05
592.0049999995825,0.0008535304,592.0049999995825,3.149131e-06,592.0049999995825,6.528645e-05,592.0049999995825,1.195153e-05
592.0199999995825,0.0009168637,592.0199999995825,3.853228e-06,592.0199999995825,7.06725e-05,592.0199999995825,1.193737e-05
592.0349999995825,0.0008610085,592.0349999995825,4.428167e-06,592.0349999995825,7.042971e-05,592.0349999995825,1.183664e-05
592.0499999995825,0.000850583,592.0499999995825,5.53139e-06,592.0499999995825,7.276163e-05,592.0499999995825,1.162045e-05
592.0649999995825,0.0007989914,592.0649999995825,5.833818e-06,592.0649999995825,7.296096e-05,592.0649999995825,1.152429e-05
592.0799999995825,0.0007854384,592.0799999995825,6.333946e-06,592.0799999995825,7.297737e-05,592.0799999995825,1.143594e-05
592.0949999995825,0.0007559141,592.0949999995825,6.511599e-06,592.0949999995825,7.264208e-05,592.0949999995825,1.138038e-05
592.1099999995824,0.0007194334,592.1099999995824,6.638008e-06,592.1099999995824,7.549504e-05,592.1099999995824,1.110853e-05
592.1249999995824,0.0006636928,592.1249999995824,6.782854e-06,592.1249999995824,7.650409e-05,592.1249999995824,1.117805e-05
592.1399999995824,0.000680454,592.1399999995824,6.983416e-06,592.1399999995824,8.84e-05,592.1399999995824,1.142362e-05
592.1549999995824,0.0006950786,592.1549999995824,8.074229e-06,592.1549999995824,0.0001031971,592.1549999995824,1.199858e-05
592.1699999995824,0.0007044941,592.1699999995824,8.929201e-06,592.1699999995824,0.00010469,592.1699999995824,1.171463e-05
592.1849999995824,0.0007072965,592.1849999995824,9.767037e-06,592.1849999995824,0.0001078423,592.1849999995824,1.15609e-05
592.1999999995824,0.0007286801,592.1999999995824,9.828859e-06,592.1999999995824,0.0001126312,592.1999999995824,1.131334e-05
592.2149999995823,0.0007155466,592.2149999995823,1.012118e-05,592.2149999995823,0.0001166264,592.2149999995823,1.133324e-05
592.2299999995823,0.000681422,592.2299999995823,1.01767e-05,592.2299999995823,0.0001137173,592.2299999995823,1.094114e-05
592.2449999995823,0.000672004,592.2449999995823,1.014482e-05,592.2449999995823,0.0001102289,592.2449999995823,1.072398e-05
592.2599999995823,0.0006840438,592.2599999995823,1.013926e-05,592.2599999995823,0.0001088822,592.2599999995823,9.854623e-06
592.2749999995823,0.000613136,592.2749999995823,9.86748e-06,592.2749999995823,0.0001100435,592.2749999995823,9.468245e-06
592.2899999995823,0.0006148707,592.2899999995823,9.37705e-06,592.2899999995823,0.0001154828,592.2899999995823,9.056085e-06
592.3049999995823,0.0006961928,592.3049999995823,9.054529e-06,592.3049999995823,0.0001162519,592.3049999995823,9.06075e-06
592.3199999995823,0.0007621662,592.3199999995823,8.818078e-06,592.3199999995823,0.0001164426,592.3199999995823,9.133529e-06
592.3349999995822,0.0007700501,592.3349999995822,8.456004e-06,592.3349999995822,0.0001160504,592.3349999995822,1.019883e-05
592.3499999995822,0.000850076,592.3499999995822,8.424293e-06,592.3499999995822,0.0001163361,592.3499999995822,1.414124e-05
592.3649999995822,0.001058681,592.3649999995822,8.277538e-06,592.3649999995822,0.0001177412,592.3649999995822,1.880511e-05
592.3799999995822,0.001518644,592.3799999995822,8.243432e-06,592.3799999995822,0.0001180226,592.3799999995822,3.660153e-05
592.3949999995822,0.002042863,592.3949999995822,7.982992e-06,592.3949999995822,0.0001023893,592.3949999995822,4.487103e-05
592.4099999995822,0.002249257,592.4099999995822,6.688745e-06,592.4099999995822,9.027839e-05,592.4099999995822,4.492814e-05
592.4249999995822,0.002254713,592.4249999995822,5.704405e-06,592.4249999995822,9.059802e-05,592.4249999995822,4.606537e-05
592.4399999995821,0.002282128,592.4399999995821,4.370531e-06,592.4399999995821,9.266312e-05,592.4399999995821,4.747553e-05
592.4549999995821,0.002322817,592.4549999995821,4.246287e-06,592.4549999995821,8.79679e-05,592.4549999995821,4.794205e-05
592.4699999995821,0.002364811,592.4699999995821,3.352786e-06,592.4699999995821,8.343019e-05,592.4699999995821,4.79814e-05
592.4849999995821,0.002387279,592.4849999995821,3.642754e-06,592.4849999995821,8.211157e-05,592.4849999995821,4.800195e-05
592.4999999995821,0.002389509,592.4999999995821,3.812802e-06,592.4999999995821,8.992021e-05,592.4999999995821,4.800958e-05
592.5149999995821,0.002379581,592.5149999995821,3.816494e-06,592.5149999995821,9.026342e-05,592.5149999995821,4.80131e-05
592.5299999995821,0.002391193,592.5299999995821,3.73441e-06,592.5299999995821,8.566842e-05,592.5299999995821,4.801368e-05
592.544999999582,0.00239837,592.544999999582,3.771943e-06,592.544999999582,8.351828e-05,592.544999999582,4.802513e-05
592.559999999582,0.002376445,592.559999999582,3.654337e-06,592.559999999582,8.736017e-05,592.559999999582,4.79952e-05
592.574999999582,0.002344363,592.574999999582,3.646619e-06,592.574999999582,8.928412e-05,592.574999999582,4.787765e-05
592.589999999582,0.002318588,592.589999999582,3.592131e-06,592.589999999582,0.0001160587,592.589999999582,4.750312e-05
592.604999999582,0.002201199,592.604999999582,3.599965e-06,592.604999999582,0.0001186317,592.604999999582,4.465515e-05
592.619999999582,0.002126571,592.619999999582,3.753223e-06,592.619999999582,0.0001311227,592.619999999582,4.271887e-05
592.634999999582,0.001774835,592.634999999582,3.860533e-06,592.634999999582,0.0001415264,592.634999999582,2.480423e-05
592.649999999582,0.001216886,592.649999999582,4.720713e-06,592.649999999582,0.0001423709,592.649999999582,1.501195e-05
592.6649999995819,0.000920816,592.6649999995819,5.024275e-06,592.6649999995819,0.0001447427,592.6649999995819,1.464046e-05
592.6799999995819,0.0009447734,592.6799999995819,5.533936e-06,592.6799999995819,0.0001460344,592.6799999995819,1.166281e-05
592.6949999995819,0.0009666064,592.6949999995819,6.11211e-06,592.6949999995819,0.0001447114,592.6949999995819,7.528932e-06
592.7099999995819,0.0008947033,592.7099999995819,6.153455e-06,592.7099999995819,0.0001406817,592.7099999995819,5.684616e-06
592.7249999995819,0.0008124043,592.7249999995819,6.248863e-06,592.7249999995819,0.0001396262,592.7249999995819,5.438937e-06
592.7399999995819,0.0007679176,592.7399999995819,6.137409e-06,592.7399999995819,0.0001357724,592.7399999995819,5.701935e-06
592.7549999995819,0.0007660175,592.7549999995819,6.093644e-06,592.7549999995819,0.0001330144,592.7549999995819,7.436688e-06
592.7699999995818,0.0007748484,592.7699999995818,6.114414e-06,592.7699999995818,0.0001323926,592.7699999995818,8.607901e-06
592.7849999995818,0.0007888537,592.7849999995818,6.135114e-06,592.7849999995818,0.0001322941,592.7849999995818,1.146301e-05
592.7999999995818,0.0008576539,592.7999999995818,6.070483e-06,592.7999999995818,0.0001288638,592.7999999995818,1.369489e-05
592.8149999995818,0.0008586498,592.8149999995818,6.105191e-06,592.8149999995818,0.000125391,592.8149999995818,1.389605e-05
592.8299999995818,0.0008786489,592.8299999995818,6.128222e-06,592.8299999995818,0.0001224712,592.8299999995818,1.441453e-05
592.8449999995818,0.000947787,592.8449999995818,6.125922e-06,592.8449999995818,0.0001010668,592.8449999995818,1.532768e-05
592.8599999995818,0.0009954094,592.8599999995818,6.144291e-06,592.8599999995818,9.727396e-05,592.8599999995818,1.584909e-05
592.8749999995817,0.00101462,592.8749999995817,5.991066e-06,592.8749999995817,7.054542e-05,592.8749999995817,1.580726e-05
592.8899999995817,0.0009995818,592.8899999995817,5.943854e-06,592.8899999995817,5.497082e-05,592.8899999995817,1.589702e-05
592.9049999995817,0.0009421217,592.9049999995817,5.184341e-06,592.9049999995817,5.362698e-05,592.9049999995817,1.603202e-05
592.9199999995817,0.0009603595,592.9199999995817,4.936594e-06,592.9199999995817,4.74105e-05,592.9199999995817,1.616851e-05
592.9349999995817,0.0009950309,592.9349999995817,4.223002e-06,592.9349999995817,4.203107e-05,592.9349999995817,1.644066e-05
592.9499999995817,0.0009851276,592.9499999995817,3.435788e-06,592.9499999995817,4.082154e-05,592.9499999995817,1.647062e-05
592.9649999995817,0.0009822882,592.9649999995817,3.394541e-06,592.9649999995817,4.089119e-05,592.9649999995817,1.633752e-05
592.9799999995817,0.001000609,592.9799999995817,3.011947e-06,592.9799999995817,4.055878e-05,592.9799999995817,1.723379e-05
592.9949999995816,0.001008213,592.9949999995816,3.053749e-06,592.9949999995816,4.055253e-05,592.9949999995816,1.773572e-05
593.0099999995816,0.001001674,593.0099999995816,3.002579e-06,593.0099999995816,4.0331e-05,593.0099999995816,1.776667e-05
593.0249999995816,0.00115585,593.0249999995816,2.95052e-06,593.0249999995816,3.966395e-05,593.0249999995816,1.985735e-05
593.0399999995816,0.001181668,593.0399999995816,2.983753e-06,593.0399999995816,3.990649e-05,593.0399999995816,1.804906e-05
593.0549999995816,0.00104495,593.0549999995816,2.988471e-06,593.0549999995816,4.112238e-05,593.0549999995816,1.722725e-05
593.0699999995816,0.001063691,593.0699999995816,2.863294e-06,593.0699999995816,2.772156e-05,593.0699999995816,1.876912e-05
593.0849999995816,0.001116592,593.0849999995816,2.828646e-06,593.0849999995816,2.811913e-05,593.0849999995816,1.931361e-05
593.0999999995815,0.001121005,593.0999999995815,2.848496e-06,593.0999999995815,2.936259e-05,593.0999999995815,1.92398e-05
593.1149999995815,0.001115835,593.1149999995815,2.768241e-06,593.1149999995815,2.929246e-05,593.1149999995815,1.892161e-05
593.1299999995815,0.001101205,593.1299999995815,2.711688e-06,593.1299999995815,2.816768e-05,593.1299999995815,1.894616e-05
593.1449999995815,0.0010995,593.1449999995815,2.808655e-06,593.1449999995815,2.95972e-05,593.1449999995815,1.899072e-05
593.1599999995815,0.001101237,593.1599999995815,2.823661e-06,593.1599999995815,3.035798e-05,593.1599999995815,1.883729e-05
593.1749999995815,0.001051411,593.1749999995815,2.788521e-06,593.1749999995815,3.004548e-05,593.1749999995815,1.848705e-05
593.1899999995815,0.001012863,593.1899999995815,2.858369e-06,593.1899999995815,3.005908e-05,593.1899999995815,1.834938e-05
593.2049999995814,0.0009900326,593.2049999995814,2.828646e-06,593.2049999995814,3.036077e-05,593.2049999995814,1.817351e-05
593.2199999995814,0.0009839135,593.2199999995814,3.025945e-06,593.2199999995814,3.003704e-05,593.2199999995814,1.812383e-05
593.2349999995814,0.0009845484,593.2349999995814,3.54476e-06,593.2349999995814,3.256578e-05,593.2349999995814,1.721744e-05
593.2499999995814,0.0009855274,593.2499999995814,6.887957e-06,593.2499999995814,3.46628e-05,593.2499999995814,1.696689e-05
593.2649999995814,0.0009226024,593.2649999995814,7.375824e-06,593.2649999995814,3.918731e-05,593.2649999995814,1.480978e-05
593.2799999995814,0.000754194,593.2799999995814,8.241723e-06,593.2799999995814,3.843821e-05,593.2799999995814,1.183545e-05
593.2949999995814,0.0007315461,593.2949999995814,1.133946e-05,593.2949999995814,3.857064e-05,593.2949999995814,1.28369e-05
593.3099999995814,0.0008207942,593.3099999995814,1.227941e-05,593.3099999995814,3.755812e-05,593.3099999995814,1.266344e-05
593.3249999995813,0.0008184083,593.3249999995813,1.374213e-05,593.3249999995813,4.253149e-05,593.3249999995813,1.208165e-05
593.3399999995813,0.0008650599,593.3399999995813,1.876762e-05,593.3399999995813,4.108742e-05,593.3399999995813,1.247742e-05
593.3549999995813,0.0008873743,593.3549999995813,1.936241e-05,593.3549999995813,4.451519e-05,593.3549999995813,1.2284e-05
593.3699999995813,0.0008833503,593.3699999995813,2.016009e-05,593.3699999995813,4.46911e-05,593.3699999995813,1.266011e-05
593.3849999995813,0.000902001,593.3849999995813,2.090919e-05,593.3849999995813,4.486821e-05,593.3849999995813,1.264452e-05
593.3999999995813,0.0009083923,593.3999999995813,2.234602e-05,593.3999999995813,4.434493e-05,593.3999999995813,1.270454e-05
593.4149999995813,0.000934914,593.4149999995813,2.697155e-05,593.4149999995813,4.479657e-05,593.4149999995813,1.277971e-05
593.4299999995812,0.001002808,593.4299999995812,3.22065e-05,593.4299999995812,4.568183e-05,593.4299999995812,1.352827e-05
593.4449999995812,0.001006201,593.4449999995812,3.504473e-05,593.4449999995812,4.699509e-05,593.4449999995812,1.366297e-05
593.4599999995812,0.0009979827,593.4599999995812,3.696344e-05,593.4599999995812,4.982777e-05,593.4599999995812,1.358853e-05
593.4749999995812,0.0009985809,593.4749999995812,3.751196e-05,593.4749999995812,5.060731e-05,593.4749999995812,1.372674e-05
593.4899999995812,0.001035586,593.4899999995812,3.761733e-05,593.4899999995812,4.997315e-05,593.4899999995812,1.411431e-05
593.5049999995812,0.001085885,593.5049999995812,4.183522e-05,593.5049999995812,5.02562e-05,593.5049999995812,1.548586e-05
593.5199999995812,0.001103983,593.5199999995812,4.295891e-05,593.5199999995812,5.377885e-05,593.5199999995812,1.567841e-05
593.5349999995811,0.001281776,593.5349999995811,4.648909e-05,593.5349999995811,5.468306e-05,593.5349999995811,1.758656e-05
593.5499999995811,0.001423488,593.5499999995811,4.999682e-05,593.5499999995811,5.542813e-05,593.5499999995811,1.982469e-05
593.5649999995811,0.001725878,593.5649999995811,5.045231e-05,593.5649999995811,5.755712e-05,593.5649999995811,2.40985e-05
593.5799999995811,0.001771946,593.5799999995811,4.955818e-05,593.5799999995811,5.539228e-05,593.5799999995811,2.443461e-05
593.5949999995811,0.001847198,593.5949999995811,5.090954e-05,593.5949999995811,5.912869e-05,593.5949999995811,2.541073e-05
593.6099999995811,0.001990449,593.6099999995811,5.170601e-05,593.6099999995811,6.158375e-05,593.6099999995811,2.652762e-05
593.6249999995811,0.001993012,593.6249999995811,5.211901e-05,593.6249999995811,6.297434e-05,593.6249999995811,2.709245e-05
593.639999999581,0.001990995,593.639999999581,5.813136e-05,593.639999999581,6.52666e-05,593.639999999581,2.71807e-05
593.654999999581,0.001997223,593.654999999581,6.248435e-05,593.654999999581,6.827401e-05,593.654999999581,2.712103e-05
593.669999999581,0.001990576,593.669999999581,6.636777e-05,593.669999999581,6.857397e-05,593.669999999581,2.720815e-05
593.684999999581,0.001973451,593.684999999581,7.38981e-05,593.684999999581,6.748061e-05,593.684999999581,2.687633e-05
593.699999999581,0.002001866,593.699999999581,7.768809e-05,593.699999999581,6.76097e-05,593.699999999581,2.682912e-05
593.714999999581,0.002020758,593.714999999581,8.693602e-05,593.714999999581,6.601599e-05,593.714999999581,2.674287e-05
593.729999999581,0.002035163,593.729999999581,9.58716e-05,593.729999999581,6.560115e-05,593.729999999581,2.667536e-05
593.744999999581,0.00209498,593.744999999581,0.0001114999,593.744999999581,6.774313e-05,593.744999999581,2.647925e-05
593.7599999995809,0.002075121,593.7599999995809,0.0001194147,593.7599999995809,6.541449e-05,593.7599999995809,2.59993e-05
593.7749999995809,0.002057098,593.7749999995809,0.000124522,593.7749999995809,6.163016e-05,593.7749999995809,2.511521e-05
593.7899999995809,0.00200951,593.7899999995809,0.0001380853,593.7899999995809,6.127003e-05,593.7899999995809,2.437226e-05
593.8049999995809,0.001846236,593.8049999995809,0.000154043,593.8049999995809,6.13408e-05,593.8049999995809,1.909576e-05
593.8199999995809,0.001618751,593.8199999995809,0.0001669478,593.8199999995809,5.993182e-05,593.8199999995809,1.397591e-05
593.8349999995809,0.001623733,593.8349999995809,0.0001917408,593.8349999995809,5.655398e-05,593.8349999995809,1.410633e-05
593.8499999995809,0.001500873,593.8499999995809,0.0001985805,593.8499999995809,5.558877e-05,593.8499999995809,1.251687e-05
593.8649999995808,0.001544461,593.8649999995808,0.0002026029,593.8649999995808,4.958603e-05,593.8649999995808,1.16483e-05
593.8799999995808,0.001538859,593.8799999995808,0.0002020563,593.8799999995808,5.033658e-05,593.8799999995808,1.098227e-05
593.8949999995808,0.001559281,593.8949999995808,0.0002014981,593.8949999995808,5.620845e-05,593.8949999995808,1.095144e-05
593.9099999995808,0.001539632,593.9099999995808,0.0001996696,593.9099999995808,5.836449e-05,593.9099999995808,1.109457e-05
593.9249999995808,0.001545234,593.9249999995808,0.0001993243,593.9249999995808,5.902879e-05,593.9249999995808,1.086232e-05
593.9399999995808,0.001604226,593.9399999995808,0.0001959697,593.9399999995808,5.905694e-05,593.9399999995808,1.118183e-05
593.9549999995808,0.001645092,593.9549999995808,0.0001916918,593.9549999995808,5.935103e-05,593.9549999995808,1.142608e-05
593.9699999995808,0.001632272,593.9699999995808,0.0001891452,593.9699999995808,5.86863e-05,593.9699999995808,1.179372e-05
593.9849999995807,0.001706822,593.9849999995807,0.0001835244,593.9849999995807,5.506504e-05,593.9849999995807,1.465584e-05
593.9999999995807,0.001816334,593.9999999995807,0.0001746439,593.9999999995807,5.369339e-05,593.9999999995807,1.756091e-05
594.0149999995807,0.002158537,594.0149999995807,0.0001696962,594.0149999995807,5.41373e-05,594.0149999995807,2.055862e-05
594.0299999995807,0.002083414,594.0299999995807,0.0001645697,594.0299999995807,5.508269e-05,594.0299999995807,2.917923e-05
594.0449999995807,0.001944864,594.0449999995807,0.0001486255,594.0449999995807,5.498696e-05,594.0449999995807,3.500331e-05
594.0599999995807,0.002291598,594.0599999995807,0.0001257386,594.0599999995807,5.519178e-05,594.0599999995807,5.600106e-05
594.0749999995807,0.002728279,594.0749999995807,8.259206e-05,594.0749999995807,5.619015e-05,594.0749999995807,5.728923e-05
594.0899999995806,0.003064786,594.0899999995806,6.926217e-05,594.0899999995806,6.172882e-05,594.0899999995806,5.917251e-05
594.1049999995806,0.003270165,594.1049999995806,4.516642e-05,594.1049999995806,6.388643e-05,594.1049999995806,6.277023e-05
594.1199999995806,0.003426562,594.1199999995806,3.762183e-05,594.1199999995806,7.129939e-05,594.1199999995806,6.88902e-05
594.1349999995806,0.003680141,594.1349999995806,3.640472e-05,594.1349999995806,6.909193e-05,594.1349999995806,7.218727e-05
594.1499999995806,0.003876112,594.1499999995806,3.542176e-05,594.1499999995806,5.891126e-05,594.1499999995806,7.299917e-05
594.1649999995806,0.004081369,594.1649999995806,3.279853e-05,594.1649999995806,5.638685e-05,594.1649999995806,7.624569e-05
594.1799999995806,0.004198058,594.1799999995806,3.369843e-05,594.1799999995806,5.569839e-05,594.1799999995806,8.568371e-05
594.1949999995805,0.004349752,594.1949999995805,3.368588e-05,594.1949999995805,5.991372e-05,594.1949999995805,9.013692e-05
594.2099999995805,0.004443077,594.2099999995805,3.531502e-05,594.2099999995805,7.471026e-05,594.2099999995805,9.072977e-05
594.2249999995805,0.004554474,594.2249999995805,4.121442e-05,594.2249999995805,8.123192e-05,594.2249999995805,9.209602e-05
594.2399999995805,0.004709612,594.2399999995805,4.592448e-05,594.2399999995805,0.0001145787,594.2399999995805,9.23122e-05
594.2549999995805,0.004778967,594.2549999995805,4.529224e-05,594.2549999995805,0.0001427627,594.2549999995805,9.233203e-05
594.2699999995805,0.004859421,594.2699999995805,4.545214e-05,594.2699999995805,0.0001444986,594.2699999995805,9.15194e-05
594.2849999995805,0.005001004,594.2849999995805,4.541307e-05,594.2849999995805,0.0001568193,594.2849999995805,8.982178e-05
594.2999999995805,0.005142406,594.2999999995805,4.513553e-05,594.2999999995805,0.0001884635,594.2999999995805,8.569045e-05
594.3149999995804,0.005142406,594.3149999995804,4.521536e-05,594.3149999995804,0.0001910109,594.3149999995804,7.894109e-05
594.3299999995804,0.005142406,594.3299999995804,4.560529e-05,594.3299999995804,0.0002101037,594.3299999995804,7.932879e-05
594.3449999995804,0.005133478,594.3449999995804,4.567196e-05,594.3449999995804,0.0002146895,594.3449999995804,8.95804e-05
594.3599999995804,0.005148331,594.3599999995804,5.16384e-05,594.3599999995804,0.0002293808,594.3599999995804,9.366529e-05
594.3749999995804,0.005177012,594.3749999995804,9.830135e-05,594.3749999995804,0.000230759,594.3749999995804,9.338469e-05
594.3899999995804,0.005108991,594.3899999995804,0.000140041,594.3899999995804,0.0002315302,594.3899999995804,9.516134e-05
594.4049999995804,0.005177693,594.4049999995804,0.0002258303,594.4049999995804,0.0002328533,594.4049999995804,0.0001000308
594.4199999995803,0.005226217,594.4199999995803,0.0002344016,594.4199999995803,0.0002330174,594.4199999995803,9.67633e-05
594.4349999995803,0.005250616,594.4349999995803,0.0002591524,594.4349999995803,0.0002327463,594.4349999995803,9.59236e-05
594.4499999995803,0.00527838,594.4499999995803,0.0002798267,594.4499999995803,0.0002305367,594.4499999995803,9.33269e-05
594.4649999995803,0.005221234,594.4649999995803,0.0002952775,594.4649999995803,0.0002241772,594.4649999995803,9.348479e-05
594.4799999995803,0.005036215,594.4799999995803,0.0002966788,594.4799999995803,0.0002206102,594.4799999995803,9.451462e-05
594.4949999995803,0.004993219,594.4949999995803,0.0003002128,594.4949999995803,0.0002061455,594.4949999995803,9.446811e-05
594.5099999995803,0.005012185,594.5099999995803,0.0003055103,594.5099999995803,0.0001906948,594.5099999995803,9.47635e-05
594.5249999995802,0.004904284,594.5249999995802,0.0003069551,594.5249999995802,0.000196241,594.5249999995802,9.755811e-05
594.5399999995802,0.004701397,594.5399999995802,0.0003086814,594.5399999995802,0.0001824017,594.5399999995802,9.686065e-05
594.5549999995802,0.004510575,594.5549999995802,0.0003174991,594.5549999995802,0.0001577281,594.5549999995802,9.667358e-05
594.5699999995802,0.004369777,594.5699999995802,0.0003214824,594.5699999995802,0.0001497021,594.5699999995802,9.645769e-05
594.5849999995802,0.004198012,594.5849999995802,0.0003231925,594.5849999995802,0.0001231984,594.5849999995802,9.47058e-05
594.5999999995802,0.004042548,594.5999999995802,0.0003289935,594.5999999995802,0.0001060195,594.5999999995802,7.822747e-05
594.6149999995802,0.003778729,594.6149999995802,0.0003267326,594.6149999995802,7.859253e-05,594.6149999995802,7.420113e-05
594.6299999995801,0.003458801,594.6299999995801,0.0003132894,594.6299999995801,7.352659e-05,594.6299999995801,7.20394e-05
594.6449999995801,0.003304647,594.6449999995801,0.0002745504,594.6449999995801,7.274285e-05,594.6449999995801,6.676476e-05
594.6599999995801,0.003146007,594.6599999995801,0.0002447637,594.6599999995801,7.119341e-05,594.6599999995801,5.391385e-05
594.6749999995801,0.002908826,594.6749999995801,0.0002349715,594.6749999995801,7.082641e-05,594.6749999995801,5.119154e-05
