X[s],a: EMG RMS 1-1,X[s].1,a: EMG RMS 1-2,X[s].2,a: EMG RMS 1-3,X[s].3,a: EMG RMS 1-4
300.01499999984804,0.001090106,300.01499999984804,2.848496e-06,300.01499999984804,3.01662e-06,300.01499999984804,1.646976e-05
300.02999999984803,0.001103171,300.02999999984803,2.988471e-06,300.02999999984803,2.916909e-06,300.02999999984803,1.673449e-05
300.044999999848,0.001073204,300.044999999848,3.021286e-06,300.044999999848,2.945742e-06,300.044999999848,1.707943e-05
300.059999999848,0.001043719,300.059999999848,3.053749e-06,300.059999999848,2.902385e-06,300.059999999848,1.738678e-05
300.074999999848,0.001030974,300.074999999848,2.997883e-06,300.074999999848,2.848496e-06,300.074999999848,1.792218e-05
300.089999999848,0.001027492,300.089999999848,3.053749e-06,300.089999999848,2.843547e-06,300.089999999848,1.798025e-05
300.10499999984796,0.001146288,300.10499999984796,2.997883e-06,300.10499999984796,3.323245e-06,300.10499999984796,2.264348e-05
300.11999999984795,0.001679697,300.11999999984795,3.117661e-06,300.11999999984795,4.409039e-06,300.11999999984795,3.329978e-05
300.13499999984793,0.001847219,300.13499999984793,3.189136e-06,300.13499999984793,4.497608e-06,300.13499999984793,3.375189e-05
300.1499999998479,0.001835961,300.1499999998479,3.276286e-06,300.1499999998479,4.711753e-06,300.1499999998479,3.440828e-05
300.1649999998479,0.001785922,300.1649999998479,3.301983e-06,300.1649999998479,6.016875e-06,300.1649999998479,3.4932e-05
300.1799999998479,0.001800235,300.1799999998479,3.439886e-06,300.1799999998479,6.158032e-06,300.1799999998479,3.698553e-05
300.1949999998479,0.00224831,300.1949999998479,3.711708e-06,300.1949999998479,6.260124e-06,300.1949999998479,4.835223e-05
300.20999999984787,0.00259262,300.20999999984787,3.715501e-06,300.20999999984787,6.805661e-06,300.20999999984787,5.375239e-05
300.22499999984785,0.00266159,300.22499999984785,3.756974e-06,300.22499999984785,7.461272e-06,300.22499999984785,5.464208e-05
300.23999999984784,0.002681356,300.23999999984784,3.730636e-06,300.23999999984784,7.623756e-06,300.23999999984784,5.563994e-05
300.2549999998478,0.002707566,300.2549999998478,3.749468e-06,300.2549999998478,7.922768e-06,300.2549999998478,5.522061e-05
300.2699999998478,0.002738015,300.2699999998478,3.460301e-06,300.2699999998478,8.136793e-06,300.2699999998478,5.540932e-05
300.2849999998478,0.002751081,300.2849999998478,3.448066e-06,300.2849999998478,8.183403e-06,300.2849999998478,5.566727e-05
300.2999999998478,0.002753948,300.2999999998478,3.40283e-06,300.2999999998478,8.143716e-06,300.2999999998478,5.592479e-05
300.31499999984777,0.002751432,300.31499999984777,3.73818e-06,300.31499999984777,8.263912e-06,300.31499999984777,5.60521e-05
300.32999999984776,0.002757551,300.32999999984776,4.152361e-06,300.32999999984776,8.429308e-06,300.32999999984776,5.565436e-05
300.34499999984774,0.002779271,300.34499999984774,5.431162e-06,300.34499999984774,8.750726e-06,300.34499999984774,5.557229e-05
300.35999999984773,0.002657564,300.35999999984773,5.415577e-06,300.35999999984773,9.096438e-06,300.35999999984773,5.062011e-05
300.3749999998477,0.002407464,300.3749999998477,5.988714e-06,300.3749999998477,9.251524e-06,300.3749999998477,4.690808e-05
300.3899999998477,0.002356135,300.3899999998477,6.100575e-06,300.3899999998477,9.643665e-06,300.3899999998477,4.683595e-05
300.4049999998477,0.002408544,300.4049999998477,6.040241e-06,300.4049999998477,9.287995e-06,300.4049999998477,4.650636e-05
300.4199999998477,0.002378297,300.4199999998477,6.123622e-06,300.4199999998477,1.026491e-05,300.4199999998477,4.498642e-05
300.43499999984766,0.002265281,300.43499999984766,5.974584e-06,300.43499999984766,1.111233e-05,300.43499999984766,4.13533e-05
300.44999999984765,0.001864218,300.44999999984765,5.857914e-06,300.44999999984765,1.112373e-05,300.44999999984765,2.647818e-05
300.46499999984763,0.001357657,300.46499999984763,5.891484e-06,300.46499999984763,1.072923e-05,300.46499999984763,1.765372e-05
300.4799999998476,0.001287985,300.4799999998476,5.828986e-06,300.4799999998476,1.075808e-05,300.4799999998476,1.515949e-05
300.4949999998476,0.001241147,300.4949999998476,5.797484e-06,300.4949999998476,1.124339e-05,300.4949999998476,1.433417e-05
300.5099999998476,0.001182848,300.5099999998476,5.797484e-06,300.5099999998476,1.149124e-05,300.5099999998476,1.449833e-05
300.5249999998476,0.001187061,300.5249999998476,5.797484e-06,300.5249999998476,1.144579e-05,300.5249999998476,1.443991e-05
300.53999999984757,0.001189723,300.53999999984757,5.792623e-06,300.53999999984757,1.168332e-05,300.53999999984757,1.379431e-05
300.55499999984755,0.001190258,300.55499999984755,5.733962e-06,300.55499999984755,1.182593e-05,300.55499999984755,1.385239e-05
300.56999999984754,0.001199435,300.56999999984754,5.487926e-06,300.56999999984754,1.184854e-05,300.56999999984754,1.396381e-05
300.5849999998475,0.001241483,300.5849999998475,4.75046e-06,300.5849999998475,1.172544e-05,300.5849999998475,1.385849e-05
300.5999999998475,0.001126784,300.5999999998475,3.882364e-06,300.5999999998475,1.124214e-05,300.5999999998475,1.41502e-05
300.6149999998475,0.001097545,300.6149999998475,3.627253e-06,300.6149999998475,1.067922e-05,300.6149999998475,1.434792e-05
300.6299999998475,0.001127648,300.6299999998475,2.758045e-06,300.6299999998475,1.02209e-05,300.6299999998475,1.422467e-05
300.64499999984747,0.001081384,300.64499999984747,2.556603e-06,300.64499999984747,1.017117e-05,300.64499999984747,1.421179e-05
300.65999999984746,0.001045995,300.65999999984746,2.551088e-06,300.65999999984746,1.004294e-05,300.65999999984746,1.429283e-05
300.67499999984744,0.001095911,300.67499999984744,2.403235e-06,300.67499999984744,7.874616e-06,300.67499999984744,1.494707e-05
300.68999999984743,0.001450384,300.68999999984743,2.432367e-06,300.68999999984743,7.304818e-06,300.68999999984743,1.649626e-05
300.7049999998474,0.00151568,300.7049999998474,2.325787e-06,300.7049999998474,7.209706e-06,300.7049999998474,1.650053e-05
300.7199999998474,0.001562085,300.7199999998474,2.301433e-06,300.7199999998474,6.969281e-06,300.7199999998474,1.641751e-05
300.7349999998474,0.001653865,300.7349999998474,2.313642e-06,300.7349999998474,6.759971e-06,300.7349999998474,1.642952e-05
300.7499999998474,0.001693953,300.7499999998474,2.343887e-06,300.7499999998474,5.233022e-06,300.7499999998474,1.630645e-05
300.76499999984736,0.001664912,300.76499999984736,2.373747e-06,300.76499999984736,4.605925e-06,300.76499999984736,1.545945e-05
300.77999999984735,0.001601653,300.77999999984735,2.455423e-06,300.77999999984735,4.913713e-06,300.77999999984735,1.781655e-05
300.79499999984733,0.002073595,300.79499999984733,2.637958e-06,300.79499999984733,5.872325e-06,300.79499999984733,4.013072e-05
300.8099999998473,0.002419569,300.8099999998473,2.690828e-06,300.8099999998473,6.805661e-06,300.8099999998473,4.346518e-05
300.8249999998473,0.002448936,300.8249999998473,2.54002e-06,300.8249999998473,6.836638e-06,300.8249999998473,4.356715e-05
300.8399999998473,0.002418219,300.8399999998473,2.512137e-06,300.8399999998473,6.892046e-06,300.8399999998473,4.382891e-05
300.8549999998473,0.002506798,300.8549999998473,2.616511e-06,300.8549999998473,7.896054e-06,300.8549999998473,4.864617e-05
300.86999999984727,0.002863705,300.86999999984727,2.793568e-06,300.86999999984727,1.181997e-05,300.86999999984727,6.215274e-05
300.88499999984725,0.003135615,300.88499999984725,2.931361e-06,300.88499999984725,1.380145e-05,300.88499999984725,6.572257e-05
300.89999999984724,0.003202603,300.89999999984724,2.926552e-06,300.89999999984724,1.443699e-05,300.89999999984724,6.696385e-05
300.9149999998472,0.003332293,300.9149999998472,2.988471e-06,300.9149999998472,1.733648e-05,300.9149999998472,6.879321e-05
300.9299999998472,0.003378888,300.9299999998472,3.025945e-06,300.9299999998472,1.891267e-05,300.9299999998472,6.918077e-05
300.9449999998472,0.00325845,300.9449999998472,3.002579e-06,300.9449999998472,1.899591e-05,300.9449999998472,6.914146e-05
300.9599999998472,0.003251688,300.9599999998472,3.007266e-06,300.9599999998472,1.9176e-05,300.9599999998472,6.926034e-05
300.97499999984717,0.003214513,300.97499999984717,3.030597e-06,300.97499999984717,1.945748e-05,300.97499999984717,6.940825e-05
300.98999999984716,0.003166679,300.98999999984716,3.021286e-06,300.98999999984716,1.948281e-05,300.98999999984716,6.928251e-05
301.00499999984714,0.003151432,301.00499999984714,3.030597e-06,301.00499999984714,1.948859e-05,301.00499999984714,6.920703e-05
301.01999999984713,0.003143543,301.01999999984713,3.094987e-06,301.01999999984713,1.963119e-05,301.01999999984713,6.875552e-05
301.0349999998471,0.003080667,301.0349999998471,2.988471e-06,301.0349999998471,1.963191e-05,301.0349999998471,6.565266e-05
301.0499999998471,0.002781907,301.0499999998471,2.833621e-06,301.0499999998471,1.914291e-05,301.0499999998471,5.636337e-05
301.0649999998471,0.002517877,301.0649999998471,2.813666e-06,301.0649999998471,1.891863e-05,301.0649999998471,5.431836e-05
301.0799999998471,0.00249108,301.0799999998471,2.783465e-06,301.0799999998471,1.885523e-05,301.0799999998471,5.424154e-05
301.09499999984706,0.002474168,301.09499999984706,2.768241e-06,301.09499999984706,1.894467e-05,301.09499999984706,5.414927e-05
301.10999999984705,0.002310982,301.10999999984705,2.627256e-06,301.10999999984705,1.802641e-05,301.10999999984705,4.557841e-05
301.12499999984703,0.001915256,301.12499999984703,2.426568e-06,301.12499999984703,1.529272e-05,301.12499999984703,2.721126e-05
301.139999999847,0.001381592,301.139999999847,2.331836e-06,301.139999999847,1.405831e-05,301.139999999847,2.197287e-05
301.154999999847,0.001286437,301.154999999847,2.343887e-06,301.154999999847,1.284677e-05,301.154999999847,1.739407e-05
301.169999999847,0.0008524845,301.169999999847,2.301433e-06,301.169999999847,8.982679e-06,301.169999999847,1.470095e-05
301.184999999847,0.0007355525,301.184999999847,2.337869e-06,301.184999999847,6.463831e-06,301.184999999847,1.534054e-05
301.19999999984697,0.0007939088,301.19999999984697,2.361848e-06,301.19999999984697,6.365006e-06,301.19999999984697,1.51055e-05
301.21499999984695,0.0008282027,301.21499999984695,2.276818e-06,301.21499999984695,5.716739e-06,301.21499999984695,1.574208e-05
301.22999999984694,0.0008848148,301.22999999984694,2.251934e-06,301.22999999984694,5.291911e-06,301.22999999984694,1.700835e-05
301.2449999998469,0.0008739091,301.2449999998469,2.251934e-06,301.2449999998469,5.305204e-06,301.2449999998469,1.792061e-05
301.2599999998469,0.0008823479,301.2599999998469,2.813666e-06,301.2599999998469,5.219545e-06,301.2599999998469,1.808025e-05
301.2749999998469,0.0008739583,301.2749999998469,3.982663e-06,301.2749999998469,3.96849e-06,301.2749999998469,1.813782e-05
301.2899999998469,0.0008608926,301.2899999998469,4.618143e-06,301.2899999998469,3.820184e-06,301.2899999998469,1.822305e-05
301.30499999984687,0.0008824248,301.30499999984687,4.794733e-06,301.30499999984687,3.456227e-06,301.30499999984687,1.823696e-05
301.31999999984686,0.0008825854,301.31999999984686,5.415577e-06,301.31999999984686,3.390388e-06,301.31999999984686,1.82524e-05
301.33499999984684,0.0008823549,301.33499999984684,5.571988e-06,301.33499999984684,3.314757e-06,301.33499999984684,1.823387e-05
301.34999999984683,0.0009960766,301.34999999984683,5.589657e-06,301.34999999984683,3.254718e-06,301.34999999984683,2.02688e-05
301.3649999998468,0.001147313,301.3649999998468,5.787757e-06,301.3649999998468,3.233005e-06,301.3649999998468,2.244227e-05
301.3799999998468,0.001177928,301.3799999998468,5.862722e-06,301.3799999998468,3.241707e-06,301.3799999998468,2.288297e-05
301.3949999998468,0.001283953,301.3949999998468,5.843468e-06,301.3949999998468,3.460301e-06,301.3949999998468,2.542403e-05
301.4099999998468,0.001418666,301.4099999998468,5.917727e-06,301.4099999998468,3.603876e-06,301.4099999998468,2.802278e-05
301.42499999984676,0.001381116,301.42499999984676,5.941484e-06,301.42499999984676,3.662038e-06,301.42499999984676,2.747554e-05
301.43999999984675,0.001321772,301.43999999984675,5.969867e-06,301.43999999984675,3.820184e-06,301.43999999984675,2.736921e-05
301.45499999984673,0.001586744,301.45499999984673,5.988714e-06,301.45499999984673,4.702775e-06,301.45499999984673,3.424988e-05
301.4699999998467,0.001631758,301.4699999998467,6.026232e-06,301.4699999998467,4.81818e-06,301.4699999998467,3.523555e-05
301.4849999998467,0.00162442,301.4849999998467,6.06584e-06,301.4849999998467,4.559819e-06,301.4849999998467,3.449333e-05
301.4999999998467,0.001619714,301.4999999998467,5.984008e-06,301.4999999998467,4.618143e-06,301.4999999998467,3.436895e-05
301.5149999998467,0.001606864,301.5149999998467,5.751133e-06,301.5149999998467,4.821102e-06,301.5149999998467,3.460504e-05
301.52999999984667,0.001590055,301.52999999984667,4.67875e-06,301.52999999984667,4.853136e-06,301.52999999984667,3.454311e-05
301.54499999984665,0.001585286,301.54499999984665,4.412233e-06,301.54499999984665,4.928026e-06,301.54499999984665,3.552025e-05
301.55999999984664,0.0015957,301.55999999984664,4.101159e-06,301.55999999984664,4.925167e-06,301.55999999984664,3.706049e-05
301.5749999998466,0.001923366,301.5749999998466,3.480596e-06,301.5749999998466,5.043863e-06,301.5749999998466,4.332462e-05
301.5899999998466,0.002254822,301.5899999998466,3.439886e-06,301.5899999998466,4.993339e-06,301.5899999998466,4.581792e-05
301.6049999998466,0.0022354,301.6049999998466,3.319004e-06,301.6049999998466,5.024275e-06,301.6049999998466,4.487198e-05
301.6199999998466,0.002233099,301.6199999998466,3.039879e-06,301.6199999998466,5.407768e-06,301.6199999998466,4.534602e-05
301.63499999984657,0.00228765,301.63499999984657,2.983753e-06,301.63499999984657,5.431162e-06,301.63499999984657,4.533794e-05
301.64999999984656,0.002219779,301.64999999984656,2.988471e-06,301.64999999984656,5.352786e-06,301.64999999984656,4.372787e-05
301.66499999984654,0.002165203,301.66499999984654,2.768241e-06,301.66499999984654,5.339611e-06,301.66499999984654,4.278115e-05
301.67999999984653,0.002154619,301.67999999984653,2.752932e-06,301.67999999984653,5.410373e-06,301.67999999984653,4.21736e-05
301.6949999998465,0.002090123,301.6949999998465,2.732388e-06,301.6949999998465,5.107694e-06,301.6949999998465,4.033868e-05
301.7099999998465,0.001974523,301.7099999998465,2.669806e-06,301.7099999998465,4.744526e-06,301.7099999998465,3.725081e-05
301.7249999998465,0.00195666,301.7249999998465,2.701278e-06,301.7249999998465,4.587538e-06,301.7249999998465,3.647623e-05
301.7399999998465,0.001967089,301.7399999998465,2.701278e-06,301.7399999998465,4.788854e-06,301.7399999998465,3.649939e-05
301.75499999984646,0.001969511,301.75499999984646,2.722057e-06,301.75499999984646,4.973552e-06,301.75499999984646,3.635825e-05
301.76999999984645,0.001976054,301.76999999984645,2.685588e-06,301.76999999984645,4.896482e-06,301.76999999984645,3.623873e-05
301.78499999984643,0.001996261,301.78499999984643,2.680338e-06,301.78499999984643,5.602244e-06,301.78499999984643,3.660076e-05
301.7999999998464,0.001980033,301.7999999998464,2.637958e-06,301.7999999998464,5.797484e-06,301.7999999998464,3.442833e-05
301.8149999998464,0.001929408,301.8149999998464,2.600309e-06,301.8149999998464,5.775575e-06,301.8149999998464,3.217981e-05
301.8299999998464,0.001531014,301.8299999998464,2.500897e-06,301.8299999998464,5.731505e-06,301.8299999998464,2.291004e-05
301.8449999998464,0.001102964,301.8449999998464,2.500897e-06,301.8449999998464,5.716739e-06,301.8449999998464,1.968922e-05
301.85999999984637,0.0009992138,301.85999999984637,2.506524e-06,301.85999999984637,5.549188e-06,301.85999999984637,1.716828e-05
301.87499999984635,0.0009017637,301.87499999984635,2.512137e-06,301.87499999984635,5.344885e-06,301.87499999984635,1.615892e-05
301.88999999984634,0.0008564305,301.88999999984634,2.528904e-06,301.88999999984634,5.315815e-06,301.88999999984634,1.564243e-05
301.9049999998463,0.0008559204,301.9049999998463,2.528904e-06,301.9049999998463,5.249148e-06,301.9049999998463,1.590056e-05
301.9199999998463,0.0008514794,301.9199999998463,2.551088e-06,301.9199999998463,5.222243e-06,301.9199999998463,1.576086e-05
301.9349999998463,0.0008519675,301.9349999998463,2.57308e-06,301.9349999998463,5.187057e-06,301.9349999998463,1.510457e-05
301.9499999998463,0.0008611804,301.9499999998463,2.472574e-06,301.9499999998463,5.107694e-06,301.9499999998463,1.411232e-05
301.96499999984627,0.000804622,301.96499999984627,2.403235e-06,301.96499999984627,5.007424e-06,301.96499999984627,1.322818e-05
301.97999999984626,0.0007208205,301.97999999984626,2.295304e-06,301.97999999984626,4.95937e-06,301.97999999984626,1.304049e-05
301.99499999984624,0.0007164091,301.99499999984624,2.251934e-06,301.99499999984624,4.602866e-06,301.99499999984624,1.333213e-05
302.00999999984623,0.000704513,302.00999999984623,2.220437e-06,302.00999999984623,4.229668e-06,302.00999999984623,1.31652e-05
302.0249999998462,0.0006794555,302.0249999998462,2.226772e-06,302.0249999998462,4.073587e-06,302.0249999998462,1.264006e-05
302.0399999998462,0.0005808963,302.0399999998462,2.18204e-06,302.0399999998462,3.085871e-06,302.0399999998462,1.193973e-05
302.0549999998462,0.0005189757,302.0549999998462,2.055725e-06,302.0549999998462,2.696058e-06,302.0549999998462,1.151818e-05
302.0699999998462,0.0005298802,302.0699999998462,2.069384e-06,302.0699999998462,2.711688e-06,302.0699999998462,1.167126e-05
302.08499999984616,0.0005100201,302.08499999984616,2.096436e-06,302.08499999984616,2.605721e-06,302.08499999984616,1.150227e-05
302.09999999984615,0.000380556,302.09999999984615,2.123144e-06,302.09999999984615,2.594886e-06,302.09999999984615,1.108822e-05
302.11499999984613,0.0003699094,302.11499999984613,2.082954e-06,302.11499999984613,2.600309e-06,302.11499999984613,1.027863e-05
302.1299999998461,0.0003621324,302.1299999998461,2.041974e-06,302.1299999998461,2.5676e-06,302.1299999998461,1.05585e-05
302.1449999998461,0.0004774895,302.1449999998461,2.07618e-06,302.1449999998461,2.616511e-06,302.1449999998461,1.67387e-05
302.1599999998461,0.0009022158,302.1599999998461,2.207712e-06,302.1599999998461,2.696058e-06,302.1599999998461,2.651646e-05
302.1749999998461,0.0009339164,302.1749999998461,2.201322e-06,302.1749999998461,2.643292e-06,302.1749999998461,2.678866e-05
302.18999999984607,0.0009721881,302.18999999984607,2.26441e-06,302.18999999984607,2.562108e-06,302.18999999984607,2.655787e-05
302.20499999984605,0.0009717137,302.20499999984605,2.331836e-06,302.20499999984605,2.54556e-06,302.20499999984605,2.684119e-05
302.21999999984604,0.0009801729,302.21999999984604,2.600309e-06,302.21999999984604,2.594886e-06,302.21999999984604,2.69726e-05
302.234999999846,0.0009877891,302.234999999846,2.945742e-06,302.234999999846,2.600309e-06,302.234999999846,2.692607e-05
302.249999999846,0.0009909082,302.249999999846,4.785911e-06,302.249999999846,2.664524e-06,302.249999999846,2.7006e-05
302.264999999846,0.000989842,302.264999999846,5.015856e-06,302.264999999846,2.793568e-06,302.264999999846,2.700235e-05
302.279999999846,0.0009956299,302.279999999846,5.310512e-06,302.279999999846,2.798606e-06,302.279999999846,2.692974e-05
302.29499999984597,0.001002903,302.29499999984597,5.877121e-06,302.29499999984597,3.067557e-06,302.29499999984597,2.692398e-05
302.30999999984596,0.001000736,302.30999999984596,5.934367e-06,302.30999999984596,3.108612e-06,302.30999999984596,2.679969e-05
302.32499999984594,0.001000092,302.32499999984594,6.105191e-06,302.32499999984594,3.117661e-06,302.32499999984594,2.678813e-05
302.33999999984593,0.0009992422,302.33999999984593,6.158032e-06,302.33999999984593,3.090432e-06,302.33999999984593,2.674655e-05
302.3549999998459,0.001003801,302.3549999998459,6.141998e-06,302.3549999998459,3.044509e-06,302.3549999998459,2.673286e-05
302.3699999998459,0.0009874208,302.3699999998459,6.137409e-06,302.3699999998459,3.039879e-06,302.3699999998459,2.656211e-05
302.3849999998459,0.00098321,302.3849999998459,6.128222e-06,302.3849999998459,2.979029e-06,302.3849999998459,2.488248e-05
302.3999999998459,0.0008439033,302.3999999998459,6.116717e-06,302.3999999998459,2.892662e-06,302.3999999998459,1.791589e-05
302.41499999984586,0.0005593349,302.41499999984586,6.079758e-06,302.41499999984586,2.783465e-06,302.41499999984586,8.632413e-06
302.42999999984585,0.0005042836,302.42999999984585,6.08439e-06,302.42999999984585,2.773325e-06,302.42999999984585,8.207468e-06
302.44499999984583,0.0004579462,302.44499999984583,6.098266e-06,302.44499999984583,2.868209e-06,302.44499999984583,8.032248e-06
302.4599999998458,0.0004568981,302.4599999998458,6.098266e-06,302.4599999998458,2.921734e-06,302.4599999998458,7.750201e-06
302.4749999998458,0.0004483357,302.4749999998458,5.879517e-06,302.4749999998458,2.926552e-06,302.4749999998458,7.502692e-06
302.4899999998458,0.000445138,302.4899999998458,5.677176e-06,302.4899999998458,2.974296e-06,302.4899999998458,7.660622e-06
302.5049999998458,0.0004326233,302.5049999998458,4.182782e-06,302.5049999998458,2.863294e-06,302.5049999998458,7.125195e-06
302.51999999984577,0.0004358919,302.51999999984577,4.087396e-06,302.51999999984577,2.788521e-06,302.51999999984577,7.213613e-06
302.53499999984575,0.0004263524,302.53499999984575,3.508812e-06,302.53499999984575,2.793568e-06,302.53499999984575,7.438582e-06
302.54999999984574,0.0004039658,302.54999999984574,2.742679e-06,302.54999999984574,2.578549e-06,302.54999999984574,7.370092e-06
302.5649999998457,0.0004018616,302.5649999998457,2.716877e-06,302.5649999998457,2.517739e-06,302.5649999998457,7.36818e-06
302.5799999998457,0.0004061169,302.5799999998457,2.584006e-06,302.5799999998457,2.512137e-06,302.5799999998457,7.446153e-06
302.5949999998457,0.0004073147,302.5949999998457,2.648616e-06,302.5949999998457,2.632612e-06,302.5949999998457,7.519571e-06
302.6099999998457,0.000419257,302.6099999998457,2.696058e-06,302.6099999998457,2.685588e-06,302.6099999998457,7.519571e-06
302.62499999984567,0.0004181594,302.62499999984567,2.701278e-06,302.62499999984567,2.690828e-06,302.62499999984567,7.69548e-06
302.63999999984566,0.0003935588,302.63999999984566,2.727227e-06,302.63999999984566,2.701278e-06,302.63999999984566,7.644054e-06
302.65499999984564,0.0003532479,302.65499999984564,2.737538e-06,302.65499999984564,2.706488e-06,302.65499999984564,7.682656e-06
302.66999999984563,0.0003384441,302.66999999984563,2.763147e-06,302.66999999984563,2.737538e-06,302.66999999984563,7.634834e-06
302.6849999998456,0.0003391938,302.6849999998456,2.664524e-06,302.6849999998456,2.727227e-06,302.6849999998456,7.584854e-06
302.6999999998456,0.000391043,302.6999999998456,2.648616e-06,302.6999999998456,2.763147e-06,302.6999999998456,7.354785e-06
302.7149999998456,0.0003894499,302.7149999998456,2.611121e-06,302.7149999998456,2.818668e-06,302.7149999998456,7.42721e-06
302.7299999998456,0.000375079,302.7299999998456,2.616511e-06,302.7299999998456,2.808655e-06,302.7299999998456,7.30096e-06
302.74499999984556,0.0003651872,302.74499999984556,2.669806e-06,302.74499999984556,2.742679e-06,302.74499999984556,7.320229e-06
302.75999999984555,0.0003673435,302.75999999984555,2.659232e-06,302.75999999984555,2.742679e-06,302.75999999984555,7.246734e-06
302.77499999984553,0.0004011652,302.77499999984553,2.685588e-06,302.77499999984553,2.758045e-06,302.77499999984553,7.417721e-06
302.7899999998455,0.000422384,302.7899999998455,2.727227e-06,302.7899999998455,2.685588e-06,302.7899999998455,7.325999e-06
302.8049999998455,0.0004224049,302.8049999998455,2.727227e-06,302.8049999998455,2.600309e-06,302.8049999998455,7.463159e-06
302.8199999998455,0.0004258835,302.8199999998455,2.621889e-06,302.8199999998455,2.616511e-06,302.8199999998455,7.406318e-06
302.8349999998455,0.0004332111,302.8349999998455,2.556603e-06,302.8349999998455,2.517739e-06,302.8349999998455,7.431003e-06
302.84999999984547,0.0004234871,302.84999999984547,2.349889e-06,302.84999999984547,2.589452e-06,302.84999999984547,7.40061e-06
302.86499999984545,0.0004080957,302.86499999984545,2.331836e-06,302.86499999984545,2.523327e-06,302.86499999984545,7.291306e-06
302.87999999984544,0.0004019075,302.87999999984544,2.385586e-06,302.87999999984544,2.584006e-06,302.87999999984544,7.254505e-06
302.8949999998454,0.0004050199,302.8949999998454,2.337869e-06,302.8949999998454,2.611121e-06,302.8949999998454,7.283574e-06
302.9099999998454,0.0004066268,302.9099999998454,2.349889e-06,302.9099999998454,2.690828e-06,302.9099999998454,7.190141e-06
302.9249999998454,0.000387354,302.9249999998454,2.270622e-06,302.9249999998454,2.648616e-06,302.9249999998454,7.404416e-06
302.9399999998454,0.0003805584,302.9399999998454,2.282997e-06,302.9399999998454,2.57308e-06,302.9399999998454,7.42721e-06
302.95499999984537,0.000328871,302.95499999984537,2.295304e-06,302.95499999984537,2.594886e-06,302.95499999984537,7.519571e-06
302.96999999984536,0.0003262908,302.96999999984536,2.258181e-06,302.96999999984536,2.528904e-06,302.96999999984536,7.366268e-06
302.98499999984534,0.0003263112,302.98499999984534,2.239388e-06,302.98499999984534,2.472574e-06,302.98499999984534,7.304818e-06
302.99999999984533,0.0003261582,302.99999999984533,2.295304e-06,302.99999999984533,2.578549e-06,302.99999999984533,7.172487e-06
303.0149999998453,0.0003150468,303.0149999998453,2.289158e-06,303.0149999998453,2.637958e-06,303.0149999998453,7.025649e-06
303.0299999998453,0.000282871,303.0299999998453,2.214083e-06,303.0299999998453,2.643292e-06,303.0299999998453,7.059652e-06
303.0449999998453,0.0002480775,303.0449999998453,2.175575e-06,303.0449999998453,2.659232e-06,303.0449999998453,6.898175e-06
303.0599999998453,0.0002504315,303.0599999998453,2.175575e-06,303.0599999998453,2.669806e-06,303.0599999998453,6.973323e-06
303.07499999984526,0.0002400667,303.07499999984526,2.156062e-06,303.07499999984526,2.659232e-06,303.07499999984526,7.103415e-06
303.08999999984525,0.000230516,303.08999999984525,2.24567e-06,303.08999999984525,2.611121e-06,303.08999999984525,7.266147e-06
303.10499999984523,0.0002429024,303.10499999984523,2.251934e-06,303.10499999984523,2.621889e-06,303.10499999984523,8.842007e-06
303.1199999998452,0.0002895316,303.1199999998452,2.26441e-06,303.1199999998452,2.664524e-06,303.1199999998452,1.023605e-05
303.1349999998452,0.0003052511,303.1349999998452,2.214083e-06,303.1349999998452,2.648616e-06,303.1349999998452,1.158038e-05
303.1499999998452,0.0003671332,303.1499999998452,2.313642e-06,303.1499999998452,2.600309e-06,303.1499999998452,1.395573e-05
303.1649999998452,0.0003911146,303.1649999998452,2.349889e-06,303.1649999998452,2.578549e-06,303.1649999998452,1.462409e-05
303.17999999984517,0.0003904821,303.17999999984517,2.343887e-06,303.17999999984517,2.675077e-06,303.17999999984517,1.454005e-05
303.19499999984515,0.0004080616,303.19499999984515,2.379674e-06,303.19499999984515,2.716877e-06,303.19499999984515,1.523919e-05
303.20999999984514,0.0004156324,303.20999999984514,2.385586e-06,303.20999999984514,2.742679e-06,303.20999999984514,1.53992e-05
303.2249999998451,0.0004147025,303.2249999998451,2.397367e-06,303.2249999998451,2.793568e-06,303.2249999998451,1.548131e-05
303.2399999998451,0.0004152198,303.2399999998451,2.449679e-06,303.2399999998451,2.783465e-06,303.2399999998451,1.554668e-05
303.2549999998451,0.0004137727,303.2549999998451,2.432367e-06,303.2549999998451,2.706488e-06,303.2549999998451,1.557384e-05
303.2699999998451,0.0004208013,303.2699999998451,2.823661e-06,303.2699999998451,2.706488e-06,303.2699999998451,1.566493e-05
303.28499999984507,0.0004174363,303.28499999984507,3.452149e-06,303.28499999984507,2.722057e-06,303.28499999984507,1.55657e-05
303.29999999984506,0.0004174716,303.29999999984506,5.510979e-06,303.29999999984506,2.722057e-06,303.29999999984506,1.555574e-05
303.31499999984504,0.0004207505,303.31499999984504,6.132817e-06,303.31499999984504,2.773325e-06,303.31499999984504,1.556208e-05
303.32999999984503,0.0004063999,303.32999999984503,6.734918e-06,303.32999999984503,2.763147e-06,303.32999999984503,1.541017e-05
303.344999999845,0.0004028364,303.344999999845,7.483893e-06,303.344999999845,2.706488e-06,303.344999999845,1.558288e-05
303.359999999845,0.0003710058,303.359999999845,7.510198e-06,303.359999999845,2.838588e-06,303.359999999845,1.3892e-05
303.374999999845,0.0003487481,303.374999999845,7.562535e-06,303.374999999845,2.868209e-06,303.374999999845,1.363924e-05
303.389999999845,0.0003125738,303.389999999845,7.645896e-06,303.389999999845,2.833621e-06,303.389999999845,1.117301e-05
303.40499999984496,0.0002447617,303.40499999984496,7.631143e-06,303.40499999984496,2.778399e-06,303.40499999984496,9.20114e-06
303.41999999984495,0.0002174829,303.41999999984495,7.616361e-06,303.41999999984495,2.711688e-06,303.41999999984495,8.758771e-06
303.43499999984493,0.000220301,303.43499999984493,7.60896e-06,303.43499999984493,2.632612e-06,303.43499999984493,8.37566e-06
303.4499999998449,0.0002024636,303.4499999998449,7.62745e-06,303.4499999998449,2.653929e-06,303.4499999998449,7.817162e-06
303.4649999998449,0.0001908889,303.4649999998449,7.623756e-06,303.4649999998449,2.637958e-06,303.4649999998449,7.612662e-06
303.4799999998449,0.0001911809,303.4799999998449,7.618211e-06,303.4799999998449,2.611121e-06,303.4799999998449,7.3567e-06
303.4949999998449,0.000191907,303.4949999998449,7.59599e-06,303.4949999998449,2.627256e-06,303.4949999998449,7.36818e-06
303.50999999984487,0.0002001936,303.50999999984487,7.575563e-06,303.50999999984487,2.701278e-06,303.50999999984487,7.29903e-06
303.52499999984485,0.0001826913,303.52499999984485,7.302889e-06,303.52499999984485,2.648616e-06,303.52499999984485,7.025649e-06
303.53999999984484,0.000181802,303.53999999984484,7.017624e-06,303.53999999984484,2.675077e-06,303.53999999984484,6.977362e-06
303.5549999998448,0.0001779228,303.5549999998448,5.449287e-06,303.5549999998448,2.675077e-06,303.5549999998448,6.922637e-06
303.5699999998448,0.0001738481,303.5699999998448,4.847328e-06,303.5699999998448,2.701278e-06,303.5699999998448,7.146909e-06
303.5849999998448,0.000204518,303.5849999998448,3.635012e-06,303.5849999998448,2.773325e-06,303.5849999998448,7.644054e-06
303.5999999998448,0.0002056698,303.5999999998448,2.461153e-06,303.5999999998448,2.868209e-06,303.5999999998448,7.788277e-06
303.61499999984477,0.0002426189,303.61499999984477,2.495258e-06,303.61499999984477,2.711688e-06,303.61499999984477,8.08469e-06
303.62999999984476,0.0002972396,303.62999999984476,2.325787e-06,303.62999999984476,2.675077e-06,303.62999999984476,9.697562e-06
303.64499999984474,0.0004521928,303.64499999984474,2.136372e-06,303.64499999984474,2.701278e-06,303.64499999984474,1.22173e-05
303.65999999984473,0.0005164813,303.65999999984473,2.096436e-06,303.65999999984473,2.701278e-06,303.65999999984473,1.2397e-05
303.6749999998447,0.0005182501,303.6749999998447,2.07618e-06,303.6749999998447,2.732388e-06,303.6749999998447,1.272669e-05
303.6899999998447,0.0005181002,303.6899999998447,2.096436e-06,303.6899999998447,2.716877e-06,303.6899999998447,1.268678e-05
303.7049999998447,0.0005194586,303.7049999998447,2.055725e-06,303.7049999998447,2.843547e-06,303.7049999998447,1.27001e-05
303.7199999998447,0.0005834515,303.7199999998447,2.089706e-06,303.7199999998447,2.798606e-06,303.7199999998447,1.329086e-05
303.73499999984466,0.0006838745,303.73499999984466,2.062566e-06,303.73499999984466,2.783465e-06,303.73499999984466,1.372982e-05
303.74999999984465,0.0007347401,303.74999999984465,2.096436e-06,303.74999999984465,2.853437e-06,303.74999999984465,1.379635e-05
303.76499999984463,0.00073736,303.76499999984463,2.142956e-06,303.76499999984463,2.813666e-06,303.76499999984463,1.389098e-05
303.7799999998446,0.0007519545,303.7799999998446,2.109832e-06,303.7799999998446,2.798606e-06,303.7799999998446,1.390517e-05
303.7949999998446,0.0008094987,303.7949999998446,2.103145e-06,303.7949999998446,2.833621e-06,303.7949999998446,1.428297e-05
303.8099999998446,0.0008642979,303.8099999998446,2.194914e-06,303.8099999998446,2.793568e-06,303.8099999998446,1.575192e-05
303.8249999998446,0.0008994854,303.8249999998446,2.220437e-06,303.8249999998446,2.945742e-06,303.8249999998446,1.721989e-05
303.83999999984457,0.001032785,303.83999999984457,2.349889e-06,303.83999999984457,2.907234e-06,303.83999999984457,2.111234e-05
303.85499999984455,0.001195195,303.85499999984455,2.325787e-06,303.85499999984455,2.921734e-06,303.85499999984455,2.281021e-05
303.86999999984454,0.001261912,303.86999999984454,2.319723e-06,303.86999999984454,2.931361e-06,303.86999999984454,2.288789e-05
303.8849999998445,0.00124401,303.8849999998445,2.397367e-06,303.8849999998445,3.319004e-06,303.8849999998445,2.355159e-05
303.8999999998445,0.001234647,303.8999999998445,2.461153e-06,303.8999999998445,3.96849e-06,303.8999999998445,2.512081e-05
303.9149999998445,0.00128205,303.9149999998445,2.438151e-06,303.9149999998445,4.15914e-06,303.9149999998445,2.627792e-05
303.9299999998445,0.001411253,303.9299999998445,2.391484e-06,303.9299999998445,4.578317e-06,303.9299999998445,2.634966e-05
303.94499999984447,0.001533337,303.94499999984447,2.379674e-06,303.94499999984447,4.753424e-06,303.94499999984447,2.636088e-05
303.95999999984446,0.001553832,303.95999999984446,2.373747e-06,303.95999999984446,5.500745e-06,303.95999999984446,2.645317e-05
303.97499999984444,0.001538374,303.97499999984444,2.337869e-06,303.97499999984444,5.644828e-06,303.97499999984444,2.62865e-05
303.98999999984443,0.00157681,303.98999999984443,2.295304e-06,303.98999999984443,5.639834e-06,303.98999999984443,2.633629e-05
304.0049999998444,0.001611606,304.0049999998444,2.307546e-06,304.0049999998444,5.647323e-06,304.0049999998444,2.639613e-05
304.0199999998444,0.001640055,304.0199999998444,2.307546e-06,304.0199999998444,6.233063e-06,304.0199999998444,2.641267e-05
304.0349999998444,0.001627567,304.0349999998444,2.349889e-06,304.0349999998444,9.139696e-06,304.0349999998444,2.626988e-05
304.0499999998444,0.001611535,304.0499999998444,2.455423e-06,304.0499999998444,1.008493e-05,304.0499999998444,2.619685e-05
304.06499999984436,0.00156378,304.06499999984436,2.391484e-06,304.06499999984436,1.260882e-05,304.06499999984436,2.492604e-05
304.07999999984435,0.001550806,304.07999999984435,2.373747e-06,304.07999999984435,1.345623e-05,304.07999999984435,2.309315e-05
304.09499999984433,0.001450257,304.09499999984433,2.319723e-06,304.09499999984433,1.385443e-05,304.09499999984433,1.921855e-05
304.1099999998443,0.00130051,304.1099999998443,2.54556e-06,304.1099999998443,1.396179e-05,304.1099999998443,1.688867e-05
304.1249999998443,0.001257382,304.1249999998443,2.562108e-06,304.1249999998443,1.399806e-05,304.1249999998443,1.66086e-05
304.1399999998443,0.001269833,304.1399999998443,2.528904e-06,304.1399999998443,1.398397e-05,304.1399999998443,1.380758e-05
304.1549999998443,0.001276831,304.1549999998443,2.669806e-06,304.1549999998443,1.387475e-05,304.1549999998443,1.046066e-05
304.16999999984426,0.00125567,304.16999999984426,2.690828e-06,304.16999999984426,1.398296e-05,304.16999999984426,9.349971e-06
304.18499999984425,0.001090344,304.18499999984425,2.716877e-06,304.18499999984425,1.401416e-05,304.18499999984425,9.007736e-06
304.19999999984424,0.0009781235,304.19999999984424,2.783465e-06,304.19999999984424,1.393351e-05,304.19999999984424,8.970124e-06
304.2149999998442,0.0009544548,304.2149999998442,2.838588e-06,304.2149999998442,1.369798e-05,304.2149999998442,8.703918e-06
304.2299999998442,0.0008947424,304.2299999998442,2.858369e-06,304.2299999998442,1.367328e-05,304.2299999998442,8.109047e-06
304.2449999998442,0.0007910223,304.2449999998442,2.843547e-06,304.2449999998442,1.370826e-05,304.2449999998442,7.553216e-06
304.2599999998442,0.0006813316,304.2599999998442,2.838588e-06,304.2599999998442,1.374623e-05,304.2599999998442,7.233115e-06
304.27499999984417,0.0006566583,304.27499999984417,2.793568e-06,304.27499999984417,1.324627e-05,304.27499999984417,7.534543e-06
304.28999999984416,0.0006835914,304.28999999984416,2.808655e-06,304.28999999984416,1.091278e-05,304.28999999984416,9.208791e-06
304.30499999984414,0.0006832299,304.30499999984414,2.701278e-06,304.30499999984414,1.024018e-05,304.30499999984414,9.942854e-06
304.31999999984413,0.0006817201,304.31999999984413,2.768241e-06,304.31999999984413,7.184261e-06,304.31999999984413,1.000077e-05
304.3349999998441,0.0006601841,304.3349999998441,2.823661e-06,304.3349999998441,6.650728e-06,304.3349999998441,9.836022e-06
304.3499999998441,0.0006440104,304.3499999998441,3.094987e-06,304.3499999998441,5.869926e-06,304.3499999998441,1.04647e-05
304.3649999998441,0.0005693785,304.3649999998441,3.982663e-06,304.3649999998441,5.624828e-06,304.3649999998441,1.081684e-05
304.3799999998441,0.0004854049,304.3799999998441,4.806471e-06,304.3799999998441,5.559333e-06,304.3799999998441,1.081163e-05
304.39499999984406,0.0004900781,304.39499999984406,5.029879e-06,304.39499999984406,5.577042e-06,304.39499999984406,1.109203e-05
304.40999999984405,0.0004759938,304.40999999984405,5.342249e-06,304.40999999984405,5.53139e-06,304.40999999984405,1.106151e-05
304.42499999984403,0.0004945201,304.42499999984403,5.624828e-06,304.42499999984403,4.925167e-06,304.42499999984403,1.282263e-05
304.439999999844,0.0006708005,304.439999999844,5.679657e-06,304.439999999844,5.140683e-06,304.439999999844,2.282503e-05
304.454999999844,0.0008240095,304.454999999844,5.75603e-06,304.454999999844,5.438937e-06,304.454999999844,2.877917e-05
304.469999999844,0.0008619243,304.469999999844,5.760922e-06,304.469999999844,5.760922e-06,304.469999999844,2.988706e-05
304.484999999844,0.001101181,304.484999999844,5.841057e-06,304.484999999844,7.673483e-06,304.484999999844,4.150223e-05
304.49999999984396,0.001431879,304.49999999984396,5.862722e-06,304.49999999984396,8.370614e-06,304.49999999984396,4.883115e-05
304.51499999984395,0.001513201,304.51499999984395,5.898653e-06,304.51499999984395,8.410905e-06,304.51499999984395,4.96553e-05
304.52999999984394,0.001509856,304.52999999984394,5.946224e-06,304.52999999984394,8.55208e-06,304.52999999984394,5.059061e-05
304.5449999998439,0.001515617,304.5449999998439,5.962784e-06,304.5449999998439,8.676361e-06,304.5449999998439,5.072242e-05
304.5599999998439,0.00157122,304.5599999998439,5.979298e-06,304.5599999998439,8.752336e-06,304.5599999998439,5.094854e-05
304.5749999998439,0.001583915,304.5749999998439,5.943854e-06,304.5749999998439,8.721702e-06,304.5749999998439,5.101292e-05
304.5899999998439,0.001588906,304.5899999998439,5.855509e-06,304.5899999998439,8.470984e-06,304.5899999998439,5.098723e-05
304.60499999984387,0.001595198,304.60499999984387,5.652309e-06,304.60499999984387,8.440998e-06,304.60499999984387,5.076323e-05
304.61999999984386,0.001595001,304.61999999984386,4.612038e-06,304.61999999984386,8.484277e-06,304.61999999984386,5.073269e-05
304.63499999984384,0.001593263,304.63499999984384,4.108022e-06,304.63499999984384,8.323359e-06,304.63499999984384,5.074241e-05
304.6499999998438,0.001581091,304.6499999998438,3.853228e-06,304.6499999998438,8.321666e-06,304.6499999998438,5.073852e-05
304.6649999998438,0.001573999,304.6649999998438,3.267676e-06,304.6649999998438,8.392462e-06,304.6649999998438,5.074158e-05
304.6799999998438,0.001563047,304.6799999998438,3.044509e-06,304.6799999998438,8.380704e-06,304.6799999998438,5.018973e-05
304.6949999998438,0.001450092,304.6949999998438,2.916909e-06,304.6949999998438,7.965326e-06,304.6949999998438,4.450474e-05
304.7099999998438,0.001362486,304.7099999998438,2.783465e-06,304.7099999998438,7.737468e-06,304.7099999998438,4.124756e-05
304.72499999984376,0.001344279,304.72499999984376,2.892662e-06,304.72499999984376,7.164627e-06,304.72499999984376,3.982805e-05
304.73999999984375,0.001122049,304.73999999984375,2.696058e-06,304.73999999984375,4.581393e-06,304.73999999984375,2.583079e-05
304.75499999984373,0.0007497881,304.75499999984373,2.818668e-06,304.75499999984373,3.775675e-06,304.75499999984373,1.350117e-05
304.7699999998437,0.0006847629,304.7699999998437,3.058359e-06,304.7699999998437,3.745709e-06,304.7699999998437,1.22173e-05
304.7849999998437,0.000704743,304.7849999998437,2.974296e-06,304.7849999998437,3.492716e-06,304.7849999998437,1.05505e-05
304.7999999998437,0.0006877019,304.7999999998437,2.964809e-06,304.7999999998437,3.344373e-06,304.7999999998437,1.056251e-05
304.8149999998437,0.0006411502,304.8149999998437,3.049133e-06,304.8149999998437,3.356985e-06,304.8149999998437,1.018639e-05
304.82999999984366,0.000660624,304.82999999984366,3.067557e-06,304.82999999984366,3.512824e-06,304.82999999984366,1.000359e-05
304.84499999984365,0.0006684446,304.84499999984365,3.131187e-06,304.84499999984365,3.500774e-06,304.84499999984365,9.962669e-06
304.85999999984364,0.00065992,304.85999999984364,3.126685e-06,304.85999999984364,3.448066e-06,304.85999999984364,1.033875e-05
304.8749999998436,0.0006708337,304.8749999998436,3.11314e-06,304.8749999998436,3.427579e-06,304.8749999998436,1.05785e-05
304.8899999998436,0.0007534106,304.8899999998436,3.140172e-06,304.8899999998436,3.584279e-06,304.8899999998436,1.284348e-05
304.9049999998436,0.0008125179,304.9049999998436,3.189136e-06,304.9049999998436,3.78313e-06,304.9049999998436,1.476024e-05
304.9199999998436,0.0008184282,304.9199999998436,3.094987e-06,304.9199999998436,3.860533e-06,304.9199999998436,1.494235e-05
304.93499999984357,0.0008349795,304.93499999984357,3.11314e-06,304.93499999984357,3.925663e-06,304.93499999984357,1.544852e-05
304.94999999984356,0.0008395035,304.94999999984356,3.211145e-06,304.94999999984356,4.354386e-06,304.94999999984356,1.645693e-05
304.96499999984354,0.0008500612,304.96499999984354,3.228645e-06,304.96499999984354,4.83569e-06,304.96499999984354,1.716007e-05
304.9799999998435,0.0008683075,304.9799999998435,3.140172e-06,304.9799999998435,5.137942e-06,304.9799999998435,1.801e-05
304.9949999998435,0.0008486148,304.9949999998435,3.228645e-06,304.9949999998435,5.148897e-06,304.9949999998435,1.809038e-05
305.0099999998435,0.0007895817,305.0099999998435,3.19355e-06,305.0099999998435,5.331691e-06,305.0099999998435,1.74232e-05
305.0249999998435,0.0008387806,305.0249999998435,3.094987e-06,305.0249999998435,5.433755e-06,305.0249999998435,1.947485e-05
305.0399999998435,0.00133854,305.0399999998435,3.090432e-06,305.0399999998435,5.908198e-06,305.0399999998435,3.130062e-05
305.05499999984346,0.001701875,305.05499999984346,3.049133e-06,305.05499999984346,5.93674e-06,305.05499999984346,3.470423e-05
305.06999999984345,0.001869031,305.06999999984345,3.228645e-06,305.06999999984345,6.21269e-06,305.06999999984345,4.058343e-05
305.08499999984343,0.002147897,305.08499999984343,3.323245e-06,305.08499999984343,6.716067e-06,305.08499999984343,4.473615e-05
305.0999999998434,0.002173258,305.0999999998434,3.259043e-06,305.0999999998434,6.747456e-06,305.0999999998434,4.484591e-05
305.1149999998434,0.002177105,305.1149999998434,3.24605e-06,305.1149999998434,6.947012e-06,305.1149999998434,4.503961e-05
305.1299999998434,0.002187485,305.1299999998434,3.29344e-06,305.1299999998434,6.981399e-06,305.1299999998434,4.516985e-05
305.1449999998434,0.002195705,305.1449999998434,3.284874e-06,305.1449999998434,6.977362e-06,305.1449999998434,4.565006e-05
305.15999999984336,0.002179569,305.15999999984336,3.297714e-06,305.15999999984336,6.865424e-06,305.15999999984336,4.615183e-05
305.17499999984335,0.00219933,305.17499999984335,3.280583e-06,305.17499999984335,7.392992e-06,305.17499999984335,4.591129e-05
305.18999999984334,0.002228349,305.18999999984334,3.271984e-06,305.18999999984334,7.998858e-06,305.18999999984334,4.591007e-05
305.2049999998433,0.002236431,305.2049999998433,3.254718e-06,305.2049999998433,7.667973e-06,305.2049999998433,4.567535e-05
305.2199999998433,0.002248781,305.2199999998433,3.267676e-06,305.2199999998433,7.543885e-06,305.2199999998433,4.542082e-05
305.2349999998433,0.002305586,305.2349999998433,3.373728e-06,305.2349999998433,7.818965e-06,305.2349999998433,4.536e-05
305.2499999998433,0.002470694,305.2499999998433,3.443979e-06,305.2499999998433,9.23781e-06,305.2499999998433,4.529256e-05
305.26499999984327,0.002580536,305.26499999984327,3.224279e-06,305.26499999984327,9.74827e-06,305.26499999984327,4.508713e-05
305.27999999984326,0.00258139,305.27999999984326,3.263362e-06,305.27999999984326,1.012258e-05,305.27999999984326,4.260396e-05
305.29499999984324,0.002375851,305.29499999984324,3.233005e-06,305.29499999984324,1.099893e-05,305.29499999984324,3.364823e-05
305.3099999998432,0.002376456,305.3099999998432,3.094987e-06,305.3099999998432,1.124715e-05,305.3099999998432,3.111646e-05
305.3249999998432,0.00237957,305.3249999998432,2.964809e-06,305.3249999998432,1.107932e-05,305.3249999998432,2.469153e-05
305.3399999998432,0.002206535,305.3399999998432,3.002579e-06,305.3399999998432,1.129465e-05,305.3399999998432,1.952398e-05
305.3549999998432,0.002232121,305.3549999998432,3.094987e-06,305.3549999998432,1.174225e-05,305.3549999998432,1.94951e-05
305.3699999998432,0.002256338,305.3699999998432,3.646619e-06,305.3699999998432,1.179492e-05,305.3699999998432,1.929609e-05
305.38499999984316,0.002248258,305.38499999984316,4.453544e-06,305.38499999984316,1.224264e-05,305.38499999984316,1.905957e-05
305.39999999984315,0.002292475,305.39999999984315,4.612038e-06,305.39999999984315,1.230233e-05,305.39999999984315,1.741673e-05
305.41499999984313,0.002295959,305.41499999984313,4.824024e-06,305.41499999984313,1.213981e-05,305.41499999984313,1.645864e-05
305.4299999998431,0.002267035,305.4299999998431,5.326404e-06,305.4299999998431,1.178058e-05,305.4299999998431,1.675384e-05
305.4449999998431,0.002307874,305.4449999998431,5.289249e-06,305.4449999998431,1.142485e-05,305.4449999998431,1.742563e-05
305.4599999998431,0.002316111,305.4599999998431,5.425972e-06,305.4599999998431,1.128966e-05,305.4599999998431,1.765053e-05
305.4749999998431,0.002337537,305.4749999998431,5.389503e-06,305.4749999998431,1.125842e-05,305.4749999998431,1.788363e-05
305.48999999984306,0.002270139,305.48999999984306,5.436346e-06,305.48999999984306,1.114398e-05,305.48999999984306,1.825471e-05
305.50499999984305,0.002128068,305.50499999984305,5.381656e-06,305.50499999984305,1.192557e-05,305.50499999984305,1.864714e-05
305.51999999984304,0.002031008,305.51999999984304,5.438937e-06,305.51999999984304,1.149492e-05,305.51999999984304,1.889329e-05
305.534999999843,0.001974137,305.534999999843,5.402556e-06,305.534999999843,1.109711e-05,305.534999999843,1.92581e-05
305.549999999843,0.002022498,305.549999999843,5.436346e-06,305.549999999843,1.069109e-05,305.549999999843,2.010621e-05
305.564999999843,0.001919695,305.564999999843,5.469929e-06,305.564999999843,1.46106e-05,305.564999999843,2.007325e-05
305.579999999843,0.001808921,305.579999999843,5.632336e-06,305.579999999843,1.620941e-05,305.579999999843,2.073057e-05
305.59499999984297,0.001881802,305.59499999984297,5.649817e-06,305.59499999984297,1.694612e-05,305.59499999984297,2.143941e-05
305.60999999984296,0.001927263,305.60999999984296,5.433755e-06,305.60999999984296,1.696025e-05,305.60999999984296,2.137031e-05
305.62499999984294,0.001902601,305.62499999984294,4.976383e-06,305.62499999984294,1.732103e-05,305.62499999984294,2.061883e-05
305.6399999998429,0.002042753,305.6399999998429,4.630328e-06,305.6399999998429,1.746842e-05,305.6399999998429,2.17227e-05
305.6549999998429,0.002256027,305.6549999998429,4.453544e-06,305.6549999998429,1.781971e-05,305.6549999998429,2.235044e-05
305.6699999998429,0.002565996,305.6699999998429,4.142171e-06,305.6699999998429,1.829403e-05,305.6699999998429,2.691299e-05
305.6849999998429,0.002807358,305.6849999998429,4.189512e-06,305.6849999998429,1.843822e-05,305.6849999998429,4.429408e-05
305.6999999998429,0.003095117,305.6999999998429,4.189512e-06,305.6999999998429,1.957442e-05,305.6999999998429,5.059284e-05
305.71499999984286,0.003345896,305.71499999984286,4.142171e-06,305.71499999984286,2.387829e-05,305.71499999984286,5.144326e-05
305.72999999984285,0.003556293,305.72999999984285,4.182782e-06,305.72999999984285,4.019805e-05,305.72999999984285,5.285013e-05
305.74499999984283,0.003657226,305.74499999984283,4.145571e-06,305.74499999984283,4.2502e-05,305.74499999984283,5.345096e-05
305.7599999998428,0.003794774,305.7599999998428,4.108022e-06,305.7599999998428,4.527793e-05,305.7599999998428,5.578784e-05
305.7749999998428,0.003961721,305.7749999998428,4.162526e-06,305.7749999998428,5.278745e-05,305.7749999998428,5.818271e-05
305.7899999998428,0.004003833,305.7899999998428,4.223002e-06,305.7899999998428,5.596457e-05,305.7899999998428,5.962548e-05
305.8049999998428,0.003959944,305.8049999998428,4.256228e-06,305.8049999998428,5.605913e-05,305.8049999998428,6.085965e-05
305.81999999984276,0.004012677,305.81999999984276,4.101159e-06,305.81999999984276,5.554187e-05,305.81999999984276,6.291548e-05
305.83499999984275,0.00399383,305.83499999984275,4.007346e-06,305.83499999984275,5.678119e-05,305.83499999984275,6.422882e-05
305.84999999984274,0.004090348,305.84999999984274,4.007346e-06,305.84999999984274,5.731062e-05,305.84999999984274,6.685458e-05
305.8649999998427,0.004146399,305.8649999998427,3.92925e-06,305.8649999998427,5.721025e-05,305.8649999998427,6.871146e-05
305.8799999998427,0.004132614,305.8799999998427,3.797995e-06,305.8799999998427,5.721468e-05,305.8799999998427,7.19351e-05
305.8949999998427,0.00412631,305.8949999998427,3.797995e-06,305.8949999998427,5.725751e-05,305.8949999998427,7.415233e-05
305.9099999998427,0.003934323,305.9099999998427,3.820184e-06,305.9099999998427,5.716394e-05,305.9099999998427,7.76315e-05
305.92499999984267,0.003689858,305.92499999984267,3.756974e-06,305.92499999984267,5.728751e-05,305.92499999984267,7.902028e-05
305.93999999984266,0.003602238,305.93999999984266,3.464369e-06,305.93999999984266,5.717676e-05,305.93999999984266,7.57054e-05
305.95499999984264,0.003406428,305.95499999984264,3.356985e-06,305.95499999984264,5.68355e-05,305.95499999984264,7.675649e-05
305.9699999998426,0.00314013,305.9699999998426,3.344373e-06,305.9699999998426,5.231487e-05,305.9699999998426,8.18318e-05
305.9849999998426,0.002891351,305.9849999998426,3.158065e-06,305.9849999998426,4.143803e-05,305.9849999998426,8.528789e-05
305.9999999998426,0.002741292,305.9999999998426,3.067557e-06,305.9999999998426,3.992131e-05,305.9999999998426,8.962426e-05
306.0149999998426,0.002647934,306.0149999998426,3.067557e-06,306.0149999998426,3.56651e-05,306.0149999998426,9.361203e-05
306.0299999998426,0.002451449,306.0299999998426,3.072146e-06,306.0299999998426,2.433872e-05,306.0299999998426,9.645097e-05
306.04499999984256,0.00229062,306.04499999984256,3.062961e-06,306.04499999984256,1.855095e-05,306.04499999984256,9.843868e-05
306.05999999984255,0.002228895,306.05999999984255,3.153601e-06,306.05999999984255,1.833402e-05,306.05999999984255,0.0001017191
306.07499999984253,0.002144642,306.07499999984253,3.126685e-06,306.07499999984253,1.683939e-05,306.07499999984253,0.0001035707
306.0899999998425,0.002038169,306.0899999998425,3.067557e-06,306.0899999998425,1.133946e-05,306.0899999998425,0.0001061044
306.1049999998425,0.001927117,306.1049999998425,3.039879e-06,306.1049999998425,9.937185e-06,306.1049999998425,0.0001075012
306.1199999998425,0.001751497,306.1199999998425,3.011947e-06,306.1199999998425,1.007235e-05,306.1199999998425,0.0001088651
306.1349999998425,0.001703415,306.1349999998425,2.979029e-06,306.1349999998425,8.583318e-06,306.1349999998425,0.0001083949
306.14999999984246,0.001632597,306.14999999984246,2.979029e-06,306.14999999984246,8.512456e-06,306.14999999984246,0.000109172
306.16499999984245,0.001535888,306.16499999984245,2.960054e-06,306.16499999984245,7.283574e-06,306.16499999984245,0.0001092893
306.17999999984244,0.001472726,306.17999999984244,2.969556e-06,306.17999999984244,5.939112e-06,306.17999999984244,0.0001080477
306.1949999998424,0.001441214,306.1949999998424,2.778399e-06,306.1949999998424,5.227635e-06,306.1949999998424,0.0001064316
306.2099999998424,0.001507154,306.2099999998424,2.752932e-06,306.2099999998424,5.018664e-06,306.2099999998424,0.0001049336
306.2249999998424,0.001497504,306.2249999998424,2.828646e-06,306.2249999998424,5.302549e-06,306.2249999998424,0.0001029674
306.2399999998424,0.001477162,306.2399999998424,2.863294e-06,306.2399999998424,5.433755e-06,306.2399999998424,0.0001002763
306.25499999984237,0.001417123,306.25499999984237,2.868209e-06,306.25499999984237,6.114414e-06,306.25499999984237,9.820257e-05
306.26999999984236,0.001402395,306.26999999984236,2.902385e-06,306.26999999984236,7.05566e-06,306.26999999984236,9.49604e-05
306.28499999984234,0.00141953,306.28499999984234,2.798606e-06,306.28499999984234,7.115304e-06,306.28499999984234,9.40167e-05
306.2999999998423,0.001565967,306.2999999998423,2.732388e-06,306.2999999998423,7.057657e-06,306.2999999998423,9.311852e-05
306.3149999998423,0.001855167,306.3149999998423,3.090432e-06,306.3149999998423,7.017624e-06,306.3149999998423,9.504003e-05
306.3299999998423,0.001967654,306.3299999998423,3.452149e-06,306.3299999998423,7.350954e-06,306.3299999998423,9.127959e-05
306.3449999998423,0.002293265,306.3449999998423,3.771943e-06,306.3449999998423,7.851327e-06,306.3449999998423,9.870449e-05
306.3599999998423,0.002657701,306.3599999998423,3.885991e-06,306.3599999998423,7.990047e-06,306.3599999998423,0.000101207
306.37499999984226,0.00276156,306.37499999984226,3.911283e-06,306.37499999984226,7.612662e-06,306.37499999984226,0.0001005268
306.38999999984225,0.002752721,306.38999999984225,4.331681e-06,306.38999999984225,8.063755e-06,306.38999999984225,9.871947e-05
306.40499999984223,0.00274529,306.40499999984223,4.334932e-06,306.40499999984223,8.404203e-06,306.40499999984223,9.735676e-05
306.4199999998422,0.002726235,306.4199999998422,4.376973e-06,306.4199999998422,8.331817e-06,306.4199999998422,9.5691e-05
306.4349999998422,0.002761843,306.4349999998422,4.431347e-06,306.4349999998422,8.399174e-06,306.4349999998422,9.449018e-05
306.4499999998422,0.002753002,306.4499999998422,4.431347e-06,306.4499999998422,9.018676e-06,306.4499999998422,9.453251e-05
306.4649999998422,0.002672893,306.4649999998422,4.386617e-06,306.4649999998422,9.118093e-06,306.4649999998422,9.139202e-05
306.47999999984216,0.002700263,306.47999999984216,4.354386e-06,306.47999999984216,8.897593e-06,306.47999999984216,9.091357e-05
306.49499999984215,0.002684405,306.49499999984215,4.341427e-06,306.49499999984215,8.808488e-06,306.49499999984215,8.976294e-05
306.50999999984214,0.002695203,306.50999999984214,4.302314e-06,306.50999999984214,8.319974e-06,306.50999999984214,8.867398e-05
306.5249999998421,0.002703417,306.5249999998421,4.269446e-06,306.5249999998421,8.91183e-06,306.5249999998421,8.839124e-05
306.5399999998421,0.002658973,306.5399999998421,4.249604e-06,306.5399999998421,1.055717e-05,306.5399999998421,8.414924e-05
306.5549999998421,0.002553927,306.5549999998421,4.189512e-06,306.5549999998421,1.060775e-05,306.5549999998421,8.217382e-05
306.5699999998421,0.002272379,306.5699999998421,3.786851e-06,306.5699999998421,1.078423e-05,306.5699999998421,7.555062e-05
306.58499999984207,0.002231149,306.58499999984207,3.382069e-06,306.58499999984207,1.242765e-05,306.58499999984207,7.475682e-05
306.59999999984205,0.001913742,306.59999999984205,3.189136e-06,306.59999999984205,1.244577e-05,306.59999999984205,6.061008e-05
306.61499999984204,0.0013876,306.61499999984204,3.076727e-06,306.61499999984204,1.28993e-05,306.61499999984204,5.021022e-05
306.629999999842,0.001449997,306.629999999842,2.964809e-06,306.629999999842,1.388084e-05,306.629999999842,4.91205e-05
306.644999999842,0.001454504,306.644999999842,2.295304e-06,306.644999999842,1.399404e-05,306.644999999842,4.781612e-05
306.659999999842,0.001535917,306.659999999842,2.319723e-06,306.659999999842,1.43263e-05,306.659999999842,4.71241e-05
306.674999999842,0.001531674,306.674999999842,2.361848e-06,306.674999999842,1.432532e-05,306.674999999842,4.648e-05
306.689999999842,0.001487844,306.689999999842,2.361848e-06,306.689999999842,1.426324e-05,306.689999999842,4.547166e-05
306.70499999984196,0.001490481,306.70499999984196,2.455423e-06,306.70499999984196,1.414223e-05,306.70499999984196,4.394927e-05
306.71999999984195,0.001477861,306.71999999984195,2.40909e-06,306.71999999984195,1.417308e-05,306.71999999984195,4.296187e-05
306.73499999984193,0.001469707,306.73499999984193,2.443922e-06,306.73499999984193,1.483164e-05,306.73499999984193,4.240777e-05
306.7499999998419,0.00153431,306.7499999998419,2.438151e-06,306.7499999998419,1.483069e-05,306.7499999998419,4.170167e-05
306.7649999998419,0.001557838,306.7649999998419,2.461153e-06,306.7649999998419,1.491688e-05,306.7649999998419,4.128238e-05
306.7799999998419,0.001583945,306.7799999998419,2.426568e-06,306.7799999998419,1.371648e-05,306.7799999998419,4.029745e-05
306.7949999998419,0.001638528,306.7949999998419,2.46687e-06,306.7949999998419,1.686864e-05,306.7949999998419,3.896453e-05
306.80999999984186,0.001622913,306.80999999984186,2.426568e-06,306.80999999984186,2.039627e-05,306.80999999984186,3.884613e-05
306.82499999984185,0.001539451,306.82499999984185,2.46687e-06,306.82499999984185,2.69198e-05,306.82499999984185,3.954408e-05
306.83999999984184,0.001560594,306.83999999984184,2.46687e-06,306.83999999984184,3.0299e-05,306.83999999984184,3.919343e-05
306.8549999998418,0.001601541,306.8549999998418,2.46687e-06,306.8549999998418,3.051257e-05,306.8549999998418,3.99386e-05
306.8699999998418,0.001785905,306.8699999998418,2.534468e-06,306.8699999998418,3.035891e-05,306.8699999998418,3.912472e-05
306.8849999998418,0.002165856,306.8849999998418,2.643292e-06,306.8849999998418,3.238229e-05,306.8849999998418,3.81583e-05
306.8999999998418,0.002209353,306.8999999998418,2.690828e-06,306.8999999998418,3.292413e-05,306.8999999998418,3.775899e-05
306.91499999984177,0.002221977,306.91499999984177,2.722057e-06,306.91499999984177,3.643063e-05,306.91499999984177,3.773884e-05
306.92999999984175,0.002495013,306.92999999984175,2.653929e-06,306.92999999984175,3.84796e-05,306.92999999984175,3.78015e-05
306.94499999984174,0.002795768,306.94499999984174,2.556603e-06,306.94499999984174,3.873501e-05,306.94499999984174,3.781863e-05
306.9599999998417,0.003066844,306.9599999998417,2.578549e-06,306.9599999998417,4.725813e-05,306.9599999998417,3.969626e-05
306.9749999998417,0.003129127,306.9749999998417,2.637958e-06,306.9749999998417,7.033083e-05,306.9749999998417,4.335517e-05
306.9899999998417,0.003395341,306.9899999998417,2.659232e-06,306.9899999998417,7.544875e-05,306.9899999998417,4.810777e-05
307.0049999998417,0.003634526,307.0049999998417,2.696058e-06,307.0049999998417,0.0001028068,307.0049999998417,4.722921e-05
307.0199999998417,0.003807128,307.0199999998417,2.798606e-06,307.0199999998417,0.0001344705,307.0199999998417,4.730282e-05
307.03499999984166,0.003917109,307.03499999984166,2.773325e-06,307.03499999984166,0.0001372466,307.03499999984166,4.760768e-05
307.04999999984165,0.004126965,307.04999999984165,2.727227e-06,307.04999999984165,0.0001479479,307.04999999984165,4.786235e-05
307.06499999984163,0.004331225,307.06499999984163,2.664524e-06,307.06499999984163,0.0001572991,307.06499999984163,4.785852e-05
307.0799999998416,0.004395304,307.0799999998416,2.616511e-06,307.0799999998416,0.0001576689,307.0799999998416,4.620643e-05
307.0949999998416,0.004388991,307.0949999998416,2.632612e-06,307.0949999998416,0.0001574297,307.0949999998416,4.629536e-05
307.1099999998416,0.004526938,307.1099999998416,2.643292e-06,307.1099999998416,0.0001579767,307.1099999998416,4.537428e-05
307.1249999998416,0.004562304,307.1249999998416,2.605721e-06,307.1249999998416,0.00015862,307.1249999998416,4.507807e-05
307.13999999984156,0.004411116,307.13999999984156,2.5676e-06,307.13999999984156,0.0001584024,307.13999999984156,4.464664e-05
307.15499999984155,0.00437169,307.15499999984155,2.54002e-06,307.15499999984155,0.0001582248,307.15499999984155,4.453101e-05
307.16999999984154,0.004337859,307.16999999984154,2.523327e-06,307.16999999984154,0.0001572918,307.16999999984154,4.41686e-05
307.1849999998415,0.004146538,307.1849999998415,2.54556e-06,307.1849999998415,0.0001570355,307.1849999998415,4.288967e-05
307.1999999998415,0.003897501,307.1999999998415,2.5676e-06,307.1999999998415,0.0001567963,307.1999999998415,4.216759e-05
307.2149999998415,0.003645787,307.2149999998415,2.443922e-06,307.2149999998415,0.0001516079,307.2149999998415,3.868952e-05
307.2299999998415,0.00355867,307.2299999998415,2.307546e-06,307.2299999998415,0.000141722,307.2299999998415,3.03821e-05
307.24499999984147,0.003371908,307.24499999984147,2.783465e-06,307.24499999984147,0.0001388971,307.24499999984147,2.711168e-05
307.25999999984145,0.003148624,307.25999999984145,3.202359e-06,307.25999999984145,0.0001121405,307.25999999984145,2.726452e-05
307.27499999984144,0.002934897,307.27499999984144,4.463023e-06,307.27499999984144,7.954832e-05,307.27499999984144,2.759117e-05
307.2899999998414,0.002735832,307.2899999998414,4.593675e-06,307.2899999998414,7.563672e-05,307.2899999998414,2.666268e-05
307.3049999998414,0.002372142,307.3049999998414,4.942298e-06,307.3049999998414,5.192025e-05,307.3049999998414,2.454849e-05
307.3199999998414,0.001917052,307.3199999998414,5.384273e-06,307.3199999998414,2.681336e-05,307.3199999998414,2.446687e-05
307.3349999998414,0.001852621,307.3349999998414,5.407768e-06,307.3349999998414,1.997476e-05,307.3349999998414,2.432598e-05
307.3499999998414,0.001780517,307.3499999998414,5.521194e-06,307.3499999998414,1.931944e-05,307.3499999998414,2.323909e-05
307.36499999984136,0.001276543,307.36499999984136,5.533936e-06,307.36499999984136,1.565504e-05,307.36499999984136,2.598575e-05
307.37999999984135,0.001145369,307.37999999984135,5.513535e-06,307.37999999984135,8.771629e-06,307.37999999984135,2.747964e-05
307.39499999984133,0.001447203,307.39499999984133,5.490492e-06,307.39499999984133,5.516089e-06,307.39499999984133,2.78473e-05
307.4099999998413,0.00155869,307.4099999998413,5.48279e-06,307.4099999998413,5.536481e-06,307.4099999998413,2.837198e-05
307.4249999998413,0.001580258,307.4249999998413,5.495621e-06,307.4249999998413,5.56693e-06,307.4249999998413,2.86349e-05
307.4399999998413,0.001591521,307.4399999998413,5.493057e-06,307.4399999998413,5.741327e-06,307.4399999998413,2.864622e-05
307.4549999998413,0.001683725,307.4549999998413,5.516089e-06,307.4549999998413,5.758477e-06,307.4549999998413,2.99995e-05
307.46999999984126,0.001719172,307.46999999984126,5.533936e-06,307.46999999984126,5.251831e-06,307.46999999984126,3.095624e-05
307.48499999984125,0.001758752,307.48499999984125,5.559333e-06,307.48499999984125,4.979213e-06,307.48499999984125,3.087149e-05
307.49999999984124,0.001793789,307.49999999984124,5.219545e-06,307.49999999984124,4.942298e-06,307.49999999984124,3.034313e-05
307.5149999998412,0.001868775,307.5149999998412,4.765263e-06,307.5149999998412,4.982041e-06,307.5149999998412,3.033431e-05
307.5299999998412,0.001887791,307.5299999998412,3.925663e-06,307.5299999998412,4.922306e-06,307.5299999998412,3.225982e-05
307.5449999998412,0.002106112,307.5449999998412,3.786851e-06,307.5449999998412,5.148897e-06,307.5449999998412,4.510181e-05
307.5599999998412,0.002399594,307.5599999998412,3.314757e-06,307.5599999998412,5.95096e-06,307.5599999998412,5.549239e-05
307.57499999984117,0.002610926,307.57499999984117,3.219907e-06,307.57499999984117,6.214957e-06,307.57499999984117,6.778782e-05
307.58999999984115,0.00292464,307.58999999984115,3.189136e-06,307.58999999984115,6.526725e-06,307.58999999984115,7.943154e-05
307.60499999984114,0.003124874,307.60499999984114,3.053749e-06,307.60499999984114,6.511599e-06,307.60499999984114,8.026634e-05
307.6199999998411,0.003109825,307.6199999998411,3.062961e-06,307.6199999998411,6.178585e-06,307.6199999998411,8.089515e-05
307.6349999998411,0.003033688,307.6349999998411,3.104077e-06,307.6349999998411,5.857914e-06,307.6349999998411,8.04068e-05
307.6499999998411,0.002933272,307.6499999998411,3.094987e-06,307.6499999998411,5.853103e-06,307.6499999998411,8.029985e-05
307.6649999998411,0.002880777,307.6649999998411,3.076727e-06,307.6649999998411,5.843468e-06,307.6649999998411,8.038016e-05
307.6799999998411,0.002857902,307.6799999998411,3.025945e-06,307.6799999998411,5.986361e-06,307.6799999998411,8.038928e-05
307.69499999984106,0.002849301,307.69499999984106,3.01662e-06,307.69499999984106,5.709342e-06,307.69499999984106,8.059456e-05
307.70999999984105,0.00283756,307.70999999984105,3.021286e-06,307.70999999984105,5.699464e-06,307.70999999984105,8.0194e-05
307.72499999984103,0.002844265,307.72499999984103,2.969556e-06,307.72499999984103,5.654801e-06,307.72499999984103,7.976955e-05
307.739999999841,0.002870528,307.739999999841,2.931361e-06,307.739999999841,5.758477e-06,307.739999999841,7.976919e-05
307.754999999841,0.002885088,307.754999999841,2.974296e-06,307.754999999841,5.972226e-06,307.754999999841,7.991845e-05
307.769999999841,0.002856881,307.769999999841,2.95052e-06,307.769999999841,6.139704e-06,307.769999999841,7.981792e-05
307.784999999841,0.002897099,307.784999999841,2.960054e-06,307.784999999841,6.494269e-06,307.784999999841,7.928989e-05
307.79999999984096,0.002749164,307.79999999984096,2.955291e-06,307.79999999984096,6.896133e-06,307.79999999984096,6.673522e-05
307.81499999984095,0.002595734,307.81499999984095,2.788521e-06,307.81499999984095,7.93698e-06,307.81499999984095,6.236633e-05
307.82999999984094,0.002368915,307.82999999984094,2.443922e-06,307.82999999984094,8.284342e-06,307.82999999984094,4.41236e-05
307.8449999998409,0.002036912,307.8449999998409,2.41493e-06,307.8449999998409,1.055584e-05,307.8449999998409,3.039091e-05
307.8599999998409,0.001821246,307.8599999998409,2.379674e-06,307.8599999998409,1.173625e-05,307.8599999998409,2.864966e-05
307.8749999998409,0.001837204,307.8749999998409,2.46687e-06,307.8749999998409,1.176263e-05,307.8749999998409,2.8787e-05
307.8899999998409,0.001812684,307.8899999998409,2.443922e-06,307.8899999998409,1.287525e-05,307.8899999998409,2.878651e-05
307.90499999984087,0.0017907,307.90499999984087,2.455423e-06,307.90499999984087,1.443699e-05,307.90499999984087,2.813215e-05
307.91999999984085,0.001936946,307.91999999984085,2.461153e-06,307.91999999984085,1.435871e-05,307.91999999984085,2.764472e-05
307.93499999984084,0.001970674,307.93499999984084,2.495258e-06,307.93499999984084,2.160175e-05,307.93499999984084,2.760597e-05
307.9499999998408,0.002303328,307.9499999998408,2.46687e-06,307.9499999998408,2.937506e-05,307.9499999998408,2.742936e-05
307.9649999998408,0.002498229,307.9649999998408,2.420756e-06,307.9649999998408,3.056976e-05,307.9649999998408,2.796945e-05
307.9799999998408,0.002469901,307.9799999998408,2.495258e-06,307.9799999998408,3.83406e-05,307.9799999998408,2.845131e-05
307.9949999998408,0.002415932,307.9949999998408,2.449679e-06,307.9949999998408,5.075657e-05,307.9949999998408,2.829542e-05
308.0099999998408,0.002356362,308.0099999998408,2.483942e-06,308.0099999998408,5.179584e-05,308.0099999998408,2.751755e-05
308.02499999984076,0.002385958,308.02499999984076,2.472574e-06,308.02499999984076,5.307833e-05,308.02499999984076,2.698669e-05
308.03999999984075,0.00260239,308.03999999984075,2.41493e-06,308.03999999984075,5.55614e-05,308.03999999984075,2.597708e-05
308.05499999984073,0.002720156,308.05499999984073,2.449679e-06,308.05499999984073,5.82253e-05,308.05499999984073,2.710129e-05
308.0699999998407,0.002677438,308.0699999998407,2.472574e-06,308.0699999998407,5.90784e-05,308.0699999998407,2.738413e-05
308.0849999998407,0.002742233,308.0849999998407,2.443922e-06,308.0849999998407,6.124497e-05,308.0849999998407,2.704822e-05
308.0999999998407,0.002720491,308.0999999998407,2.489606e-06,308.0999999998407,6.103392e-05,308.0999999998407,2.596948e-05
308.1149999998407,0.00271437,308.1149999998407,2.506524e-06,308.1149999998407,6.090939e-05,308.1149999998407,2.621029e-05
308.12999999984066,0.002765687,308.12999999984066,2.611121e-06,308.12999999984066,6.099282e-05,308.12999999984066,2.601122e-05
308.14499999984065,0.002824435,308.14499999984065,3.090432e-06,308.14499999984065,6.07162e-05,308.14499999984065,2.863736e-05
308.15999999984064,0.002921502,308.15999999984064,4.282623e-06,308.15999999984064,6.062077e-05,308.15999999984064,3.403493e-05
308.1749999998406,0.002915976,308.1749999998406,4.341427e-06,308.1749999998406,6.169801e-05,308.1749999998406,5.19151e-05
308.1899999998406,0.003167301,308.1899999998406,4.815255e-06,308.1899999998406,5.785323e-05,308.1899999998406,5.754586e-05
308.2049999998406,0.00320647,308.2049999998406,5.113207e-06,308.2049999998406,6.191817e-05,308.2049999998406,5.791528e-05
308.2199999998406,0.003318126,308.2199999998406,5.107694e-06,308.2199999998406,0.0001099862,308.2199999998406,5.826158e-05
308.23499999984057,0.003396912,308.23499999984057,5.168013e-06,308.23499999984057,0.000128713,308.23499999984057,5.871749e-05
308.24999999984055,0.003616647,308.24999999984055,5.389503e-06,308.24999999984055,0.0001733084,308.24999999984055,5.889332e-05
308.26499999984054,0.003808108,308.26499999984054,5.451871e-06,308.26499999984054,0.0002342237,308.26499999984054,5.910606e-05
308.2799999998405,0.00391981,308.2799999998405,5.539025e-06,308.2799999998405,0.0002393488,308.2799999998405,5.924436e-05
308.2949999998405,0.003810295,308.2949999998405,5.642331e-06,308.2949999998405,0.0002471162,308.2949999998405,5.917084e-05
308.3099999998405,0.003676132,308.3099999998405,5.672212e-06,308.3099999998405,0.0002606896,308.3099999998405,5.82889e-05
308.3249999998405,0.003791121,308.3249999998405,5.667242e-06,308.3249999998405,0.000263433,308.3249999998405,5.834494e-05
308.3399999998405,0.003956639,308.3399999998405,5.684616e-06,308.3399999998405,0.0002631332,308.3399999998405,5.856447e-05
308.35499999984046,0.003987156,308.35499999984046,5.672212e-06,308.35499999984046,0.0002638215,308.35499999984046,5.853079e-05
308.36999999984045,0.004008625,308.36999999984045,5.687093e-06,308.36999999984045,0.0002646784,308.36999999984045,5.811318e-05
308.38499999984043,0.003946539,308.38499999984043,5.521194e-06,308.38499999984043,0.000264888,308.38499999984043,5.759651e-05
308.3999999998404,0.003814002,308.3999999998404,5.257193e-06,308.3999999998404,0.000264902,308.3999999998404,5.444736e-05
308.4149999998404,0.003736995,308.4149999998404,4.587538e-06,308.4149999998404,0.0002648612,308.4149999998404,4.94435e-05
308.4299999998404,0.003652767,308.4299999998404,4.466178e-06,308.4299999998404,0.0002644613,308.4299999998404,2.761974e-05
308.4449999998404,0.003452509,308.4449999998404,3.932833e-06,308.4449999998404,0.0002643916,308.4449999998404,2.316137e-05
308.45999999984036,0.003224739,308.45999999984036,3.726858e-06,308.45999999984036,0.0002577018,308.45999999984036,2.306996e-05
308.47499999984035,0.003041222,308.47499999984035,3.707911e-06,308.47499999984035,0.0002392267,308.47499999984035,2.27923e-05
308.48999999984034,0.002914515,308.48999999984034,3.607783e-06,308.48999999984034,0.000228782,308.48999999984034,2.198633e-05
308.5049999998403,0.00260303,308.5049999998403,3.254718e-06,308.5049999998403,0.0001744449,308.5049999998403,2.197479e-05
308.5199999998403,0.002209059,308.5199999998403,3.189136e-06,308.5199999998403,0.0001131679,308.5199999998403,2.126458e-05
308.5349999998403,0.002049128,308.5349999998403,3.11314e-06,308.5349999998403,0.0001080329,308.5349999998403,1.961539e-05
308.5499999998403,0.002050808,308.5499999998403,3.021286e-06,308.5499999998403,8.172586e-05,308.5499999998403,1.837623e-05
308.56499999984027,0.002053584,308.56499999984027,3.276286e-06,308.56499999984027,3.985315e-05,308.56499999984027,1.83724e-05
308.57999999984025,0.001649293,308.57999999984025,3.271984e-06,308.57999999984025,2.897479e-05,308.57999999984025,1.805218e-05
308.59499999984024,0.001268936,308.59499999984024,3.237359e-06,308.59499999984024,2.797347e-05,308.59499999984024,1.802251e-05
308.6099999998402,0.001197663,308.6099999998402,3.468433e-06,308.6099999998402,2.106424e-05,308.6099999998402,1.945097e-05
308.6249999998402,0.00128738,308.6249999998402,3.448066e-06,308.6249999998402,1.178416e-05,308.6249999998402,2.28349e-05
308.6399999998402,0.00138316,308.6399999998402,3.439886e-06,308.6399999998402,9.260655e-06,308.6399999998402,2.384582e-05
308.6549999998402,0.001385907,308.6549999998402,3.327482e-06,308.6549999998402,8.954407e-06,308.6549999998402,2.531632e-05
308.6699999998402,0.001388572,308.6699999998402,3.365367e-06,308.6699999998402,7.184261e-06,308.6699999998402,2.539132e-05
308.68499999984016,0.001385927,308.68499999984016,3.331712e-06,308.68499999984016,5.652309e-06,308.68499999984016,2.488361e-05
308.69999999984014,0.001396014,308.69999999984014,3.377901e-06,308.69999999984014,5.024275e-06,308.69999999984014,2.43393e-05
308.71499999984013,0.001373121,308.71499999984013,3.386231e-06,308.71499999984013,4.913713e-06,308.71499999984013,2.456857e-05
308.7299999998401,0.001640915,308.7299999998401,3.73818e-06,308.7299999998401,4.984868e-06,308.7299999998401,3.358747e-05
308.7449999998401,0.002085718,308.7449999998401,3.79057e-06,308.7449999998401,4.765263e-06,308.7449999998401,4.160021e-05
308.7599999998401,0.002272853,308.7599999998401,3.801702e-06,308.7599999998401,4.67875e-06,308.7599999998401,4.315358e-05
308.7749999998401,0.002354162,308.7749999998401,3.889614e-06,308.7749999998401,4.714741e-06,308.7749999998401,4.688465e-05
308.78999999984006,0.002710959,308.78999999984006,4.308857e-06,308.78999999984006,5.038274e-06,308.78999999984006,6.74376e-05
308.80499999984005,0.003001728,308.80499999984005,4.302314e-06,308.80499999984005,4.856038e-06,308.80499999984005,7.623885e-05
308.81999999984004,0.003131463,308.81999999984004,4.155752e-06,308.81999999984004,5.339611e-06,308.81999999984004,7.67262e-05
308.83499999984,0.003143241,308.83499999984,4.219664e-06,308.83499999984,5.881913e-06,308.83499999984,7.74149e-05
308.84999999984,0.003199628,308.84999999984,4.259536e-06,308.84999999984,6.146583e-06,308.84999999984,7.83811e-05
308.86499999984,0.003215884,308.86499999984,4.108022e-06,308.86499999984,6.902258e-06,308.86499999984,7.854089e-05
308.87999999984,0.003122495,308.87999999984,4.104592e-06,308.87999999984,7.103415e-06,308.87999999984,7.784333e-05
308.89499999983997,0.003097041,308.89499999983997,4.0632e-06,308.89499999983997,7.168558e-06,308.89499999983997,7.764094e-05
308.90999999983995,0.003121417,308.90999999983995,4.042345e-06,308.90999999983995,6.79323e-06,308.90999999983995,7.742618e-05
308.92499999983994,0.00312329,308.92499999983994,3.947135e-06,308.92499999983994,6.826328e-06,308.92499999983994,7.741581e-05
308.9399999998399,0.003127586,308.9399999998399,4.01437e-06,308.9399999998399,6.904299e-06,308.9399999998399,7.731348e-05
308.9549999998399,0.003129317,308.9549999998399,3.975583e-06,308.9549999998399,7.089519e-06,308.9549999998399,7.735137e-05
308.9699999998399,0.003130066,308.9699999998399,3.964939e-06,308.9699999998399,6.999535e-06,308.9699999998399,7.695425e-05
308.9849999998399,0.00289664,308.9849999998399,3.611685e-06,308.9849999998399,7.021637e-06,308.9849999998399,7.13837e-05
308.9999999998399,0.002583624,308.9999999998399,3.592131e-06,308.9999999998399,7.506446e-06,308.9999999998399,6.800898e-05
309.01499999983986,0.002396699,309.01499999983986,3.67356e-06,309.01499999983986,7.534543e-06,309.01499999983986,6.633528e-05
309.02999999983984,0.002261339,309.02999999983984,3.775675e-06,309.02999999983984,7.90675e-06,309.02999999983984,5.983372e-05
309.04499999983983,0.001869732,309.04499999983983,4.367307e-06,309.04499999983983,7.894269e-06,309.04499999983983,3.541659e-05
309.0599999998398,0.001287752,309.0599999998398,4.660651e-06,309.0599999998398,7.824367e-06,309.0599999998398,2.154102e-05
309.0749999998398,0.001132485,309.0749999998398,4.794733e-06,309.0749999998398,7.312527e-06,309.0749999998398,2.069248e-05
309.0899999998398,0.001067632,309.0899999998398,5.592176e-06,309.0899999998398,6.904299e-06,309.0899999998398,1.980763e-05
309.1049999998398,0.0008626413,309.1049999998398,5.674694e-06,309.1049999998398,6.444187e-06,309.1049999998398,1.705137e-05
309.11999999983976,0.0007494455,309.11999999983976,5.733962e-06,309.11999999983976,6.026232e-06,309.11999999983976,1.452163e-05
309.13499999983975,0.0007543932,309.13499999983975,5.704405e-06,309.13499999983975,6.075122e-06,309.13499999983975,1.446915e-05
309.14999999983974,0.0007128482,309.14999999983974,5.721665e-06,309.14999999983974,6.311667e-06,309.14999999983974,1.507189e-05
309.1649999998397,0.000791851,309.1649999998397,5.733962e-06,309.1649999998397,6.284828e-06,309.1649999998397,1.666532e-05
309.1799999998397,0.0009046968,309.1799999998397,5.721665e-06,309.1799999998397,6.582601e-06,309.1799999998397,1.808103e-05
309.1949999998397,0.0009389915,309.1949999998397,5.711809e-06,309.1949999998397,6.631638e-06,309.1949999998397,1.824545e-05
309.2099999998397,0.0009307918,309.2099999998397,5.719203e-06,309.2099999998397,6.479067e-06,309.2099999998397,1.812306e-05
309.22499999983967,0.001009857,309.22499999983967,5.711809e-06,309.22499999983967,7.406318e-06,309.22499999983967,1.923248e-05
309.23999999983965,0.001337157,309.23999999983965,5.716739e-06,309.23999999983965,2.033056e-05,309.23999999983965,2.105488e-05
309.25499999983964,0.001461836,309.25499999983964,5.711809e-06,309.25499999983964,2.467783e-05,309.25499999983964,2.317596e-05
309.2699999998396,0.001481339,309.2699999998396,5.475077e-06,309.2699999998396,3.179093e-05,309.2699999998396,2.318082e-05
309.2849999998396,0.001495962,309.2849999998396,5.297233e-06,309.2849999998396,3.681757e-05,309.2849999998396,2.327119e-05
309.2999999998396,0.001489987,309.2999999998396,4.4218e-06,309.2999999998396,3.704642e-05,309.2999999998396,2.317535e-05
309.3149999998396,0.001481612,309.3149999998396,4.024883e-06,309.3149999998396,3.707227e-05,309.3149999998396,2.30962e-05
309.3299999998396,0.001688131,309.3299999998396,3.904074e-06,309.3299999998396,3.769813e-05,309.3299999998396,3.000373e-05
309.34499999983956,0.002119304,309.34499999983956,3.108612e-06,309.34499999983956,3.856809e-05,309.34499999983956,4.529318e-05
309.35999999983954,0.002322703,309.35999999983954,3.356985e-06,309.35999999983954,3.880549e-05,309.35999999983954,5.863779e-05
309.37499999983953,0.002691532,309.37499999983953,3.520835e-06,309.37499999983953,3.884867e-05,309.37499999983953,7.199813e-05
309.3899999998395,0.002886678,309.3899999998395,3.528828e-06,309.3899999998395,3.912976e-05,309.3899999998395,7.29457e-05
309.4049999998395,0.002965341,309.4049999998395,3.556662e-06,309.4049999998395,3.918336e-05,309.4049999998395,7.297601e-05
309.4199999998395,0.003170745,309.4199999998395,3.548731e-06,309.4199999998395,4.120383e-05,309.4199999998395,7.314915e-05
309.4349999998395,0.003323397,309.4349999998395,3.512824e-06,309.4349999998395,6.36952e-05,309.4349999998395,7.387865e-05
309.44999999983946,0.003404349,309.44999999983946,3.556662e-06,309.44999999983946,6.96447e-05,309.44999999983946,7.438847e-05
309.46499999983945,0.003653892,309.46499999983945,3.67356e-06,309.46499999983945,7.630165e-05,309.46499999983945,7.438468e-05
309.47999999983944,0.003732934,309.47999999983944,3.669723e-06,309.47999999983944,8.736629e-05,309.47999999983944,7.403655e-05
309.4949999998394,0.003657202,309.4949999998394,3.665883e-06,309.4949999998394,9.151817e-05,309.4949999998394,7.367109e-05
309.5099999998394,0.003637434,309.5099999998394,3.715501e-06,309.5099999998394,9.295697e-05,309.5099999998394,7.325115e-05
309.5249999998394,0.003777293,309.5249999998394,3.715501e-06,309.5249999998394,9.040703e-05,309.5249999998394,7.338238e-05
309.5399999998394,0.003978088,309.5399999998394,3.753223e-06,309.5399999998394,9.254918e-05,309.5399999998394,7.340848e-05
309.55499999983937,0.00399968,309.55499999983937,3.692683e-06,309.55499999983937,9.562223e-05,309.55499999983937,7.343131e-05
309.56999999983935,0.004056001,309.56999999983935,3.726858e-06,309.56999999983935,9.678717e-05,309.56999999983935,7.32673e-05
309.58499999983934,0.003892999,309.58499999983934,3.456227e-06,309.58499999983934,9.654235e-05,309.58499999983934,6.536538e-05
309.5999999998393,0.003690498,309.5999999998393,3.40283e-06,309.5999999998393,9.64479e-05,309.5999999998393,5.92163e-05
309.6149999998393,0.003552683,309.6149999998393,3.36955e-06,309.6149999998393,9.677131e-05,309.6149999998393,4.098341e-05
309.6299999998393,0.00333306,309.6299999998393,3.406967e-06,309.6299999998393,9.688144e-05,309.6299999998393,2.055177e-05
309.6449999998393,0.00321026,309.6449999998393,3.36955e-06,309.6449999998393,9.670461e-05,309.6449999998393,2.046866e-05
309.6599999998393,0.003135253,309.6599999998393,3.382069e-06,309.6599999998393,9.668131e-05,309.6599999998393,2.05949e-05
309.67499999983926,0.002865986,309.67499999983926,3.40283e-06,309.67499999983926,9.356191e-05,309.67499999983926,1.966488e-05
309.68999999983924,0.002711314,309.68999999983924,3.439886e-06,309.68999999983924,7.660695e-05,309.68999999983924,1.775794e-05
309.70499999983923,0.002561969,309.70499999983923,3.344373e-06,309.70499999983923,7.397811e-05,309.70499999983923,1.626147e-05
309.7199999998392,0.002232451,309.7199999998392,3.310505e-06,309.7199999998392,6.582858e-05,309.7199999998392,1.562171e-05
309.7349999998392,0.002148538,309.7349999998392,3.431686e-06,309.7349999998392,5.229251e-05,309.7349999998392,1.571252e-05
309.7499999998392,0.002180126,309.7499999998392,3.619477e-06,309.7499999998392,4.020787e-05,309.7499999998392,1.741512e-05
309.7649999998392,0.002262695,309.7649999998392,3.646619e-06,309.7649999998392,3.711822e-05,309.7649999998392,1.946183e-05
309.77999999983916,0.001972854,309.77999999983916,3.805405e-06,309.77999999983916,3.512103e-05,309.77999999983916,1.976278e-05
309.79499999983915,0.001670989,309.79499999983915,3.820184e-06,309.79499999983915,2.685325e-05,309.79499999983915,1.971068e-05
309.80999999983914,0.001623771,309.80999999983914,3.816494e-06,309.80999999983914,1.779598e-05,309.80999999983914,1.959743e-05
309.8249999998391,0.00149964,309.8249999998391,3.730636e-06,309.8249999998391,1.251124e-05,309.8249999998391,1.95737e-05
309.8399999998391,0.001470658,309.8399999998391,3.638885e-06,309.8399999998391,1.212704e-05,309.8399999998391,1.976563e-05
309.8549999998391,0.001498678,309.8549999998391,3.611685e-06,309.8549999998391,1.028684e-05,309.8549999998391,2.023471e-05
309.8699999998391,0.001500817,309.8699999998391,3.36955e-06,309.8699999998391,7.621908e-06,309.8699999998391,2.177063e-05
309.88499999983907,0.001473406,309.88499999983907,3.306247e-06,309.88499999983907,6.137409e-06,309.88499999983907,2.173696e-05
309.89999999983905,0.001471484,309.89999999983905,3.419349e-06,309.89999999983905,5.869926e-06,309.89999999983905,2.128445e-05
309.91499999983904,0.001470722,309.91499999983904,3.552699e-06,309.91499999983904,5.995767e-06,309.91499999983904,2.407394e-05
309.929999999839,0.00167627,309.929999999839,3.925663e-06,309.929999999839,6.409116e-06,309.929999999839,3.211847e-05
309.944999999839,0.001982419,309.944999999839,4.687774e-06,309.944999999839,6.75163e-06,309.944999999839,3.754124e-05
309.959999999839,0.002122601,309.959999999839,4.774123e-06,309.959999999839,6.766219e-06,309.959999999839,3.901475e-05
309.974999999839,0.002234282,309.974999999839,5.297233e-06,309.974999999839,7.205797e-06,309.974999999839,4.185105e-05
309.989999999839,0.002548383,309.989999999839,6.153455e-06,309.989999999839,8.5108e-06,309.989999999839,5.569636e-05
310.00499999983896,0.002813761,310.00499999983896,6.06584e-06,310.00499999983896,8.525684e-06,310.00499999983896,6.247646e-05
310.01999999983894,0.002856949,310.01999999983894,6.19225e-06,310.01999999983894,8.573465e-06,310.01999999983894,6.286397e-05
310.03499999983893,0.002821976,310.03499999983893,6.214957e-06,310.03499999983893,9.303149e-06,310.03499999983893,6.400979e-05
310.0499999998389,0.002808322,310.0499999998389,6.183143e-06,310.0499999998389,9.564462e-06,310.0499999998389,6.403641e-05
310.0649999998389,0.00280596,310.0649999998389,6.205884e-06,310.0649999998389,9.554146e-06,310.0649999998389,6.412259e-05
310.0799999998389,0.002808596,310.0799999998389,6.210422e-06,310.0799999998389,9.530527e-06,310.0799999998389,6.420645e-05
310.0949999998389,0.002805685,310.0949999998389,6.203613e-06,310.0949999998389,9.792964e-06,310.0949999998389,6.417814e-05
310.10999999983886,0.002799403,310.10999999983886,6.228541e-06,310.10999999983886,1.03019e-05,310.10999999983886,6.403047e-05
310.12499999983885,0.002800051,310.12499999983885,6.224016e-06,310.12499999983885,1.068977e-05,310.12499999983885,6.350693e-05
310.13999999983884,0.002811413,310.13999999983884,6.214957e-06,310.13999999983884,1.095015e-05,310.13999999983884,6.350981e-05
310.1549999998388,0.002810539,310.1549999998388,6.16489e-06,310.1549999998388,1.212123e-05,310.1549999998388,6.340726e-05
310.1699999998388,0.002801697,310.1699999998388,6.139704e-06,310.1699999998388,1.25135e-05,310.1699999998388,6.202774e-05
310.1849999998388,0.002576594,310.1849999998388,5.510979e-06,310.1849999998388,1.232978e-05,310.1849999998388,5.65759e-05
310.1999999998388,0.002346011,310.1999999998388,5.195198e-06,310.1999999998388,1.234805e-05,310.1999999998388,5.393997e-05
310.21499999983877,0.002102648,310.21499999983877,5.211442e-06,310.21499999983877,1.307178e-05,310.21499999983877,5.178686e-05
310.22999999983875,0.001997519,310.22999999983875,4.212983e-06,310.22999999983875,1.298637e-05,310.22999999983875,4.710467e-05
310.24499999983874,0.001554398,310.24499999983874,3.297714e-06,310.24499999983874,1.229431e-05,310.24499999983874,2.879189e-05
310.2599999998387,0.0008588666,310.2599999998387,3.323245e-06,310.2599999998387,1.218382e-05,310.2599999998387,1.601356e-05
310.2749999998387,0.0006765235,310.2749999998387,3.049133e-06,310.2749999998387,1.204545e-05,310.2749999998387,1.345833e-05
310.2899999998387,0.0007059115,310.2899999998387,2.907234e-06,310.2899999998387,1.16483e-05,310.2899999998387,1.24966e-05
310.3049999998387,0.0007319562,310.3049999998387,2.912075e-06,310.3049999998387,1.16156e-05,310.3049999998387,1.269677e-05
310.31999999983867,0.000723141,310.31999999983867,2.945742e-06,310.31999999983867,1.204311e-05,310.31999999983867,1.271783e-05
310.33499999983866,0.0007349594,310.33499999983866,3.011947e-06,310.33499999983866,1.339433e-05,310.33499999983866,1.379533e-05
310.34999999983864,0.0008785924,310.34999999983864,3.01662e-06,310.34999999983864,1.3988e-05,310.34999999983864,1.479646e-05
310.36499999983863,0.001035597,310.36499999983863,2.955291e-06,310.36499999983863,1.715925e-05,310.36499999983863,1.548495e-05
310.3799999998386,0.001097606,310.3799999998386,2.838588e-06,310.3799999998386,1.770312e-05,310.3799999998386,1.586597e-05
310.3949999998386,0.001375898,310.3949999998386,2.818668e-06,310.3949999998386,1.766329e-05,310.3949999998386,1.591119e-05
310.4099999998386,0.001800207,310.4099999998386,2.758045e-06,310.4099999998386,1.801469e-05,310.4099999998386,1.57689e-05
310.4249999998386,0.002090135,310.4249999998386,2.737538e-06,310.4249999998386,1.861916e-05,310.4249999998386,1.567482e-05
310.43999999983856,0.002207537,310.43999999983856,2.706488e-06,310.43999999983856,2.465156e-05,310.43999999983856,1.594038e-05
310.45499999983855,0.002501965,310.45499999983855,2.696058e-06,310.45499999983855,2.84424e-05,310.45499999983855,1.710169e-05
310.46999999983854,0.002628149,310.46999999983854,2.57308e-06,310.46999999983854,2.857778e-05,310.46999999983854,1.74789e-05
310.4849999998385,0.002629015,310.4849999998385,2.556603e-06,310.4849999998385,3.026178e-05,310.4849999998385,1.751191e-05
310.4999999998385,0.002658993,310.4999999998385,2.551088e-06,310.4999999998385,3.094532e-05,310.4999999998385,1.765452e-05
310.5149999998385,0.002681584,310.5149999998385,2.432367e-06,310.5149999998385,3.099035e-05,310.5149999998385,1.725585e-05
310.5299999998385,0.002741681,310.5299999998385,2.455423e-06,310.5299999998385,3.093667e-05,310.5299999998385,1.619202e-05
310.54499999983847,0.002762149,310.54499999983847,2.449679e-06,310.54499999983847,3.140575e-05,310.54499999983847,1.602411e-05
310.55999999983845,0.002825647,310.55999999983845,2.391484e-06,310.55999999983845,3.156012e-05,310.55999999983845,1.950015e-05
310.57499999983844,0.002933835,310.57499999983844,2.420756e-06,310.57499999983844,3.123394e-05,310.57499999983844,2.249556e-05
310.5899999998384,0.002975223,310.5899999998384,2.367805e-06,310.5899999998384,3.055824e-05,310.5899999998384,2.229933e-05
310.6049999998384,0.002910093,310.6049999998384,2.385586e-06,310.6049999998384,2.996379e-05,310.6049999998384,2.150764e-05
310.6199999998384,0.002917593,310.6199999998384,2.403235e-06,310.6199999998384,2.820816e-05,310.6199999998384,2.200362e-05
310.6349999998384,0.002851934,310.6349999998384,2.41493e-06,310.6349999998384,2.800568e-05,310.6349999998384,2.170389e-05
310.64999999983837,0.002820067,310.64999999983837,2.556603e-06,310.64999999983837,2.78842e-05,310.64999999983837,2.495258e-05
310.66499999983836,0.00278913,310.66499999983836,2.5676e-06,310.66499999983836,2.670808e-05,310.66499999983836,3.326593e-05
310.67999999983834,0.002774286,310.67999999983834,2.57308e-06,310.67999999983834,2.604748e-05,310.67999999983834,3.4497e-05
310.69499999983833,0.002610719,310.69499999983833,2.584006e-06,310.69499999983833,1.851827e-05,310.69499999983833,3.565602e-05
310.7099999998383,0.002439805,310.7099999998383,2.600309e-06,310.7099999998383,1.482879e-05,310.7099999998383,3.754461e-05
310.7249999998383,0.002355695,310.7249999998383,2.685588e-06,310.7249999998383,1.365472e-05,310.7249999998383,3.725837e-05
310.7399999998383,0.002395085,310.7399999998383,2.74781e-06,310.7399999998383,1.02388e-05,310.7399999998383,3.723909e-05
310.7549999998383,0.002412688,310.7549999998383,2.727227e-06,310.7549999998383,8.70068e-06,310.7549999998383,3.751196e-05
310.76999999983826,0.002394818,310.76999999983826,2.763147e-06,310.76999999983826,8.284342e-06,310.76999999983826,3.776198e-05
310.78499999983825,0.002312277,310.78499999983825,2.783465e-06,310.78499999983825,8.075974e-06,310.78499999983825,3.770299e-05
310.79999999983823,0.002274613,310.79999999983823,3.062961e-06,310.79999999983823,5.699464e-06,310.79999999983823,3.699391e-05
310.8149999998382,0.002143791,310.8149999998382,3.827552e-06,310.8149999998382,5.085583e-06,310.8149999998382,3.451292e-05
310.8299999998382,0.0020219,310.8299999998382,5.368553e-06,310.8299999998382,4.925167e-06,310.8299999998382,3.35413e-05
310.8449999998382,0.001927869,310.8449999998382,5.513535e-06,310.8449999998382,4.738583e-06,310.8449999998382,3.332346e-05
310.8599999998382,0.001920216,310.8599999998382,6.03324e-06,310.8599999998382,4.654602e-06,310.8599999998382,3.336233e-05
310.87499999983817,0.001897437,310.87499999983817,6.19907e-06,310.87499999983817,4.522595e-06,310.87499999983817,3.294338e-05
310.88999999983815,0.001891989,310.88999999983815,6.237581e-06,310.88999999983815,4.179412e-06,310.88999999983815,3.269615e-05
310.90499999983814,0.001662006,310.90499999983814,6.210422e-06,310.90499999983814,4.118297e-06,310.90499999983814,2.74047e-05
310.9199999998381,0.00111002,310.9199999998381,6.185421e-06,310.9199999998381,3.827552e-06,310.9199999998381,1.87511e-05
310.9349999998381,0.0008984856,310.9349999998381,6.158032e-06,310.9349999998381,3.726858e-06,310.9349999998381,1.728684e-05
310.9499999998381,0.000840752,310.9499999998381,6.217223e-06,310.9499999998381,3.638885e-06,310.9499999998381,1.27764e-05
310.9649999998381,0.0007120568,310.9649999998381,6.19225e-06,310.9649999998381,3.669723e-06,310.9649999998381,1.059314e-05
310.97999999983807,0.0006531424,310.97999999983807,6.180865e-06,310.97999999983807,3.423466e-06,310.97999999983807,1.078946e-05
310.99499999983806,0.0005780019,310.99499999983806,6.155743e-06,310.99499999983806,3.480596e-06,310.99499999983806,1.15304e-05
311.00999999983804,0.0005138622,311.00999999983804,6.137409e-06,311.00999999983804,3.516832e-06,311.00999999983804,1.187467e-05
311.02499999983803,0.0005069681,311.02499999983803,6.125922e-06,311.02499999983803,3.524834e-06,311.02499999983803,1.206298e-05
311.039999999838,0.0005169871,311.039999999838,6.105191e-06,311.039999999838,3.464369e-06,311.039999999838,1.17722e-05
311.054999999838,0.0005163264,311.054999999838,5.733962e-06,311.054999999838,3.419349e-06,311.054999999838,1.175424e-05
311.069999999838,0.0005169216,311.069999999838,4.867628e-06,311.069999999838,3.415227e-06,311.069999999838,1.177819e-05
311.084999999838,0.0004981051,311.084999999838,3.775675e-06,311.084999999838,3.386231e-06,311.084999999838,1.183069e-05
311.09999999983796,0.0004751177,311.09999999983796,3.607783e-06,311.09999999983796,3.390388e-06,311.09999999983796,1.175065e-05
311.11499999983795,0.0004710563,311.11499999983795,2.621889e-06,311.11499999983795,3.431686e-06,311.11499999983795,1.154749e-05
311.12999999983793,0.000471361,311.12999999983793,2.472574e-06,311.12999999983793,3.276286e-06,311.12999999983793,1.14544e-05
311.1449999998379,0.0004722,311.1449999998379,2.551088e-06,311.1449999998379,3.202359e-06,311.1449999998379,1.131583e-05
311.1599999998379,0.0004690088,311.1599999998379,2.556603e-06,311.1599999998379,3.19355e-06,311.1599999998379,1.127967e-05
311.1749999998379,0.0004711801,311.1749999998379,2.589452e-06,311.1749999998379,3.162522e-06,311.1749999998379,1.135931e-05
311.1899999998379,0.0004795143,311.1899999998379,2.616511e-06,311.1899999998379,3.049133e-06,311.1899999998379,1.12459e-05
311.20499999983787,0.0003997207,311.20499999983787,2.41493e-06,311.20499999983787,2.742679e-06,311.20499999983787,1.114398e-05
311.21999999983785,0.0005199379,311.21999999983785,2.385586e-06,311.21999999983785,2.611121e-06,311.21999999983785,1.667378e-05
311.23499999983784,0.001201668,311.23499999983784,2.461153e-06,311.23499999983784,3.568524e-06,311.23499999983784,3.80585e-05
311.2499999998378,0.001307983,311.2499999998378,2.523327e-06,311.2499999998378,3.654337e-06,311.2499999998378,3.876082e-05
311.2649999998378,0.001318753,311.2649999998378,2.54556e-06,311.2649999998378,3.658189e-06,311.2649999998378,3.883489e-05
311.2799999998378,0.001348149,311.2799999998378,2.584006e-06,311.2799999998378,3.654337e-06,311.2799999998378,3.933192e-05
311.2949999998378,0.001345846,311.2949999998378,2.562108e-06,311.2949999998378,3.611685e-06,311.2949999998378,3.968241e-05
311.30999999983777,0.00135303,311.30999999983777,2.523327e-06,311.30999999983777,3.603876e-06,311.30999999983777,3.979089e-05
311.32499999983776,0.001377974,311.32499999983776,2.523327e-06,311.32499999983776,3.646619e-06,311.32499999983776,3.980186e-05
311.33999999983774,0.001397303,311.33999999983774,2.385586e-06,311.33999999983774,3.692683e-06,311.33999999983774,3.978841e-05
311.35499999983773,0.001400869,311.35499999983773,2.367805e-06,311.35499999983773,3.692683e-06,311.35499999983773,3.982345e-05
311.3699999998377,0.001475527,311.3699999998377,2.426568e-06,311.3699999998377,3.775675e-06,311.3699999998377,4.020401e-05
311.3849999998377,0.001657772,311.3849999998377,2.282997e-06,311.3849999998377,3.827552e-06,311.3849999998377,4.034776e-05
311.3999999998377,0.001748146,311.3999999998377,2.233089e-06,311.3999999998377,3.856882e-06,311.3999999998377,4.037882e-05
311.4149999998377,0.00174965,311.4149999998377,2.233089e-06,311.4149999998377,3.86418e-06,311.4149999998377,4.038824e-05
311.42999999983766,0.001750014,311.42999999983766,2.207712e-06,311.42999999983766,3.882364e-06,311.42999999983766,4.034008e-05
311.44499999983765,0.00177826,311.44499999983765,2.201322e-06,311.44499999983765,3.867824e-06,311.44499999983765,4.031038e-05
311.45999999983763,0.001778224,311.45999999983763,2.226772e-06,311.45999999983763,3.882364e-06,311.45999999983763,3.906599e-05
311.4749999998376,0.00166116,311.4749999998376,2.282997e-06,311.4749999998376,3.794284e-06,311.4749999998376,3.197077e-05
311.4899999998376,0.001305713,311.4899999998376,2.194914e-06,311.4899999998376,3.030597e-06,311.4899999998376,1.432237e-05
311.5049999998376,0.001253786,311.5049999998376,2.16909e-06,311.5049999998376,2.955291e-06,311.5049999998376,1.282153e-05
311.5199999998376,0.001319487,311.5199999998376,2.270622e-06,311.5199999998376,3.099535e-06,311.5199999998376,1.278963e-05
311.53499999983757,0.001848616,311.53499999983757,2.325787e-06,311.53499999983757,3.250386e-06,311.53499999983757,1.243105e-05
311.54999999983755,0.002053287,311.54999999983755,2.307546e-06,311.54999999983755,3.552699e-06,311.54999999983755,1.241063e-05
311.56499999983754,0.002411785,311.56499999983754,2.343887e-06,311.56499999983754,3.878734e-06,311.56499999983754,1.232292e-05
311.5799999998375,0.002707554,311.5799999998375,2.41493e-06,311.5799999998375,3.972038e-06,311.5799999998375,1.238791e-05
311.5949999998375,0.002830803,311.5949999998375,2.426568e-06,311.5949999998375,4.282623e-06,311.5949999998375,1.288837e-05
311.6099999998375,0.002996344,311.6099999998375,2.391484e-06,311.6099999998375,4.965048e-06,311.6099999998375,1.300046e-05
311.6249999998375,0.003160089,311.6249999998375,2.379674e-06,311.6249999998375,5.010237e-06,311.6249999998375,1.278192e-05
311.63999999983747,0.003108814,311.63999999983747,2.403235e-06,311.63999999983747,5.049445e-06,311.63999999983747,1.315664e-05
311.65499999983746,0.003077045,311.65499999983746,2.432367e-06,311.65499999983746,4.998978e-06,311.65499999983746,1.450416e-05
311.66999999983744,0.003097068,311.66999999983744,2.46687e-06,311.66999999983744,5.068936e-06,311.66999999983744,1.448666e-05
311.68499999983743,0.003109184,311.68499999983743,2.54002e-06,311.68499999983743,5.035477e-06,311.68499999983743,1.537356e-05
311.6999999998374,0.003121238,311.6999999998374,3.099535e-06,311.6999999998374,5.063375e-06,311.6999999998374,1.532308e-05
311.7149999998374,0.003126033,311.7149999998374,4.599804e-06,311.7149999998374,5.085583e-06,311.7149999998374,1.522255e-05
311.7299999998374,0.003153446,311.7299999998374,5.013047e-06,311.7299999998374,5.035477e-06,311.7299999998374,1.677569e-05
311.7449999998374,0.003201584,311.7449999998374,5.379038e-06,311.7449999998374,4.998978e-06,311.7449999998374,1.851522e-05
311.75999999983736,0.003211512,311.75999999983736,5.797484e-06,311.75999999983736,5.235713e-06,311.75999999983736,2.514267e-05
311.77499999983735,0.00313565,311.77499999983735,5.881913e-06,311.77499999983735,5.262549e-06,311.77499999983735,2.50495e-05
311.78999999983733,0.002827751,311.78999999983733,5.872325e-06,311.78999999983733,5.238403e-06,311.78999999983733,2.542514e-05
311.8049999998373,0.002716274,311.8049999998373,6.082075e-06,311.8049999998373,5.038274e-06,311.8049999998373,2.568971e-05
311.8199999998373,0.002375836,311.8199999998373,6.100575e-06,311.8199999998373,4.663672e-06,311.8199999998373,2.584279e-05
311.8349999998373,0.00195512,311.8349999998373,6.072803e-06,311.8349999998373,4.747494e-06,311.8349999998373,2.57915e-05
311.8499999998373,0.001801656,311.8499999998373,6.06584e-06,311.8499999998373,4.305587e-06,311.8499999998373,2.558641e-05
311.86499999983727,0.001479583,311.86499999983727,6.06584e-06,311.86499999983727,3.730636e-06,311.86499999983727,2.536857e-05
311.87999999983725,0.001209903,311.87999999983725,6.056544e-06,311.87999999983725,3.623367e-06,311.87999999983725,2.509557e-05
311.89499999983724,0.0011805,311.89499999983724,6.072803e-06,311.89499999983724,3.56062e-06,311.89499999983724,2.443922e-05
311.9099999998372,0.00116656,311.9099999998372,6.049562e-06,311.9099999998372,3.512824e-06,311.9099999998372,2.420523e-05
311.9249999998372,0.001139661,311.9249999998372,6.019215e-06,311.9249999998372,3.528828e-06,311.9249999998372,2.406633e-05
311.9399999998372,0.001034382,311.9399999998372,5.931993e-06,311.9399999998372,3.548731e-06,311.9399999998372,2.372144e-05
311.9549999998372,0.00100607,311.9549999998372,5.632336e-06,311.9549999998372,3.488681e-06,311.9549999998372,2.368459e-05
311.96999999983717,0.0009701648,311.96999999983717,4.279333e-06,311.96999999983717,3.443979e-06,311.96999999983717,2.373925e-05
311.98499999983716,0.000793491,311.98499999983716,3.943564e-06,311.98499999983716,3.488681e-06,311.98499999983716,2.19517e-05
311.99999999983714,0.0006590348,311.99999999983714,3.556662e-06,311.99999999983714,3.184716e-06,311.99999999983714,1.871801e-05
312.01499999983713,0.0005491886,312.01499999983713,2.632612e-06,312.01499999983713,2.926552e-06,312.01499999983713,1.166884e-05
312.0299999998371,0.0003672215,312.0299999998371,2.664524e-06,312.0299999998371,2.907234e-06,312.0299999998371,1.174105e-05
312.0449999998371,0.0003338611,312.0449999998371,2.57308e-06,312.0449999998371,2.833621e-06,312.0449999998371,1.102068e-05
312.0599999998371,0.0003477437,312.0599999998371,2.301433e-06,312.0599999998371,2.853437e-06,312.0599999998371,1.049561e-05
312.0749999998371,0.0003908332,312.0749999998371,2.319723e-06,312.0749999998371,2.823661e-06,312.0749999998371,1.075939e-05
312.08999999983706,0.0003394015,312.08999999983706,2.41493e-06,312.08999999983706,2.727227e-06,312.08999999983706,1.086232e-05
312.10499999983705,0.000301003,312.10499999983705,2.54556e-06,312.10499999983705,2.788521e-06,312.10499999983705,1.110599e-05
312.11999999983703,0.0003019232,312.11999999983703,2.600309e-06,312.11999999983703,2.742679e-06,312.11999999983703,1.127717e-05
312.134999999837,0.0003154223,312.134999999837,2.643292e-06,312.134999999837,2.793568e-06,312.134999999837,1.13407e-05
312.149999999837,0.0003466453,312.149999999837,2.659232e-06,312.149999999837,2.813666e-06,312.149999999837,1.178655e-05
312.164999999837,0.0003724665,312.164999999837,2.669806e-06,312.164999999837,2.882905e-06,312.164999999837,1.183783e-05
312.179999999837,0.0003650556,312.179999999837,2.664524e-06,312.179999999837,2.882905e-06,312.179999999837,1.213749e-05
312.19499999983697,0.0003727584,312.19499999983697,2.632612e-06,312.19499999983697,2.858369e-06,312.19499999983697,1.255844e-05
312.20999999983695,0.000389363,312.20999999983695,2.664524e-06,312.20999999983695,2.833621e-06,312.20999999983695,1.271119e-05
312.22499999983694,0.0003977948,312.22499999983694,2.659232e-06,312.22499999983694,2.773325e-06,312.22499999983694,1.288181e-05
312.2399999998369,0.0003970716,312.2399999998369,2.632612e-06,312.2399999998369,2.716877e-06,312.2399999998369,1.312019e-05
312.2549999998369,0.0003966008,312.2549999998369,2.680338e-06,312.2549999998369,2.627256e-06,312.2549999998369,1.338486e-05
312.2699999998369,0.0003812178,312.2699999998369,2.690828e-06,312.2699999998369,2.611121e-06,312.2699999998369,1.365885e-05
312.2849999998369,0.0003757816,312.2849999998369,2.716877e-06,312.2849999998369,2.600309e-06,312.2849999998369,1.39416e-05
312.29999999983687,0.0003772637,312.29999999983687,2.605721e-06,312.29999999983687,2.621889e-06,312.29999999983687,1.41193e-05
312.31499999983686,0.0003616608,312.31499999983686,2.600309e-06,312.31499999983686,2.605721e-06,312.31499999983686,1.422566e-05
312.32999999983684,0.0003160588,312.32999999983684,2.685588e-06,312.32999999983684,2.562108e-06,312.32999999983684,1.504476e-05
312.34499999983683,0.0002928809,312.34499999983683,2.500897e-06,312.34499999983683,2.5676e-06,312.34499999983683,1.489514e-05
312.3599999998368,0.0003967356,312.3599999998368,2.483942e-06,312.3599999998368,2.489606e-06,312.3599999998368,1.835015e-05
312.3749999998368,0.0004279765,312.3749999998368,2.594886e-06,312.3749999998368,2.528904e-06,312.3749999998368,1.869467e-05
312.3899999998368,0.0006033197,312.3899999998368,2.584006e-06,312.3899999998368,2.696058e-06,312.3899999998368,2.432193e-05
312.4049999998368,0.0006817523,312.4049999998368,2.616511e-06,312.4049999998368,2.632612e-06,312.4049999998368,2.467098e-05
312.41999999983676,0.000679566,312.41999999983676,2.643292e-06,312.41999999983676,2.489606e-06,312.41999999983676,2.565898e-05
312.43499999983675,0.000707538,312.43499999983675,2.653929e-06,312.43499999983675,2.500897e-06,312.43499999983675,2.656847e-05
312.44999999983673,0.0007468651,312.44999999983673,2.752932e-06,312.44999999983673,2.506524e-06,312.44999999983673,2.711428e-05
312.4649999998367,0.0007637203,312.4649999998367,2.803635e-06,312.4649999998367,2.506524e-06,312.4649999998367,2.786853e-05
312.4799999998367,0.0007655709,312.4799999998367,2.783465e-06,312.4799999998367,2.46687e-06,312.4799999998367,2.806497e-05
312.4949999998367,0.0007679325,312.4949999998367,2.823661e-06,312.4949999998367,2.489606e-06,312.4949999998367,2.815718e-05
312.5099999998367,0.000772955,312.5099999998367,2.833621e-06,312.5099999998367,2.556603e-06,312.5099999998367,2.859848e-05
312.52499999983667,0.0007732221,312.52499999983667,2.818668e-06,312.52499999983667,2.589452e-06,312.52499999983667,2.875371e-05
312.53999999983665,0.0007754737,312.53999999983665,2.828646e-06,312.53999999983665,2.578549e-06,312.53999999983665,2.885152e-05
312.55499999983664,0.0007770666,312.55499999983664,2.818668e-06,312.55499999983664,2.594886e-06,312.55499999983664,2.920191e-05
312.5699999998366,0.0007772046,312.5699999998366,2.788521e-06,312.5699999998366,2.584006e-06,312.5699999998366,2.958578e-05
312.5849999998366,0.0007786171,312.5849999998366,3.259043e-06,312.5849999998366,2.627256e-06,312.5849999998366,2.969224e-05
312.5999999998366,0.0007871439,312.5999999998366,3.756974e-06,312.5999999998366,2.643292e-06,312.5999999998366,2.99934e-05
312.6149999998366,0.0008008541,312.6149999998366,5.516089e-06,312.6149999998366,2.594886e-06,312.6149999998366,2.964714e-05
312.62999999983657,0.0008979313,312.62999999983657,5.692045e-06,312.62999999983657,2.616511e-06,312.62999999983657,3.29237e-05
312.64499999983656,0.001154131,312.64499999983656,6.296025e-06,312.64499999983656,3.025945e-06,312.64499999983656,3.996222e-05
312.65999999983654,0.001164547,312.65999999983654,6.686639e-06,312.65999999983654,3.030597e-06,312.65999999983654,4.012896e-05
312.67499999983653,0.001220169,312.67499999983653,6.80152e-06,312.67499999983653,3.406967e-06,312.67499999983653,4.255731e-05
312.6899999998365,0.001253703,312.6899999998365,6.99148e-06,312.6899999998365,3.552699e-06,312.6899999998365,4.352444e-05
312.7049999998365,0.001238881,312.7049999998365,7.00557e-06,312.7049999998365,3.552699e-06,312.7049999998365,4.372658e-05
312.7199999998365,0.001233985,312.7199999998365,7.019631e-06,312.7199999998365,3.592131e-06,312.7199999998365,4.382537e-05
312.7349999998365,0.001245381,312.7349999998365,7.029658e-06,312.7349999998365,3.662038e-06,312.7349999998365,4.421514e-05
312.74999999983646,0.001257598,312.74999999983646,7.00758e-06,312.74999999983646,3.950702e-06,312.74999999983646,4.446041e-05
312.76499999983645,0.001257003,312.76499999983645,7.031661e-06,312.76499999983645,5.584614e-06,312.76499999983645,4.486413e-05
312.77999999983643,0.001267042,312.77999999983643,7.035667e-06,312.77999999983643,5.903427e-06,312.77999999983643,4.539787e-05
312.7949999998364,0.001268535,312.7949999998364,7.053663e-06,312.7949999998364,6.420096e-06,312.7949999998364,4.568306e-05
312.8099999998364,0.001270835,312.8099999998364,7.04567e-06,312.8099999998364,7.207752e-06,312.8099999998364,4.608982e-05
312.8249999998364,0.001288823,312.8249999998364,7.043671e-06,312.8249999998364,7.339447e-06,312.8249999998364,4.618112e-05
312.8399999998364,0.001332148,312.8399999998364,6.713969e-06,312.8399999998364,7.327922e-06,312.8399999998364,4.61442e-05
312.85499999983637,0.001314472,312.85499999983637,6.01219e-06,312.85499999983637,7.331766e-06,312.85499999983637,4.608371e-05
312.86999999983635,0.001246733,312.86999999983635,4.993339e-06,312.86999999983635,7.40061e-06,312.86999999983635,4.517266e-05
312.88499999983634,0.001079763,312.88499999983634,4.70577e-06,312.88499999983634,7.166593e-06,312.88499999983634,3.961384e-05
312.8999999998363,0.0008574261,312.8999999998363,3.779404e-06,312.8999999998363,8.164447e-06,312.8999999998363,3.798773e-05
312.9149999998363,0.001051798,312.9149999998363,3.301983e-06,312.9149999998363,8.620983e-06,312.9149999998363,4.299759e-05
312.9299999998363,0.001453282,312.9299999998363,3.104077e-06,312.9299999998363,9.150478e-06,312.9299999998363,5.180699e-05
312.9449999998363,0.001796842,312.9449999998363,2.788521e-06,312.9449999998363,1.415717e-05,312.9449999998363,5.139449e-05
312.95999999983627,0.002215549,312.95999999983627,2.611121e-06,312.95999999983627,2.305408e-05,312.95999999983627,5.235766e-05
312.97499999983626,0.002343994,312.97499999983626,2.54556e-06,312.97499999983626,2.296224e-05,312.97499999983626,5.294307e-05
312.98999999983624,0.002585161,312.98999999983624,2.523327e-06,312.98999999983624,2.313338e-05,312.98999999983624,5.298323e-05
313.00499999983623,0.002889964,313.00499999983623,2.495258e-06,313.00499999983623,2.53102e-05,313.00499999983623,5.346914e-05
313.0199999998362,0.003032871,313.0199999998362,2.455423e-06,313.0199999998362,3.466199e-05,313.0199999998362,5.360859e-05
313.0349999998362,0.003237736,313.0349999998362,2.432367e-06,313.0349999998362,3.920529e-05,313.0349999998362,5.356074e-05
313.0499999998362,0.003486964,313.0499999998362,2.432367e-06,313.0499999998362,3.944814e-05,313.0499999998362,5.353101e-05
313.0649999998362,0.003614817,313.0649999998362,2.438151e-06,313.0649999998362,4.104043e-05,313.0649999998362,5.448098e-05
313.07999999983616,0.003613313,313.07999999983616,2.495258e-06,313.07999999983616,4.233263e-05,313.07999999983616,5.460159e-05
313.09499999983615,0.003603474,313.09499999983615,2.403235e-06,313.09499999983615,4.275743e-05,313.09499999983615,5.463564e-05
313.10999999983613,0.003627449,313.10999999983613,2.40909e-06,313.10999999983613,4.282031e-05,313.10999999983613,5.493057e-05
313.1249999998361,0.003705574,313.1249999998361,2.349889e-06,313.1249999998361,4.281801e-05,313.1249999998361,5.444115e-05
313.1399999998361,0.003811147,313.1399999998361,2.295304e-06,313.1399999998361,4.337303e-05,313.1399999998361,5.320742e-05
313.1549999998361,0.003841894,313.1549999998361,2.41493e-06,313.1549999998361,4.329209e-05,313.1549999998361,5.076156e-05
313.1699999998361,0.003774871,313.1699999998361,2.46687e-06,313.1699999998361,4.3196e-05,313.1699999998361,4.480474e-05
313.18499999983607,0.003691834,313.18499999983607,2.523327e-06,313.18499999983607,4.305914e-05,313.18499999983607,3.557573e-05
313.19999999983605,0.003541198,313.19999999983605,2.562108e-06,313.19999999983605,3.945707e-05,313.19999999983605,3.502021e-05
313.21499999983604,0.003408546,313.21499999983604,2.696058e-06,313.21499999983604,3.667343e-05,313.21499999983604,3.472289e-05
313.229999999836,0.003316426,313.229999999836,2.798606e-06,313.229999999836,3.652177e-05,313.229999999836,3.393752e-05
313.244999999836,0.003070137,313.244999999836,2.843547e-06,313.244999999836,3.640975e-05,313.244999999836,3.375189e-05
313.259999999836,0.002768101,313.259999999836,2.863294e-06,313.259999999836,3.363441e-05,313.259999999836,3.358999e-05
313.274999999836,0.00269814,313.274999999836,2.838588e-06,313.274999999836,2.219866e-05,313.274999999836,3.373352e-05
313.28999999983597,0.002450251,313.28999999983597,2.912075e-06,313.28999999983597,1.663317e-05,313.28999999983597,3.305309e-05
313.30499999983596,0.002205293,313.30499999983596,2.897527e-06,313.30499999983596,1.605836e-05,313.30499999983596,3.282215e-05
313.31999999983594,0.002135592,313.31999999983594,2.873116e-06,313.31999999983594,1.278412e-05,313.31999999983594,3.504956e-05
313.33499999983593,0.00236472,313.33499999983593,2.955291e-06,313.33499999983593,1.002188e-05,313.33499999983593,5.044226e-05
313.3499999998359,0.002589622,313.3499999998359,3.01662e-06,313.3499999998359,9.614407e-06,313.3499999998359,5.583984e-05
313.3649999998359,0.002618807,313.3649999998359,2.997883e-06,313.3649999998359,1.088435e-05,313.3649999998359,5.654278e-05
313.3799999998359,0.002407926,313.3799999998359,3.723076e-06,313.3799999998359,1.691867e-05,313.3799999998359,5.613999e-05
313.3949999998359,0.002593399,313.3949999998359,4.800605e-06,313.3949999998359,2.457545e-05,313.3949999998359,5.687167e-05
313.40999999983586,0.00288071,313.40999999983586,7.41962e-06,313.40999999983586,3.999886e-05,313.40999999983586,5.739781e-05
313.42499999983585,0.002948225,313.42499999983585,8.638938e-06,313.42499999983585,4.686572e-05,313.42499999983585,5.747948e-05
313.43999999983583,0.003086597,313.43999999983583,8.710389e-06,313.43999999983583,4.912996e-05,313.43999999983583,5.815098e-05
313.4549999998358,0.003333471,313.4549999998358,8.715239e-06,313.4549999998358,8.040662e-05,313.4549999998358,6.449474e-05
313.4699999998358,0.003467296,313.4699999998358,8.876988e-06,313.4699999998358,8.078868e-05,313.4699999998358,6.648313e-05
313.4849999998358,0.003717918,313.4849999998358,1.053179e-05,313.4849999998358,8.181114e-05,313.4849999998358,6.767385e-05
313.4999999998358,0.003893873,313.4999999998358,1.099509e-05,313.4999999998358,8.232197e-05,313.4999999998358,6.859039e-05
313.51499999983577,0.003949855,313.51499999983577,1.152918e-05,313.51499999983577,8.251818e-05,313.51499999983577,7.273723e-05
313.52999999983575,0.004090896,313.52999999983575,1.171944e-05,313.52999999983575,8.26306e-05,313.52999999983575,7.530578e-05
313.54499999983574,0.004191497,313.54499999983574,1.172665e-05,313.54499999983574,8.267321e-05,313.54499999983574,7.59432e-05
313.5599999998357,0.004157874,313.5599999998357,1.171703e-05,313.5599999998357,8.270574e-05,313.5599999998357,7.545939e-05
313.5749999998357,0.004132127,313.5749999998357,1.172064e-05,313.5749999998357,8.278337e-05,313.5749999998357,7.346679e-05
313.5899999998357,0.004097857,313.5899999998357,1.173865e-05,313.5899999998357,8.290036e-05,313.5899999998357,6.215614e-05
313.6049999998357,0.004020847,313.6049999998357,1.170982e-05,313.6049999998357,8.313521e-05,313.6049999998357,6.210104e-05
313.61999999983567,0.003994906,313.61999999983567,1.170861e-05,313.61999999983567,8.308978e-05,313.61999999983567,6.347432e-05
313.63499999983566,0.003953537,313.63499999983566,1.132081e-05,313.63499999983566,8.136984e-05,313.63499999983566,6.30881e-05
313.64999999983564,0.003764474,313.64999999983564,1.101812e-05,313.64999999983564,7.602273e-05,313.64999999983564,6.439289e-05
313.66499999983563,0.003749407,313.66499999983563,9.416029e-06,313.66499999983563,7.393869e-05,313.66499999983563,6.385732e-05
313.6799999998356,0.003789981,313.6799999998356,8.490915e-06,313.6799999998356,7.05546e-05,313.6799999998356,6.402189e-05
313.6949999998356,0.003628993,313.6949999998356,8.424293e-06,313.6949999998356,6.934368e-05,313.6949999998356,6.312091e-05
313.7099999998356,0.003629036,313.7099999998356,8.31828e-06,313.7099999998356,2.847408e-05,313.7099999998356,6.005908e-05
313.7249999998356,0.003668437,313.7249999998356,7.8585e-06,313.7249999998356,2.816468e-05,313.7249999998356,8.174137e-05
313.73999999983556,0.003558564,313.73999999983556,5.262549e-06,313.73999999983556,2.543124e-05,313.73999999983556,0.000103159
313.75499999983555,0.003673724,313.75499999983555,4.469331e-06,313.75499999983555,2.454849e-05,313.75499999983555,0.0001460067
313.76999999983553,0.00387703,313.76999999983553,3.524834e-06,313.76999999983553,2.463956e-05,313.76999999983553,0.0001461667
313.7849999998355,0.003969064,313.7849999998355,3.361178e-06,313.7849999998355,2.453586e-05,313.7849999998355,0.0001468187
313.7999999998355,0.00399996,313.7999999998355,3.319004e-06,313.7999999998355,2.444844e-05,313.7999999998355,0.0001476814
313.8149999998355,0.004039675,313.8149999998355,3.344373e-06,313.8149999998355,2.442596e-05,313.8149999998355,0.0001495686
313.8299999998355,0.004064271,313.8299999998355,3.263362e-06,313.8299999998355,2.403646e-05,313.8299999998355,0.0001510625
313.84499999983547,0.004003969,313.84499999983547,3.263362e-06,313.84499999983547,2.311754e-05,313.84499999983547,0.0001521315
313.85999999983545,0.004010506,313.85999999983545,3.452149e-06,313.85999999983545,2.17214e-05,313.85999999983545,0.000164274
313.87499999983544,0.004096071,313.87499999983544,3.845909e-06,313.87499999983544,2.324818e-05,313.87499999983544,0.0002053226
313.8899999998354,0.004353915,313.8899999998354,3.989731e-06,313.8899999998354,2.460981e-05,313.8899999998354,0.0002373778
313.9049999998354,0.004519204,313.9049999998354,4.021382e-06,313.9049999998354,2.129503e-05,313.9049999998354,0.0002383687
313.9199999998354,0.00441379,313.9199999998354,4.031877e-06,313.9199999998354,1.938423e-05,313.9199999998354,0.000240802
313.9349999998354,0.00447983,313.9349999998354,4.038859e-06,313.9349999998354,1.96118e-05,313.9349999998354,0.0002437543
313.94999999983537,0.004437695,313.94999999983537,4.128545e-06,313.94999999983537,2.020266e-05,313.94999999983537,0.000244147
313.96499999983536,0.004437686,313.96499999983536,4.101159e-06,313.96499999983536,2.005992e-05,313.96499999983536,0.0002408714
313.97999999983534,0.004459722,313.97999999983534,4.135364e-06,313.97999999983534,1.943285e-05,313.97999999983534,0.0002353338
313.99499999983533,0.004545109,313.99499999983533,4.666692e-06,313.99499999983533,1.923467e-05,313.99499999983533,0.0002173834
314.0099999998353,0.004533722,314.0099999998353,5.029879e-06,314.0099999998353,1.990836e-05,314.0099999998353,0.0002006312
314.0249999998353,0.004533722,314.0249999998353,5.189773e-06,314.0249999998353,2.07197e-05,314.0249999998353,0.0002002792
314.0399999998353,0.004538817,314.0399999998353,5.22494e-06,314.0399999998353,2.140259e-05,314.0399999998353,0.0002010309
314.0549999998353,0.004596386,314.0549999998353,5.305204e-06,314.0549999998353,2.136636e-05,314.0549999998353,0.0002021214
314.06999999983526,0.004667218,314.06999999983526,5.48022e-06,314.06999999983526,2.140785e-05,314.06999999983526,0.0002001339
314.08499999983525,0.004710704,314.08499999983525,5.574516e-06,314.08499999983525,2.140193e-05,314.08499999983525,0.0002003141
314.09999999983523,0.004760954,314.09999999983523,6.187698e-06,314.09999999983523,2.213511e-05,314.09999999983523,0.0001953187
314.1149999998352,0.004968501,314.1149999998352,6.320588e-06,314.1149999998352,2.226266e-05,314.1149999998352,0.0001855273
314.1299999998352,0.005095376,314.1299999998352,6.070483e-06,314.1299999998352,1.910756e-05,314.1299999998352,0.0001029474
314.1449999998352,0.005045147,314.1449999998352,6.03324e-06,314.1449999998352,1.839539e-05,314.1449999998352,7.546313e-05
314.1599999998352,0.00505094,314.1599999998352,5.958057e-06,314.1599999998352,1.847943e-05,314.1599999998352,7.147186e-05
314.17499999983517,0.005151852,314.17499999983517,5.955692e-06,314.17499999983517,1.794575e-05,314.17499999983517,6.626602e-05
314.18999999983515,0.005149023,314.18999999983515,5.893875e-06,314.18999999983515,1.706788e-05,314.18999999983515,6.965865e-05
314.20499999983514,0.00518643,314.20499999983514,6.167175e-06,314.20499999983514,1.665941e-05,314.20499999983514,9.096593e-05
314.2199999998351,0.005240425,314.2199999998351,6.69506e-06,314.2199999998351,1.640979e-05,314.2199999998351,0.0001181492
314.2349999998351,0.005211225,314.2349999998351,6.697164e-06,314.2349999998351,1.626839e-05,314.2349999998351,0.0001202131
314.2499999998351,0.005186033,314.2499999998351,6.262374e-06,314.2499999998351,1.609691e-05,314.2499999998351,0.0001205505
314.2649999998351,0.005160162,314.2649999998351,6.135114e-06,314.2649999998351,1.791982e-05,314.2649999998351,0.000120961
314.27999999983507,0.005091853,314.27999999983507,6.030905e-06,314.27999999983507,1.7373e-05,314.27999999983507,0.0001203622
314.29499999983506,0.005004737,314.29499999983506,6.123622e-06,314.29499999983506,1.872027e-05,314.29499999983506,0.0001192082
314.30999999983504,0.004759065,314.30999999983504,7.262268e-06,314.30999999983504,2.167141e-05,314.30999999983504,0.0001188728
314.32499999983503,0.004452871,314.32499999983503,1.701167e-05,314.32499999983503,4.540656e-05,314.32499999983503,0.0001224578
314.339999999835,0.004542914,314.339999999835,2.175316e-05,314.339999999835,4.797435e-05,314.339999999835,0.0001247892
314.354999999835,0.004759783,314.354999999835,2.222086e-05,314.354999999835,4.859547e-05,314.354999999835,0.0001372325
314.369999999835,0.004853473,314.369999999835,2.259178e-05,314.369999999835,5.126716e-05,314.369999999835,0.0001410176
314.384999999835,0.004856821,314.384999999835,2.291619e-05,314.384999999835,6.562841e-05,314.384999999835,0.0001425135
314.39999999983496,0.004903201,314.39999999983496,2.292418e-05,314.39999999983496,7.060231e-05,314.39999999983496,0.0001446289
314.41499999983495,0.004806684,314.41499999983495,2.298799e-05,314.41499999983495,7.108212e-05,314.41499999983495,0.0001469441
314.42999999983493,0.004649865,314.42999999983493,2.307301e-05,314.42999999983493,7.134284e-05,314.42999999983493,0.0001451521
314.4449999998349,0.004506818,314.4449999998349,2.312668e-05,314.4449999998349,7.183163e-05,314.4449999998349,0.0001425387
314.4599999998349,0.004532728,314.4599999998349,2.300759e-05,314.4599999998349,7.346564e-05,314.4599999998349,0.0001221893
