X[s],a: EMG RMS 1-1,X[s].1,a: EMG RMS 1-2,X[s].2,a: EMG RMS 1-3,X[s].3,a: EMG RMS 1-4
149.00999999998535,2.443922e-06,149.00999999998535,2.373747e-07,149.00999999998535,2.637958e-06,149.00999999998535,4.000309e-06
149.02499999998534,2.403235e-06,149.02499999998534,2.373747e-07,149.02499999998534,2.54002e-06,149.02499999998534,4.049309e-06
149.03999999998533,2.40909e-06,149.03999999998533,2.373747e-07,149.03999999998533,2.57308e-06,149.03999999998533,4.172666e-06
149.0549999999853,2.478264e-06,149.0549999999853,2.373747e-07,149.0549999999853,2.632612e-06,149.0549999999853,3.936414e-06
149.0699999999853,2.54002e-06,149.0699999999853,2.373747e-07,149.0699999999853,2.648616e-06,149.0699999999853,3.932833e-06
149.08499999998529,2.578549e-06,149.08499999998529,2.373747e-07,149.08499999998529,2.632612e-06,149.08499999998529,3.91848e-06
149.09999999998527,2.528904e-06,149.09999999998527,2.373747e-07,149.09999999998527,2.594886e-06,149.09999999998527,3.885991e-06
149.11499999998526,2.528904e-06,149.11499999998526,2.373747e-07,149.11499999998526,2.57308e-06,149.11499999998526,3.90768e-06
149.12999999998524,2.54002e-06,149.12999999998524,2.373747e-07,149.12999999998524,2.584006e-06,149.12999999998524,4.229668e-06
149.14499999998523,2.523327e-06,149.14499999998523,2.373747e-07,149.14499999998523,2.483942e-06,149.14499999998523,4.059732e-06
149.15999999998522,2.46687e-06,149.15999999998522,2.373747e-07,149.15999999998522,2.472574e-06,149.15999999998522,4.042345e-06
149.1749999999852,2.343887e-06,149.1749999999852,2.373747e-07,149.1749999999852,2.495258e-06,149.1749999999852,3.979125e-06
149.1899999999852,2.343887e-06,149.1899999999852,2.373747e-07,149.1899999999852,2.54002e-06,149.1899999999852,4.0632e-06
149.20499999998518,2.301433e-06,149.20499999998518,2.373747e-07,149.20499999998518,2.57308e-06,149.20499999998518,4.05626e-06
149.21999999998516,2.313642e-06,149.21999999998516,2.373747e-07,149.21999999998516,2.438151e-06,149.21999999998516,3.760722e-06
149.23499999998515,2.282997e-06,149.23499999998515,2.373747e-07,149.23499999998515,2.512137e-06,149.23499999998515,3.79057e-06
149.24999999998514,2.276818e-06,149.24999999998514,2.373747e-07,149.24999999998514,2.528904e-06,149.24999999998514,3.91848e-06
149.26499999998512,2.307546e-06,149.26499999998512,2.373747e-07,149.26499999998512,2.611121e-06,149.26499999998512,4.080498e-06
149.2799999999851,2.361848e-06,149.2799999999851,2.373747e-07,149.2799999999851,2.669806e-06,149.2799999999851,4.017877e-06
149.2949999999851,2.361848e-06,149.2949999999851,2.373747e-07,149.2949999999851,2.74781e-06,149.2949999999851,3.90768e-06
149.30999999998508,2.226772e-06,149.30999999998508,2.373747e-07,149.30999999998508,2.701278e-06,149.30999999998508,3.936414e-06
149.32499999998507,2.16909e-06,149.32499999998507,2.373747e-07,149.32499999998507,2.752932e-06,149.32499999998507,4.007346e-06
149.33999999998505,2.214083e-06,149.33999999998505,2.907234e-07,149.33999999998505,2.727227e-06,149.33999999998505,4.028382e-06
149.35499999998504,2.258181e-06,149.35499999998504,2.907234e-07,149.35499999998504,2.758045e-06,149.35499999998504,4.052786e-06
149.36999999998503,2.337869e-06,149.36999999998503,2.907234e-07,149.36999999998503,2.788521e-06,149.36999999998503,4.094283e-06
149.384999999985,2.349889e-06,149.384999999985,2.907234e-07,149.384999999985,2.778399e-06,149.384999999985,3.756974e-06
149.399999999985,2.420756e-06,149.399999999985,2.907234e-07,149.399999999985,2.752932e-06,149.399999999985,3.760722e-06
149.41499999998499,2.438151e-06,149.41499999998499,2.907234e-07,149.41499999998499,2.818668e-06,149.41499999998499,3.834905e-06
149.42999999998497,2.461153e-06,149.42999999998497,2.907234e-07,149.42999999998497,2.783465e-06,149.42999999998497,3.871464e-06
149.44499999998496,2.551088e-06,149.44499999998496,2.907234e-07,149.44499999998496,2.808655e-06,149.44499999998496,3.760722e-06
149.45999999998494,2.589452e-06,149.45999999998494,2.907234e-07,149.45999999998494,2.848496e-06,149.45999999998494,3.753223e-06
149.47499999998493,2.648616e-06,149.47499999998493,2.907234e-07,149.47499999998493,2.843547e-06,149.47499999998493,3.950702e-06
149.48999999998492,2.701278e-06,149.48999999998492,2.907234e-07,149.48999999998492,2.813666e-06,149.48999999998492,3.871464e-06
149.5049999999849,2.737538e-06,149.5049999999849,2.907234e-07,149.5049999999849,2.778399e-06,149.5049999999849,3.688867e-06
149.5199999999849,2.737538e-06,149.5199999999849,2.907234e-07,149.5199999999849,2.711688e-06,149.5199999999849,3.588207e-06
149.53499999998488,2.643292e-06,149.53499999998488,2.907234e-07,149.53499999998488,2.637958e-06,149.53499999998488,3.623367e-06
149.54999999998486,2.643292e-06,149.54999999998486,2.907234e-07,149.54999999998486,2.706488e-06,149.54999999998486,3.889614e-06
149.56499999998485,2.685588e-06,149.56499999998485,2.907234e-07,149.56499999998485,2.648616e-06,149.56499999998485,3.853228e-06
149.57999999998484,2.722057e-06,149.57999999998484,2.907234e-07,149.57999999998484,2.589452e-06,149.57999999998484,3.820184e-06
149.59499999998482,2.632612e-06,149.59499999998482,2.907234e-07,149.59499999998482,2.605721e-06,149.59499999998482,3.79057e-06
149.6099999999848,2.627256e-06,149.6099999999848,2.907234e-07,149.6099999999848,2.584006e-06,149.6099999999848,3.696496e-06
149.6249999999848,2.632612e-06,149.6249999999848,2.907234e-07,149.6249999999848,2.727227e-06,149.6249999999848,3.700305e-06
149.63999999998478,2.600309e-06,149.63999999998478,2.907234e-07,149.63999999998478,2.803635e-06,149.63999999998478,3.882364e-06
149.65499999998477,2.611121e-06,149.65499999998477,2.373747e-07,149.65499999998477,2.828646e-06,149.65499999998477,3.911283e-06
149.66999999998475,2.594886e-06,149.66999999998475,2.373747e-07,149.66999999998475,2.848496e-06,149.66999999998475,3.82387e-06
149.68499999998474,2.680338e-06,149.68499999998474,2.373747e-07,149.68499999998474,2.788521e-06,149.68499999998474,3.853228e-06
149.69999999998473,2.54002e-06,149.69999999998473,2.373747e-07,149.69999999998473,2.798606e-06,149.69999999998473,3.947135e-06
149.7149999999847,2.512137e-06,149.7149999999847,2.373747e-07,149.7149999999847,2.813666e-06,149.7149999999847,3.904074e-06
149.7299999999847,2.506524e-06,149.7299999999847,2.373747e-07,149.7299999999847,2.858369e-06,149.7299999999847,3.84957e-06
149.74499999998469,2.489606e-06,149.74499999998469,2.373747e-07,149.74499999998469,2.843547e-06,149.74499999998469,3.904074e-06
149.75999999998467,2.506524e-06,149.75999999998467,2.373747e-07,149.75999999998467,2.887788e-06,149.75999999998467,3.92925e-06
149.77499999998466,2.517739e-06,149.77499999998466,2.907234e-07,149.77499999998466,2.823661e-06,149.77499999998466,4.17604e-06
149.78999999998464,2.5676e-06,149.78999999998464,2.907234e-07,149.78999999998464,2.823661e-06,149.78999999998464,4.128545e-06
149.80499999998463,2.57308e-06,149.80499999998463,2.373747e-07,149.80499999998463,2.763147e-06,149.80499999998463,3.961384e-06
149.81999999998462,2.489606e-06,149.81999999998462,2.373747e-07,149.81999999998462,2.813666e-06,149.81999999998462,3.943564e-06
149.8349999999846,2.472574e-06,149.8349999999846,2.373747e-07,149.8349999999846,2.964809e-06,149.8349999999846,3.92925e-06
149.8499999999846,2.478264e-06,149.8499999999846,2.373747e-07,149.8499999999846,2.940956e-06,149.8499999999846,4.010859e-06
149.86499999998458,2.438151e-06,149.86499999998458,2.373747e-07,149.86499999998458,2.936162e-06,149.86499999998458,4.024883e-06
149.87999999998456,2.426568e-06,149.87999999998456,2.373747e-07,149.87999999998456,2.768241e-06,149.87999999998456,4.070128e-06
149.89499999998455,2.40909e-06,149.89499999998455,2.373747e-07,149.89499999998455,2.716877e-06,149.89499999998455,3.979125e-06
149.90999999998454,2.337869e-06,149.90999999998454,2.907234e-07,149.90999999998454,2.637958e-06,149.90999999998454,3.954266e-06
149.92499999998452,2.214083e-06,149.92499999998452,2.907234e-07,149.92499999998452,2.627256e-06,149.92499999998452,4.010859e-06
149.9399999999845,2.194914e-06,149.9399999999845,2.907234e-07,149.9399999999845,2.632612e-06,149.9399999999845,4.010859e-06
149.9549999999845,2.301433e-06,149.9549999999845,2.373747e-07,149.9549999999845,2.616511e-06,149.9549999999845,3.922073e-06
149.96999999998448,2.307546e-06,149.96999999998448,2.907234e-07,149.96999999998448,2.57308e-06,149.96999999998448,3.91848e-06
149.98499999998447,2.26441e-06,149.98499999998447,2.907234e-07,149.98499999998447,2.534468e-06,149.98499999998447,3.871464e-06
149.99999999998445,2.258181e-06,149.99999999998445,2.907234e-07,149.99999999998445,2.562108e-06,149.99999999998445,3.838577e-06
150.01499999998444,2.26441e-06,150.01499999998444,2.373747e-07,150.01499999998444,2.478264e-06,150.01499999998444,3.83123e-06
150.02999999998443,2.276818e-06,150.02999999998443,2.373747e-07,150.02999999998443,2.495258e-06,150.02999999998443,3.520835e-06
150.0449999999844,2.251934e-06,150.0449999999844,2.373747e-07,150.0449999999844,2.54556e-06,150.0449999999844,3.528828e-06
150.0599999999844,2.41493e-06,150.0599999999844,2.373747e-07,150.0599999999844,2.621889e-06,150.0599999999844,3.516832e-06
150.07499999998439,2.500897e-06,150.07499999998439,2.373747e-07,150.07499999998439,2.600309e-06,150.07499999998439,3.631134e-06
150.08999999998437,2.506524e-06,150.08999999998437,2.373747e-07,150.08999999998437,2.483942e-06,150.08999999998437,3.588207e-06
150.10499999998436,2.528904e-06,150.10499999998436,2.373747e-07,150.10499999998436,2.512137e-06,150.10499999998436,3.540784e-06
150.11999999998434,2.528904e-06,150.11999999998434,2.373747e-07,150.11999999998434,2.495258e-06,150.11999999998434,3.480596e-06
150.13499999998433,2.578549e-06,150.13499999998433,2.373747e-07,150.13499999998433,2.512137e-06,150.13499999998433,3.439886e-06
150.14999999998432,2.578549e-06,150.14999999998432,2.373747e-07,150.14999999998432,2.461153e-06,150.14999999998432,3.386231e-06
150.1649999999843,2.675077e-06,150.1649999999843,2.373747e-07,150.1649999999843,2.449679e-06,150.1649999999843,3.415227e-06
150.1799999999843,2.716877e-06,150.1799999999843,2.373747e-07,150.1799999999843,2.483942e-06,150.1799999999843,3.344373e-06
150.19499999998428,2.632612e-06,150.19499999998428,2.373747e-07,150.19499999998428,2.443922e-06,150.19499999998428,3.348582e-06
150.20999999998426,2.643292e-06,150.20999999998426,2.373747e-07,150.20999999998426,2.41493e-06,150.20999999998426,3.406967e-06
150.22499999998425,2.621889e-06,150.22499999998425,2.373747e-07,150.22499999998425,2.478264e-06,150.22499999998425,3.484641e-06
150.23999999998424,2.616511e-06,150.23999999998424,2.373747e-07,150.23999999998424,2.621889e-06,150.23999999998424,3.431686e-06
150.25499999998422,2.648616e-06,150.25499999998422,2.373747e-07,150.25499999998422,2.643292e-06,150.25499999998422,3.415227e-06
150.2699999999842,2.768241e-06,150.2699999999842,2.373747e-07,150.2699999999842,2.669806e-06,150.2699999999842,3.439886e-06
150.2849999999842,2.773325e-06,150.2849999999842,2.373747e-07,150.2849999999842,2.648616e-06,150.2849999999842,3.504795e-06
150.29999999998418,2.711688e-06,150.29999999998418,2.373747e-07,150.29999999998418,2.605721e-06,150.29999999998418,3.532818e-06
150.31499999998417,2.653929e-06,150.31499999998417,2.373747e-07,150.31499999998417,2.611121e-06,150.31499999998417,3.65048e-06
150.32999999998415,2.648616e-06,150.32999999998415,2.373747e-07,150.32999999998415,2.584006e-06,150.32999999998415,3.592131e-06
150.34499999998414,2.637958e-06,150.34499999998414,2.373747e-07,150.34499999998414,2.600309e-06,150.34499999998414,3.631134e-06
150.35999999998413,2.621889e-06,150.35999999998413,2.373747e-07,150.35999999998413,2.594886e-06,150.35999999998413,3.638885e-06
150.3749999999841,2.675077e-06,150.3749999999841,2.373747e-07,150.3749999999841,2.616511e-06,150.3749999999841,3.646619e-06
150.3899999999841,2.706488e-06,150.3899999999841,2.373747e-07,150.3899999999841,2.685588e-06,150.3899999999841,3.775675e-06
150.40499999998408,2.690828e-06,150.40499999998408,2.373747e-07,150.40499999998408,2.798606e-06,150.40499999998408,3.786851e-06
150.41999999998407,2.627256e-06,150.41999999998407,2.373747e-07,150.41999999998407,2.788521e-06,150.41999999998407,3.842245e-06
150.43499999998406,2.912075e-06,150.43499999998406,2.373747e-07,150.43499999998406,2.778399e-06,150.43499999998406,3.842245e-06
150.44999999998404,2.945742e-06,150.44999999998404,2.373747e-07,150.44999999998404,2.722057e-06,150.44999999998404,3.801702e-06
150.46499999998403,2.988471e-06,150.46499999998403,2.373747e-07,150.46499999998403,2.711688e-06,150.46499999998403,4.000309e-06
150.47999999998402,3.002579e-06,150.47999999998402,2.373747e-07,150.47999999998402,2.706488e-06,150.47999999998402,3.939991e-06
150.494999999984,2.969556e-06,150.494999999984,2.373747e-07,150.494999999984,2.616511e-06,150.494999999984,4.052786e-06
150.509999999984,2.960054e-06,150.509999999984,2.373747e-07,150.509999999984,2.611121e-06,150.509999999984,4.138769e-06
150.52499999998398,2.783465e-06,150.52499999998398,2.373747e-07,150.52499999998398,2.589452e-06,150.52499999998398,4.145571e-06
150.53999999998396,2.803635e-06,150.53999999998396,2.373747e-07,150.53999999998396,2.57308e-06,150.53999999998396,4.27604e-06
150.55499999998395,2.798606e-06,150.55499999998395,2.373747e-07,150.55499999998395,2.443922e-06,150.55499999998395,4.162526e-06
150.56999999998393,2.778399e-06,150.56999999998393,2.373747e-07,150.56999999998393,2.461153e-06,150.56999999998393,4.148967e-06
150.58499999998392,2.793568e-06,150.58499999998392,2.373747e-07,150.58499999998392,2.478264e-06,150.58499999998392,4.135364e-06
150.5999999999839,2.773325e-06,150.5999999999839,2.373747e-07,150.5999999999839,2.500897e-06,150.5999999999839,4.087396e-06
150.6149999999839,2.788521e-06,150.6149999999839,2.373747e-07,150.6149999999839,2.438151e-06,150.6149999999839,4.114875e-06
150.62999999998388,2.763147e-06,150.62999999998388,2.373747e-07,150.62999999998388,2.46687e-06,150.62999999998388,4.229668e-06
150.64499999998387,2.813666e-06,150.64499999998387,2.373747e-07,150.64499999998387,2.41493e-06,150.64499999998387,4.138769e-06
150.65999999998385,2.788521e-06,150.65999999998385,2.373747e-07,150.65999999998385,2.289158e-06,150.65999999998385,4.148967e-06
150.67499999998384,2.727227e-06,150.67499999998384,2.373747e-07,150.67499999998384,2.461153e-06,150.67499999998384,4.135364e-06
150.68999999998383,2.478264e-06,150.68999999998383,2.373747e-07,150.68999999998383,2.556603e-06,150.68999999998383,4.090841e-06
150.7049999999838,2.472574e-06,150.7049999999838,2.373747e-07,150.7049999999838,2.551088e-06,150.7049999999838,4.05626e-06
150.7199999999838,2.472574e-06,150.7199999999838,2.373747e-07,150.7199999999838,2.594886e-06,150.7199999999838,3.92925e-06
150.73499999998378,2.616511e-06,150.73499999998378,2.373747e-07,150.73499999998378,2.584006e-06,150.73499999998378,3.954266e-06
150.74999999998377,2.722057e-06,150.74999999998377,2.373747e-07,150.74999999998377,2.528904e-06,150.74999999998377,3.827552e-06
150.76499999998376,2.696058e-06,150.76499999998376,2.373747e-07,150.76499999998376,2.551088e-06,150.76499999998376,3.82387e-06
150.77999999998374,2.669806e-06,150.77999999998374,2.373747e-07,150.77999999998374,2.5676e-06,150.77999999998374,3.896851e-06
150.79499999998373,2.659232e-06,150.79499999998373,2.373747e-07,150.79499999998373,2.528904e-06,150.79499999998373,3.771943e-06
150.80999999998372,2.648616e-06,150.80999999998372,2.373747e-07,150.80999999998372,2.57308e-06,150.80999999998372,3.741947e-06
150.8249999999837,2.632612e-06,150.8249999999837,2.373747e-07,150.8249999999837,2.528904e-06,150.8249999999837,4.165909e-06
150.8399999999837,2.813666e-06,150.8399999999837,2.373747e-07,150.8399999999837,2.517739e-06,150.8399999999837,4.219664e-06
150.85499999998368,3.54476e-06,150.85499999998368,2.373747e-07,150.85499999998368,2.495258e-06,150.85499999998368,4.289197e-06
150.86999999998366,6.318359e-06,150.86999999998366,2.373747e-07,150.86999999998366,2.512137e-06,150.86999999998366,4.212983e-06
150.88499999998365,1.563162e-05,150.88499999998365,2.373747e-07,150.88499999998365,2.478264e-06,150.88499999998365,4.338181e-06
150.89999999998363,1.671849e-05,150.89999999998363,2.373747e-07,150.89999999998363,2.517739e-06,150.89999999998363,4.535037e-06
150.91499999998362,1.779439e-05,150.91499999998362,2.907234e-07,150.91499999998362,2.5676e-06,150.91499999998362,4.621192e-06
150.9299999999836,1.861462e-05,150.9299999999836,2.907234e-07,150.9299999999836,2.443922e-06,150.9299999999836,4.615091e-06
150.9449999999836,2.199274e-05,150.9449999999836,2.907234e-07,150.9449999999836,2.472574e-06,150.9449999999836,4.630328e-06
150.95999999998358,2.922409e-05,150.95999999998358,2.907234e-07,150.95999999998358,3.135683e-06,150.95999999998358,4.723696e-06
150.97499999998357,3.027853e-05,150.97499999998357,2.373747e-07,150.97499999998357,4.821102e-06,150.97499999998357,4.747494e-06
150.98999999998355,3.080891e-05,150.98999999998355,2.373747e-07,150.98999999998355,6.591156e-06,150.98999999998355,4.800605e-06
151.00499999998354,3.176611e-05,151.00499999998354,2.373747e-07,151.00499999998354,6.734918e-06,151.00499999998354,4.785911e-06
151.01999999998353,3.406017e-05,151.01999999998353,2.373747e-07,151.01999999998353,6.732826e-06,151.01999999998353,4.657627e-06
151.0349999999835,3.4932e-05,151.0349999999835,2.373747e-07,151.0349999999835,6.951067e-06,151.0349999999835,4.672725e-06
151.0499999999835,3.61718e-05,151.0499999999835,2.373747e-07,151.0499999999835,7.379642e-06,151.0499999999835,4.663672e-06
151.06499999998348,3.709962e-05,151.06499999998348,2.373747e-07,151.06499999998348,7.99181e-06,151.06499999998348,4.624239e-06
151.07999999998347,3.792984e-05,151.07999999998347,2.373747e-07,151.07999999998347,8.479295e-06,151.07999999998347,4.321914e-06
151.09499999998346,3.843381e-05,151.09499999998346,2.373747e-07,151.09499999998346,8.525684e-06,151.09499999998346,4.236323e-06
151.10999999998344,3.901475e-05,151.10999999998344,2.373747e-07,151.10999999998344,9.765595e-06,151.10999999998344,4.155752e-06
151.12499999998343,4.249305e-05,151.12499999998343,2.373747e-07,151.12499999998343,1.085194e-05,151.12499999998343,4.196231e-06
151.13999999998342,4.631605e-05,151.13999999998342,2.373747e-07,151.13999999998342,1.123587e-05,151.13999999998342,3.950702e-06
151.1549999999834,4.669528e-05,151.1549999999834,2.373747e-07,151.1549999999834,1.187348e-05,151.1549999999834,3.73818e-06
151.1699999999834,4.695521e-05,151.1699999999834,2.373747e-07,151.1699999999834,1.215952e-05,151.1699999999834,3.619477e-06
151.18499999998338,4.836797e-05,151.18499999998338,2.373747e-07,151.18499999998338,1.217804e-05,151.18499999998338,3.914884e-06
151.19999999998336,4.623081e-05,151.19999999998336,2.373747e-07,151.19999999998336,1.219422e-05,151.19999999998336,3.896851e-06
151.21499999998335,4.587446e-05,151.21499999998335,2.373747e-07,151.21499999998335,1.204428e-05,151.21499999998335,3.809105e-06
151.22999999998333,4.665726e-05,151.22999999998333,2.373747e-07,151.22999999998333,1.08025e-05,151.22999999998333,3.860533e-06
151.24499999998332,4.688646e-05,151.24499999998332,2.373747e-07,151.24499999998332,1.064222e-05,151.24499999998332,4.155752e-06
151.2599999999833,4.635588e-05,151.2599999999833,2.373747e-07,151.2599999999833,1.05958e-05,151.2599999999833,4.308857e-06
151.2749999999833,4.750815e-05,151.2749999999833,2.373747e-07,151.2749999999833,1.059048e-05,151.2749999999833,4.269446e-06
151.28999999998328,4.713277e-05,151.28999999998328,2.373747e-07,151.28999999998328,1.040259e-05,151.28999999998328,4.186148e-06
151.30499999998327,4.758489e-05,151.30499999998327,2.373747e-07,151.30499999998327,9.979622e-06,151.30499999998327,4.179412e-06
151.31999999998325,4.735164e-05,151.31999999998325,2.373747e-07,151.31999999998325,9.803028e-06,151.31999999998325,4.39624e-06
151.33499999998324,4.736353e-05,151.33499999998324,2.373747e-07,151.33499999998324,1.131209e-05,151.33499999998324,4.711753e-06
151.34999999998323,4.668985e-05,151.34999999998323,2.373747e-07,151.34999999998323,1.169176e-05,151.34999999998323,4.747494e-06
151.3649999999832,4.962749e-05,151.3649999999832,2.373747e-07,151.3649999999832,1.140881e-05,151.3649999999832,5.431162e-06
151.3799999999832,4.774359e-05,151.3799999999832,2.373747e-07,151.3799999999832,3.697944e-05,151.3799999999832,6.135114e-06
151.39499999998318,4.564851e-05,151.39499999998318,2.907234e-07,151.39499999998318,3.75052e-05,151.39499999998318,6.146583e-06
151.40999999998317,4.567875e-05,151.40999999998317,2.907234e-07,151.40999999998317,3.785847e-05,151.40999999998317,6.189974e-06
151.42499999998316,4.559942e-05,151.42499999998316,2.373747e-07,151.42499999998316,3.796771e-05,151.42499999998316,6.176305e-06
151.43999999998314,4.367629e-05,151.43999999998314,2.907234e-07,151.43999999998314,3.796177e-05,151.43999999998314,6.028569e-06
151.45499999998313,4.097585e-05,151.45499999998313,2.907234e-07,151.45499999998313,3.798848e-05,151.45499999998313,6.353931e-06
151.46999999998312,4.168444e-05,151.46999999998312,2.907234e-07,151.46999999998312,3.806442e-05,151.46999999998312,6.669763e-06
151.4849999999831,4.117202e-05,151.4849999999831,2.907234e-07,151.4849999999831,3.835126e-05,151.4849999999831,6.618881e-06
151.4999999999831,4.178469e-05,151.4999999999831,2.907234e-07,151.4999999999831,3.835897e-05,151.4999999999831,6.571893e-06
151.51499999998308,4.058205e-05,151.51499999998308,2.907234e-07,151.51499999998308,3.842135e-05,151.51499999998308,6.684531e-06
151.52999999998306,3.925017e-05,151.52999999998306,2.907234e-07,151.52999999998306,3.846605e-05,151.52999999998306,6.809799e-06
151.54499999998305,3.806701e-05,151.54499999998305,2.907234e-07,151.54499999998305,3.846202e-05,151.54499999998305,6.836638e-06
151.55999999998303,3.767047e-05,151.55999999998303,2.907234e-07,151.55999999998303,3.846861e-05,151.55999999998303,6.822199e-06
151.57499999998302,3.682025e-05,151.57499999998302,2.907234e-07,151.57499999998302,3.819667e-05,151.57499999998302,6.64861e-06
151.589999999983,3.718874e-05,151.589999999983,2.907234e-07,151.589999999983,3.78938e-05,151.589999999983,6.7391e-06
151.604999999983,3.570813e-05,151.604999999983,2.907234e-07,151.604999999983,3.99139e-05,151.604999999983,6.776621e-06
151.61999999998298,3.108158e-05,151.61999999998298,2.907234e-07,151.61999999998298,3.964583e-05,151.61999999998298,6.347276e-06
151.63499999998297,2.774442e-05,151.63499999998297,2.907234e-07,151.63499999998297,2.054491e-05,151.63499999998297,5.748683e-06
151.64999999998295,2.659444e-05,151.64999999998295,2.907234e-07,151.64999999998295,1.928222e-05,151.64999999998295,5.848288e-06
151.66499999998294,2.712778e-05,151.66499999998294,2.907234e-07,151.66499999998294,1.861841e-05,151.66499999998294,5.865124e-06
151.67999999998293,2.714439e-05,151.67999999998293,2.907234e-07,151.67999999998293,1.845044e-05,151.67999999998293,6.146583e-06
151.6949999999829,2.696946e-05,151.6949999999829,2.907234e-07,151.6949999999829,1.848553e-05,151.6949999999829,6.158032e-06
151.7099999999829,2.767833e-05,151.7099999999829,2.907234e-07,151.7099999999829,1.852511e-05,151.7099999999829,5.929618e-06
151.72499999998288,2.673338e-05,151.72499999998288,2.373747e-07,151.72499999998288,1.823155e-05,151.72499999998288,7.287441e-06
151.73999999998287,2.594723e-05,151.73999999998287,2.373747e-07,151.73999999998287,1.791746e-05,151.73999999998287,7.109361e-06
151.75499999998286,2.748426e-05,151.75499999998286,2.373747e-07,151.75499999998286,1.793082e-05,151.75499999998286,7.325999e-06
151.76999999998284,2.703728e-05,151.76999999998284,2.373747e-07,151.76999999998284,1.80053e-05,151.76999999998284,7.68449e-06
151.78499999998283,2.693497e-05,151.78499999998283,2.907234e-07,151.78499999998283,1.799904e-05,151.78499999998283,7.744747e-06
151.79999999998282,2.741549e-05,151.79999999998282,2.907234e-07,151.79999999998282,1.820216e-05,151.79999999998282,7.844146e-06
151.8149999999828,3.076315e-05,151.8149999999828,2.907234e-07,151.8149999999828,1.846265e-05,151.8149999999828,7.811755e-06
151.8299999999828,3.123439e-05,151.8299999999828,2.907234e-07,151.8299999999828,1.895879e-05,151.8299999999828,7.811755e-06
151.84499999998278,3.405892e-05,151.84499999998278,2.373747e-07,151.84499999998278,1.90581e-05,151.84499999998278,7.728359e-06
151.85999999998276,3.778808e-05,151.85999999998276,2.373747e-07,151.85999999998276,1.102451e-05,151.85999999998276,7.623756e-06
151.87499999998275,3.842135e-05,151.87499999998275,2.373747e-07,151.87499999998275,1.187229e-05,151.87499999998275,7.599698e-06
151.88999999998273,4.016124e-05,151.88999999998273,2.373747e-07,151.88999999998273,1.254161e-05,151.88999999998273,7.366268e-06
151.90499999998272,5.001429e-05,151.90499999998272,2.373747e-07,151.90499999998272,1.403625e-05,151.90499999998272,7.415822e-06
151.9199999999827,5.171963e-05,151.9199999999827,2.373747e-07,151.9199999999827,1.596069e-05,151.9199999999827,7.270023e-06
151.9349999999827,5.274874e-05,151.9349999999827,2.373747e-07,151.9349999999827,2.070881e-05,151.9349999999827,7.246734e-06
151.94999999998268,5.468254e-05,151.94999999998268,2.373747e-07,151.94999999998268,2.580679e-05,151.94999999998268,7.190141e-06
151.96499999998267,7.390552e-05,151.96499999998267,2.373747e-07,151.96499999998267,2.68999e-05,151.96499999998267,6.481242e-06
151.97999999998265,7.972663e-05,151.97999999998265,2.373747e-07,151.97999999998265,2.701799e-05,151.97999999998265,5.222243e-06
151.99499999998264,8.302279e-05,151.99499999998264,2.373747e-07,151.99499999998264,2.814867e-05,151.99499999998264,5.941484e-06
152.00999999998263,8.367264e-05,152.00999999998263,2.373747e-07,152.00999999998263,2.946459e-05,152.00999999998263,5.634837e-06
152.0249999999826,8.616472e-05,152.0249999999826,2.373747e-07,152.0249999999826,2.94818e-05,152.0249999999826,5.365928e-06
152.0399999999826,8.635155e-05,152.0399999999826,2.373747e-07,152.0399999999826,2.956816e-05,152.0399999999826,5.305204e-06
152.05499999998258,8.75898e-05,152.05499999998258,2.373747e-07,152.05499999998258,3.242707e-05,152.05499999998258,5.249148e-06
152.06999999998257,8.794932e-05,152.06999999998257,2.373747e-07,152.06999999998257,3.308078e-05,152.06999999998257,5.334332e-06
152.08499999998256,8.802456e-05,152.08499999998256,2.907234e-07,152.08499999998256,3.309866e-05,152.08499999998256,5.135199e-06
152.09999999998254,8.691187e-05,152.09999999998254,2.373747e-07,152.09999999998254,3.338259e-05,152.09999999998254,5.173461e-06
152.11499999998253,8.962254e-05,152.11499999998253,2.373747e-07,152.11499999998253,3.343656e-05,152.11499999998253,5.286585e-06
152.12999999998252,8.974568e-05,152.12999999998252,2.373747e-07,152.12999999998252,3.244357e-05,152.12999999998252,5.334332e-06
152.1449999999825,9.069344e-05,152.1449999999825,2.373747e-07,152.1449999999825,3.333065e-05,152.1449999999825,5.425972e-06
152.1599999999825,8.750485e-05,152.1599999999825,2.373747e-07,152.1599999999825,3.634508e-05,152.1599999999825,5.373798e-06
152.17499999998248,8.732259e-05,152.17499999998248,2.907234e-07,152.17499999998248,3.703501e-05,152.17499999998248,5.281253e-06
152.18999999998246,8.620248e-05,152.18999999998246,2.907234e-07,152.18999999998246,3.561016e-05,152.18999999998246,5.241091e-06
152.20499999998245,8.731856e-05,152.20499999998245,2.907234e-07,152.20499999998245,3.520555e-05,152.20499999998245,5.235713e-06
152.21999999998243,6.908317e-05,152.21999999998243,2.373747e-07,152.21999999998243,3.497996e-05,152.21999999998243,5.203327e-06
152.23499999998242,6.603241e-05,152.23499999998242,2.373747e-07,152.23499999998242,3.501538e-05,152.23499999998242,5.032679e-06
152.2499999999824,6.59342e-05,152.2499999999824,2.907234e-07,152.2499999999824,3.421861e-05,152.2499999999824,4.402644e-06
152.2649999999824,6.379905e-05,152.2649999999824,2.907234e-07,152.2649999999824,3.669838e-05,152.2649999999824,4.338181e-06
152.27999999998238,6.475893e-05,152.27999999998238,2.373747e-07,152.27999999998238,3.676703e-05,152.27999999998238,4.272744e-06
152.29499999998237,6.605481e-05,152.29499999998237,2.373747e-07,152.29499999998237,3.623056e-05,152.29499999998237,4.196231e-06
152.30999999998235,6.979462e-05,152.30999999998235,2.373747e-07,152.30999999998235,3.489246e-05,152.30999999998235,4.162526e-06
152.32499999998234,6.984364e-05,152.32499999998234,2.373747e-07,152.32499999998234,3.514107e-05,152.32499999998234,4.192873e-06
152.33999999998233,7.176807e-05,152.33999999998233,2.373747e-07,152.33999999998233,3.540028e-05,152.33999999998233,4.239647e-06
152.3549999999823,8.207245e-05,152.3549999999823,2.373747e-07,152.3549999999823,3.529547e-05,152.3549999999823,4.20629e-06
152.3699999999823,8.148281e-05,152.3699999999823,2.373747e-07,152.3699999999823,3.663154e-05,152.3699999999823,3.885991e-06
152.38499999998228,8.261372e-05,152.38499999998228,2.373747e-07,152.38499999998228,3.688637e-05,152.38499999998228,3.900464e-06
152.39999999998227,8.188841e-05,152.39999999998227,2.373747e-07,152.39999999998227,3.537759e-05,152.39999999998227,3.867824e-06
152.41499999998226,8.314334e-05,152.41499999998226,2.373747e-07,152.41499999998226,3.116396e-05,152.41499999998226,3.83123e-06
152.42999999998224,8.539849e-05,152.42999999998224,2.373747e-07,152.42999999998224,3.082582e-05,152.42999999998224,3.856882e-06
152.44499999998223,8.346395e-05,152.44499999998223,2.373747e-07,152.44499999998223,3.109065e-05,152.44499999998223,3.867824e-06
152.45999999998222,8.445502e-05,152.45999999998222,2.373747e-07,152.45999999998222,3.048163e-05,152.45999999998222,3.856882e-06
152.4749999999822,8.359347e-05,152.4749999999822,2.373747e-07,152.4749999999822,3.087787e-05,152.4749999999822,3.749468e-06
152.4899999999822,8.316096e-05,152.4899999999822,2.373747e-07,152.4899999999822,3.101444e-05,152.4899999999822,3.711708e-06
152.50499999998218,8.094198e-05,152.50499999998218,2.373747e-07,152.50499999998218,2.838836e-05,152.50499999998218,3.669723e-06
152.51999999998216,8.015219e-05,152.51999999998216,2.373747e-07,152.51999999998216,2.639026e-05,152.51999999998216,3.82387e-06
152.53499999998215,7.889164e-05,152.53499999998215,2.373747e-07,152.53499999998215,2.615488e-05,152.53499999998215,3.82387e-06
152.54999999998213,7.539272e-05,152.54999999998213,2.907234e-07,152.54999999998213,2.545615e-05,152.54999999998213,3.860533e-06
152.56499999998212,7.783772e-05,152.56499999998212,2.907234e-07,152.56499999998212,2.425233e-05,152.56499999998212,3.794284e-06
152.5799999999821,8.539321e-05,152.5799999999821,2.907234e-07,152.5799999999821,2.406516e-05,152.5799999999821,3.753223e-06
152.5949999999821,8.527121e-05,152.5949999999821,2.907234e-07,152.5949999999821,2.369827e-05,152.5949999999821,4.038859e-06
152.60999999998208,8.348015e-05,152.60999999998208,2.907234e-07,152.60999999998208,2.955291e-05,152.60999999998208,4.347911e-06
152.62499999998207,9.309385e-05,152.62499999998207,3.356985e-07,152.62499999998207,2.762994e-05,152.62499999998207,4.48192e-06
152.63999999998205,9.469643e-05,152.63999999998205,3.356985e-07,152.63999999998205,2.770123e-05,152.63999999998205,4.657627e-06
152.65499999998204,9.244167e-05,152.65499999998204,3.356985e-07,152.65499999998204,2.763759e-05,152.65499999998204,5.219545e-06
152.66999999998202,9.202196e-05,152.66999999998202,3.356985e-07,152.66999999998202,2.691299e-05,152.66999999998202,5.165286e-06
152.684999999982,9.068023e-05,152.684999999982,3.356985e-07,152.684999999982,2.43526e-05,152.684999999982,5.523745e-06
152.699999999982,9.321528e-05,152.699999999982,3.356985e-07,152.699999999982,2.195234e-05,152.699999999982,5.669728e-06
152.71499999998198,9.314937e-05,152.71499999998198,3.356985e-07,152.71499999998198,2.084577e-05,152.71499999998198,5.753582e-06
152.72999999998197,9.41727e-05,152.72999999998197,3.356985e-07,152.72999999998197,2.125398e-05,152.72999999998197,5.843468e-06
152.74499999998196,9.701962e-05,152.74499999998196,3.753223e-07,152.74499999998196,2.1978e-05,152.74499999998196,6.378271e-06
152.75999999998194,9.730118e-05,152.75999999998194,3.753223e-07,152.75999999998194,2.299535e-05,152.75999999998194,6.902258e-06
152.77499999998193,9.668874e-05,152.77499999998193,5.035477e-07,152.77499999998193,2.291496e-05,152.77499999998193,7.059652e-06
152.78999999998192,9.664488e-05,152.78999999998192,5.307859e-07,152.78999999998192,2.279971e-05,152.78999999998192,7.543885e-06
152.8049999999819,9.989879e-05,152.8049999999819,5.56693e-07,152.8049999999819,2.261983e-05,152.8049999999819,8.499207e-06
152.8199999999819,0.0001036147,152.8199999999819,5.56693e-07,152.8199999999819,2.291987e-05,152.8199999999819,8.640569e-06
152.83499999998187,9.716572e-05,152.83499999998187,5.56693e-07,152.83499999998187,2.296347e-05,152.83499999998187,8.617714e-06
152.84999999998186,9.239822e-05,152.84999999998186,5.56693e-07,152.84999999998186,1.9326e-05,152.84999999998186,8.647087e-06
152.86499999998185,8.004948e-05,152.86499999998185,5.56693e-07,152.86499999998185,1.387779e-05,152.86499999998185,8.995216e-06
152.87999999998183,7.201749e-05,152.87999999998183,5.307859e-07,152.87999999998183,1.348447e-05,152.87999999998183,9.09334e-06
152.89499999998182,7.161342e-05,152.89499999998182,5.307859e-07,152.89499999998182,1.334903e-05,152.89499999998182,9.070073e-06
152.9099999999818,7.023543e-05,152.9099999999818,5.307859e-07,152.9099999999818,1.332579e-05,152.9099999999818,8.962269e-06
152.9249999999818,6.878236e-05,152.9249999999818,5.56693e-07,152.9249999999818,1.331204e-05,152.9249999999818,8.966984e-06
152.93999999998178,6.805723e-05,152.93999999998178,5.56693e-07,152.93999999998178,1.318552e-05,152.93999999998178,8.854743e-06
152.95499999998177,6.390208e-05,152.95499999998177,5.56693e-07,152.95499999998177,1.295052e-05,152.95499999998177,8.822869e-06
152.96999999998175,6.230915e-05,152.96999999998175,5.56693e-07,152.96999999998175,1.267234e-05,152.96999999998175,8.848378e-06
152.98499999998174,5.798165e-05,152.98499999998174,5.56693e-07,152.98499999998174,1.070294e-05,152.98499999998174,8.702299e-06
152.99999999998172,5.553248e-05,152.99999999998172,5.035477e-07,152.99999999998172,8.876988e-06,152.99999999998172,8.420948e-06
153.0149999999817,5.501053e-05,153.0149999999817,4.747494e-07,153.0149999999817,6.552573e-06,153.0149999999817,7.732004e-06
153.0299999999817,5.473147e-05,153.0299999999817,3.356985e-07,153.0299999999817,6.483414e-06,153.0299999999817,7.658783e-06
153.04499999998168,5.219653e-05,153.04499999998168,3.356985e-07,153.04499999998168,6.426676e-06,153.04499999998168,6.665538e-06
153.05999999998167,2.966044e-05,153.05999999998167,2.907234e-07,153.05999999998167,6.217223e-06,153.05999999998167,5.905813e-06
153.07499999998166,2.555226e-05,153.07499999998166,2.907234e-07,153.07499999998166,4.675739e-06,153.07499999998166,5.867525e-06
153.08999999998164,2.305469e-05,153.08999999998164,2.373747e-07,153.08999999998164,4.850233e-06,153.08999999998164,5.775575e-06
153.10499999998163,2.293032e-05,153.10499999998163,2.373747e-07,153.10499999998163,6.940926e-06,153.10499999998163,5.140683e-06
153.11999999998162,2.123873e-05,153.11999999998162,2.373747e-07,153.11999999998162,6.743279e-06,153.11999999998162,4.608983e-06
153.1349999999816,1.695693e-05,153.1349999999816,2.373747e-07,153.1349999999816,6.875675e-06,153.1349999999816,4.466178e-06
153.1499999999816,1.588017e-05,153.1499999999816,2.373747e-07,153.1499999999816,6.953093e-06,153.1499999999816,4.125132e-06
153.16499999998157,1.58562e-05,153.16499999998157,2.373747e-07,153.16499999998157,6.930771e-06,153.16499999998157,3.982663e-06
153.17999999998156,1.54722e-05,153.17999999998156,2.373747e-07,153.17999999998156,6.768301e-06,153.17999999998156,3.885991e-06
153.19499999998155,1.557203e-05,153.19499999998155,2.373747e-07,153.19499999998155,1.068054e-05,153.19499999998155,3.797995e-06
153.20999999998153,1.480693e-05,153.20999999998153,2.373747e-07,153.20999999998153,1.305453e-05,153.20999999998153,3.860533e-06
153.22499999998152,1.446623e-05,153.22499999998152,2.373747e-07,153.22499999998152,1.315664e-05,153.22499999998152,3.584279e-06
153.2399999999815,1.421773e-05,153.2399999999815,2.373747e-07,153.2399999999815,1.320047e-05,153.2399999999815,3.57641e-06
153.2549999999815,1.238564e-05,153.2549999999815,1.678492e-07,153.2549999999815,1.323244e-05,153.2549999999815,3.500774e-06
153.26999999998148,1.245143e-05,153.26999999998148,2.373747e-07,153.26999999998148,1.32484e-05,153.26999999998148,3.556662e-06
153.28499999998147,1.256517e-05,153.28499999998147,2.373747e-07,153.28499999998147,1.323031e-05,153.28499999998147,3.552699e-06
153.29999999998145,1.302212e-05,153.29999999998145,2.373747e-07,153.29999999998145,1.321646e-05,153.29999999998145,3.508812e-06
153.31499999998144,1.306747e-05,153.31499999998144,2.373747e-07,153.31499999998144,1.318338e-05,153.31499999998144,3.423466e-06
153.32999999998142,1.318552e-05,153.32999999998142,2.373747e-07,153.32999999998142,1.363924e-05,153.32999999998142,3.480596e-06
153.3449999999814,1.308471e-05,153.3449999999814,2.373747e-07,153.3449999999814,1.449638e-05,153.3449999999814,3.572469e-06
153.3599999999814,1.269899e-05,153.3599999999814,2.373747e-07,153.3599999999814,1.445356e-05,153.3599999999814,3.568524e-06
153.37499999998138,1.250223e-05,153.37499999998138,2.373747e-07,153.37499999998138,1.452357e-05,153.37499999998138,3.520835e-06
153.38999999998137,1.084155e-05,153.38999999998137,2.373747e-07,153.38999999998137,1.445551e-05,153.38999999998137,3.592131e-06
153.40499999998136,1.072004e-05,153.40499999998136,2.373747e-07,153.40499999998136,1.443406e-05,153.40499999998136,3.700305e-06
153.41999999998134,1.157065e-05,153.41999999998134,2.907234e-07,153.41999999998134,1.443406e-05,153.41999999998134,3.662038e-06
153.43499999998133,1.205246e-05,153.43499999998133,2.907234e-07,153.43499999998133,1.53056e-05,153.43499999998133,3.707911e-06
153.44999999998132,1.175065e-05,153.44999999998132,2.907234e-07,153.44999999998132,1.544487e-05,153.44999999998132,3.662038e-06
153.4649999999813,1.241517e-05,153.4649999999813,2.907234e-07,153.4649999999813,1.664418e-05,153.4649999999813,3.764466e-06
153.4799999999813,1.264897e-05,153.4799999999813,2.907234e-07,153.4799999999813,1.694363e-05,153.4799999999813,3.834905e-06
153.49499999998127,1.29983e-05,153.49499999998127,2.907234e-07,153.49499999998127,1.691284e-05,153.49499999998127,3.816494e-06
153.50999999998126,1.42108e-05,153.50999999998126,2.907234e-07,153.50999999998126,1.693032e-05,153.50999999998126,3.794284e-06
153.52499999998125,1.429283e-05,153.52499999998125,2.907234e-07,153.52499999998125,1.695527e-05,153.52499999998125,3.753223e-06
153.53999999998123,1.420385e-05,153.53999999998123,2.907234e-07,153.53999999998123,1.693781e-05,153.53999999998123,3.730636e-06
153.55499999998122,1.431745e-05,153.55499999998122,2.373747e-07,153.55499999998122,1.695693e-05,153.55499999998122,3.911283e-06
153.5699999999812,1.484968e-05,153.5699999999812,2.373747e-07,153.5699999999812,1.692533e-05,153.5699999999812,4.031877e-06
153.5849999999812,1.519105e-05,153.5849999999812,2.373747e-07,153.5849999999812,1.641408e-05,153.5849999999812,3.939991e-06
153.59999999998118,1.554125e-05,153.59999999998118,2.373747e-07,153.59999999998118,1.510363e-05,153.59999999998118,3.84957e-06
153.61499999998117,1.616328e-05,153.61499999998117,2.373747e-07,153.61499999998117,1.496684e-05,153.61499999998117,3.871464e-06
153.62999999998115,1.627618e-05,153.62999999998115,2.373747e-07,153.62999999998115,1.496025e-05,153.62999999998115,3.707911e-06
153.64499999998114,1.955354e-05,153.64499999998114,2.373747e-07,153.64499999998114,1.497249e-05,153.64499999998114,3.646619e-06
153.65999999998112,2.180813e-05,153.65999999998112,2.373747e-07,153.65999999998112,1.52752e-05,153.65999999998112,3.619477e-06
153.6749999999811,2.220627e-05,153.6749999999811,2.373747e-07,153.6749999999811,1.659417e-05,153.6749999999811,3.552699e-06
153.6899999999811,2.218025e-05,153.6899999999811,2.373747e-07,153.6899999999811,1.514741e-05,153.6899999999811,3.528828e-06
153.70499999998108,2.361311e-05,153.70499999998108,2.373747e-07,153.70499999998108,9.558568e-06,153.70499999998108,3.496747e-06
153.71999999998107,2.314738e-05,153.71999999998107,2.373747e-07,153.71999999998107,8.979542e-06,153.71999999998107,3.297714e-06
153.73499999998106,2.304247e-05,153.73499999998106,2.373747e-07,153.73499999998106,8.452672e-06,153.73499999998106,3.382069e-06
153.74999999998104,2.269071e-05,153.74999999998104,2.373747e-07,153.74999999998104,8.43432e-06,153.74999999998104,3.480596e-06
153.76499999998103,2.214974e-05,153.76499999998103,2.373747e-07,153.76499999998103,8.487596e-06,153.76499999998103,3.588207e-06
153.77999999998102,2.213702e-05,153.77999999998102,2.373747e-07,153.77999999998102,8.43766e-06,153.77999999998102,3.749468e-06
153.794999999981,2.209179e-05,153.794999999981,2.373747e-07,153.794999999981,8.430979e-06,153.794999999981,3.749468e-06
153.809999999981,2.165515e-05,153.809999999981,2.373747e-07,153.809999999981,8.363879e-06,153.809999999981,3.638885e-06
153.82499999998097,2.341301e-05,153.82499999998097,2.373747e-07,153.82499999998097,1.306639e-05,153.82499999998097,3.599965e-06
153.83999999998096,2.483658e-05,153.83999999998096,2.373747e-07,153.83999999998096,1.322605e-05,153.83999999998096,3.692683e-06
153.85499999998095,2.527009e-05,153.85499999998095,2.373747e-07,153.85499999998095,1.320367e-05,153.85499999998095,3.730636e-06
153.86999999998093,2.654407e-05,153.86999999998093,2.373747e-07,153.86999999998093,1.315771e-05,153.86999999998093,3.756974e-06
153.88499999998092,3.110242e-05,153.88499999998092,2.373747e-07,153.88499999998092,1.315129e-05,153.88499999998092,3.820184e-06
153.8999999999809,2.893733e-05,153.8999999999809,2.373747e-07,153.8999999999809,1.332156e-05,153.8999999999809,3.786851e-06
153.9149999999809,2.834069e-05,153.9149999999809,2.373747e-07,153.9149999999809,1.39517e-05,153.9149999999809,3.794284e-06
153.92999999998088,2.840622e-05,153.92999999998088,2.373747e-07,153.92999999998088,1.538547e-05,153.92999999998088,3.78313e-06
153.94499999998087,2.944833e-05,153.94499999998087,2.373747e-07,153.94499999998087,1.569368e-05,153.94499999998087,3.741947e-06
153.95999999998085,2.957435e-05,153.95999999998085,2.373747e-07,153.95999999998085,1.570714e-05,153.95999999998085,3.723076e-06
153.97499999998084,2.959387e-05,153.97499999998084,2.373747e-07,153.97499999998084,1.571521e-05,153.97499999998084,3.688867e-06
153.98999999998082,2.966044e-05,153.98999999998082,2.373747e-07,153.98999999998082,1.585265e-05,153.98999999998082,3.638885e-06
154.0049999999808,2.982006e-05,154.0049999999808,2.373747e-07,154.0049999999808,1.612576e-05,154.0049999999808,3.394541e-06
154.0199999999808,2.979076e-05,154.0199999999808,2.373747e-07,154.0199999999808,1.613187e-05,154.0199999999808,3.40283e-06
154.03499999998078,2.966993e-05,154.03499999998078,2.373747e-07,154.03499999998078,1.614148e-05,154.03499999998078,3.310505e-06
154.04999999998077,2.949518e-05,154.04999999998077,2.373747e-07,154.04999999998077,1.614584e-05,154.04999999998077,3.423466e-06
154.06499999998076,2.93189e-05,154.06499999998076,2.907234e-07,154.06499999998076,1.426817e-05,154.06499999998076,3.415227e-06
154.07999999998074,2.642919e-05,154.07999999998074,2.907234e-07,154.07999999998074,1.253487e-05,154.07999999998074,3.314757e-06
154.09499999998073,2.63705e-05,154.09499999998073,2.907234e-07,154.09499999998073,1.428199e-05,154.09499999998073,3.233005e-06
154.10999999998072,2.5648e-05,154.10999999998072,2.373747e-07,154.10999999998072,1.471149e-05,154.10999999998072,3.122176e-06
154.1249999999807,2.442307e-05,154.1249999999807,2.373747e-07,154.1249999999807,1.487527e-05,154.1249999999807,3.122176e-06
154.1399999999807,1.676393e-05,154.1399999999807,2.373747e-07,154.1399999999807,1.489798e-05,154.1399999999807,3.122176e-06
154.15499999998067,1.623025e-05,154.15499999998067,2.373747e-07,154.15499999998067,1.516135e-05,154.15499999998067,3.149131e-06
154.16999999998066,1.553671e-05,154.16999999998066,2.373747e-07,154.16999999998066,1.35314e-05,154.16999999998066,3.162522e-06
154.18499999998065,1.423852e-05,154.18499999998065,2.373747e-07,154.18499999998065,1.32898e-05,154.18499999998065,3.197958e-06
154.19999999998063,1.121328e-05,154.19999999998063,2.373747e-07,154.19999999998063,1.313521e-05,154.19999999998063,3.202359e-06
154.21499999998062,1.047277e-05,154.21499999998062,2.373747e-07,154.21499999998062,1.31652e-05,154.21499999998062,3.215529e-06
154.2299999999806,1.080902e-05,154.2299999999806,2.373747e-07,154.2299999999806,1.31759e-05,154.2299999999806,3.180289e-06
154.2449999999806,1.070952e-05,154.2449999999806,2.373747e-07,154.2449999999806,1.272337e-05,154.2449999999806,3.175857e-06
154.25999999998058,1.079598e-05,154.25999999998058,2.373747e-07,154.25999999998058,1.269344e-05,154.25999999998058,3.306247e-06
154.27499999998057,1.206415e-05,154.27499999998057,2.373747e-07,154.27499999998057,1.266456e-05,154.27499999998057,3.348582e-06
154.28999999998055,1.212704e-05,154.28999999998055,2.373747e-07,154.28999999998055,1.267234e-05,154.28999999998055,3.202359e-06
154.30499999998054,1.210727e-05,154.30499999998054,2.373747e-07,154.30499999998054,1.267567e-05,154.30499999998054,3.108612e-06
154.31999999998052,1.222537e-05,154.31999999998052,2.373747e-07,154.31999999998052,1.270454e-05,154.31999999998052,3.301983e-06
154.3349999999805,1.219769e-05,154.3349999999805,2.373747e-07,154.3349999999805,1.462216e-05,154.3349999999805,3.310505e-06
154.3499999999805,1.236401e-05,154.3499999999805,2.373747e-07,154.3499999999805,1.349909e-05,154.3499999999805,3.390388e-06
154.36499999998048,1.201266e-05,154.36499999998048,2.373747e-07,154.36499999998048,1.306424e-05,154.36499999998048,3.532818e-06
154.37999999998047,1.192675e-05,154.37999999998047,2.373747e-07,154.37999999998047,1.298854e-05,154.37999999998047,3.548731e-06
154.39499999998046,1.219191e-05,154.39499999998046,2.373747e-07,154.39499999998046,1.297226e-05,154.39499999998046,3.588207e-06
154.40999999998044,1.276648e-05,154.40999999998044,2.373747e-07,154.40999999998044,1.136551e-05,154.40999999998044,3.57641e-06
154.42499999998043,1.275433e-05,154.42499999998043,2.373747e-07,154.42499999998043,1.132205e-05,154.42499999998043,3.528828e-06
154.43999999998042,1.273112e-05,154.43999999998042,2.373747e-07,154.43999999998042,9.536437e-06,154.43999999998042,3.480596e-06
154.4549999999804,1.386764e-05,154.4549999999804,2.907234e-07,154.4549999999804,9.280408e-06,154.4549999999804,3.508812e-06
154.4699999999804,1.538089e-05,154.4699999999804,2.907234e-07,154.4699999999804,9.228656e-06,154.4699999999804,3.564574e-06
154.48499999998037,1.886046e-05,154.48499999998037,2.907234e-07,154.48499999998037,1.06409e-05,154.48499999998037,3.540784e-06
154.49999999998036,1.942995e-05,154.49999999998036,2.907234e-07,154.49999999998036,1.144087e-05,154.49999999998036,3.568524e-06
154.51499999998035,1.950232e-05,154.51499999998035,2.907234e-07,154.51499999998035,1.26077e-05,154.51499999998035,3.540784e-06
154.52999999998033,1.890075e-05,154.52999999998033,2.907234e-07,154.52999999998033,1.280064e-05,154.52999999998033,3.603876e-06
154.54499999998032,1.891193e-05,154.54499999998032,2.907234e-07,154.54499999998032,1.28369e-05,154.54499999998032,3.723076e-06
154.5599999999803,1.892979e-05,154.5599999999803,2.907234e-07,154.5599999999803,1.280944e-05,154.5599999999803,3.627253e-06
154.5749999999803,1.908985e-05,154.5749999999803,2.907234e-07,154.5749999999803,1.250899e-05,154.5749999999803,3.611685e-06
154.58999999998028,1.879087e-05,154.58999999998028,2.907234e-07,154.58999999998028,9.542344e-06,154.58999999998028,3.564574e-06
154.60499999998027,1.909723e-05,154.60499999998027,2.907234e-07,154.60499999998027,9.441426e-06,154.60499999998027,3.492716e-06
154.61999999998025,2.012512e-05,154.61999999998025,2.907234e-07,154.61999999998025,9.42201e-06,154.61999999998025,3.319004e-06
154.63499999998024,2.037831e-05,154.63499999998024,2.907234e-07,154.63499999998024,9.432471e-06,154.63499999998024,3.331712e-06
154.64999999998022,2.056136e-05,154.64999999998022,2.907234e-07,154.64999999998022,9.430977e-06,154.64999999998022,3.276286e-06
154.6649999999802,2.05209e-05,154.6649999999802,2.907234e-07,154.6649999999802,9.433964e-06,154.6649999999802,3.394541e-06
154.6799999999802,2.093949e-05,154.6799999999802,2.907234e-07,154.6799999999802,9.42201e-06,154.6799999999802,3.448066e-06
154.69499999998018,2.17415e-05,154.69499999998018,2.907234e-07,154.69499999998018,9.425e-06,154.69499999998018,3.564574e-06
154.70999999998017,2.160892e-05,154.70999999998017,2.907234e-07,154.70999999998017,9.425e-06,154.70999999998017,3.745709e-06
154.72499999998016,3.394499e-05,154.72499999998016,2.907234e-07,154.72499999998016,9.411539e-06,154.72499999998016,3.745709e-06
154.73999999998014,3.383568e-05,154.73999999998014,2.373747e-07,154.73999999998014,6.791156e-06,154.73999999998014,3.805405e-06
154.75499999998013,3.953197e-05,154.75499999998013,2.373747e-07,154.75499999998013,6.325044e-06,154.75499999998013,3.719291e-06
154.76999999998012,4.748799e-05,154.76999999998012,2.373747e-07,154.76999999998012,3.654337e-06,154.76999999998012,3.707911e-06
154.7849999999801,5.385267e-05,154.7849999999801,2.907234e-07,154.7849999999801,3.19355e-06,154.7849999999801,3.745709e-06
154.7999999999801,7.322845e-05,154.7999999999801,2.907234e-07,154.7999999999801,1.545398e-05,154.7999999999801,3.719291e-06
154.81499999998007,7.407992e-05,154.81499999998007,2.907234e-07,154.81499999998007,1.791668e-05,154.81499999998007,3.662038e-06
154.82999999998006,7.482537e-05,154.82999999998006,2.907234e-07,154.82999999998006,2.104618e-05,154.82999999998006,3.753223e-06
154.84499999998005,7.567395e-05,154.84499999998005,2.373747e-07,154.84499999998005,2.154036e-05,154.84499999998005,3.845909e-06
154.85999999998003,7.866795e-05,154.85999999998003,2.907234e-07,154.85999999998003,3.189356e-05,154.85999999998003,3.90768e-06
154.87499999998002,7.901475e-05,154.87499999998002,2.907234e-07,154.87499999998002,3.92175e-05,154.87499999998002,3.904074e-06
154.88999999998,8.049522e-05,154.88999999998,2.907234e-07,154.88999999998,4.008962e-05,154.88999999998,3.893234e-06
154.90499999998,8.236423e-05,154.90499999998,2.373747e-07,154.90499999998,4.088705e-05,154.90499999998,3.91848e-06
154.91999999997998,8.957411e-05,154.91999999997998,2.373747e-07,154.91999999997998,4.100197e-05,154.91999999997998,3.842245e-06
154.93499999997996,8.989075e-05,154.93499999997996,2.907234e-07,154.93499999997996,4.100162e-05,154.93499999997996,3.889614e-06
154.94999999997995,8.978962e-05,154.94999999997995,2.907234e-07,154.94999999997995,4.204347e-05,154.94999999997995,3.827552e-06
154.96499999997994,8.836844e-05,154.96499999997994,2.907234e-07,154.96499999997994,4.38019e-05,154.96499999997994,3.700305e-06
154.97999999997992,8.638286e-05,154.97999999997992,2.907234e-07,154.97999999997992,4.385236e-05,154.97999999997992,3.662038e-06
154.9949999999799,8.596995e-05,154.9949999999799,2.907234e-07,154.9949999999799,4.386489e-05,154.9949999999799,3.658189e-06
155.0099999999799,8.228602e-05,155.0099999999799,2.907234e-07,155.0099999999799,4.387773e-05,155.0099999999799,3.711708e-06
155.02499999997988,7.998399e-05,155.02499999997988,2.907234e-07,155.02499999997988,4.386553e-05,155.02499999997988,3.696496e-06
155.03999999997987,7.422258e-05,155.03999999997987,2.907234e-07,155.03999999997987,4.384208e-05,155.03999999997987,3.669723e-06
155.05499999997986,5.791699e-05,155.05499999997986,2.373747e-07,155.05499999997986,4.116381e-05,155.05499999997986,3.692683e-06
155.06999999997984,5.680153e-05,155.06999999997984,2.373747e-07,155.06999999997984,3.967957e-05,155.06999999997984,3.669723e-06
155.08499999997983,5.609656e-05,155.08499999997983,2.373747e-07,155.08499999997983,3.901836e-05,155.08499999997983,3.548731e-06
155.09999999997981,5.238161e-05,155.09999999997981,2.373747e-07,155.09999999997981,3.853959e-05,155.09999999997981,3.536803e-06
155.1149999999798,5.113592e-05,155.1149999999798,2.373747e-07,155.1149999999798,2.398953e-05,155.1149999999798,3.568524e-06
155.1299999999798,4.920932e-05,155.1299999999798,2.373747e-07,155.1299999999798,2.062498e-05,155.1299999999798,3.54476e-06
155.14499999997977,4.881874e-05,155.14499999997977,2.373747e-07,155.14499999997977,1.801234e-05,155.14499999997977,3.500774e-06
155.15999999997976,3.634159e-05,155.15999999997976,2.373747e-07,155.15999999997976,1.744986e-05,155.15999999997976,3.528828e-06
155.17499999997975,2.994216e-05,155.17499999997975,2.373747e-07,155.17499999997975,1.729417e-05,155.17499999997975,3.484641e-06
155.18999999997973,2.85324e-05,155.18999999997973,2.373747e-07,155.18999999997973,1.701829e-05,155.18999999997973,3.314757e-06
155.20499999997972,2.883638e-05,155.20499999997972,2.373747e-07,155.20499999997972,9.009299e-06,155.20499999997972,3.331712e-06
155.2199999999797,2.903258e-05,155.2199999999797,2.373747e-07,155.2199999999797,7.931653e-06,155.2199999999797,3.327482e-06
155.2349999999797,2.427613e-05,155.2349999999797,2.373747e-07,155.2349999999797,8.933933e-06,155.2349999999797,3.431686e-06
155.24999999997968,2.338412e-05,155.24999999997968,2.373747e-07,155.24999999997968,9.18275e-06,155.24999999997968,3.406967e-06
155.26499999997966,2.242029e-05,155.26499999997966,2.373747e-07,155.26499999997966,9.179681e-06,155.26499999997966,3.340158e-06
155.27999999997965,2.378371e-05,155.27999999997965,2.373747e-07,155.27999999997965,9.250001e-06,155.27999999997965,3.331712e-06
155.29499999997964,2.367805e-05,155.29499999997964,2.373747e-07,155.29499999997964,8.992083e-06,155.29499999997964,3.452149e-06
155.30999999997962,2.302657e-05,155.30999999997962,2.373747e-07,155.30999999997962,6.97938e-06,155.30999999997962,3.435788e-06
155.3249999999796,2.295795e-05,155.3249999999796,2.373747e-07,155.3249999999796,6.461651e-06,155.3249999999796,3.423466e-06
155.3399999999796,2.197672e-05,155.3399999999796,2.373747e-07,155.3399999999796,6.409116e-06,155.3399999999796,3.431686e-06
155.35499999997958,2.131487e-05,155.35499999997958,2.373747e-07,155.35499999997958,7.345202e-06,155.35499999997958,3.536803e-06
155.36999999997957,2.16024e-05,155.36999999997957,2.373747e-07,155.36999999997957,8.195444e-06,155.36999999997957,3.520835e-06
155.38499999997956,2.112034e-05,155.38499999997956,2.373747e-07,155.38499999997956,8.053266e-06,155.38499999997956,3.556662e-06
155.39999999997954,1.86645e-05,155.39999999997954,2.373747e-07,155.39999999997954,8.034001e-06,155.39999999997954,3.564574e-06
155.41499999997953,1.832864e-05,155.41499999997953,2.373747e-07,155.41499999997953,7.93343e-06,155.41499999997953,3.512824e-06
155.42999999997951,1.828633e-05,155.42999999997951,2.373747e-07,155.42999999997951,7.954708e-06,155.42999999997951,3.504795e-06
155.4449999999795,1.762497e-05,155.4449999999795,2.373747e-07,155.4449999999795,7.988284e-06,155.4449999999795,3.468433e-06
155.4599999999795,1.708191e-05,155.4599999999795,2.373747e-07,155.4599999999795,7.997096e-06,155.4599999999795,3.520835e-06
155.47499999997947,1.654401e-05,155.47499999997947,2.373747e-07,155.47499999997947,7.949394e-06,155.47499999997947,3.524834e-06
155.48999999997946,1.66247e-05,155.48999999997946,2.373747e-07,155.48999999997946,6.035575e-06,155.48999999997946,3.40283e-06
155.50499999997945,1.647062e-05,155.50499999997945,2.373747e-07,155.50499999997945,6.075122e-06,155.50499999997945,3.431686e-06
155.51999999997943,1.86116e-05,155.51999999997943,2.373747e-07,155.51999999997943,5.893875e-06,155.51999999997943,3.419349e-06
155.53499999997942,1.735434e-05,155.53499999997942,2.373747e-07,155.53499999997942,5.853103e-06,155.53499999997942,3.398688e-06
155.5499999999794,1.697519e-05,155.5499999999794,2.373747e-07,155.5499999999794,5.843468e-06,155.5499999999794,3.267676e-06
155.5649999999794,1.766967e-05,155.5649999999794,2.373747e-07,155.5649999999794,7.755652e-06,155.5649999999794,3.29344e-06
155.57999999997938,1.948353e-05,155.57999999997938,2.373747e-07,155.57999999997938,8.630781e-06,155.57999999997938,3.306247e-06
155.59499999997936,1.956578e-05,155.59499999997936,2.373747e-07,155.59499999997936,8.930779e-06,155.59499999997936,3.382069e-06
155.60999999997935,1.95924e-05,155.60999999997935,2.373747e-07,155.60999999997935,7.607108e-06,155.60999999997935,3.386231e-06
155.62499999997934,1.902777e-05,155.62499999997934,2.373747e-07,155.62499999997934,7.480127e-06,155.62499999997934,3.435788e-06
155.63999999997932,1.985239e-05,155.63999999997932,2.373747e-07,155.63999999997932,7.497057e-06,155.63999999997932,3.415227e-06
155.6549999999793,2.034095e-05,155.6549999999793,2.373747e-07,155.6549999999793,7.498936e-06,155.6549999999793,3.500774e-06
155.6699999999793,2.043767e-05,155.6699999999793,2.907234e-07,155.6699999999793,7.523317e-06,155.6699999999793,3.564574e-06
155.68499999997928,2.09267e-05,155.68499999997928,2.907234e-07,155.68499999997928,7.588568e-06,155.68499999997928,3.619477e-06
155.69999999997927,2.153905e-05,155.69999999997927,2.373747e-07,155.69999999997927,7.528932e-06,155.69999999997927,3.662038e-06
155.71499999997926,2.387416e-05,155.71499999997926,2.373747e-07,155.71499999997926,7.513949e-06,155.71499999997926,3.665883e-06
155.72999999997924,2.441096e-05,155.72999999997924,2.373747e-07,155.72999999997924,7.493299e-06,155.72999999997924,3.681221e-06
155.74499999997923,2.51281e-05,155.74499999997923,2.373747e-07,155.74499999997923,7.500814e-06,155.74499999997923,3.70411e-06
155.75999999997921,2.448299e-05,155.75999999997921,2.373747e-07,155.75999999997921,7.470705e-06,155.75999999997921,3.658189e-06
155.7749999999792,2.4374e-05,155.7749999999792,2.373747e-07,155.7749999999792,7.497057e-06,155.7749999999792,3.665883e-06
155.7899999999792,2.463499e-05,155.7899999999792,2.373747e-07,155.7899999999792,7.555081e-06,155.7899999999792,3.786851e-06
155.80499999997917,2.50101e-05,155.80499999997917,2.373747e-07,155.80499999997917,7.59599e-06,155.80499999997917,3.805405e-06
155.81999999997916,2.529461e-05,155.81999999997916,2.373747e-07,155.81999999997916,4.325173e-06,155.81999999997916,3.719291e-06
155.83499999997915,2.545449e-05,155.83499999997915,2.373747e-07,155.83499999997915,4.003829e-06,155.83499999997915,3.73441e-06
155.84999999997913,2.552081e-05,155.84999999997913,2.907234e-07,155.84999999997913,3.340158e-06,155.84999999997913,3.59605e-06
155.86499999997912,2.761566e-05,155.86499999997912,2.373747e-07,155.86499999997912,3.310505e-06,155.86499999997912,3.524834e-06
155.8799999999791,2.766153e-05,155.8799999999791,2.373747e-07,155.8799999999791,3.140172e-06,155.8799999999791,3.496747e-06
155.8949999999791,2.683069e-05,155.8949999999791,2.373747e-07,155.8949999999791,3.099535e-06,155.8949999999791,3.536803e-06
155.90999999997908,2.816368e-05,155.90999999997908,2.373747e-07,155.90999999997908,3.090432e-06,155.90999999997908,3.435788e-06
155.92499999997906,2.878504e-05,155.92499999997906,2.373747e-07,155.92499999997906,3.11314e-06,155.92499999997906,3.435788e-06
155.93999999997905,2.928284e-05,155.93999999997905,2.373747e-07,155.93999999997905,2.974296e-06,155.93999999997905,3.361178e-06
155.95499999997904,2.853141e-05,155.95499999997904,2.373747e-07,155.95499999997904,2.997883e-06,155.95499999997904,3.406967e-06
155.96999999997902,2.666532e-05,155.96999999997902,2.373747e-07,155.96999999997902,3.007266e-06,155.96999999997902,3.306247e-06
155.984999999979,2.837e-05,155.984999999979,2.373747e-07,155.984999999979,3.044509e-06,155.984999999979,3.348582e-06
155.999999999979,2.848743e-05,155.999999999979,2.373747e-07,155.999999999979,3.180289e-06,155.999999999979,3.352786e-06
156.01499999997898,2.823811e-05,156.01499999997898,2.373747e-07,156.01499999997898,3.356985e-06,156.01499999997898,3.352786e-06
156.02999999997897,2.818268e-05,156.02999999997897,2.373747e-07,156.02999999997897,3.280583e-06,156.02999999997897,3.352786e-06
156.04499999997896,2.841763e-05,156.04499999997896,2.373747e-07,156.04499999997896,3.158065e-06,156.04499999997896,3.259043e-06
156.05999999997894,2.913236e-05,156.05999999997894,2.373747e-07,156.05999999997894,3.126685e-06,156.05999999997894,3.219907e-06
156.07499999997893,2.807602e-05,156.07499999997893,2.373747e-07,156.07499999997893,3.104077e-06,156.07499999997893,3.197958e-06
156.08999999997891,2.7977e-05,156.08999999997891,2.373747e-07,156.08999999997891,3.162522e-06,156.08999999997891,3.171418e-06
156.1049999999789,2.674181e-05,156.1049999999789,2.373747e-07,156.1049999999789,3.496747e-06,156.1049999999789,3.211145e-06
156.1199999999789,2.703936e-05,156.1199999999789,2.373747e-07,156.1199999999789,3.67356e-06,156.1199999999789,3.267676e-06
156.13499999997887,2.971643e-05,156.13499999997887,2.373747e-07,156.13499999997887,3.700305e-06,156.13499999997887,3.166973e-06
156.14999999997886,3.19474e-05,156.14999999997886,2.907234e-07,156.14999999997886,3.745709e-06,156.14999999997886,3.254718e-06
156.16499999997885,3.120958e-05,156.16499999997885,2.373747e-07,156.16499999997885,3.768206e-06,156.16499999997885,3.297714e-06
156.17999999997883,3.195402e-05,156.17999999997883,2.907234e-07,156.17999999997883,3.764466e-06,156.17999999997883,3.377901e-06
156.19499999997882,3.341633e-05,156.19499999997882,2.907234e-07,156.19499999997882,3.700305e-06,156.19499999997882,3.398688e-06
156.2099999999788,3.419555e-05,156.2099999999788,2.373747e-07,156.2099999999788,3.768206e-06,156.2099999999788,3.40283e-06
156.2249999999788,3.413246e-05,156.2249999999788,2.907234e-07,156.2249999999788,3.764466e-06,156.2249999999788,3.439886e-06
156.23999999997878,3.368546e-05,156.23999999997878,2.907234e-07,156.23999999997878,3.730636e-06,156.23999999997878,3.536803e-06
156.25499999997876,3.328836e-05,156.25499999997876,2.907234e-07,156.25499999997876,3.556662e-06,156.25499999997876,3.520835e-06
156.26999999997875,3.339145e-05,156.26999999997875,2.907234e-07,156.26999999997875,3.512824e-06,156.26999999997875,3.592131e-06
156.28499999997874,3.342729e-05,156.28499999997874,2.907234e-07,156.28499999997874,3.584279e-06,156.28499999997874,3.603876e-06
156.29999999997872,3.390679e-05,156.29999999997872,2.907234e-07,156.29999999997872,3.619477e-06,156.29999999997872,3.623367e-06
156.3149999999787,3.32672e-05,156.3149999999787,2.373747e-07,156.3149999999787,3.603876e-06,156.3149999999787,3.642754e-06
156.3299999999787,3.540465e-05,156.3299999999787,2.373747e-07,156.3299999999787,3.599965e-06,156.3299999999787,3.662038e-06
156.34499999997868,3.694476e-05,156.34499999997868,2.373747e-07,156.34499999997868,3.57641e-06,156.34499999997868,3.646619e-06
156.35999999997867,3.669224e-05,156.35999999997867,2.373747e-07,156.35999999997867,3.035241e-06,156.35999999997867,3.59605e-06
156.37499999997866,3.531462e-05,156.37499999997866,2.373747e-07,156.37499999997866,3.030597e-06,156.37499999997866,3.584279e-06
156.38999999997864,3.317221e-05,156.38999999997864,2.373747e-07,156.38999999997864,3.01662e-06,156.38999999997864,3.500774e-06
156.40499999997863,3.248306e-05,156.40499999997863,2.373747e-07,156.40499999997863,3.099535e-06,156.40499999997863,3.427579e-06
156.41999999997861,3.233832e-05,156.41999999997861,2.373747e-07,156.41999999997861,3.099535e-06,156.41999999997861,3.4111e-06
156.4349999999786,2.998541e-05,156.4349999999786,2.373747e-07,156.4349999999786,3.153601e-06,156.4349999999786,3.297714e-06
156.4499999999786,2.903792e-05,156.4499999999786,2.373747e-07,156.4499999999786,3.259043e-06,156.4499999999786,3.276286e-06
156.46499999997857,3.068245e-05,156.46499999997857,2.373747e-07,156.46499999997857,3.140172e-06,156.46499999997857,3.197958e-06
156.47999999997856,3.148997e-05,156.47999999997856,2.373747e-07,156.47999999997856,3.171418e-06,156.47999999997856,3.175857e-06
156.49499999997855,3.154003e-05,156.49499999997855,2.373747e-07,156.49499999997855,3.166973e-06,156.49499999997855,3.090432e-06
156.50999999997853,3.165861e-05,156.50999999997853,2.373747e-07,156.50999999997853,3.153601e-06,156.50999999997853,2.979029e-06
156.52499999997852,3.200335e-05,156.52499999997852,2.373747e-07,156.52499999997852,3.140172e-06,156.52499999997852,3.01662e-06
156.5399999999785,3.11992e-05,156.5399999999785,2.373747e-07,156.5399999999785,3.085871e-06,156.5399999999785,3.044509e-06
156.5549999999785,3.05098e-05,156.5549999999785,2.373747e-07,156.5549999999785,3.062961e-06,156.5549999999785,3.025945e-06
156.56999999997848,3.010777e-05,156.56999999997848,2.373747e-07,156.56999999997848,3.049133e-06,156.56999999997848,3.002579e-06
156.58499999997846,2.607072e-05,156.58499999997846,2.373747e-07,156.58499999997846,3.280583e-06,156.58499999997846,3.085871e-06
156.59999999997845,2.623822e-05,156.59999999997845,2.373747e-07,156.59999999997845,3.276286e-06,156.59999999997845,3.044509e-06
156.61499999997844,2.628328e-05,156.61499999997844,2.373747e-07,156.61499999997844,3.241707e-06,156.61499999997844,3.184716e-06
156.62999999997842,2.598196e-05,156.62999999997842,2.373747e-07,156.62999999997842,3.310505e-06,156.62999999997842,3.394541e-06
156.6449999999784,2.520087e-05,156.6449999999784,2.373747e-07,156.6449999999784,3.29344e-06,156.6449999999784,3.406967e-06
156.6599999999784,2.480934e-05,156.6599999999784,2.373747e-07,156.6599999999784,3.11314e-06,156.6599999999784,3.480596e-06
156.67499999997838,2.47781e-05,156.67499999997838,2.373747e-07,156.67499999997838,3.11314e-06,156.67499999997838,3.484641e-06
156.68999999997837,2.505287e-05,156.68999999997837,2.373747e-07,156.68999999997837,3.035241e-06,156.68999999997837,3.476546e-06
156.70499999997836,2.440865e-05,156.70499999997836,2.373747e-07,156.70499999997836,3.144655e-06,156.70499999997836,3.468433e-06
156.71999999997834,1.900332e-05,156.71999999997834,2.373747e-07,156.71999999997834,3.122176e-06,156.71999999997834,3.431686e-06
156.73499999997833,1.860857e-05,156.73499999997833,2.373747e-07,156.73499999997833,3.162522e-06,156.73499999997833,3.390388e-06
156.74999999997831,1.776904e-05,156.74999999997831,2.373747e-07,156.74999999997831,3.184716e-06,156.74999999997831,3.377901e-06
156.7649999999783,1.806544e-05,156.7649999999783,2.373747e-07,156.7649999999783,3.171418e-06,156.7649999999783,3.439886e-06
156.7799999999783,1.685444e-05,156.7799999999783,2.373747e-07,156.7799999999783,3.175857e-06,156.7799999999783,3.394541e-06
156.79499999997827,1.696606e-05,156.79499999997827,2.373747e-07,156.79499999997827,3.171418e-06,156.79499999997827,3.356985e-06
156.80999999997826,1.660435e-05,156.80999999997826,2.373747e-07,156.80999999997826,3.228645e-06,156.80999999997826,3.36955e-06
156.82499999997825,1.651503e-05,156.82499999997825,2.373747e-07,156.82499999997825,3.228645e-06,156.82499999997825,3.394541e-06
156.83999999997823,1.751995e-05,156.83999999997823,2.373747e-07,156.83999999997823,3.081303e-06,156.83999999997823,3.464369e-06
156.85499999997822,1.828401e-05,156.85499999997822,2.373747e-07,156.85499999997822,3.189136e-06,156.85499999997822,3.40283e-06
156.8699999999782,1.817041e-05,156.8699999999782,2.373747e-07,156.8699999999782,3.149131e-06,156.8699999999782,3.241707e-06
156.8849999999782,1.800452e-05,156.8849999999782,2.373747e-07,156.8849999999782,3.184716e-06,156.8849999999782,3.122176e-06
156.89999999997818,1.824159e-05,156.89999999997818,2.373747e-07,156.89999999997818,3.184716e-06,156.89999999997818,3.180289e-06
156.91499999997816,1.853424e-05,156.91499999997816,2.373747e-07,156.91499999997816,3.171418e-06,156.91499999997816,3.180289e-06
156.92999999997815,1.816963e-05,156.92999999997815,2.373747e-07,156.92999999997815,3.197958e-06,156.92999999997815,3.180289e-06
156.94499999997814,1.857751e-05,156.94499999997814,2.373747e-07,156.94499999997814,3.01662e-06,156.94499999997814,3.158065e-06
156.95999999997812,1.876386e-05,156.95999999997812,2.373747e-07,156.95999999997812,3.025945e-06,156.95999999997812,3.166973e-06
156.9749999999781,1.891788e-05,156.9749999999781,2.373747e-07,156.9749999999781,3.049133e-06,156.9749999999781,3.215529e-06
156.9899999999781,1.870597e-05,156.9899999999781,2.373747e-07,156.9899999999781,3.094987e-06,156.9899999999781,3.280583e-06
157.00499999997808,1.871952e-05,157.00499999997808,2.373747e-07,157.00499999997808,3.085871e-06,157.00499999997808,3.327482e-06
157.01999999997807,1.890299e-05,157.01999999997807,2.373747e-07,157.01999999997807,3.140172e-06,157.01999999997807,3.215529e-06
157.03499999997806,1.834324e-05,157.03499999997806,2.907234e-07,157.03499999997806,3.435788e-06,157.03499999997806,3.197958e-06
157.04999999997804,1.871651e-05,157.04999999997804,2.373747e-07,157.04999999997804,4.299038e-06,157.04999999997804,3.224279e-06
157.06499999997803,1.954777e-05,157.06499999997803,2.373747e-07,157.06499999997803,6.479067e-06,157.06499999997803,3.189136e-06
157.079999999978,2.509781e-05,157.079999999978,2.373747e-07,157.079999999978,6.54612e-06,157.079999999978,3.094987e-06
157.094999999978,2.444383e-05,157.094999999978,2.373747e-07,157.094999999978,6.539662e-06,157.094999999978,3.007266e-06
157.109999999978,2.540075e-05,157.109999999978,2.373747e-07,157.109999999978,6.515924e-06,157.109999999978,2.997883e-06
157.12499999997797,2.583406e-05,157.12499999997797,2.373747e-07,157.12499999997797,6.676097e-06,157.12499999997797,3.025945e-06
157.13999999997796,2.756716e-05,157.13999999997796,2.373747e-07,157.13999999997796,6.816002e-06,157.13999999997796,3.135683e-06
157.15499999997795,2.760036e-05,157.15499999997795,2.373747e-07,157.15499999997795,6.838698e-06,157.15499999997795,3.099535e-06
157.16999999997793,2.741292e-05,157.16999999997793,2.373747e-07,157.16999999997793,6.838698e-06,157.16999999997793,3.135683e-06
157.18499999997792,3.087422e-05,157.18499999997792,2.373747e-07,157.18499999997792,6.834577e-06,157.18499999997792,3.076727e-06
157.1999999999779,3.152171e-05,157.1999999999779,2.373747e-07,157.1999999999779,7.12124e-06,157.1999999999779,3.117661e-06
157.2149999999779,3.170441e-05,157.2149999999779,2.373747e-07,157.2149999999779,7.345202e-06,157.2149999999779,3.085871e-06
157.22999999997788,3.214696e-05,157.22999999997788,2.373747e-07,157.22999999997788,7.329844e-06,157.22999999997788,3.104077e-06
157.24499999997786,3.216887e-05,157.24499999997786,2.373747e-07,157.24499999997786,7.289374e-06,157.24499999997786,3.215529e-06
157.25999999997785,3.220957e-05,157.25999999997785,2.373747e-07,157.25999999997785,7.283574e-06,157.25999999997785,3.197958e-06
157.27499999997784,3.218594e-05,157.27499999997784,2.373747e-07,157.27499999997784,7.246734e-06,157.27499999997784,3.19355e-06
157.28999999997782,3.205657e-05,157.28999999997782,2.373747e-07,157.28999999997782,7.067629e-06,157.28999999997782,3.19355e-06
157.3049999999778,3.138197e-05,157.3049999999778,2.373747e-07,157.3049999999778,4.639445e-06,157.3049999999778,3.233005e-06
157.3199999999778,3.139723e-05,157.3199999999778,2.373747e-07,157.3199999999778,1.533044e-05,157.3199999999778,3.24605e-06
157.33499999997778,2.760036e-05,157.33499999997778,2.373747e-07,157.33499999997778,1.574923e-05,157.33499999997778,3.241707e-06
157.34999999997777,2.639132e-05,157.34999999997777,2.373747e-07,157.34999999997777,1.581528e-05,157.34999999997777,3.365367e-06
157.36499999997775,2.616511e-05,157.36499999997775,2.373747e-07,157.36499999997775,1.581261e-05,157.36499999997775,3.356985e-06
157.37999999997774,2.541572e-05,157.37999999997774,2.373747e-07,157.37999999997774,1.571431e-05,157.37999999997774,3.435788e-06
157.39499999997773,2.402356e-05,157.39499999997773,2.373747e-07,157.39499999997773,1.570265e-05,157.39499999997773,3.327482e-06
157.4099999999777,2.356235e-05,157.4099999999777,2.373747e-07,157.4099999999777,1.569278e-05,157.4099999999777,3.319004e-06
157.4249999999777,2.027435e-05,157.4249999999777,2.373747e-07,157.4249999999777,1.569637e-05,157.4249999999777,3.314757e-06
157.4399999999777,1.841452e-05,157.4399999999777,2.373747e-07,157.4399999999777,1.569099e-05,157.4399999999777,3.29344e-06
157.45499999997767,1.669488e-05,157.45499999997767,2.373747e-07,157.45499999997767,1.550222e-05,157.45499999997767,3.259043e-06
157.46999999997766,1.637283e-05,157.46999999997766,2.373747e-07,157.46999999997766,1.548404e-05,157.46999999997766,3.19355e-06
157.48499999997765,1.523457e-05,157.48499999997765,2.373747e-07,157.48499999997765,1.549677e-05,157.48499999997765,3.310505e-06
157.49999999997763,1.495084e-05,157.49999999997763,2.373747e-07,157.49999999997763,1.549677e-05,157.49999999997763,3.327482e-06
157.51499999997762,1.468849e-05,157.51499999997762,2.373747e-07,157.51499999997762,1.549313e-05,157.51499999997762,3.361178e-06
157.5299999999776,1.584732e-05,157.5299999999776,2.373747e-07,157.5299999999776,1.549495e-05,157.5299999999776,3.435788e-06
157.5449999999776,1.632026e-05,157.5449999999776,2.373747e-07,157.5449999999776,1.551675e-05,157.5449999999776,3.492716e-06
157.55999999997758,1.645693e-05,157.55999999997758,2.373747e-07,157.55999999997758,1.488568e-05,157.55999999997758,3.580347e-06
157.57499999997756,2.123011e-05,157.57499999997756,2.373747e-07,157.57499999997756,3.896851e-06,157.57499999997756,3.552699e-06
157.58999999997755,2.596894e-05,157.58999999997755,2.373747e-07,157.58999999997755,3.224279e-06,157.58999999997755,3.552699e-06
157.60499999997754,2.792913e-05,157.60499999997754,2.373747e-07,157.60499999997754,3.007266e-06,157.60499999997754,3.568524e-06
157.61999999997752,2.956435e-05,157.61999999997752,2.907234e-07,157.61999999997752,3.044509e-06,157.61999999997752,3.59605e-06
157.6349999999775,3.056838e-05,157.6349999999775,2.907234e-07,157.6349999999775,3.067557e-06,157.6349999999775,3.57641e-06
157.6499999999775,3.185689e-05,157.6499999999775,2.907234e-07,157.6499999999775,3.126685e-06,157.6499999999775,3.59605e-06
157.66499999997748,3.258956e-05,157.66499999997748,2.907234e-07,157.66499999997748,8.105571e-06,157.66499999997748,3.638885e-06
157.67999999997747,3.300148e-05,157.67999999997747,2.907234e-07,157.67999999997747,9.29709e-06,157.67999999997747,3.67356e-06
157.69499999997745,3.363273e-05,157.69499999997745,2.907234e-07,157.69499999997745,9.411539e-06,157.69499999997745,3.73441e-06
157.70999999997744,3.389474e-05,157.70999999997744,2.907234e-07,157.70999999997744,9.44441e-06,157.70999999997744,3.753223e-06
157.72499999997743,3.402872e-05,157.72499999997743,2.907234e-07,157.72499999997743,9.423506e-06,157.72499999997743,3.726858e-06
157.7399999999774,3.506885e-05,157.7399999999774,2.907234e-07,157.7399999999774,9.42201e-06,157.7399999999774,3.635012e-06
157.7549999999774,3.541619e-05,157.7549999999774,2.907234e-07,157.7549999999774,9.539391e-06,157.7549999999774,3.603876e-06
157.7699999999774,3.556978e-05,157.7699999999774,2.907234e-07,157.7699999999774,9.545296e-06,157.7699999999774,3.568524e-06
157.78499999997737,3.516271e-05,157.78499999997737,2.907234e-07,157.78499999997737,9.533483e-06,157.78499999997737,3.615583e-06
157.79999999997736,3.548017e-05,157.79999999997736,2.907234e-07,157.79999999997736,9.518695e-06,157.79999999997736,3.584279e-06
157.81499999997735,3.590836e-05,157.81499999997735,2.907234e-07,157.81499999997735,9.49202e-06,157.81499999997735,3.456227e-06
157.82999999997733,3.135278e-05,157.82999999997733,2.907234e-07,157.82999999997733,9.489051e-06,157.82999999997733,3.484641e-06
157.84499999997732,3.036587e-05,157.84499999997732,2.907234e-07,157.84499999997732,9.47122e-06,157.84499999997732,3.57641e-06
157.8599999999773,3.010122e-05,157.8599999999773,2.907234e-07,157.8599999999773,9.486082e-06,157.8599999999773,3.57641e-06
157.8749999999773,3.003704e-05,157.8749999999773,2.907234e-07,157.8749999999773,9.475681e-06,157.8749999999773,3.508812e-06
157.88999999997728,2.939471e-05,157.88999999997728,2.907234e-07,157.88999999997728,9.486082e-06,157.88999999997728,3.512824e-06
157.90499999997726,2.809006e-05,157.90499999997726,2.907234e-07,157.90499999997726,8.742674e-06,157.90499999997726,3.512824e-06
157.91999999997725,2.886373e-05,157.91999999997725,2.907234e-07,157.91999999997725,3.688867e-06,157.91999999997725,3.504795e-06
157.93499999997724,2.820117e-05,157.93499999997724,2.907234e-07,157.93499999997724,3.40283e-06,157.93499999997724,3.439886e-06
157.94999999997722,2.801222e-05,157.94999999997722,2.907234e-07,157.94999999997722,3.233005e-06,157.94999999997722,3.488681e-06
157.9649999999772,2.844933e-05,157.9649999999772,2.907234e-07,157.9649999999772,3.224279e-06,157.9649999999772,3.492716e-06
157.9799999999772,2.813115e-05,157.9799999999772,2.907234e-07,157.9799999999772,3.24605e-06,157.9799999999772,3.492716e-06
157.99499999997718,2.691666e-05,157.99499999997718,2.907234e-07,157.99499999997718,3.081303e-06,157.99499999997718,3.480596e-06
158.00999999997717,2.630471e-05,158.00999999997717,2.373747e-07,158.00999999997717,2.940956e-06,158.00999999997717,3.484641e-06
158.02499999997715,2.602205e-05,158.02499999997715,2.373747e-07,158.02499999997715,2.887788e-06,158.02499999997715,3.456227e-06
158.03999999997714,2.516284e-05,158.03999999997714,2.373747e-07,158.03999999997714,2.873116e-06,158.03999999997714,3.520835e-06
158.05499999997713,2.472403e-05,158.05499999997713,2.373747e-07,158.05499999997713,2.916909e-06,158.05499999997713,3.548731e-06
158.0699999999771,2.35462e-05,158.0699999999771,2.373747e-07,158.0699999999771,2.969556e-06,158.0699999999771,3.516832e-06
158.0849999999771,2.182879e-05,158.0849999999771,2.373747e-07,158.0849999999771,3.007266e-06,158.0849999999771,3.552699e-06
158.0999999999771,2.064136e-05,158.0999999999771,2.373747e-07,158.0999999999771,3.007266e-06,158.0999999999771,3.36955e-06
158.11499999997707,1.630472e-05,158.11499999997707,2.373747e-07,158.11499999997707,2.964809e-06,158.11499999997707,3.382069e-06
158.12999999997706,1.551585e-05,158.12999999997706,2.373747e-07,158.12999999997706,2.960054e-06,158.12999999997706,3.36955e-06
158.14499999997705,1.543483e-05,158.14499999997705,2.373747e-07,158.14499999997705,2.897527e-06,158.14499999997705,3.352786e-06
158.15999999997703,1.25775e-05,158.15999999997703,2.373747e-07,158.15999999997703,2.838588e-06,158.15999999997703,3.456227e-06
158.17499999997702,1.088435e-05,158.17499999997702,2.373747e-07,158.17499999997702,2.783465e-06,158.17499999997702,3.508812e-06
158.189999999977,1.011422e-05,158.189999999977,2.373747e-07,158.189999999977,2.897527e-06,158.189999999977,3.528828e-06
158.204999999977,9.043632e-06,158.204999999977,2.373747e-07,158.204999999977,2.863294e-06,158.204999999977,3.435788e-06
158.21999999997698,6.94904e-06,158.21999999997698,2.373747e-07,158.21999999997698,2.778399e-06,158.21999999997698,3.443979e-06
158.23499999997696,6.942956e-06,158.23499999997696,2.373747e-07,158.23499999997696,2.711688e-06,158.23499999997696,3.394541e-06
158.24999999997695,6.654963e-06,158.24999999997695,2.373747e-07,158.24999999997695,2.711688e-06,158.24999999997695,3.480596e-06
158.26499999997694,6.926705e-06,158.26499999997694,2.373747e-07,158.26499999997694,2.711688e-06,158.26499999997694,3.427579e-06
158.27999999997692,8.062008e-06,158.27999999997692,2.373747e-07,158.27999999997692,2.732388e-06,158.27999999997692,3.394541e-06
158.2949999999769,8.091657e-06,158.2949999999769,2.373747e-07,158.2949999999769,2.716877e-06,158.2949999999769,3.323245e-06
158.3099999999769,8.323359e-06,158.3099999999769,2.373747e-07,158.3099999999769,2.722057e-06,158.3099999999769,3.394541e-06
158.32499999997688,1.065016e-05,158.32499999997688,2.373747e-07,158.32499999997688,2.690828e-06,158.32499999997688,3.323245e-06
158.33999999997687,1.122709e-05,158.33999999997687,2.373747e-07,158.33999999997687,2.722057e-06,158.33999999997687,3.314757e-06
158.35499999997685,1.190429e-05,158.35499999997685,2.373747e-07,158.35499999997685,2.823661e-06,158.35499999997685,3.382069e-06
158.36999999997684,1.25719e-05,158.36999999997684,2.373747e-07,158.36999999997684,2.833621e-06,158.36999999997684,3.423466e-06
158.38499999997683,1.24966e-05,158.38499999997683,2.373747e-07,158.38499999997683,2.873116e-06,158.38499999997683,3.431686e-06
158.3999999999768,1.258086e-05,158.3999999999768,2.373747e-07,158.3999999999768,2.897527e-06,158.3999999999768,3.335938e-06
158.4149999999768,1.273333e-05,158.4149999999768,2.373747e-07,158.4149999999768,3.072146e-06,158.4149999999768,3.271984e-06
158.4299999999768,1.357609e-05,158.4299999999768,2.373747e-07,158.4299999999768,3.021286e-06,158.4299999999768,3.197958e-06
158.44499999997677,1.453035e-05,158.44499999997677,2.373747e-07,158.44499999997677,3.035241e-06,158.44499999997677,3.224279e-06
158.45999999997676,1.538547e-05,158.45999999997676,2.373747e-07,158.45999999997676,3.158065e-06,158.45999999997676,3.202359e-06
158.47499999997675,1.686363e-05,158.47499999997675,2.373747e-07,158.47499999997675,3.175857e-06,158.47499999997675,3.197958e-06
158.48999999997673,1.786313e-05,158.48999999997673,2.373747e-07,158.48999999997673,3.202359e-06,158.48999999997673,3.135683e-06
158.50499999997672,1.851979e-05,158.50499999997672,2.373747e-07,158.50499999997672,3.215529e-06,158.50499999997672,3.11314e-06
158.5199999999767,1.898775e-05,158.5199999999767,2.373747e-07,158.5199999999767,3.206755e-06,158.5199999999767,3.140172e-06
158.5349999999767,2.097175e-05,158.5349999999767,2.373747e-07,158.5349999999767,3.29344e-06,158.5349999999767,3.117661e-06
158.54999999997668,2.135844e-05,158.54999999997668,2.373747e-07,158.54999999997668,3.224279e-06,158.54999999997668,3.094987e-06
158.56499999997666,2.083157e-05,158.56499999997666,2.373747e-07,158.56499999997666,3.202359e-06,158.56499999997666,3.11314e-06
158.57999999997665,2.048999e-05,158.57999999997665,2.373747e-07,158.57999999997665,3.175857e-06,158.57999999997665,3.206755e-06
158.59499999997664,2.191702e-05,158.59499999997664,2.373747e-07,158.59499999997664,3.11314e-06,158.59499999997664,3.224279e-06
158.60999999997662,2.435781e-05,158.60999999997662,2.373747e-07,158.60999999997662,3.11314e-06,158.60999999997662,3.153601e-06
158.6249999999766,2.664524e-05,158.6249999999766,2.373747e-07,158.6249999999766,3.072146e-06,158.6249999999766,3.140172e-06
158.6399999999766,2.730376e-05,158.6399999999766,2.373747e-07,158.6399999999766,3.039879e-06,158.6399999999766,3.076727e-06
158.65499999997658,2.778197e-05,158.65499999997658,2.373747e-07,158.65499999997658,3.007266e-06,158.65499999997658,3.153601e-06
158.66999999997657,2.80715e-05,158.66999999997657,2.373747e-07,158.66999999997657,2.892662e-06,158.66999999997657,3.271984e-06
158.68499999997655,2.795736e-05,158.68499999997655,2.373747e-07,158.68499999997655,2.912075e-06,158.68499999997655,3.319004e-06
158.69999999997654,3.040806e-05,158.69999999997654,2.373747e-07,158.69999999997654,2.823661e-06,158.69999999997654,3.431686e-06
158.71499999997653,3.020167e-05,158.71499999997653,2.373747e-07,158.71499999997653,2.788521e-06,158.71499999997653,3.504795e-06
158.7299999999765,2.996802e-05,158.7299999999765,2.373747e-07,158.7299999999765,2.843547e-06,158.7299999999765,3.572469e-06
158.7449999999765,3.045527e-05,158.7449999999765,2.373747e-07,158.7449999999765,2.803635e-06,158.7449999999765,3.572469e-06
158.7599999999765,3.091344e-05,158.7599999999765,2.373747e-07,158.7599999999765,2.863294e-06,158.7599999999765,3.548731e-06
158.77499999997647,2.98979e-05,158.77499999997647,2.373747e-07,158.77499999997647,2.897527e-06,158.77499999997647,3.592131e-06
158.78999999997646,2.870615e-05,158.78999999997646,2.373747e-07,158.78999999997646,2.848496e-06,158.78999999997646,3.572469e-06
158.80499999997645,2.855756e-05,158.80499999997645,2.373747e-07,158.80499999997645,2.921734e-06,158.80499999997645,3.588207e-06
158.81999999997643,2.871596e-05,158.81999999997643,2.373747e-07,158.81999999997643,2.882905e-06,158.81999999997643,3.603876e-06
158.83499999997642,3.026178e-05,158.83499999997642,2.373747e-07,158.83499999997642,3.011947e-06,158.83499999997642,3.607783e-06
158.8499999999764,2.8629e-05,158.8499999999764,2.373747e-07,158.8499999999764,3.423466e-06,158.8499999999764,3.623367e-06
158.8649999999764,2.712778e-05,158.8649999999764,2.373747e-07,158.8649999999764,4.003829e-06,158.8649999999764,3.611685e-06
158.87999999997638,2.491586e-05,158.87999999997638,2.373747e-07,158.87999999997638,4.01437e-06,158.87999999997638,3.564574e-06
158.89499999997636,2.470237e-05,158.89499999997636,2.373747e-07,158.89499999997636,4.01437e-06,158.89499999997636,3.580347e-06
158.90999999997635,2.466356e-05,158.90999999997635,2.373747e-07,158.90999999997635,4.017877e-06,158.90999999997635,3.56062e-06
158.92499999997634,2.432251e-05,158.92499999997634,2.373747e-07,158.92499999997634,5.454455e-06,158.92499999997634,3.504795e-06
158.93999999997632,2.212683e-05,158.93999999997632,2.373747e-07,158.93999999997632,1.012814e-05,158.93999999997632,3.536803e-06
158.9549999999763,2.088223e-05,158.9549999999763,2.373747e-07,158.9549999999763,1.445064e-05,158.9549999999763,3.406967e-06
158.9699999999763,2.054628e-05,158.9699999999763,2.373747e-07,158.9699999999763,1.483164e-05,158.9699999999763,3.40283e-06
158.98499999997628,2.282132e-05,158.98499999997628,2.373747e-07,158.98499999997628,1.508123e-05,158.98499999997628,3.40283e-06
158.99999999997627,2.392132e-05,158.99999999997627,2.373747e-07,158.99999999997627,1.50859e-05,158.99999999997627,3.40283e-06
159.01499999997625,2.542958e-05,159.01499999997625,2.373747e-07,159.01499999997625,1.531113e-05,159.01499999997625,3.492716e-06
159.02999999997624,2.764574e-05,159.02999999997624,2.373747e-07,159.02999999997624,1.537173e-05,159.02999999997624,3.419349e-06
159.04499999997623,2.940908e-05,159.04499999997623,2.373747e-07,159.04499999997623,1.583309e-05,159.04499999997623,3.448066e-06
159.0599999999762,2.966044e-05,159.0599999999762,2.373747e-07,159.0599999999762,1.590853e-05,159.0599999999762,3.435788e-06
159.0749999999762,2.956578e-05,159.0749999999762,2.373747e-07,159.0749999999762,1.599155e-05,159.0749999999762,3.500774e-06
159.0899999999762,2.844587e-05,159.0899999999762,2.373747e-07,159.0899999999762,1.59845e-05,159.0899999999762,3.4111e-06
159.10499999997617,2.855411e-05,159.10499999997617,2.373747e-07,159.10499999997617,1.589879e-05,159.10499999997617,3.431686e-06
159.11999999997616,2.875077e-05,159.11999999997616,2.373747e-07,159.11999999997616,1.583754e-05,159.11999999997616,3.423466e-06
159.13499999997615,2.897673e-05,159.13499999997615,2.373747e-07,159.13499999997615,1.583665e-05,159.13499999997615,3.443979e-06
159.14999999997613,2.908784e-05,159.14999999997613,2.373747e-07,159.14999999997613,1.585176e-05,159.14999999997613,3.4111e-06
159.16499999997612,2.914831e-05,159.16499999997612,2.373747e-07,159.16499999997612,1.58402e-05,159.16499999997612,3.398688e-06
159.1799999999761,2.900248e-05,159.1799999999761,2.373747e-07,159.1799999999761,1.499881e-05,159.1799999999761,3.431686e-06
159.1949999999761,2.91855e-05,159.1949999999761,2.373747e-07,159.1949999999761,1.0505e-05,159.1949999999761,3.377901e-06
159.20999999997608,2.97188e-05,159.20999999997608,2.373747e-07,159.20999999997608,9.365025e-06,159.20999999997608,3.301983e-06
159.22499999997606,3.001499e-05,159.22499999997606,2.373747e-07,159.22499999997606,8.810087e-06,159.22499999997606,3.276286e-06
159.23999999997605,2.755541e-05,159.23999999997605,2.373747e-07,159.23999999997605,8.59316e-06,159.23999999997605,3.327482e-06
159.25499999997604,2.37523e-05,159.25499999997604,2.373747e-07,159.25499999997604,8.565246e-06,159.25499999997604,3.390388e-06
159.26999999997602,2.366912e-05,159.26999999997602,2.373747e-07,159.26999999997602,8.019962e-06,159.26999999997602,3.323245e-06
159.284999999976,1.989067e-05,159.284999999976,2.373747e-07,159.284999999976,8.026986e-06,159.284999999976,3.280583e-06
159.299999999976,1.91782e-05,159.299999999976,2.373747e-07,159.299999999976,7.876405e-06,159.299999999976,3.271984e-06
159.31499999997598,1.945169e-05,159.31499999997598,2.373747e-07,159.31499999997598,7.967094e-06,159.31499999997598,3.184716e-06
159.32999999997597,2.019708e-05,159.32999999997597,2.373747e-07,159.32999999997597,7.913874e-06,159.32999999997597,3.175857e-06
159.34499999997595,1.976777e-05,159.34499999997595,2.373747e-07,159.34499999997595,7.8907e-06,159.34499999997595,3.180289e-06
159.35999999997594,1.999239e-05,159.35999999997594,2.373747e-07,159.35999999997594,7.771981e-06,159.35999999997594,3.166973e-06
159.37499999997593,1.917232e-05,159.37499999997593,2.373747e-07,159.37499999997593,7.755652e-06,159.37499999997593,3.099535e-06
159.3899999999759,1.925736e-05,159.3899999999759,2.373747e-07,159.3899999999759,7.771981e-06,159.3899999999759,3.067557e-06
159.4049999999759,1.81215e-05,159.4049999999759,2.373747e-07,159.4049999999759,7.790086e-06,159.4049999999759,3.211145e-06
159.4199999999759,1.801391e-05,159.4199999999759,2.373747e-07,159.4199999999759,7.790086e-06,159.4199999999759,3.189136e-06
159.43499999997587,1.980123e-05,159.43499999997587,2.373747e-07,159.43499999997587,6.797376e-06,159.43499999997587,3.171418e-06
159.44999999997586,1.906549e-05,159.44999999997586,2.373747e-07,159.44999999997586,6.589018e-06,159.44999999997586,3.215529e-06
159.46499999997584,1.929171e-05,159.46499999997584,2.373747e-07,159.46499999997584,6.550423e-06,159.46499999997584,3.241707e-06
159.47999999997583,1.979625e-05,159.47999999997583,2.373747e-07,159.47999999997583,6.593293e-06,159.47999999997583,3.202359e-06
159.49499999997582,2.022218e-05,159.49499999997582,2.373747e-07,159.49499999997582,6.629514e-06,159.49499999997582,3.219907e-06
159.5099999999758,2.64553e-05,159.5099999999758,2.373747e-07,159.5099999999758,6.782854e-06,159.5099999999758,3.219907e-06
159.5249999999758,2.670439e-05,159.5249999999758,2.373747e-07,159.5249999999758,6.900217e-06,159.5249999999758,3.259043e-06
159.53999999997578,2.786904e-05,159.53999999997578,2.373747e-07,159.53999999997578,8.28094e-06,159.53999999997578,3.297714e-06
159.55499999997576,2.963098e-05,159.55499999997576,2.373747e-07,159.55499999997576,7.21166e-06,159.55499999997576,3.297714e-06
159.56999999997575,2.923566e-05,159.56999999997575,2.373747e-07,159.56999999997575,7.22142e-06,159.56999999997575,3.373728e-06
159.58499999997574,2.947368e-05,159.58499999997574,2.373747e-07,159.58499999997574,7.519571e-06,159.58499999997574,3.427579e-06
159.59999999997572,3.04636e-05,159.59999999997572,2.373747e-07,159.59999999997572,7.594135e-06,159.59999999997572,3.552699e-06
159.6149999999757,3.065628e-05,159.6149999999757,2.373747e-07,159.6149999999757,8.229749e-06,159.6149999999757,3.512824e-06
159.6299999999757,3.402458e-05,159.6299999999757,2.373747e-07,159.6299999999757,8.747506e-06,159.6299999999757,3.552699e-06
159.64499999997568,3.403907e-05,159.64499999997568,2.373747e-07,159.64499999997568,8.737838e-06,159.64499999997568,3.548731e-06
159.65999999997567,3.39873e-05,159.65999999997567,2.373747e-07,159.65999999997567,8.827657e-06,159.65999999997567,3.488681e-06
159.67499999997565,3.366329e-05,159.67499999997565,2.373747e-07,159.67499999997565,8.971695e-06,159.67499999997565,3.548731e-06
159.68999999997564,3.386314e-05,159.68999999997564,2.373747e-07,159.68999999997564,8.937085e-06,159.68999999997564,3.488681e-06
159.70499999997563,3.390347e-05,159.70499999997563,2.373747e-07,159.70499999997563,8.014691e-06,159.70499999997563,3.54476e-06
159.7199999999756,3.344794e-05,159.7199999999756,2.373747e-07,159.7199999999756,7.96002e-06,159.7199999999756,3.532818e-06
159.7349999999756,3.718003e-05,159.7349999999756,2.373747e-07,159.7349999999756,8.037508e-06,159.7349999999756,3.54476e-06
159.74999999997559,4.026388e-05,159.74999999997559,2.373747e-07,159.74999999997559,8.095138e-06,159.74999999997559,3.492716e-06
159.76499999997557,4.308399e-05,159.76499999997557,2.373747e-07,159.76499999997557,8.042764e-06,159.76499999997557,3.406967e-06
159.77999999997556,4.640144e-05,159.77999999997556,2.373747e-07,159.77999999997556,7.800928e-06,159.77999999997556,3.365367e-06
159.79499999997554,4.574685e-05,159.79499999997554,2.373747e-07,159.79499999997554,6.57832e-06,159.79499999997554,3.263362e-06
159.80999999997553,4.487574e-05,159.80999999997553,2.373747e-07,159.80999999997553,6.535352e-06,159.80999999997553,3.344373e-06
159.82499999997552,4.599896e-05,159.82499999997552,2.373747e-07,159.82499999997552,6.318359e-06,159.82499999997552,3.189136e-06
159.8399999999755,4.96025e-05,159.8399999999755,2.373747e-07,159.8399999999755,6.273611e-06,159.8399999999755,3.215529e-06
159.8549999999755,5.51974e-05,159.8549999999755,2.373747e-07,159.8549999999755,6.228541e-06,159.8549999999755,3.19355e-06
159.86999999997548,5.560954e-05,159.86999999997548,2.373747e-07,159.86999999997548,4.882076e-06,159.86999999997548,3.237359e-06
159.88499999997546,5.876761e-05,159.88499999997546,2.373747e-07,159.88499999997546,4.562907e-06,159.88499999997546,3.310505e-06
159.89999999997545,5.956378e-05,159.89999999997545,2.373747e-07,159.89999999997545,4.578317e-06,159.89999999997545,3.356985e-06
159.91499999997544,6.185467e-05,159.91499999997544,2.373747e-07,159.91499999997544,4.334932e-06,159.91499999997544,3.297714e-06
159.92999999997542,6.313586e-05,159.92999999997542,2.373747e-07,159.92999999997542,4.847328e-06,159.92999999997542,3.267676e-06
159.9449999999754,6.459754e-05,159.9449999999754,2.907234e-07,159.9449999999754,5.057808e-06,159.9449999999754,3.284874e-06
159.9599999999754,6.524825e-05,159.9599999999754,2.907234e-07,159.9599999999754,5.060592e-06,159.9599999999754,3.224279e-06
159.97499999997538,6.51108e-05,159.97499999997538,2.907234e-07,159.97499999997538,5.066156e-06,159.97499999997538,3.301983e-06
159.98999999997537,6.333946e-05,159.98999999997537,2.373747e-07,159.98999999997537,4.916579e-06,159.98999999997537,3.40283e-06
160.00499999997535,6.090407e-05,160.00499999997535,2.373747e-07,160.00499999997535,4.702775e-06,160.00499999997535,3.415227e-06
160.01999999997534,5.711365e-05,160.01999999997534,2.907234e-07,160.01999999997534,4.660651e-06,160.01999999997534,3.484641e-06
160.03499999997533,5.692218e-05,160.03499999997533,2.907234e-07,160.03499999997533,4.708762e-06,160.03499999997533,3.528828e-06
160.0499999999753,5.707837e-05,160.0499999999753,2.907234e-07,160.0499999999753,4.636408e-06,160.0499999999753,3.599965e-06
160.0649999999753,5.680897e-05,160.0649999999753,2.907234e-07,160.0649999999753,4.559819e-06,160.0649999999753,3.540784e-06
160.07999999997529,5.692119e-05,160.07999999997529,2.907234e-07,160.07999999997529,4.52882e-06,160.07999999997529,3.540784e-06
160.09499999997527,4.851221e-05,160.09499999997527,2.907234e-07,160.09499999997527,4.485062e-06,160.09499999997527,3.476546e-06
160.10999999997526,4.716175e-05,160.10999999997526,2.907234e-07,160.10999999997526,4.405843e-06,160.10999999997526,3.394541e-06
160.12499999997524,4.450285e-05,160.12499999997524,2.907234e-07,160.12499999997524,4.450379e-06,160.12499999997524,3.373728e-06
160.13999999997523,4.012861e-05,160.13999999997523,2.907234e-07,160.13999999997523,4.75046e-06,160.13999999997523,3.348582e-06
160.15499999997522,3.829575e-05,160.15499999997522,2.907234e-07,160.15499999997522,4.70577e-06,160.15499999997522,3.348582e-06
160.1699999999752,3.4459e-05,160.1699999999752,2.907234e-07,160.1699999999752,4.4377e-06,160.1699999999752,3.348582e-06
160.1849999999752,3.244357e-05,160.1849999999752,2.907234e-07,160.1849999999752,3.91848e-06,160.1849999999752,3.390388e-06
160.19999999997518,2.784426e-05,160.19999999997518,2.373747e-07,160.19999999997518,3.812802e-06,160.19999999997518,3.512824e-06
160.21499999997516,2.738001e-05,160.21499999997516,2.373747e-07,160.21499999997516,3.771943e-06,160.21499999997516,3.484641e-06
160.22999999997515,2.688628e-05,160.22999999997515,2.907234e-07,160.22999999997515,3.820184e-06,160.22999999997515,3.431686e-06
160.24499999997514,2.602421e-05,160.24499999997514,2.907234e-07,160.24499999997514,3.794284e-06,160.24499999997514,3.352786e-06
160.25999999997512,2.168571e-05,160.25999999997512,2.907234e-07,160.25999999997512,3.812802e-06,160.25999999997512,3.361178e-06
160.2749999999751,1.988854e-05,160.2749999999751,2.373747e-07,160.2749999999751,3.834905e-06,160.2749999999751,3.443979e-06
160.2899999999751,1.963621e-05,160.2899999999751,2.373747e-07,160.2899999999751,3.794284e-06,160.2899999999751,3.520835e-06
160.30499999997508,1.849315e-05,160.30499999997508,2.373747e-07,160.30499999997508,3.812802e-06,160.30499999997508,3.524834e-06
160.31999999997507,1.6753e-05,160.31999999997507,2.373747e-07,160.31999999997507,3.816494e-06,160.31999999997507,3.584279e-06
160.33499999997505,1.49046e-05,160.33499999997505,2.373747e-07,160.33499999997505,3.723076e-06,160.33499999997505,3.599965e-06
160.34999999997504,1.368563e-05,160.34999999997504,2.373747e-07,160.34999999997504,3.681221e-06,160.34999999997504,3.79057e-06
160.36499999997503,1.488758e-05,160.36499999997503,2.373747e-07,160.36499999997503,3.775675e-06,160.36499999997503,3.820184e-06
160.379999999975,1.686363e-05,160.379999999975,2.373747e-07,160.379999999975,3.741947e-06,160.379999999975,3.84957e-06
160.394999999975,1.680673e-05,160.394999999975,2.373747e-07,160.394999999975,3.427579e-06,160.394999999975,3.83123e-06
160.40999999997499,1.9885e-05,160.40999999997499,2.373747e-07,160.40999999997499,3.893234e-06,160.40999999997499,3.90768e-06
160.42499999997497,1.986515e-05,160.42499999997497,2.373747e-07,160.42499999997497,3.996786e-06,160.42499999997497,3.878734e-06
160.43999999997496,2.108764e-05,160.43999999997496,2.373747e-07,160.43999999997496,4.073587e-06,160.43999999997496,3.834905e-06
160.45499999997494,2.147618e-05,160.45499999997494,2.373747e-07,160.45499999997494,4.186148e-06,160.45499999997494,3.816494e-06
160.46999999997493,2.246485e-05,160.46999999997493,2.373747e-07,160.46999999997493,4.20294e-06,160.46999999997493,3.78313e-06
160.48499999997492,2.260238e-05,160.48499999997492,2.373747e-07,160.48499999997492,4.192873e-06,160.48499999997492,3.900464e-06
160.4999999999749,2.272359e-05,160.4999999999749,2.373747e-07,160.4999999999749,4.145571e-06,160.4999999999749,3.893234e-06
160.5149999999749,2.340158e-05,160.5149999999749,2.373747e-07,160.5149999999749,4.199587e-06,160.5149999999749,3.786851e-06
160.52999999997488,2.351627e-05,160.52999999997488,2.373747e-07,160.52999999997488,4.192873e-06,160.52999999997488,3.768206e-06
160.54499999997486,2.374281e-05,160.54499999997486,2.373747e-07,160.54499999997486,4.246287e-06,160.54499999997486,3.646619e-06
160.55999999997485,2.439249e-05,160.55999999997485,2.373747e-07,160.55999999997485,4.20629e-06,160.55999999997485,3.619477e-06
160.57499999997484,2.441673e-05,160.57499999997484,2.373747e-07,160.57499999997484,4.252917e-06,160.57499999997484,3.607783e-06
160.58999999997482,2.457372e-05,160.58999999997482,2.373747e-07,160.58999999997482,4.269446e-06,160.58999999997482,3.59605e-06
160.6049999999748,2.455136e-05,160.6049999999748,2.373747e-07,160.6049999999748,4.155752e-06,160.6049999999748,3.54476e-06
160.6199999999748,2.331172e-05,160.6199999999748,2.373747e-07,160.6199999999748,4.148967e-06,160.6199999999748,3.476546e-06
160.63499999997478,2.330144e-05,160.63499999997478,2.373747e-07,160.63499999997478,4.070128e-06,160.63499999997478,3.500774e-06
160.64999999997477,2.07896e-05,160.64999999997477,2.373747e-07,160.64999999997477,4.080498e-06,160.64999999997477,3.508812e-06
160.66499999997475,2.019987e-05,160.66499999997475,2.373747e-07,160.66499999997475,3.564574e-06,160.66499999997475,3.488681e-06
160.67999999997474,2.01006e-05,160.67999999997474,2.373747e-07,160.67999999997474,3.323245e-06,160.67999999997474,3.540784e-06
160.69499999997473,1.895508e-05,160.69499999997473,2.373747e-07,160.69499999997473,3.356985e-06,160.69499999997473,3.524834e-06
160.7099999999747,1.782208e-05,160.7099999999747,2.373747e-07,160.7099999999747,3.153601e-06,160.7099999999747,3.460301e-06
160.7249999999747,1.74652e-05,160.7249999999747,2.373747e-07,160.7249999999747,3.189136e-06,160.7249999999747,3.496747e-06
160.73999999997469,1.771267e-05,160.73999999997469,2.373747e-07,160.73999999997469,3.197958e-06,160.73999999997469,3.361178e-06
160.75499999997467,1.735191e-05,160.75499999997467,2.373747e-07,160.75499999997467,3.184716e-06,160.75499999997467,3.382069e-06
160.76999999997466,1.696191e-05,160.76999999997466,2.373747e-07,160.76999999997466,3.090432e-06,160.76999999997466,3.415227e-06
160.78499999997464,1.678241e-05,160.78499999997464,2.373747e-07,160.78499999997464,2.945742e-06,160.78499999997464,3.415227e-06
160.79999999997463,1.604783e-05,160.79999999997463,2.373747e-07,160.79999999997463,2.993181e-06,160.79999999997463,3.423466e-06
160.81499999997462,1.564693e-05,160.81499999997462,2.373747e-07,160.81499999997462,3.002579e-06,160.81499999997462,3.548731e-06
160.8299999999746,1.543392e-05,160.8299999999746,2.373747e-07,160.8299999999746,3.011947e-06,160.8299999999746,3.439886e-06
160.8449999999746,1.547585e-05,160.8449999999746,2.373747e-07,160.8449999999746,3.081303e-06,160.8449999999746,3.443979e-06
160.85999999997458,1.553943e-05,160.85999999997458,2.907234e-07,160.85999999997458,3.085871e-06,160.85999999997458,3.406967e-06
160.87499999997456,1.44672e-05,160.87499999997456,2.907234e-07,160.87499999997456,3.053749e-06,160.87499999997456,3.419349e-06
160.88999999997455,1.471149e-05,160.88999999997455,2.907234e-07,160.88999999997455,3.021286e-06,160.88999999997455,3.419349e-06
160.90499999997454,1.575192e-05,160.90499999997454,2.907234e-07,160.90499999997454,3.044509e-06,160.90499999997454,3.314757e-06
160.91999999997452,1.593065e-05,160.91999999997452,2.373747e-07,160.91999999997452,3.030597e-06,160.91999999997452,3.280583e-06
160.9349999999745,1.577604e-05,160.9349999999745,2.373747e-07,160.9349999999745,3.011947e-06,160.9349999999745,3.276286e-06
160.9499999999745,1.521884e-05,160.9499999999745,2.373747e-07,160.9499999999745,2.960054e-06,160.9499999999745,3.228645e-06
160.96499999997448,1.573133e-05,160.96499999997448,2.373747e-07,160.96499999997448,2.979029e-06,160.96499999997448,3.28916e-06
160.97999999997447,1.60408e-05,160.97999999997447,2.907234e-07,160.97999999997447,2.926552e-06,160.97999999997447,3.202359e-06
160.99499999997445,1.726891e-05,160.99499999997445,2.907234e-07,160.99499999997445,3.039879e-06,160.99499999997445,3.206755e-06
161.00999999997444,1.786313e-05,161.00999999997444,2.907234e-07,161.00999999997444,3.184716e-06,161.00999999997444,3.19355e-06
161.02499999997443,1.822382e-05,161.02499999997443,2.907234e-07,161.02499999997443,3.149131e-06,161.02499999997443,3.215529e-06
161.0399999999744,1.840611e-05,161.0399999999744,2.907234e-07,161.0399999999744,3.117661e-06,161.0399999999744,3.175857e-06
161.0549999999744,2.103815e-05,161.0549999999744,2.907234e-07,161.0549999999744,3.099535e-06,161.0549999999744,3.175857e-06
161.06999999997439,2.111234e-05,161.06999999997439,2.907234e-07,161.06999999997439,1.189126e-05,161.06999999997439,3.122176e-06
161.08499999997437,2.16024e-05,161.08499999997437,2.373747e-07,161.08499999997437,1.691284e-05,161.08499999997437,3.108612e-06
161.09999999997436,2.184427e-05,161.09999999997436,2.373747e-07,161.09999999997436,1.724687e-05,161.09999999997436,3.104077e-06
161.11499999997434,2.219675e-05,161.11499999997434,2.373747e-07,161.11499999997434,1.73965e-05,161.11499999997434,3.184716e-06
161.12999999997433,2.39578e-05,161.12999999997433,2.373747e-07,161.12999999997433,1.740703e-05,161.12999999997433,3.233005e-06
161.14499999997432,2.390128e-05,161.14499999997432,2.373747e-07,161.14499999997432,1.854791e-05,161.14499999997432,3.228645e-06
161.1599999999743,2.427149e-05,161.1599999999743,2.373747e-07,161.1599999999743,1.862673e-05,161.1599999999743,3.306247e-06
161.1749999999743,2.534635e-05,161.1749999999743,2.373747e-07,161.1749999999743,1.862597e-05,161.1749999999743,3.398688e-06
161.18999999997428,2.592497e-05,161.18999999997428,2.373747e-07,161.18999999997428,1.863202e-05,161.18999999997428,3.468433e-06
161.20499999997426,2.646009e-05,161.20499999997426,2.373747e-07,161.20499999997426,1.891267e-05,161.20499999997426,3.439886e-06
161.21999999997425,2.632666e-05,161.21999999997425,2.373747e-07,161.21999999997425,2.274589e-05,161.21999999997425,3.382069e-06
161.23499999997424,2.576691e-05,161.23499999997424,2.373747e-07,161.23499999997424,2.302473e-05,161.23499999997424,3.348582e-06
161.24999999997422,2.484679e-05,161.24999999997422,2.373747e-07,161.24999999997422,2.503149e-05,161.24999999997422,3.331712e-06
161.2649999999742,2.474396e-05,161.2649999999742,2.373747e-07,161.2649999999742,2.584497e-05,161.2649999999742,3.406967e-06
161.2799999999742,2.454046e-05,161.2799999999742,2.373747e-07,161.2799999999742,2.742885e-05,161.2799999999742,3.331712e-06
161.29499999997418,2.341843e-05,161.29499999997418,2.373747e-07,161.29499999997418,3.026178e-05,161.29499999997418,3.276286e-06
161.30999999997417,2.226202e-05,161.30999999997417,2.373747e-07,161.30999999997417,3.030876e-05,161.30999999997417,3.306247e-06
161.32499999997415,2.281762e-05,161.32499999997415,2.373747e-07,161.32499999997415,2.641e-05,161.32499999997415,3.373728e-06
161.33999999997414,2.233215e-05,161.33999999997414,2.373747e-07,161.33999999997414,2.515444e-05,161.33999999997414,3.348582e-06
161.35499999997413,2.249242e-05,161.35499999997413,2.373747e-07,161.35499999997413,2.507984e-05,161.35499999997413,3.224279e-06
161.3699999999741,2.268264e-05,161.3699999999741,2.373747e-07,161.3699999999741,2.501404e-05,161.3699999999741,3.233005e-06
161.3849999999741,2.35462e-05,161.3849999999741,2.907234e-07,161.3849999999741,2.469153e-05,161.3849999999741,3.149131e-06
161.39999999997409,2.50776e-05,161.39999999997409,2.373747e-07,161.39999999997409,2.414755e-05,161.39999999997409,3.180289e-06
161.41499999997407,2.533022e-05,161.41499999997407,2.373747e-07,161.41499999997407,2.41563e-05,161.41499999997407,3.007266e-06
161.42999999997406,2.566776e-05,161.42999999997406,2.373747e-07,161.42999999997406,2.41633e-05,161.42999999997406,3.049133e-06
161.44499999997404,2.540075e-05,161.44499999997404,2.373747e-07,161.44499999997404,2.405227e-05,161.44499999997404,3.035241e-06
161.45999999997403,2.511072e-05,161.45999999997403,2.373747e-07,161.45999999997403,2.280589e-05,161.45999999997403,3.180289e-06
161.47499999997402,2.519976e-05,161.47499999997402,2.907234e-07,161.47499999997402,2.027783e-05,161.47499999997402,3.237359e-06
161.489999999974,2.520982e-05,161.489999999974,2.907234e-07,161.489999999974,2.079435e-05,161.489999999974,3.356985e-06
161.504999999974,2.51466e-05,161.504999999974,2.907234e-07,161.504999999974,2.183395e-05,161.504999999974,3.344373e-06
161.51999999997398,2.610366e-05,161.51999999997398,2.907234e-07,161.51999999997398,2.166361e-05,161.51999999997398,3.361178e-06
161.53499999997396,2.608261e-05,161.53499999997396,2.907234e-07,161.53499999997396,1.754005e-05,161.53499999997396,3.476546e-06
161.54999999997395,2.671863e-05,161.54999999997395,2.373747e-07,161.54999999997395,1.500632e-05,161.54999999997395,3.504795e-06
161.56499999997394,2.645264e-05,161.56499999997394,2.373747e-07,161.56499999997394,1.495555e-05,161.56499999997394,3.568524e-06
161.57999999997392,2.630418e-05,161.57999999997392,2.907234e-07,161.57999999997392,1.497061e-05,161.57999999997392,3.580347e-06
161.5949999999739,2.605721e-05,161.5949999999739,2.907234e-07,161.5949999999739,1.495837e-05,161.5949999999739,3.631134e-06
161.6099999999739,2.615164e-05,161.6099999999739,2.907234e-07,161.6099999999739,1.494424e-05,161.6099999999739,3.707911e-06
161.62499999997388,2.402591e-05,161.62499999997388,2.907234e-07,161.62499999997388,1.490649e-05,161.62499999997388,3.760722e-06
161.63999999997387,2.305836e-05,161.63999999997387,2.373747e-07,161.63999999997387,1.490649e-05,161.63999999997387,3.741947e-06
161.65499999997385,2.059627e-05,161.65499999997385,2.907234e-07,161.65499999997385,1.489231e-05,161.65499999997385,3.711708e-06
161.66999999997384,1.915542e-05,161.66999999997384,2.907234e-07,161.66999999997384,1.584909e-05,161.66999999997384,3.669723e-06
161.68499999997383,1.877137e-05,161.68499999997383,2.907234e-07,161.68499999997383,1.611265e-05,161.68499999997383,3.599965e-06
161.6999999999738,1.811373e-05,161.6999999999738,2.907234e-07,161.6999999999738,1.612314e-05,161.6999999999738,3.552699e-06
161.7149999999738,1.807558e-05,161.7149999999738,2.907234e-07,161.7149999999738,1.618331e-05,161.7149999999738,3.520835e-06
161.72999999997378,1.802016e-05,161.72999999997378,2.907234e-07,161.72999999997378,1.617722e-05,161.72999999997378,3.452149e-06
161.74499999997377,1.778093e-05,161.74499999997377,2.907234e-07,161.74499999997377,1.163499e-05,161.74499999997377,3.427579e-06
161.75999999997376,1.771346e-05,161.75999999997376,2.907234e-07,161.75999999997376,7.555081e-06,161.75999999997376,3.386231e-06
161.77499999997374,1.653805e-05,161.77499999997374,2.907234e-07,161.77499999997374,7.438582e-06,161.77499999997374,3.284874e-06
161.78999999997373,1.61807e-05,161.78999999997373,2.373747e-07,161.78999999997373,7.209706e-06,161.78999999997373,3.331712e-06
161.80499999997372,2.282811e-05,161.80499999997372,2.907234e-07,161.80499999997372,7.201887e-06,161.80499999997372,3.175857e-06
161.8199999999737,2.423432e-05,161.8199999999737,2.373747e-07,161.8199999999737,7.22337e-06,161.8199999999737,3.166973e-06
161.8349999999737,2.420291e-05,161.8349999999737,2.373747e-07,161.8349999999737,7.262268e-06,161.8349999999737,3.081303e-06
161.84999999997368,2.460638e-05,161.84999999997368,2.907234e-07,161.84999999997368,7.260328e-06,161.84999999997368,3.002579e-06
161.86499999997366,2.499263e-05,161.86499999997366,2.907234e-07,161.86499999997366,7.308674e-06,161.86499999997366,2.902385e-06
161.87999999997365,2.630739e-05,161.87999999997365,2.907234e-07,161.87999999997365,7.293238e-06,161.87999999997365,2.882905e-06
161.89499999997363,2.737332e-05,161.89499999997363,2.907234e-07,161.89499999997363,7.285508e-06,161.89499999997363,2.892662e-06
161.90999999997362,2.779869e-05,161.90999999997362,2.907234e-07,161.90999999997362,6.898175e-06,161.90999999997362,2.964809e-06
161.9249999999736,2.869829e-05,161.9249999999736,2.907234e-07,161.9249999999736,4.209638e-06,161.9249999999736,3.158065e-06
161.9399999999736,2.902627e-05,161.9399999999736,2.907234e-07,161.9399999999736,3.925663e-06,161.9399999999736,3.197958e-06
161.95499999997358,2.91773e-05,161.95499999997358,2.907234e-07,161.95499999997358,3.91848e-06,161.95499999997358,3.24605e-06
161.96999999997357,2.908009e-05,161.96999999997357,2.907234e-07,161.96999999997357,3.775675e-06,161.96999999997357,3.206755e-06
161.98499999997355,2.926359e-05,161.98499999997355,2.907234e-07,161.98499999997355,3.723076e-06,161.98499999997355,3.180289e-06
161.99999999997354,2.946507e-05,161.99999999997354,2.907234e-07,161.99999999997354,3.56062e-06,161.99999999997354,3.067557e-06
162.01499999997353,2.937314e-05,162.01499999997353,2.907234e-07,162.01499999997353,3.456227e-06,162.01499999997353,3.030597e-06
162.0299999999735,2.98649e-05,162.0299999999735,2.907234e-07,162.0299999999735,3.448066e-06,162.0299999999735,3.058359e-06
162.0449999999735,2.947607e-05,162.0449999999735,2.907234e-07,162.0449999999735,3.439886e-06,162.0449999999735,2.988471e-06
162.05999999997348,2.498531e-05,162.05999999997348,2.907234e-07,162.05999999997348,3.423466e-06,162.05999999997348,3.030597e-06
162.07499999997347,2.475193e-05,162.07499999997347,2.907234e-07,162.07499999997347,3.259043e-06,162.07499999997347,3.067557e-06
162.08999999997346,2.443057e-05,162.08999999997346,2.907234e-07,162.08999999997346,3.280583e-06,162.08999999997346,3.117661e-06
162.10499999997344,2.406047e-05,162.10499999997344,2.373747e-07,162.10499999997344,3.228645e-06,162.10499999997344,3.090432e-06
162.11999999997343,2.313703e-05,162.11999999997343,2.373747e-07,162.11999999997343,3.202359e-06,162.11999999997343,3.099535e-06
162.13499999997342,2.185395e-05,162.13499999997342,2.907234e-07,162.13499999997342,3.241707e-06,162.13499999997342,3.184716e-06
162.1499999999734,2.080112e-05,162.1499999999734,2.907234e-07,162.1499999999734,6.768301e-06,162.1499999999734,3.197958e-06
162.1649999999734,1.972425e-05,162.1649999999734,2.907234e-07,162.1649999999734,6.892046e-06,162.1649999999734,3.162522e-06
162.17999999997338,1.85722e-05,162.17999999997338,2.907234e-07,162.17999999997338,6.822199e-06,162.17999999997338,3.053749e-06
162.19499999997336,1.86728e-05,162.19499999997336,2.907234e-07,162.19499999997336,6.791156e-06,162.19499999997336,2.997883e-06
162.20999999997335,1.852435e-05,162.20999999997335,2.907234e-07,162.20999999997335,6.762054e-06,162.20999999997335,2.983753e-06
162.22499999997333,1.885672e-05,162.22499999997333,2.907234e-07,162.22499999997333,6.753716e-06,162.22499999997333,3.035241e-06
162.23999999997332,1.893575e-05,162.23999999997332,2.907234e-07,162.23999999997332,6.743279e-06,162.23999999997332,3.044509e-06
162.2549999999733,1.856689e-05,162.2549999999733,2.907234e-07,162.2549999999733,6.728641e-06,162.2549999999733,3.158065e-06
162.2699999999733,1.830019e-05,162.2699999999733,2.907234e-07,162.2699999999733,6.730734e-06,162.2699999999733,3.228645e-06
162.28499999997328,1.721826e-05,162.28499999997328,2.907234e-07,162.28499999997328,8.656856e-06,162.28499999997328,3.331712e-06
162.29999999997327,1.586863e-05,162.29999999997327,2.907234e-07,162.29999999997327,9.78289e-06,162.29999999997327,3.310505e-06
162.31499999997325,1.58713e-05,162.31499999997325,2.907234e-07,162.31499999997325,9.81021e-06,162.31499999997325,3.267676e-06
162.32999999997324,1.599155e-05,162.32999999997324,2.907234e-07,162.32999999997324,9.800154e-06,162.32999999997324,3.271984e-06
162.34499999997323,1.56865e-05,162.34499999997323,2.907234e-07,162.34499999997323,9.78289e-06,162.34499999997323,3.361178e-06
162.3599999999732,1.558831e-05,162.3599999999732,2.907234e-07,162.3599999999732,9.774246e-06,162.3599999999732,3.382069e-06
162.3749999999732,1.5301e-05,162.3749999999732,2.907234e-07,162.3749999999732,9.803028e-06,162.3749999999732,3.331712e-06
162.38999999997318,1.491405e-05,162.38999999997318,2.907234e-07,162.38999999997318,8.937085e-06,162.38999999997318,3.373728e-06
162.40499999997317,1.437734e-05,162.40499999997317,2.907234e-07,162.40499999997317,7.867457e-06,162.40499999997317,3.319004e-06
162.41999999997316,1.408934e-05,162.41999999997316,2.907234e-07,162.41999999997316,7.782849e-06,162.41999999997316,3.24605e-06
162.43499999997314,1.415219e-05,162.43499999997314,2.907234e-07,162.43499999997314,7.795508e-06,162.43499999997314,3.276286e-06
162.44999999997313,1.417506e-05,162.44999999997313,2.907234e-07,162.44999999997313,9.611476e-06,162.44999999997313,3.340158e-06
162.46499999997312,1.393452e-05,162.46499999997312,2.907234e-07,162.46499999997312,1.047681e-05,162.46499999997312,3.365367e-06
162.4799999999731,1.313843e-05,162.4799999999731,2.907234e-07,162.4799999999731,1.327708e-05,162.4799999999731,3.40283e-06
162.4949999999731,1.282812e-05,162.4949999999731,2.907234e-07,162.4949999999731,1.337222e-05,162.4949999999731,3.4111e-06
162.50999999997308,1.322605e-05,162.50999999997308,2.907234e-07,162.50999999997308,1.338802e-05,162.50999999997308,3.406967e-06
162.52499999997306,1.358853e-05,162.52499999997306,2.907234e-07,162.52499999997306,1.33796e-05,162.52499999997306,3.365367e-06
162.53999999997305,1.285664e-05,162.53999999997305,2.907234e-07,162.53999999997305,1.143101e-05,162.53999999997305,3.356985e-06
162.55499999997303,1.310515e-05,162.55499999997303,2.907234e-07,162.55499999997303,1.132951e-05,162.55499999997303,3.431686e-06
162.56999999997302,1.293529e-05,162.56999999997302,2.907234e-07,162.56999999997302,1.132578e-05,162.56999999997302,3.394541e-06
162.584999999973,1.405831e-05,162.584999999973,2.907234e-07,162.584999999973,1.13407e-05,162.584999999973,3.263362e-06
162.599999999973,1.658908e-05,162.599999999973,2.907234e-07,162.599999999973,1.133573e-05,162.599999999973,3.259043e-06
162.61499999997298,1.669995e-05,162.61499999997298,2.907234e-07,162.61499999997298,1.132578e-05,162.61499999997298,3.284874e-06
162.62999999997297,1.710087e-05,162.62999999997297,2.907234e-07,162.62999999997297,1.131583e-05,162.62999999997297,3.241707e-06
162.64499999997295,1.732673e-05,162.64499999997295,2.373747e-07,162.64499999997295,1.126342e-05,162.64499999997295,3.263362e-06
162.65999999997294,1.806232e-05,162.65999999997294,2.373747e-07,162.65999999997294,1.120826e-05,162.65999999997294,3.267676e-06
162.67499999997293,1.826551e-05,162.67499999997293,2.373747e-07,162.67499999997293,1.119317e-05,162.67499999997293,3.310505e-06
162.6899999999729,1.795987e-05,162.6899999999729,2.373747e-07,162.6899999999729,1.392137e-05,162.6899999999729,3.365367e-06
162.7049999999729,1.771187e-05,162.7049999999729,2.373747e-07,162.7049999999729,1.32154e-05,162.7049999999729,3.323245e-06
162.71999999997288,1.791196e-05,162.71999999997288,2.373747e-07,162.71999999997288,1.371545e-05,162.71999999997288,3.319004e-06
162.73499999997287,1.840764e-05,162.73499999997287,2.373747e-07,162.73499999997287,1.294944e-05,162.73499999997287,3.206755e-06
162.74999999997286,1.832941e-05,162.74999999997286,2.373747e-07,162.74999999997286,1.292439e-05,162.74999999997286,3.228645e-06
162.76499999997284,1.815179e-05,162.76499999997284,2.373747e-07,162.76499999997284,1.292766e-05,162.76499999997284,3.276286e-06
162.77999999997283,1.802172e-05,162.77999999997283,2.907234e-07,162.77999999997283,1.293746e-05,162.77999999997283,3.28916e-06
162.79499999997282,1.783472e-05,162.79499999997282,2.907234e-07,162.79499999997282,1.295705e-05,162.79499999997282,3.280583e-06
162.8099999999728,1.735029e-05,162.8099999999728,2.907234e-07,162.8099999999728,1.465873e-05,162.8099999999728,3.365367e-06
162.8249999999728,1.68017e-05,162.8249999999728,2.907234e-07,162.8249999999728,1.495366e-05,162.8249999999728,3.377901e-06
162.83999999997278,1.601356e-05,162.83999999997278,2.907234e-07,162.83999999997278,1.49913e-05,162.83999999997278,3.468433e-06
162.85499999997276,1.353764e-05,162.85499999997276,2.907234e-07,162.85499999997276,1.518734e-05,162.85499999997276,3.435788e-06
162.86999999997275,1.338486e-05,162.86999999997275,2.907234e-07,162.86999999997275,1.630126e-05,162.86999999997275,3.386231e-06
162.88499999997273,1.301562e-05,162.88499999997273,2.907234e-07,162.88499999997273,1.811373e-05,162.88499999997273,3.306247e-06
162.89999999997272,1.26512e-05,162.89999999997272,2.907234e-07,162.89999999997272,1.822691e-05,162.89999999997272,3.250386e-06
162.9149999999727,1.186161e-05,162.9149999999727,2.907234e-07,162.9149999999727,1.824314e-05,162.9149999999727,3.267676e-06
162.9299999999727,1.175065e-05,162.9299999999727,2.907234e-07,162.9299999999727,1.824391e-05,162.9299999999727,3.19355e-06
162.94499999997268,1.161318e-05,162.94499999997268,2.907234e-07,162.94499999997268,1.590145e-05,162.94499999997268,3.175857e-06
162.95999999997267,1.168814e-05,162.95999999997267,2.907234e-07,162.95999999997267,1.559463e-05,162.95999999997267,3.149131e-06
162.97499999997265,1.142238e-05,162.97499999997265,2.907234e-07,162.97499999997265,1.366812e-05,162.97499999997265,3.162522e-06
162.98999999997264,1.109457e-05,162.98999999997264,2.907234e-07,162.98999999997264,1.368563e-05,162.98999999997264,3.219907e-06
163.00499999997263,1.110726e-05,163.00499999997263,2.373747e-07,163.00499999997263,1.366503e-05,163.00499999997263,3.319004e-06
163.0199999999726,1.272116e-05,163.0199999999726,2.373747e-07,163.0199999999726,1.369387e-05,163.0199999999726,3.415227e-06
163.0349999999726,1.377898e-05,163.0349999999726,2.373747e-07,163.0349999999726,1.371442e-05,163.0349999999726,3.406967e-06
163.04999999997258,1.42948e-05,163.04999999997258,2.373747e-07,163.04999999997258,1.270675e-05,163.04999999997258,3.415227e-06
163.06499999997257,1.939367e-05,163.06499999997257,2.373747e-07,163.06499999997257,1.160104e-05,163.06499999997257,3.284874e-06
163.07999999997256,1.99656e-05,163.07999999997256,2.373747e-07,163.07999999997256,1.150594e-05,163.07999999997256,3.365367e-06
163.09499999997254,1.985168e-05,163.09499999997254,2.373747e-07,163.09499999997254,1.200562e-05,163.09499999997254,3.259043e-06
163.10999999997253,2.00107e-05,163.10999999997253,2.373747e-07,163.10999999997253,1.165676e-05,163.10999999997253,3.280583e-06
163.12499999997252,2.006132e-05,163.12499999997252,2.373747e-07,163.12499999997252,7.575563e-06,163.12499999997252,3.297714e-06
163.1399999999725,2.000788e-05,163.1399999999725,2.373747e-07,163.1399999999725,6.331722e-06,163.1399999999725,3.344373e-06
163.1549999999725,2.067205e-05,163.1549999999725,2.373747e-07,163.1549999999725,6.673986e-06,163.1549999999725,3.365367e-06
163.16999999997248,2.222149e-05,163.16999999997248,2.373747e-07,163.16999999997248,6.654963e-06,163.16999999997248,3.361178e-06
163.18499999997246,2.582588e-05,163.18499999997246,2.373747e-07,163.18499999997246,6.65708e-06,163.18499999997246,3.488681e-06
163.19999999997245,2.835758e-05,163.19999999997245,2.373747e-07,163.19999999997245,6.54612e-06,163.19999999997245,3.611685e-06
163.21499999997243,3.034638e-05,163.21499999997243,2.373747e-07,163.21499999997243,5.891484e-06,163.21499999997243,3.677393e-06
