X[s],a: EMG RMS 1-1,X[s].1,a: EMG RMS 1-2,X[s].2,a: EMG RMS 1-3,X[s].3,a: EMG RMS 1-4
209.00999999993078,4.735104e-05,209.00999999993078,2.907234e-07,209.00999999993078,3.394541e-06,209.00999999993078,3.956118e-05
209.02499999993077,4.52356e-05,209.02499999993077,2.907234e-07,209.02499999993077,3.568524e-06,209.02499999993077,3.885955e-05
209.03999999993076,4.498547e-05,209.03999999993076,2.907234e-07,209.03999999993076,3.504795e-06,209.03999999993076,3.867532e-05
209.05499999993074,4.499581e-05,209.05499999993074,2.907234e-07,209.05499999993074,3.552699e-06,209.05499999993074,3.841035e-05
209.06999999993073,4.441793e-05,209.06999999993073,2.907234e-07,209.06999999993073,3.520835e-06,209.06999999993073,3.697525e-05
209.08499999993072,4.465326e-05,209.08499999993072,2.907234e-07,209.08499999993072,3.516832e-06,209.08499999993072,3.351399e-05
209.0999999999307,2.910672e-05,209.0999999999307,2.907234e-07,209.0999999999307,3.496747e-06,209.0999999999307,3.133211e-05
209.1149999999307,1.778727e-05,209.1149999999307,2.907234e-07,209.1149999999307,3.431686e-06,209.1149999999307,3.12664e-05
209.12999999993067,1.448569e-05,209.12999999993067,2.907234e-07,209.12999999993067,3.496747e-06,209.12999999993067,3.050519e-05
209.14499999993066,1.392643e-05,209.14499999993066,2.907234e-07,209.14499999993066,3.4111e-06,209.14499999993066,2.503712e-05
209.15999999993065,1.370929e-05,209.15999999993065,2.907234e-07,209.15999999993065,3.394541e-06,209.15999999993065,2.222593e-05
209.17499999993063,1.450027e-05,209.17499999993063,2.907234e-07,209.17499999993063,3.398688e-06,209.17499999993063,1.967491e-05
209.18999999993062,1.428593e-05,209.18999999993062,2.907234e-07,209.18999999993062,3.323245e-06,209.18999999993062,1.357816e-05
209.2049999999306,1.462216e-05,209.2049999999306,2.373747e-07,209.2049999999306,3.28916e-06,209.2049999999306,1.135435e-05
209.2199999999306,1.453035e-05,209.2199999999306,2.373747e-07,209.2199999999306,3.224279e-06,209.2199999999306,1.113765e-05
209.23499999993058,1.425138e-05,209.23499999993058,2.373747e-07,209.23499999993058,3.108612e-06,209.23499999993058,1.082985e-05
209.24999999993057,1.398095e-05,209.24999999993057,2.373747e-07,209.24999999993057,2.945742e-06,209.24999999993057,9.162785e-06
209.26499999993055,1.37134e-05,209.26499999993055,2.373747e-07,209.26499999993055,2.945742e-06,209.26499999993055,6.863372e-06
209.27999999993054,1.368357e-05,209.27999999993054,2.373747e-07,209.27999999993054,2.578549e-06,209.27999999993054,6.985433e-06
209.29499999993052,1.227597e-05,209.29499999993052,2.907234e-07,209.29499999993052,2.495258e-06,209.29499999993052,7.037669e-06
209.3099999999305,1.287963e-05,209.3099999999305,2.907234e-07,209.3099999999305,2.420756e-06,209.3099999999305,6.859265e-06
209.3249999999305,1.333742e-05,209.3249999999305,2.907234e-07,209.3249999999305,2.420756e-06,209.3249999999305,6.459471e-06
209.33999999993048,1.16059e-05,209.33999999993048,2.907234e-07,209.33999999993048,2.438151e-06,209.33999999993048,6.353931e-06
209.35499999993047,1.085713e-05,209.35499999993047,2.907234e-07,209.35499999993047,2.426568e-06,209.35499999993047,6.561167e-06
209.36999999993046,1.074891e-05,209.36999999993046,2.907234e-07,209.36999999993046,2.426568e-06,209.36999999993046,6.58688e-06
209.38499999993044,1.073579e-05,209.38499999993044,2.907234e-07,209.38499999993044,2.289158e-06,209.38499999993044,6.58688e-06
209.39999999993043,1.074497e-05,209.39999999993043,2.907234e-07,209.39999999993043,2.343887e-06,209.39999999993043,7.075597e-06
209.41499999993042,9.722225e-06,209.41499999993042,2.907234e-07,209.41499999993042,2.373747e-06,209.41499999993042,7.366268e-06
209.4299999999304,8.992083e-06,209.4299999999304,2.907234e-07,209.4299999999304,2.337869e-06,209.4299999999304,7.073606e-06
209.4449999999304,7.833364e-06,209.4449999999304,2.907234e-07,209.4449999999304,2.349889e-06,209.4449999999304,7.170523e-06
209.45999999993037,7.466933e-06,209.45999999993037,2.907234e-07,209.45999999993037,2.361848e-06,209.45999999993037,7.12124e-06
209.47499999993036,7.40061e-06,209.47499999993036,2.907234e-07,209.47499999993036,2.373747e-06,209.47499999993036,7.233115e-06
209.48999999993035,7.40061e-06,209.48999999993035,2.907234e-07,209.48999999993035,2.397367e-06,209.48999999993035,6.865424e-06
209.50499999993033,7.396802e-06,209.50499999993033,2.907234e-07,209.50499999993033,2.373747e-06,209.50499999993033,6.697164e-06
209.51999999993032,7.415822e-06,209.51999999993032,2.907234e-07,209.51999999993032,2.379674e-06,209.51999999993032,6.550423e-06
209.5349999999303,7.325999e-06,209.5349999999303,2.907234e-07,209.5349999999303,2.46687e-06,209.5349999999303,6.217223e-06
209.5499999999303,7.254505e-06,209.5499999999303,2.907234e-07,209.5499999999303,2.495258e-06,209.5499999999303,6.189974e-06
209.56499999993028,2.803635e-06,209.56499999993028,2.907234e-07,209.56499999993028,2.495258e-06,209.56499999993028,6.266871e-06
209.57999999993027,2.788521e-06,209.57999999993027,2.907234e-07,209.57999999993027,2.534468e-06,209.57999999993027,6.269119e-06
209.59499999993025,2.813666e-06,209.59499999993025,2.907234e-07,209.59499999993025,2.556603e-06,209.59499999993025,5.993417e-06
209.60999999993024,2.783465e-06,209.60999999993024,2.907234e-07,209.60999999993024,2.611121e-06,209.60999999993024,5.901041e-06
209.62499999993022,2.803635e-06,209.62499999993022,2.907234e-07,209.62499999993022,2.562108e-06,209.62499999993022,5.862722e-06
209.6399999999302,2.803635e-06,209.6399999999302,2.907234e-07,209.6399999999302,2.589452e-06,209.6399999999302,5.795054e-06
209.6549999999302,2.798606e-06,209.6549999999302,2.907234e-07,209.6549999999302,2.551088e-06,209.6549999999302,5.066156e-06
209.66999999993018,2.808655e-06,209.66999999993018,2.907234e-07,209.66999999993018,2.57308e-06,209.66999999993018,4.812329e-06
209.68499999993017,2.848496e-06,209.68499999993017,2.907234e-07,209.68499999993017,2.632612e-06,209.68499999993017,4.800605e-06
209.69999999993016,2.823661e-06,209.69999999993016,2.373747e-07,209.69999999993016,2.643292e-06,209.69999999993016,4.531929e-06
209.71499999993014,2.858369e-06,209.71499999993014,2.373747e-07,209.71499999993014,2.711688e-06,209.71499999993014,4.531929e-06
209.72999999993013,2.838588e-06,209.72999999993013,2.373747e-07,209.72999999993013,2.685588e-06,209.72999999993013,4.415424e-06
209.74499999993012,2.863294e-06,209.74499999993012,2.373747e-07,209.74499999993012,2.690828e-06,209.74499999993012,4.29576e-06
209.7599999999301,2.732388e-06,209.7599999999301,2.373747e-07,209.7599999999301,2.742679e-06,209.7599999999301,4.29576e-06
209.7749999999301,2.758045e-06,209.7749999999301,2.373747e-07,209.7749999999301,2.763147e-06,209.7749999999301,4.125132e-06
209.78999999993007,2.716877e-06,209.78999999993007,2.373747e-07,209.78999999993007,2.803635e-06,209.78999999993007,4.15914e-06
209.80499999993006,2.685588e-06,209.80499999993006,2.373747e-07,209.80499999993006,2.808655e-06,209.80499999993006,4.246287e-06
209.81999999993005,2.627256e-06,209.81999999993005,2.373747e-07,209.81999999993005,2.763147e-06,209.81999999993005,3.936414e-06
209.83499999993003,2.600309e-06,209.83499999993003,2.373747e-07,209.83499999993003,2.742679e-06,209.83499999993003,4.131956e-06
209.84999999993002,2.57308e-06,209.84999999993002,2.373747e-07,209.84999999993002,2.758045e-06,209.84999999993002,4.172666e-06
209.86499999993,2.685588e-06,209.86499999993,2.373747e-07,209.86499999993,2.74781e-06,209.86499999993,4.138769e-06
209.87999999993,2.696058e-06,209.87999999993,2.373747e-07,209.87999999993,2.742679e-06,209.87999999993,4.080498e-06
209.89499999992998,2.813666e-06,209.89499999992998,2.373747e-07,209.89499999992998,2.778399e-06,209.89499999992998,4.059732e-06
209.90999999992997,2.823661e-06,209.90999999992997,2.373747e-07,209.90999999992997,2.833621e-06,209.90999999992997,3.972038e-06
209.92499999992995,2.798606e-06,209.92499999992995,2.373747e-07,209.92499999992995,2.737538e-06,209.92499999992995,3.972038e-06
209.93999999992994,2.74781e-06,209.93999999992994,2.373747e-07,209.93999999992994,2.711688e-06,209.93999999992994,3.925663e-06
209.95499999992992,2.793568e-06,209.95499999992992,2.373747e-07,209.95499999992992,2.727227e-06,209.95499999992992,3.989731e-06
209.9699999999299,2.778399e-06,209.9699999999299,2.373747e-07,209.9699999999299,2.813666e-06,209.9699999999299,3.83123e-06
209.9849999999299,2.778399e-06,209.9849999999299,2.373747e-07,209.9849999999299,2.940956e-06,209.9849999999299,3.90768e-06
209.99999999992988,2.727227e-06,209.99999999992988,2.373747e-07,209.99999999992988,2.945742e-06,209.99999999992988,3.950702e-06
210.01499999992987,2.716877e-06,210.01499999992987,2.373747e-07,210.01499999992987,2.853437e-06,210.01499999992987,4.101159e-06
210.02999999992986,2.659232e-06,210.02999999992986,2.373747e-07,210.02999999992986,2.843547e-06,210.02999999992986,4.097722e-06
210.04499999992984,2.690828e-06,210.04499999992984,2.373747e-07,210.04499999992984,2.838588e-06,210.04499999992984,4.15914e-06
210.05999999992983,2.711688e-06,210.05999999992983,2.373747e-07,210.05999999992983,2.818668e-06,210.05999999992983,4.440873e-06
210.07499999992982,2.696058e-06,210.07499999992982,2.373747e-07,210.07499999992982,2.768241e-06,210.07499999992982,4.562907e-06
210.0899999999298,2.716877e-06,210.0899999999298,2.373747e-07,210.0899999999298,2.873116e-06,210.0899999999298,4.488202e-06
210.1049999999298,2.727227e-06,210.1049999999298,2.373747e-07,210.1049999999298,2.945742e-06,210.1049999999298,4.806471e-06
210.11999999992977,2.664524e-06,210.11999999992977,2.373747e-07,210.11999999992977,2.940956e-06,210.11999999992977,4.81818e-06
210.13499999992976,2.562108e-06,210.13499999992976,2.373747e-07,210.13499999992976,2.960054e-06,210.13499999992976,5.181623e-06
210.14999999992975,2.46687e-06,210.14999999992975,2.373747e-07,210.14999999992975,2.955291e-06,210.14999999992975,5.342249e-06
210.16499999992973,2.438151e-06,210.16499999992973,2.373747e-07,210.16499999992973,2.960054e-06,210.16499999992973,5.313164e-06
210.17999999992972,2.495258e-06,210.17999999992972,2.373747e-07,210.17999999992972,2.955291e-06,210.17999999992972,5.355417e-06
210.1949999999297,2.495258e-06,210.1949999999297,2.373747e-07,210.1949999999297,2.931361e-06,210.1949999999297,5.373798e-06
210.2099999999297,2.461153e-06,210.2099999999297,2.373747e-07,210.2099999999297,2.873116e-06,210.2099999999297,5.28392e-06
210.22499999992968,2.46687e-06,210.22499999992968,2.373747e-07,210.22499999992968,2.783465e-06,210.22499999992968,5.315815e-06
210.23999999992967,2.478264e-06,210.23999999992967,2.373747e-07,210.23999999992967,2.758045e-06,210.23999999992967,5.275916e-06
210.25499999992965,2.443922e-06,210.25499999992965,2.907234e-07,210.25499999992965,2.742679e-06,210.25499999992965,5.230329e-06
210.26999999992964,2.512137e-06,210.26999999992964,2.907234e-07,210.26999999992964,2.788521e-06,210.26999999992964,5.246463e-06
210.28499999992962,2.461153e-06,210.28499999992962,2.907234e-07,210.28499999992962,2.788521e-06,210.28499999992962,5.384273e-06
210.2999999999296,2.500897e-06,210.2999999999296,2.907234e-07,210.2999999999296,2.858369e-06,210.2999999999296,5.384273e-06
210.3149999999296,2.443922e-06,210.3149999999296,2.907234e-07,210.3149999999296,2.931361e-06,210.3149999999296,5.56693e-06
210.32999999992958,2.478264e-06,210.32999999992958,2.907234e-07,210.32999999992958,2.887788e-06,210.32999999992958,5.472503e-06
210.34499999992957,2.455423e-06,210.34499999992957,2.907234e-07,210.34499999992957,2.892662e-06,210.34499999992957,5.294573e-06
210.35999999992956,2.664524e-06,210.35999999992956,2.907234e-07,210.35999999992956,2.853437e-06,210.35999999992956,5.265225e-06
210.37499999992954,2.711688e-06,210.37499999992954,2.907234e-07,210.37499999992954,2.763147e-06,210.37499999992954,5.307859e-06
210.38999999992953,2.675077e-06,210.38999999992953,2.907234e-07,210.38999999992953,2.763147e-06,210.38999999992953,4.939447e-06
210.40499999992952,2.669806e-06,210.40499999992952,2.907234e-07,210.40499999992952,2.742679e-06,210.40499999992952,4.973552e-06
210.4199999999295,2.627256e-06,210.4199999999295,2.907234e-07,210.4199999999295,2.758045e-06,210.4199999999295,5.038274e-06
210.4349999999295,2.578549e-06,210.4349999999295,2.907234e-07,210.4349999999295,2.882905e-06,210.4349999999295,5.219545e-06
210.44999999992947,2.621889e-06,210.44999999992947,2.907234e-07,210.44999999992947,2.892662e-06,210.44999999992947,5.159829e-06
210.46499999992946,2.637958e-06,210.46499999992946,2.907234e-07,210.46499999992946,2.902385e-06,210.46499999992946,5.143422e-06
210.47999999992945,2.653929e-06,210.47999999992945,2.907234e-07,210.47999999992945,2.969556e-06,210.47999999992945,5.265225e-06
210.49499999992943,2.659232e-06,210.49499999992943,2.907234e-07,210.49499999992943,2.878015e-06,210.49499999992943,5.526294e-06
210.50999999992942,2.685588e-06,210.50999999992942,2.907234e-07,210.50999999992942,2.902385e-06,210.50999999992942,5.546649e-06
210.5249999999294,2.621889e-06,210.5249999999294,2.907234e-07,210.5249999999294,2.926552e-06,210.5249999999294,5.790191e-06
210.5399999999294,2.632612e-06,210.5399999999294,2.907234e-07,210.5399999999294,2.940956e-06,210.5399999999294,5.865124e-06
210.55499999992938,2.578549e-06,210.55499999992938,2.907234e-07,210.55499999992938,3.007266e-06,210.55499999992938,5.795054e-06
210.56999999992937,2.637958e-06,210.56999999992937,2.373747e-07,210.56999999992937,2.955291e-06,210.56999999992937,5.619817e-06
210.58499999992935,2.701278e-06,210.58499999992935,2.373747e-07,210.58499999992935,2.979029e-06,210.58499999992935,5.637336e-06
210.59999999992934,2.696058e-06,210.59999999992934,2.373747e-07,210.59999999992934,2.887788e-06,210.59999999992934,5.922486e-06
210.61499999992932,2.478264e-06,210.61499999992932,2.907234e-07,210.61499999992932,2.936162e-06,210.61499999992932,5.828986e-06
210.6299999999293,2.46687e-06,210.6299999999293,2.373747e-07,210.6299999999293,2.907234e-06,210.6299999999293,5.809621e-06
210.6449999999293,2.461153e-06,210.6449999999293,2.907234e-07,210.6449999999293,2.878015e-06,210.6449999999293,5.751133e-06
210.65999999992928,2.556603e-06,210.65999999992928,2.373747e-07,210.65999999992928,2.892662e-06,210.65999999992928,5.741327e-06
210.67499999992927,2.616511e-06,210.67499999992927,2.373747e-07,210.67499999992927,2.940956e-06,210.67499999992927,5.733962e-06
210.68999999992926,2.621889e-06,210.68999999992926,2.373747e-07,210.68999999992926,2.843547e-06,210.68999999992926,5.599728e-06
210.70499999992924,2.611121e-06,210.70499999992924,2.907234e-07,210.70499999992924,2.858369e-06,210.70499999992924,5.785323e-06
210.71999999992923,2.632612e-06,210.71999999992923,2.907234e-07,210.71999999992923,2.843547e-06,210.71999999992923,5.780451e-06
210.73499999992922,2.551088e-06,210.73499999992922,2.907234e-07,210.73499999992922,2.808655e-06,210.73499999992922,5.768253e-06
210.7499999999292,2.551088e-06,210.7499999999292,2.907234e-07,210.7499999999292,2.897527e-06,210.7499999999292,5.879517e-06
210.7649999999292,2.523327e-06,210.7649999999292,2.907234e-07,210.7649999999292,2.887788e-06,210.7649999999292,5.872325e-06
210.77999999992917,2.523327e-06,210.77999999992917,2.907234e-07,210.77999999992917,2.778399e-06,210.77999999992917,5.733962e-06
210.79499999992916,2.556603e-06,210.79499999992916,2.907234e-07,210.79499999992916,2.763147e-06,210.79499999992916,5.797484e-06
210.80999999992915,2.528904e-06,210.80999999992915,2.907234e-07,210.80999999992915,2.632612e-06,210.80999999992915,5.819312e-06
210.82499999992913,2.512137e-06,210.82499999992913,2.907234e-07,210.82499999992913,2.627256e-06,210.82499999992913,5.780451e-06
210.83999999992912,2.40909e-06,210.83999999992912,2.907234e-07,210.83999999992912,2.594886e-06,210.83999999992912,5.726587e-06
210.8549999999291,2.385586e-06,210.8549999999291,2.907234e-07,210.8549999999291,2.643292e-06,210.8549999999291,5.523745e-06
210.8699999999291,2.455423e-06,210.8699999999291,2.907234e-07,210.8699999999291,2.627256e-06,210.8699999999291,5.639834e-06
210.88499999992908,2.420756e-06,210.88499999992908,2.907234e-07,210.88499999992908,2.637958e-06,210.88499999992908,5.746233e-06
210.89999999992907,2.621889e-06,210.89999999992907,2.907234e-07,210.89999999992907,2.659232e-06,210.89999999992907,5.814468e-06
210.91499999992905,3.197958e-06,210.91499999992905,2.907234e-07,210.91499999992905,2.611121e-06,210.91499999992905,5.872325e-06
210.92999999992904,6.993494e-06,210.92999999992904,2.907234e-07,210.92999999992904,2.632612e-06,210.92999999992904,5.799914e-06
210.94499999992902,6.977362e-06,210.94499999992902,2.907234e-07,210.94499999992902,2.706488e-06,210.94499999992902,5.657291e-06
210.959999999929,6.975343e-06,210.959999999929,2.373747e-07,210.959999999929,2.727227e-06,210.959999999929,5.592176e-06
210.974999999929,6.97938e-06,210.974999999929,2.373747e-07,210.974999999929,2.706488e-06,210.974999999929,5.592176e-06
210.98999999992898,6.977362e-06,210.98999999992898,2.373747e-07,210.98999999992898,2.716877e-06,210.98999999992898,5.487926e-06
211.00499999992897,7.003558e-06,211.00499999992897,2.373747e-07,211.00499999992897,2.589452e-06,211.00499999992897,5.270573e-06
211.01999999992896,7.025649e-06,211.01999999992896,2.373747e-07,211.01999999992896,2.737538e-06,211.01999999992896,5.159829e-06
211.03499999992894,7.035667e-06,211.03499999992894,2.373747e-07,211.03499999992894,2.706488e-06,211.03499999992894,5.096651e-06
211.04999999992893,7.061647e-06,211.04999999992893,2.373747e-07,211.04999999992893,2.680338e-06,211.04999999992893,4.702775e-06
211.06499999992892,7.047669e-06,211.06499999992892,2.373747e-07,211.06499999992892,2.648616e-06,211.06499999992892,4.503868e-06
211.0799999999289,7.079578e-06,211.0799999999289,2.373747e-07,211.0799999999289,2.621889e-06,211.0799999999289,4.531929e-06
211.0949999999289,7.085544e-06,211.0949999999289,2.373747e-07,211.0949999999289,2.637958e-06,211.0949999999289,4.497608e-06
211.10999999992887,7.109361e-06,211.10999999992887,2.373747e-07,211.10999999992887,2.551088e-06,211.10999999992887,4.544346e-06
211.12499999992886,7.103415e-06,211.12499999992886,2.373747e-07,211.12499999992886,2.556603e-06,211.12499999992886,4.308857e-06
211.13999999992885,7.075597e-06,211.13999999992885,2.373747e-07,211.13999999992885,2.648616e-06,211.13999999992885,4.20294e-06
211.15499999992883,7.041671e-06,211.15499999992883,2.373747e-07,211.15499999992883,2.594886e-06,211.15499999992883,4.155752e-06
211.16999999992882,6.669763e-06,211.16999999992882,2.373747e-07,211.16999999992882,2.562108e-06,211.16999999992882,4.131956e-06
211.1849999999288,2.768241e-06,211.1849999999288,2.373747e-07,211.1849999999288,2.551088e-06,211.1849999999288,4.412233e-06
211.1999999999288,2.798606e-06,211.1999999999288,2.373747e-07,211.1999999999288,2.495258e-06,211.1999999999288,4.506994e-06
211.21499999992878,2.878015e-06,211.21499999992878,2.373747e-07,211.21499999992878,2.472574e-06,211.21499999992878,4.497608e-06
211.22999999992876,2.873116e-06,211.22999999992876,2.373747e-07,211.22999999992876,2.455423e-06,211.22999999992876,4.34467e-06
211.24499999992875,2.858369e-06,211.24499999992875,2.373747e-07,211.24499999992875,2.46687e-06,211.24499999992875,4.29576e-06
211.25999999992874,2.848496e-06,211.25999999992874,2.373747e-07,211.25999999992874,2.379674e-06,211.25999999992874,4.331681e-06
211.27499999992872,2.848496e-06,211.27499999992872,2.373747e-07,211.27499999992872,2.343887e-06,211.27499999992872,4.341427e-06
211.2899999999287,2.778399e-06,211.2899999999287,2.373747e-07,211.2899999999287,2.337869e-06,211.2899999999287,4.386617e-06
211.3049999999287,2.843547e-06,211.3049999999287,2.373747e-07,211.3049999999287,2.355876e-06,211.3049999999287,4.318654e-06
211.31999999992868,2.878015e-06,211.31999999992868,2.373747e-07,211.31999999992868,2.420756e-06,211.31999999992868,4.791795e-06
211.33499999992867,2.907234e-06,211.33499999992867,2.373747e-07,211.33499999992867,2.40909e-06,211.33499999992867,4.919443e-06
211.34999999992866,2.940956e-06,211.34999999992866,2.373747e-07,211.34999999992866,2.40909e-06,211.34999999992866,4.930884e-06
211.36499999992864,3.01662e-06,211.36499999992864,2.373747e-07,211.36499999992864,2.489606e-06,211.36499999992864,4.987693e-06
211.37999999992863,3.01662e-06,211.37999999992863,2.373747e-07,211.37999999992863,2.46687e-06,211.37999999992863,5.024275e-06
211.39499999992861,3.263362e-06,211.39499999992861,2.373747e-07,211.39499999992861,2.385586e-06,211.39499999992861,4.996159e-06
211.4099999999286,3.241707e-06,211.4099999999286,2.373747e-07,211.4099999999286,2.489606e-06,211.4099999999286,5.08004e-06
211.4249999999286,3.250386e-06,211.4249999999286,2.373747e-07,211.4249999999286,2.578549e-06,211.4249999999286,5.085583e-06
211.43999999992857,3.202359e-06,211.43999999992857,2.373747e-07,211.43999999992857,2.680338e-06,211.43999999992857,4.95937e-06
211.45499999992856,3.175857e-06,211.45499999992856,2.373747e-07,211.45499999992856,2.727227e-06,211.45499999992856,5.027078e-06
211.46999999992855,3.153601e-06,211.46999999992855,2.373747e-07,211.46999999992855,2.685588e-06,211.46999999992855,5.107694e-06
211.48499999992853,3.144655e-06,211.48499999992853,2.373747e-07,211.48499999992853,2.701278e-06,211.48499999992853,5.071714e-06
211.49999999992852,3.144655e-06,211.49999999992852,2.373747e-07,211.49999999992852,2.675077e-06,211.49999999992852,5.135199e-06
211.5149999999285,3.126685e-06,211.5149999999285,2.373747e-07,211.5149999999285,2.711688e-06,211.5149999999285,5.121465e-06
211.5299999999285,3.135683e-06,211.5299999999285,2.907234e-07,211.5299999999285,2.711688e-06,211.5299999999285,5.096651e-06
211.54499999992848,3.062961e-06,211.54499999992848,2.907234e-07,211.54499999992848,2.818668e-06,211.54499999992848,5.052234e-06
211.55999999992846,3.044509e-06,211.55999999992846,2.907234e-07,211.55999999992846,2.858369e-06,211.55999999992846,4.990517e-06
211.57499999992845,2.960054e-06,211.57499999992845,2.907234e-07,211.57499999992845,2.808655e-06,211.57499999992845,4.741556e-06
211.58999999992844,3.122176e-06,211.58999999992844,2.907234e-07,211.58999999992844,2.858369e-06,211.58999999992844,4.690778e-06
211.60499999992842,3.099535e-06,211.60499999992842,2.907234e-07,211.60499999992842,2.858369e-06,211.60499999992842,4.645514e-06
211.6199999999284,2.921734e-06,211.6199999999284,2.907234e-07,211.6199999999284,2.848496e-06,211.6199999999284,4.624239e-06
211.6349999999284,2.873116e-06,211.6349999999284,2.373747e-07,211.6349999999284,2.882905e-06,211.6349999999284,4.788854e-06
211.64999999992838,2.632612e-06,211.64999999992838,2.373747e-07,211.64999999992838,2.778399e-06,211.64999999992838,4.744526e-06
211.66499999992837,2.594886e-06,211.66499999992837,2.373747e-07,211.66499999992837,2.722057e-06,211.66499999992837,4.612038e-06
211.67999999992836,2.627256e-06,211.67999999992836,2.373747e-07,211.67999999992836,2.727227e-06,211.67999999992836,4.660651e-06
211.69499999992834,2.600309e-06,211.69499999992834,2.373747e-07,211.69499999992834,2.611121e-06,211.69499999992834,4.444044e-06
211.70999999992833,2.637958e-06,211.70999999992833,2.373747e-07,211.70999999992833,2.611121e-06,211.70999999992833,4.513241e-06
211.72499999992831,2.648616e-06,211.72499999992831,2.907234e-07,211.72499999992831,2.611121e-06,211.72499999992831,4.424985e-06
211.7399999999283,2.637958e-06,211.7399999999283,2.907234e-07,211.7399999999283,2.611121e-06,211.7399999999283,4.386617e-06
211.7549999999283,2.659232e-06,211.7549999999283,2.907234e-07,211.7549999999283,2.706488e-06,211.7549999999283,4.373753e-06
211.76999999992827,2.594886e-06,211.76999999992827,2.907234e-07,211.76999999992827,2.778399e-06,211.76999999992827,4.544346e-06
211.78499999992826,2.632612e-06,211.78499999992826,2.907234e-07,211.78499999992826,2.752932e-06,211.78499999992826,4.708762e-06
211.79999999992825,2.696058e-06,211.79999999992825,2.907234e-07,211.79999999992825,2.594886e-06,211.79999999992825,4.832776e-06
211.81499999992823,2.727227e-06,211.81499999992823,2.907234e-07,211.81499999992823,2.637958e-06,211.81499999992823,4.660651e-06
211.82999999992822,2.643292e-06,211.82999999992822,2.907234e-07,211.82999999992822,2.659232e-06,211.82999999992822,4.615091e-06
211.8449999999282,2.584006e-06,211.8449999999282,2.907234e-07,211.8449999999282,2.621889e-06,211.8449999999282,4.562907e-06
211.8599999999282,2.594886e-06,211.8599999999282,2.907234e-07,211.8599999999282,2.627256e-06,211.8599999999282,4.541245e-06
211.87499999992818,2.627256e-06,211.87499999992818,2.907234e-07,211.87499999992818,2.627256e-06,211.87499999992818,4.519479e-06
211.88999999992816,2.675077e-06,211.88999999992816,2.907234e-07,211.88999999992816,2.685588e-06,211.88999999992816,4.354386e-06
211.90499999992815,2.758045e-06,211.90499999992815,2.907234e-07,211.90499999992815,2.716877e-06,211.90499999992815,4.312125e-06
211.91999999992814,2.768241e-06,211.91999999992814,2.907234e-07,211.91999999992814,2.773325e-06,211.91999999992814,4.453544e-06
211.93499999992812,2.833621e-06,211.93499999992812,2.907234e-07,211.93499999992812,2.74781e-06,211.93499999992812,4.34467e-06
211.9499999999281,2.758045e-06,211.9499999999281,2.907234e-07,211.9499999999281,2.768241e-06,211.9499999999281,4.463023e-06
211.9649999999281,2.732388e-06,211.9649999999281,2.907234e-07,211.9649999999281,2.778399e-06,211.9649999999281,4.405843e-06
211.97999999992808,2.737538e-06,211.97999999992808,2.907234e-07,211.97999999992808,2.778399e-06,211.97999999992808,4.325173e-06
211.99499999992807,2.752932e-06,211.99499999992807,2.907234e-07,211.99499999992807,2.778399e-06,211.99499999992807,4.463023e-06
212.00999999992806,2.788521e-06,212.00999999992806,2.907234e-07,212.00999999992806,2.680338e-06,212.00999999992806,4.299038e-06
212.02499999992804,2.74781e-06,212.02499999992804,2.907234e-07,212.02499999992804,2.57308e-06,212.02499999992804,4.212983e-06
212.03999999992803,2.742679e-06,212.03999999992803,2.907234e-07,212.03999999992803,2.57308e-06,212.03999999992803,4.125132e-06
212.05499999992801,2.675077e-06,212.05499999992801,2.907234e-07,212.05499999992801,2.523327e-06,212.05499999992801,3.954266e-06
212.069999999928,2.616511e-06,212.069999999928,2.907234e-07,212.069999999928,2.512137e-06,212.069999999928,3.954266e-06
212.084999999928,2.589452e-06,212.084999999928,2.907234e-07,212.084999999928,2.578549e-06,212.084999999928,4.049309e-06
212.09999999992797,2.616511e-06,212.09999999992797,2.907234e-07,212.09999999992797,2.54556e-06,212.09999999992797,4.073587e-06
212.11499999992796,2.600309e-06,212.11499999992796,2.907234e-07,212.11499999992796,2.523327e-06,212.11499999992796,4.108022e-06
212.12999999992795,2.605721e-06,212.12999999992795,2.907234e-07,212.12999999992795,2.478264e-06,212.12999999992795,4.114875e-06
212.14499999992793,2.584006e-06,212.14499999992793,2.373747e-07,212.14499999992793,2.337869e-06,212.14499999992793,4.20294e-06
212.15999999992792,2.449679e-06,212.15999999992792,2.373747e-07,212.15999999992792,2.373747e-06,212.15999999992792,4.282623e-06
212.1749999999279,2.373747e-06,212.1749999999279,2.373747e-07,212.1749999999279,2.307546e-06,212.1749999999279,4.080498e-06
212.1899999999279,2.337869e-06,212.1899999999279,2.373747e-07,212.1899999999279,2.301433e-06,212.1899999999279,4.0632e-06
212.20499999992788,2.373747e-06,212.20499999992788,2.373747e-07,212.20499999992788,2.301433e-06,212.20499999992788,4.125132e-06
212.21999999992786,2.495258e-06,212.21999999992786,2.373747e-07,212.21999999992786,2.313642e-06,212.21999999992786,4.266145e-06
212.23499999992785,2.54002e-06,212.23499999992785,2.373747e-07,212.23499999992785,2.331836e-06,212.23499999992785,4.334932e-06
212.24999999992784,2.523327e-06,212.24999999992784,2.373747e-07,212.24999999992784,2.301433e-06,212.24999999992784,4.125132e-06
212.26499999992782,2.54556e-06,212.26499999992782,2.907234e-07,212.26499999992782,2.426568e-06,212.26499999992782,4.108022e-06
212.2799999999278,2.472574e-06,212.2799999999278,2.907234e-07,212.2799999999278,2.438151e-06,212.2799999999278,4.021382e-06
212.2949999999278,2.523327e-06,212.2949999999278,2.907234e-07,212.2949999999278,2.420756e-06,212.2949999999278,4.070128e-06
212.30999999992778,2.57308e-06,212.30999999992778,2.907234e-07,212.30999999992778,2.551088e-06,212.30999999992778,4.087396e-06
212.32499999992777,2.495258e-06,212.32499999992777,2.907234e-07,212.32499999992777,2.589452e-06,212.32499999992777,4.05626e-06
212.33999999992776,2.54556e-06,212.33999999992776,2.907234e-07,212.33999999992776,2.611121e-06,212.33999999992776,4.031877e-06
212.35499999992774,2.551088e-06,212.35499999992774,2.907234e-07,212.35499999992774,2.621889e-06,212.35499999992774,4.080498e-06
212.36999999992773,2.5676e-06,212.36999999992773,2.907234e-07,212.36999999992773,2.648616e-06,212.36999999992773,3.989731e-06
212.38499999992771,2.589452e-06,212.38499999992771,2.907234e-07,212.38499999992771,2.648616e-06,212.38499999992771,3.96849e-06
212.3999999999277,2.685588e-06,212.3999999999277,2.907234e-07,212.3999999999277,2.701278e-06,212.3999999999277,3.932833e-06
212.4149999999277,2.685588e-06,212.4149999999277,2.907234e-07,212.4149999999277,2.711688e-06,212.4149999999277,3.986198e-06
212.42999999992767,2.675077e-06,212.42999999992767,2.907234e-07,212.42999999992767,2.732388e-06,212.42999999992767,3.932833e-06
212.44499999992766,2.637958e-06,212.44499999992766,2.907234e-07,212.44499999992766,2.945742e-06,212.44499999992766,3.820184e-06
212.45999999992765,2.643292e-06,212.45999999992765,2.907234e-07,212.45999999992765,2.887788e-06,212.45999999992765,3.82387e-06
212.47499999992763,2.517739e-06,212.47499999992763,2.907234e-07,212.47499999992763,2.926552e-06,212.47499999992763,3.692683e-06
212.48999999992762,2.489606e-06,212.48999999992762,2.907234e-07,212.48999999992762,2.926552e-06,212.48999999992762,3.719291e-06
212.5049999999276,2.528904e-06,212.5049999999276,2.907234e-07,212.5049999999276,2.902385e-06,212.5049999999276,3.904074e-06
212.5199999999276,2.534468e-06,212.5199999999276,2.373747e-07,212.5199999999276,2.853437e-06,212.5199999999276,3.8751e-06
212.53499999992758,2.556603e-06,212.53499999992758,2.373747e-07,212.53499999992758,2.853437e-06,212.53499999992758,4.35115e-06
212.54999999992756,2.528904e-06,212.54999999992756,2.373747e-07,212.54999999992756,2.783465e-06,212.54999999992756,4.31539e-06
212.56499999992755,2.562108e-06,212.56499999992755,2.373747e-07,212.56499999992755,2.737538e-06,212.56499999992755,4.31539e-06
212.57999999992754,2.706488e-06,212.57999999992754,2.373747e-07,212.57999999992754,2.727227e-06,212.57999999992754,4.285911e-06
212.59499999992752,2.632612e-06,212.59499999992752,2.373747e-07,212.59499999992752,2.742679e-06,212.59499999992752,4.20629e-06
212.6099999999275,2.659232e-06,212.6099999999275,2.373747e-07,212.6099999999275,2.696058e-06,212.6099999999275,4.145571e-06
212.6249999999275,2.680338e-06,212.6249999999275,2.373747e-07,212.6249999999275,2.783465e-06,212.6249999999275,4.145571e-06
212.63999999992748,2.616511e-06,212.63999999992748,2.373747e-07,212.63999999992748,2.803635e-06,212.63999999992748,4.155752e-06
212.65499999992747,2.495258e-06,212.65499999992747,2.373747e-07,212.65499999992747,2.727227e-06,212.65499999992747,4.17604e-06
212.66999999992746,2.472574e-06,212.66999999992746,2.373747e-07,212.66999999992746,2.732388e-06,212.66999999992746,4.049309e-06
212.68499999992744,2.489606e-06,212.68499999992744,2.373747e-07,212.68499999992744,2.690828e-06,212.68499999992744,4.000309e-06
212.69999999992743,2.528904e-06,212.69999999992743,2.373747e-07,212.69999999992743,2.46687e-06,212.69999999992743,4.070128e-06
212.71499999992741,2.627256e-06,212.71499999992741,2.373747e-07,212.71499999992741,2.438151e-06,212.71499999992741,4.038859e-06
212.7299999999274,2.637958e-06,212.7299999999274,2.373747e-07,212.7299999999274,2.40909e-06,212.7299999999274,4.192873e-06
212.7449999999274,2.600309e-06,212.7449999999274,2.373747e-07,212.7449999999274,2.420756e-06,212.7449999999274,3.957827e-06
212.75999999992737,2.589452e-06,212.75999999992737,2.373747e-07,212.75999999992737,2.449679e-06,212.75999999992737,4.003829e-06
212.77499999992736,2.685588e-06,212.77499999992736,2.373747e-07,212.77499999992736,2.385586e-06,212.77499999992736,3.914884e-06
212.78999999992735,2.701278e-06,212.78999999992735,2.373747e-07,212.78999999992735,2.391484e-06,212.78999999992735,3.860533e-06
212.80499999992733,3.01662e-06,212.80499999992733,2.373747e-07,212.80499999992733,2.472574e-06,212.80499999992733,4.073587e-06
212.81999999992732,3.961384e-06,212.81999999992732,2.373747e-07,212.81999999992732,2.551088e-06,212.81999999992732,4.242968e-06
212.8349999999273,5.046655e-06,212.8349999999273,2.373747e-07,212.8349999999273,2.637958e-06,212.8349999999273,4.575239e-06
212.8499999999273,5.214144e-06,212.8499999999273,2.373747e-07,212.8499999999273,2.680338e-06,212.8499999999273,4.630328e-06
212.86499999992728,5.243778e-06,212.86499999992728,2.373747e-07,212.86499999992728,2.696058e-06,212.86499999992728,4.720713e-06
212.87999999992726,5.265225e-06,212.87999999992726,2.373747e-07,212.87999999992726,2.605721e-06,212.87999999992726,4.925167e-06
212.89499999992725,5.305204e-06,212.89499999992725,2.907234e-07,212.89499999992725,3.24605e-06,212.89499999992725,4.979213e-06
212.90999999992724,5.334332e-06,212.90999999992724,2.907234e-07,212.90999999992724,3.267676e-06,212.90999999992724,5.057808e-06
212.92499999992722,5.415577e-06,212.92499999992722,2.907234e-07,212.92499999992722,3.642754e-06,212.92499999992722,5.159829e-06
212.9399999999272,5.451871e-06,212.9399999999272,2.373747e-07,212.9399999999272,3.842245e-06,212.9399999999272,5.22494e-06
212.9549999999272,5.510979e-06,212.9549999999272,2.907234e-07,212.9549999999272,5.313164e-06,212.9549999999272,5.321112e-06
212.96999999992718,5.559333e-06,212.96999999992718,2.907234e-07,212.96999999992718,1.381268e-05,212.96999999992718,5.339611e-06
212.98499999992717,5.579567e-06,212.98499999992717,2.907234e-07,212.98499999992717,1.473923e-05,212.98499999992717,5.331691e-06
212.99999999992716,5.577042e-06,212.99999999992716,2.907234e-07,212.99999999992716,1.488568e-05,212.99999999992716,5.405162e-06
213.01499999992714,5.627332e-06,213.01499999992714,2.907234e-07,213.01499999992714,1.501383e-05,213.01499999992714,5.379038e-06
213.02999999992713,5.654801e-06,213.02999999992713,2.373747e-07,213.02999999992713,1.592623e-05,213.02999999992713,5.200618e-06
213.04499999992711,5.592176e-06,213.04499999992711,2.373747e-07,213.04499999992711,2.907573e-05,213.04499999992711,5.057808e-06
213.0599999999271,5.518642e-06,213.0599999999271,2.373747e-07,213.0599999999271,3.319768e-05,213.0599999999271,4.956529e-06
213.0749999999271,3.692683e-06,213.0749999999271,2.373747e-07,213.0749999999271,3.408828e-05,213.0749999999271,4.70577e-06
213.08999999992707,3.685046e-06,213.08999999992707,2.373747e-07,213.08999999992707,3.412999e-05,213.08999999992707,4.68176e-06
213.10499999992706,3.390388e-06,213.10499999992706,2.373747e-07,213.10499999992706,3.414319e-05,213.10499999992706,4.538142e-06
213.11999999992705,3.398688e-06,213.11999999992705,2.373747e-07,213.11999999992705,3.663538e-05,213.11999999992705,4.794733e-06
213.13499999992703,3.398688e-06,213.13499999992703,2.373747e-07,213.13499999992703,3.66473e-05,213.13499999992703,4.777073e-06
213.14999999992702,3.335938e-06,213.14999999992702,2.373747e-07,213.14999999992702,3.660615e-05,213.14999999992702,4.624239e-06
213.164999999927,3.28916e-06,213.164999999927,2.373747e-07,213.164999999927,3.676933e-05,213.164999999927,4.538142e-06
213.179999999927,3.108612e-06,213.179999999927,2.373747e-07,213.179999999927,3.837439e-05,213.179999999927,4.572159e-06
213.19499999992698,3.049133e-06,213.19499999992698,2.373747e-07,213.19499999992698,3.836448e-05,213.19499999992698,4.556728e-06
213.20999999992696,2.979029e-06,213.20999999992696,2.373747e-07,213.20999999992696,3.821953e-05,213.20999999992696,4.513241e-06
213.22499999992695,2.945742e-06,213.22499999992695,2.373747e-07,213.22499999992695,3.570063e-05,213.22499999992695,4.472482e-06
213.23999999992694,2.997883e-06,213.23999999992694,2.373747e-07,213.23999999992694,3.566194e-05,213.23999999992694,4.531929e-06
213.25499999992692,2.945742e-06,213.25499999992692,2.373747e-07,213.25499999992692,3.560502e-05,213.25499999992692,4.466178e-06
213.2699999999269,3.536803e-06,213.2699999999269,2.373747e-07,213.2699999999269,3.549525e-05,213.2699999999269,4.472482e-06
213.2849999999269,9.336401e-06,213.2849999999269,2.373747e-07,213.2849999999269,3.135323e-05,213.2849999999269,4.506994e-06
213.29999999992688,9.456335e-06,213.29999999992688,2.907234e-07,213.29999999992688,1.990624e-05,213.29999999992688,4.48192e-06
213.31499999992687,1.132578e-05,213.31499999992687,2.907234e-07,213.31499999992687,1.903591e-05,213.31499999992687,4.412233e-06
213.32999999992686,1.141868e-05,213.32999999992686,2.907234e-07,213.32999999992686,1.806622e-05,213.32999999992686,4.367307e-06
213.34499999992684,1.149124e-05,213.34499999992684,2.907234e-07,213.34499999992684,1.801782e-05,213.34499999992684,4.412233e-06
213.35999999992683,1.172064e-05,213.35999999992683,2.373747e-07,213.35999999992683,1.555121e-05,213.35999999992683,4.81818e-06
213.3749999999268,1.275544e-05,213.3749999999268,2.907234e-07,213.3749999999268,1.219884e-05,213.3749999999268,4.463023e-06
213.3899999999268,1.532952e-05,213.3899999999268,2.907234e-07,213.3899999999268,1.218266e-05,213.3899999999268,4.535037e-06
213.4049999999268,1.698681e-05,213.4049999999268,2.907234e-07,213.4049999999268,1.262333e-05,213.4049999999268,4.569077e-06
213.41999999992677,1.732266e-05,213.41999999992677,2.907234e-07,213.41999999992677,1.14421e-05,213.41999999992677,4.550541e-06
213.43499999992676,1.745632e-05,213.43499999992676,2.907234e-07,213.43499999992676,4.884961e-06,213.43499999992676,4.434525e-06
213.44999999992675,1.818668e-05,213.44999999992675,2.907234e-07,213.44999999992675,4.826943e-06,213.44999999992675,4.68176e-06
213.46499999992673,1.93413e-05,213.46499999992673,2.907234e-07,213.46499999992673,4.69378e-06,213.46499999992673,4.630328e-06
213.47999999992672,1.959096e-05,213.47999999992672,2.907234e-07,213.47999999992672,4.68176e-06,213.47999999992672,4.52882e-06
213.4949999999267,1.976705e-05,213.4949999999267,2.907234e-07,213.4949999999267,4.645514e-06,213.4949999999267,4.522595e-06
213.5099999999267,1.982825e-05,213.5099999999267,2.907234e-07,213.5099999999267,4.612038e-06,213.5099999999267,4.584466e-06
213.52499999992668,1.907804e-05,213.52499999992668,2.907234e-07,213.52499999992668,4.615091e-06,213.52499999992668,4.596741e-06
213.53999999992666,1.77063e-05,213.53999999992666,2.907234e-07,213.53999999992666,4.73561e-06,213.53999999992666,4.68176e-06
213.55499999992665,1.758015e-05,213.55499999992665,2.907234e-07,213.55499999992665,4.744526e-06,213.55499999992665,4.73561e-06
213.56999999992664,1.649797e-05,213.56999999992664,2.907234e-07,213.56999999992664,4.853136e-06,213.56999999992664,4.794733e-06
213.58499999992662,1.649113e-05,213.58499999992662,2.907234e-07,213.58499999992662,4.887844e-06,213.58499999992662,4.794733e-06
213.5999999999266,1.664757e-05,213.5999999999266,2.907234e-07,213.5999999999266,4.82986e-06,213.5999999999266,4.741556e-06
213.6149999999266,1.605309e-05,213.6149999999266,2.907234e-07,213.6149999999266,4.821102e-06,213.6149999999266,4.338181e-06
213.62999999992658,1.525398e-05,213.62999999992658,2.907234e-07,213.62999999992658,4.756387e-06,213.62999999992658,4.15914e-06
213.64499999992657,1.241404e-05,213.64499999992657,2.907234e-07,213.64499999992657,4.478776e-06,213.64499999992657,4.077044e-06
213.65999999992655,1.067526e-05,213.65999999992655,2.907234e-07,213.65999999992655,3.314757e-06,213.65999999992655,4.101159e-06
213.67499999992654,1.066602e-05,213.67499999992654,2.907234e-07,213.67499999992654,3.233005e-06,213.67499999992654,4.01437e-06
213.68999999992653,9.895991e-06,213.68999999992653,2.907234e-07,213.68999999992653,3.344373e-06,213.68999999992653,3.979125e-06
213.7049999999265,8.849969e-06,213.7049999999265,2.907234e-07,213.7049999999265,3.335938e-06,213.7049999999265,3.592131e-06
213.7199999999265,5.915346e-06,213.7199999999265,2.907234e-07,213.7199999999265,3.448066e-06,213.7199999999265,3.540784e-06
213.7349999999265,5.197909e-06,213.7349999999265,2.907234e-07,213.7349999999265,3.4111e-06,213.7349999999265,3.592131e-06
213.74999999992647,4.867628e-06,213.74999999992647,2.373747e-07,213.74999999992647,3.516832e-06,213.74999999992647,3.548731e-06
213.76499999992646,4.928026e-06,213.76499999992646,2.373747e-07,213.76499999992646,3.552699e-06,213.76499999992646,3.484641e-06
213.77999999992645,6.787006e-06,213.77999999992645,2.373747e-07,213.77999999992645,3.564574e-06,213.77999999992645,3.335938e-06
213.79499999992643,7.320229e-06,213.79499999992643,2.373747e-07,213.79499999992643,3.508812e-06,213.79499999992643,3.310505e-06
213.80999999992642,8.370614e-06,213.80999999992642,2.373747e-07,213.80999999992642,3.377901e-06,213.80999999992642,3.085871e-06
213.8249999999264,8.843601e-06,213.8249999999264,2.373747e-07,213.8249999999264,3.184716e-06,213.8249999999264,3.002579e-06
213.8399999999264,9.23781e-06,213.8399999999264,2.373747e-07,213.8399999999264,3.211145e-06,213.8399999999264,3.117661e-06
213.85499999992638,1.303725e-05,213.85499999992638,2.373747e-07,213.85499999992638,3.19355e-06,213.85499999992638,3.030597e-06
213.86999999992636,1.327071e-05,213.86999999992636,2.907234e-07,213.86999999992636,3.228645e-06,213.86999999992636,2.988471e-06
213.88499999992635,1.327071e-05,213.88499999992635,2.907234e-07,213.88499999992635,3.259043e-06,213.88499999992635,2.960054e-06
213.89999999992634,1.327814e-05,213.89999999992634,2.373747e-07,213.89999999992634,3.202359e-06,213.89999999992634,2.988471e-06
213.91499999992632,1.321753e-05,213.91499999992632,2.373747e-07,213.91499999992632,3.175857e-06,213.91499999992632,3.01662e-06
213.9299999999263,1.328556e-05,213.9299999999263,2.373747e-07,213.9299999999263,3.171418e-06,213.9299999999263,3.250386e-06
213.9449999999263,1.343004e-05,213.9449999999263,2.373747e-07,213.9449999999263,3.058359e-06,213.9449999999263,3.211145e-06
213.95999999992628,1.347925e-05,213.95999999992628,2.373747e-07,213.95999999992628,3.099535e-06,213.95999999992628,3.206755e-06
213.97499999992627,1.410333e-05,213.97499999992627,2.373747e-07,213.97499999992627,2.997883e-06,213.97499999992627,3.171418e-06
213.98999999992625,1.436852e-05,213.98999999992625,2.373747e-07,213.98999999992625,3.049133e-06,213.98999999992625,3.259043e-06
214.00499999992624,1.435871e-05,214.00499999992624,2.373747e-07,214.00499999992624,2.912075e-06,214.00499999992624,3.254718e-06
214.01999999992623,1.354596e-05,214.01999999992623,2.373747e-07,214.01999999992623,2.863294e-06,214.01999999992623,3.241707e-06
214.0349999999262,1.349282e-05,214.0349999999262,2.373747e-07,214.0349999999262,2.813666e-06,214.0349999999262,3.224279e-06
214.0499999999262,1.292548e-05,214.0499999999262,2.373747e-07,214.0499999999262,2.611121e-06,214.0499999999262,3.271984e-06
214.0649999999262,1.225644e-05,214.0649999999262,2.373747e-07,214.0649999999262,2.611121e-06,214.0649999999262,3.301983e-06
214.07999999992617,1.173745e-05,214.07999999992617,2.907234e-07,214.07999999992617,2.611121e-06,214.07999999992617,3.206755e-06
214.09499999992616,1.014898e-05,214.09499999992616,2.373747e-07,214.09499999992616,2.594886e-06,214.09499999992616,3.166973e-06
214.10999999992615,6.580461e-06,214.10999999992615,2.373747e-07,214.10999999992615,2.600309e-06,214.10999999992615,3.189136e-06
214.12499999992613,6.455107e-06,214.12499999992613,2.373747e-07,214.12499999992613,2.556603e-06,214.12499999992613,3.219907e-06
214.13999999992612,6.507271e-06,214.13999999992612,2.373747e-07,214.13999999992612,2.523327e-06,214.13999999992612,3.348582e-06
214.1549999999261,6.470365e-06,214.1549999999261,2.373747e-07,214.1549999999261,2.594886e-06,214.1549999999261,3.516832e-06
214.1699999999261,6.393712e-06,214.1699999999261,2.373747e-07,214.1699999999261,2.578549e-06,214.1699999999261,3.528828e-06
214.18499999992608,6.178585e-06,214.18499999992608,2.373747e-07,214.18499999992608,2.758045e-06,214.18499999992608,3.365367e-06
214.19999999992606,5.836232e-06,214.19999999992606,2.373747e-07,214.19999999992606,2.763147e-06,214.19999999992606,3.406967e-06
214.21499999992605,5.704405e-06,214.21499999992605,2.373747e-07,214.21499999992605,2.732388e-06,214.21499999992605,3.423466e-06
214.22999999992604,3.058359e-06,214.22999999992604,2.373747e-07,214.22999999992604,2.716877e-06,214.22999999992604,3.427579e-06
214.24499999992602,2.983753e-06,214.24499999992602,2.373747e-07,214.24499999992602,2.648616e-06,214.24499999992602,3.452149e-06
214.259999999926,2.974296e-06,214.259999999926,2.373747e-07,214.259999999926,2.669806e-06,214.259999999926,3.464369e-06
214.274999999926,2.848496e-06,214.274999999926,2.373747e-07,214.274999999926,2.742679e-06,214.274999999926,3.488681e-06
214.28999999992598,2.853437e-06,214.28999999992598,2.373747e-07,214.28999999992598,2.752932e-06,214.28999999992598,3.448066e-06
214.30499999992597,2.931361e-06,214.30499999992597,2.373747e-07,214.30499999992597,2.912075e-06,214.30499999992597,3.419349e-06
214.31999999992595,2.964809e-06,214.31999999992595,2.373747e-07,214.31999999992595,2.853437e-06,214.31999999992595,3.472492e-06
214.33499999992594,2.988471e-06,214.33499999992594,2.373747e-07,214.33499999992594,2.907234e-06,214.33499999992594,3.568524e-06
214.34999999992593,2.940956e-06,214.34999999992593,2.373747e-07,214.34999999992593,2.988471e-06,214.34999999992593,3.631134e-06
214.3649999999259,2.926552e-06,214.3649999999259,2.373747e-07,214.3649999999259,3.11314e-06,214.3649999999259,3.619477e-06
214.3799999999259,2.808655e-06,214.3799999999259,2.373747e-07,214.3799999999259,3.122176e-06,214.3799999999259,3.59605e-06
214.3949999999259,2.74781e-06,214.3949999999259,2.373747e-07,214.3949999999259,3.099535e-06,214.3949999999259,3.431686e-06
214.40999999992587,2.752932e-06,214.40999999992587,2.373747e-07,214.40999999992587,3.01662e-06,214.40999999992587,3.398688e-06
214.42499999992586,2.778399e-06,214.42499999992586,2.373747e-07,214.42499999992586,3.062961e-06,214.42499999992586,3.390388e-06
214.43999999992585,2.737538e-06,214.43999999992585,2.373747e-07,214.43999999992585,2.768241e-06,214.43999999992585,3.352786e-06
214.45499999992583,2.773325e-06,214.45499999992583,2.373747e-07,214.45499999992583,2.833621e-06,214.45499999992583,3.36955e-06
214.46999999992582,2.768241e-06,214.46999999992582,2.373747e-07,214.46999999992582,2.843547e-06,214.46999999992582,3.373728e-06
214.4849999999258,2.783465e-06,214.4849999999258,2.373747e-07,214.4849999999258,2.863294e-06,214.4849999999258,3.382069e-06
214.4999999999258,2.783465e-06,214.4999999999258,2.373747e-07,214.4999999999258,2.892662e-06,214.4999999999258,3.386231e-06
214.51499999992578,2.742679e-06,214.51499999992578,2.907234e-07,214.51499999992578,2.887788e-06,214.51499999992578,3.472492e-06
214.52999999992576,2.701278e-06,214.52999999992576,2.907234e-07,214.52999999992576,2.882905e-06,214.52999999992576,3.415227e-06
214.54499999992575,2.643292e-06,214.54499999992575,2.907234e-07,214.54499999992575,2.858369e-06,214.54499999992575,3.500774e-06
214.55999999992574,2.578549e-06,214.55999999992574,2.373747e-07,214.55999999992574,2.798606e-06,214.55999999992574,3.427579e-06
214.57499999992572,2.534468e-06,214.57499999992572,2.907234e-07,214.57499999992572,2.868209e-06,214.57499999992572,3.406967e-06
214.5899999999257,2.562108e-06,214.5899999999257,2.907234e-07,214.5899999999257,2.813666e-06,214.5899999999257,3.36955e-06
214.6049999999257,2.5676e-06,214.6049999999257,2.907234e-07,214.6049999999257,2.722057e-06,214.6049999999257,3.331712e-06
214.61999999992568,2.675077e-06,214.61999999992568,2.907234e-07,214.61999999992568,2.632612e-06,214.61999999992568,3.335938e-06
214.63499999992567,2.722057e-06,214.63499999992567,2.907234e-07,214.63499999992567,2.5676e-06,214.63499999992567,3.323245e-06
214.64999999992565,2.727227e-06,214.64999999992565,2.907234e-07,214.64999999992565,2.578549e-06,214.64999999992565,3.344373e-06
214.66499999992564,2.752932e-06,214.66499999992564,2.907234e-07,214.66499999992564,2.551088e-06,214.66499999992564,3.314757e-06
214.67999999992563,2.818668e-06,214.67999999992563,2.907234e-07,214.67999999992563,2.517739e-06,214.67999999992563,3.390388e-06
214.6949999999256,2.873116e-06,214.6949999999256,2.373747e-07,214.6949999999256,2.616511e-06,214.6949999999256,3.394541e-06
214.7099999999256,2.926552e-06,214.7099999999256,2.373747e-07,214.7099999999256,2.5676e-06,214.7099999999256,3.415227e-06
214.7249999999256,2.873116e-06,214.7249999999256,2.373747e-07,214.7249999999256,2.495258e-06,214.7249999999256,3.419349e-06
214.73999999992557,2.828646e-06,214.73999999992557,2.373747e-07,214.73999999992557,2.41493e-06,214.73999999992557,3.386231e-06
214.75499999992556,2.798606e-06,214.75499999992556,2.373747e-07,214.75499999992556,2.506524e-06,214.75499999992556,3.352786e-06
214.76999999992555,2.828646e-06,214.76999999992555,2.373747e-07,214.76999999992555,2.675077e-06,214.76999999992555,3.254718e-06
214.78499999992553,2.887788e-06,214.78499999992553,2.373747e-07,214.78499999992553,2.680338e-06,214.78499999992553,3.310505e-06
214.79999999992552,2.853437e-06,214.79999999992552,2.373747e-07,214.79999999992552,2.858369e-06,214.79999999992552,3.306247e-06
214.8149999999255,2.818668e-06,214.8149999999255,2.373747e-07,214.8149999999255,2.823661e-06,214.8149999999255,3.297714e-06
214.8299999999255,2.833621e-06,214.8299999999255,2.373747e-07,214.8299999999255,2.878015e-06,214.8299999999255,3.280583e-06
214.84499999992548,2.793568e-06,214.84499999992548,2.373747e-07,214.84499999992548,2.823661e-06,214.84499999992548,3.263362e-06
214.85999999992546,2.763147e-06,214.85999999992546,2.373747e-07,214.85999999992546,2.818668e-06,214.85999999992546,3.365367e-06
214.87499999992545,2.605721e-06,214.87499999992545,2.373747e-07,214.87499999992545,2.813666e-06,214.87499999992545,3.323245e-06
214.88999999992544,2.648616e-06,214.88999999992544,2.373747e-07,214.88999999992544,2.808655e-06,214.88999999992544,3.237359e-06
214.90499999992542,2.706488e-06,214.90499999992542,2.373747e-07,214.90499999992542,2.843547e-06,214.90499999992542,3.276286e-06
214.9199999999254,3.504795e-06,214.9199999999254,2.373747e-07,214.9199999999254,2.940956e-06,214.9199999999254,3.386231e-06
214.9349999999254,3.464369e-06,214.9349999999254,2.373747e-07,214.9349999999254,3.01662e-06,214.9349999999254,3.276286e-06
214.94999999992538,3.564574e-06,214.94999999992538,2.373747e-07,214.94999999992538,3.021286e-06,214.94999999992538,3.24605e-06
214.96499999992537,3.57641e-06,214.96499999992537,2.373747e-07,214.96499999992537,3.090432e-06,214.96499999992537,3.263362e-06
214.97999999992535,3.572469e-06,214.97999999992535,2.373747e-07,214.97999999992535,3.175857e-06,214.97999999992535,3.297714e-06
214.99499999992534,3.556662e-06,214.99499999992534,2.373747e-07,214.99499999992534,3.135683e-06,214.99499999992534,3.348582e-06
215.00999999992533,3.540784e-06,215.00999999992533,2.373747e-07,215.00999999992533,3.072146e-06,215.00999999992533,3.394541e-06
215.0249999999253,3.504795e-06,215.0249999999253,2.373747e-07,215.0249999999253,2.955291e-06,215.0249999999253,3.439886e-06
215.0399999999253,3.496747e-06,215.0399999999253,2.373747e-07,215.0399999999253,2.892662e-06,215.0399999999253,3.394541e-06
215.0549999999253,3.512824e-06,215.0549999999253,2.373747e-07,215.0549999999253,2.793568e-06,215.0549999999253,3.356985e-06
215.06999999992527,3.540784e-06,215.06999999992527,2.373747e-07,215.06999999992527,2.690828e-06,215.06999999992527,3.390388e-06
215.08499999992526,3.54476e-06,215.08499999992526,2.373747e-07,215.08499999992526,2.690828e-06,215.08499999992526,3.356985e-06
215.09999999992525,3.552699e-06,215.09999999992525,2.373747e-07,215.09999999992525,2.758045e-06,215.09999999992525,3.314757e-06
215.11499999992523,3.603876e-06,215.11499999992523,2.373747e-07,215.11499999992523,2.768241e-06,215.11499999992523,3.284874e-06
215.12999999992522,3.662038e-06,215.12999999992522,2.373747e-07,215.12999999992522,2.833621e-06,215.12999999992522,3.365367e-06
215.1449999999252,3.665883e-06,215.1449999999252,2.373747e-07,215.1449999999252,2.868209e-06,215.1449999999252,3.427579e-06
215.1599999999252,3.599965e-06,215.1599999999252,2.373747e-07,215.1599999999252,2.823661e-06,215.1599999999252,3.340158e-06
215.17499999992518,2.818668e-06,215.17499999992518,2.373747e-07,215.17499999992518,2.833621e-06,215.17499999992518,3.365367e-06
215.18999999992516,2.742679e-06,215.18999999992516,2.373747e-07,215.18999999992516,2.711688e-06,215.18999999992516,3.398688e-06
215.20499999992515,2.675077e-06,215.20499999992515,2.373747e-07,215.20499999992515,2.768241e-06,215.20499999992515,3.373728e-06
215.21999999992514,2.675077e-06,215.21999999992514,2.373747e-07,215.21999999992514,2.562108e-06,215.21999999992514,3.29344e-06
215.23499999992512,2.74781e-06,215.23499999992512,2.373747e-07,215.23499999992512,2.605721e-06,215.23499999992512,3.24605e-06
215.2499999999251,2.763147e-06,215.2499999999251,2.373747e-07,215.2499999999251,2.616511e-06,215.2499999999251,3.241707e-06
215.2649999999251,2.803635e-06,215.2649999999251,2.373747e-07,215.2649999999251,2.594886e-06,215.2649999999251,3.158065e-06
215.27999999992508,2.813666e-06,215.27999999992508,2.373747e-07,215.27999999992508,2.589452e-06,215.27999999992508,3.144655e-06
215.29499999992507,2.813666e-06,215.29499999992507,2.373747e-07,215.29499999992507,2.57308e-06,215.29499999992507,3.237359e-06
215.30999999992505,2.868209e-06,215.30999999992505,2.373747e-07,215.30999999992505,2.578549e-06,215.30999999992505,3.280583e-06
215.32499999992504,2.882905e-06,215.32499999992504,2.373747e-07,215.32499999992504,2.611121e-06,215.32499999992504,3.301983e-06
215.33999999992503,2.828646e-06,215.33999999992503,2.907234e-07,215.33999999992503,2.659232e-06,215.33999999992503,3.323245e-06
215.354999999925,2.783465e-06,215.354999999925,2.907234e-07,215.354999999925,2.605721e-06,215.354999999925,3.394541e-06
215.369999999925,2.783465e-06,215.369999999925,2.373747e-07,215.369999999925,2.600309e-06,215.369999999925,3.382069e-06
215.384999999925,2.768241e-06,215.384999999925,2.373747e-07,215.384999999925,2.523327e-06,215.384999999925,3.435788e-06
215.39999999992497,2.838588e-06,215.39999999992497,2.373747e-07,215.39999999992497,2.578549e-06,215.39999999992497,3.36955e-06
215.41499999992496,2.853437e-06,215.41499999992496,2.907234e-07,215.41499999992496,2.512137e-06,215.41499999992496,3.423466e-06
215.42999999992495,2.783465e-06,215.42999999992495,2.907234e-07,215.42999999992495,2.506524e-06,215.42999999992495,3.435788e-06
215.44499999992493,2.74781e-06,215.44499999992493,2.907234e-07,215.44499999992493,2.478264e-06,215.44499999992493,3.431686e-06
215.45999999992492,2.737538e-06,215.45999999992492,2.907234e-07,215.45999999992492,2.426568e-06,215.45999999992492,3.480596e-06
215.4749999999249,2.701278e-06,215.4749999999249,2.907234e-07,215.4749999999249,2.461153e-06,215.4749999999249,3.492716e-06
215.4899999999249,2.773325e-06,215.4899999999249,2.907234e-07,215.4899999999249,2.420756e-06,215.4899999999249,3.435788e-06
215.50499999992488,2.793568e-06,215.50499999992488,2.907234e-07,215.50499999992488,2.472574e-06,215.50499999992488,3.398688e-06
215.51999999992486,2.808655e-06,215.51999999992486,2.907234e-07,215.51999999992486,2.449679e-06,215.51999999992486,3.508812e-06
215.53499999992485,2.828646e-06,215.53499999992485,2.907234e-07,215.53499999992485,2.500897e-06,215.53499999992485,3.484641e-06
215.54999999992484,2.823661e-06,215.54999999992484,2.907234e-07,215.54999999992484,2.495258e-06,215.54999999992484,3.398688e-06
215.56499999992482,2.74781e-06,215.56499999992482,2.907234e-07,215.56499999992482,2.495258e-06,215.56499999992482,3.365367e-06
215.5799999999248,2.716877e-06,215.5799999999248,2.907234e-07,215.5799999999248,2.432367e-06,215.5799999999248,3.271984e-06
215.5949999999248,2.752932e-06,215.5949999999248,2.907234e-07,215.5949999999248,2.562108e-06,215.5949999999248,3.228645e-06
215.60999999992478,2.727227e-06,215.60999999992478,2.373747e-07,215.60999999992478,2.523327e-06,215.60999999992478,3.263362e-06
215.62499999992477,2.653929e-06,215.62499999992477,2.373747e-07,215.62499999992477,2.5676e-06,215.62499999992477,3.140172e-06
215.63999999992475,2.637958e-06,215.63999999992475,2.907234e-07,215.63999999992475,2.5676e-06,215.63999999992475,3.135683e-06
215.65499999992474,2.600309e-06,215.65499999992474,2.373747e-07,215.65499999992474,2.556603e-06,215.65499999992474,3.081303e-06
215.66999999992473,2.578549e-06,215.66999999992473,2.373747e-07,215.66999999992473,2.584006e-06,215.66999999992473,3.002579e-06
215.6849999999247,2.616511e-06,215.6849999999247,2.373747e-07,215.6849999999247,2.648616e-06,215.6849999999247,2.960054e-06
215.6999999999247,2.643292e-06,215.6999999999247,2.373747e-07,215.6999999999247,2.773325e-06,215.6999999999247,3.039879e-06
215.7149999999247,2.758045e-06,215.7149999999247,2.907234e-07,215.7149999999247,2.798606e-06,215.7149999999247,3.162522e-06
215.72999999992467,2.742679e-06,215.72999999992467,2.907234e-07,215.72999999992467,2.803635e-06,215.72999999992467,3.297714e-06
215.74499999992466,2.706488e-06,215.74499999992466,2.907234e-07,215.74499999992466,2.887788e-06,215.74499999992466,3.29344e-06
215.75999999992464,2.675077e-06,215.75999999992464,2.907234e-07,215.75999999992464,2.897527e-06,215.75999999992464,3.323245e-06
215.77499999992463,2.643292e-06,215.77499999992463,2.907234e-07,215.77499999992463,2.892662e-06,215.77499999992463,3.171418e-06
215.78999999992462,2.616511e-06,215.78999999992462,2.907234e-07,215.78999999992462,2.902385e-06,215.78999999992462,3.189136e-06
215.8049999999246,2.611121e-06,215.8049999999246,2.907234e-07,215.8049999999246,2.960054e-06,215.8049999999246,3.19355e-06
215.8199999999246,2.727227e-06,215.8199999999246,2.907234e-07,215.8199999999246,2.997883e-06,215.8199999999246,3.250386e-06
215.83499999992458,2.823661e-06,215.83499999992458,2.907234e-07,215.83499999992458,2.892662e-06,215.83499999992458,3.340158e-06
215.84999999992456,2.823661e-06,215.84999999992456,2.907234e-07,215.84999999992456,2.926552e-06,215.84999999992456,3.456227e-06
215.86499999992455,2.788521e-06,215.86499999992455,2.373747e-07,215.86499999992455,2.892662e-06,215.86499999992455,3.492716e-06
215.87999999992454,2.838588e-06,215.87999999992454,2.373747e-07,215.87999999992454,2.882905e-06,215.87999999992454,3.627253e-06
215.89499999992452,2.74781e-06,215.89499999992452,2.373747e-07,215.89499999992452,2.882905e-06,215.89499999992452,3.572469e-06
215.9099999999245,2.716877e-06,215.9099999999245,2.373747e-07,215.9099999999245,2.823661e-06,215.9099999999245,3.635012e-06
215.9249999999245,2.727227e-06,215.9249999999245,2.373747e-07,215.9249999999245,2.848496e-06,215.9249999999245,3.696496e-06
215.93999999992448,2.711688e-06,215.93999999992448,2.373747e-07,215.93999999992448,2.788521e-06,215.93999999992448,3.681221e-06
215.95499999992447,2.621889e-06,215.95499999992447,2.373747e-07,215.95499999992447,2.706488e-06,215.95499999992447,3.572469e-06
215.96999999992445,2.551088e-06,215.96999999992445,2.373747e-07,215.96999999992445,2.732388e-06,215.96999999992445,3.57641e-06
215.98499999992444,2.706488e-06,215.98499999992444,2.373747e-07,215.98499999992444,2.685588e-06,215.98499999992444,3.508812e-06
215.99999999992443,2.722057e-06,215.99999999992443,2.373747e-07,215.99999999992443,2.627256e-06,215.99999999992443,3.500774e-06
216.0149999999244,2.732388e-06,216.0149999999244,2.373747e-07,216.0149999999244,2.605721e-06,216.0149999999244,3.528828e-06
216.0299999999244,2.964809e-06,216.0299999999244,2.373747e-07,216.0299999999244,2.722057e-06,216.0299999999244,3.516832e-06
216.04499999992439,2.969556e-06,216.04499999992439,2.373747e-07,216.04499999992439,2.823661e-06,216.04499999992439,3.599965e-06
216.05999999992437,2.997883e-06,216.05999999992437,2.373747e-07,216.05999999992437,2.823661e-06,216.05999999992437,3.623367e-06
216.07499999992436,2.838588e-06,216.07499999992436,2.373747e-07,216.07499999992436,2.873116e-06,216.07499999992436,3.532818e-06
216.08999999992434,2.863294e-06,216.08999999992434,2.373747e-07,216.08999999992434,2.853437e-06,216.08999999992434,3.504795e-06
216.10499999992433,2.887788e-06,216.10499999992433,2.907234e-07,216.10499999992433,2.788521e-06,216.10499999992433,3.398688e-06
216.11999999992432,2.931361e-06,216.11999999992432,2.907234e-07,216.11999999992432,2.778399e-06,216.11999999992432,3.237359e-06
216.1349999999243,2.979029e-06,216.1349999999243,2.907234e-07,216.1349999999243,2.74781e-06,216.1349999999243,3.267676e-06
216.1499999999243,3.049133e-06,216.1499999999243,2.907234e-07,216.1499999999243,2.701278e-06,216.1499999999243,3.241707e-06
216.16499999992428,3.044509e-06,216.16499999992428,2.907234e-07,216.16499999992428,2.722057e-06,216.16499999992428,3.211145e-06
216.17999999992426,3.067557e-06,216.17999999992426,2.907234e-07,216.17999999992426,2.716877e-06,216.17999999992426,3.171418e-06
216.19499999992425,3.039879e-06,216.19499999992425,2.907234e-07,216.19499999992425,2.737538e-06,216.19499999992425,3.228645e-06
216.20999999992424,3.053749e-06,216.20999999992424,2.907234e-07,216.20999999992424,2.711688e-06,216.20999999992424,3.189136e-06
216.22499999992422,3.025945e-06,216.22499999992422,2.907234e-07,216.22499999992422,2.758045e-06,216.22499999992422,3.233005e-06
216.2399999999242,2.882905e-06,216.2399999999242,2.907234e-07,216.2399999999242,2.783465e-06,216.2399999999242,3.280583e-06
216.2549999999242,2.878015e-06,216.2549999999242,2.907234e-07,216.2549999999242,2.828646e-06,216.2549999999242,3.267676e-06
216.26999999992418,2.783465e-06,216.26999999992418,2.907234e-07,216.26999999992418,2.813666e-06,216.26999999992418,3.250386e-06
216.28499999992417,2.632612e-06,216.28499999992417,2.907234e-07,216.28499999992417,2.722057e-06,216.28499999992417,3.263362e-06
216.29999999992415,2.648616e-06,216.29999999992415,2.907234e-07,216.29999999992415,2.600309e-06,216.29999999992415,3.062961e-06
216.31499999992414,2.616511e-06,216.31499999992414,2.907234e-07,216.31499999992414,2.611121e-06,216.31499999992414,3.053749e-06
216.32999999992413,2.637958e-06,216.32999999992413,2.907234e-07,216.32999999992413,2.5676e-06,216.32999999992413,3.144655e-06
216.3449999999241,2.798606e-06,216.3449999999241,2.907234e-07,216.3449999999241,2.57308e-06,216.3449999999241,3.081303e-06
216.3599999999241,2.833621e-06,216.3599999999241,2.907234e-07,216.3599999999241,2.578549e-06,216.3599999999241,3.144655e-06
216.37499999992409,2.798606e-06,216.37499999992409,2.907234e-07,216.37499999992409,2.578549e-06,216.37499999992409,3.094987e-06
216.38999999992407,2.763147e-06,216.38999999992407,2.907234e-07,216.38999999992407,2.643292e-06,216.38999999992407,3.090432e-06
216.40499999992406,2.685588e-06,216.40499999992406,2.907234e-07,216.40499999992406,2.773325e-06,216.40499999992406,3.122176e-06
216.41999999992404,2.722057e-06,216.41999999992404,2.907234e-07,216.41999999992404,2.742679e-06,216.41999999992404,3.180289e-06
216.43499999992403,2.778399e-06,216.43499999992403,2.907234e-07,216.43499999992403,2.737538e-06,216.43499999992403,3.237359e-06
216.44999999992402,2.798606e-06,216.44999999992402,2.907234e-07,216.44999999992402,2.706488e-06,216.44999999992402,3.259043e-06
216.464999999924,2.803635e-06,216.464999999924,2.907234e-07,216.464999999924,2.798606e-06,216.464999999924,3.197958e-06
216.479999999924,2.887788e-06,216.479999999924,2.907234e-07,216.479999999924,2.732388e-06,216.479999999924,3.039879e-06
216.49499999992398,3.025945e-06,216.49499999992398,2.907234e-07,216.49499999992398,2.742679e-06,216.49499999992398,3.175857e-06
216.50999999992396,3.11314e-06,216.50999999992396,2.907234e-07,216.50999999992396,2.706488e-06,216.50999999992396,3.206755e-06
216.52499999992395,3.126685e-06,216.52499999992395,2.907234e-07,216.52499999992395,2.659232e-06,216.52499999992395,3.233005e-06
216.53999999992394,3.228645e-06,216.53999999992394,2.907234e-07,216.53999999992394,2.701278e-06,216.53999999992394,3.259043e-06
216.55499999992392,3.259043e-06,216.55499999992392,2.907234e-07,216.55499999992392,2.685588e-06,216.55499999992392,3.344373e-06
216.5699999999239,3.280583e-06,216.5699999999239,2.907234e-07,216.5699999999239,2.637958e-06,216.5699999999239,3.669723e-06
216.5849999999239,3.267676e-06,216.5849999999239,2.907234e-07,216.5849999999239,2.659232e-06,216.5849999999239,4.031877e-06
216.59999999992388,3.135683e-06,216.59999999992388,2.907234e-07,216.59999999992388,2.627256e-06,216.59999999992388,4.028382e-06
216.61499999992387,3.206755e-06,216.61499999992387,2.907234e-07,216.61499999992387,2.643292e-06,216.61499999992387,4.049309e-06
216.62999999992385,3.263362e-06,216.62999999992385,2.907234e-07,216.62999999992385,2.637958e-06,216.62999999992385,4.077044e-06
216.64499999992384,3.29344e-06,216.64499999992384,2.907234e-07,216.64499999992384,2.584006e-06,216.64499999992384,4.017877e-06
216.65999999992383,3.310505e-06,216.65999999992383,2.907234e-07,216.65999999992383,2.517739e-06,216.65999999992383,4.010859e-06
216.6749999999238,3.314757e-06,216.6749999999238,2.907234e-07,216.6749999999238,2.534468e-06,216.6749999999238,3.996786e-06
216.6899999999238,3.344373e-06,216.6899999999238,2.907234e-07,216.6899999999238,2.517739e-06,216.6899999999238,3.954266e-06
216.70499999992379,3.340158e-06,216.70499999992379,2.907234e-07,216.70499999992379,2.605721e-06,216.70499999992379,3.922073e-06
216.71999999992377,3.398688e-06,216.71999999992377,2.907234e-07,216.71999999992377,2.54002e-06,216.71999999992377,3.911283e-06
216.73499999992376,3.382069e-06,216.73499999992376,2.907234e-07,216.73499999992376,2.517739e-06,216.73499999992376,3.96849e-06
216.74999999992374,3.306247e-06,216.74999999992374,2.907234e-07,216.74999999992374,2.54556e-06,216.74999999992374,3.954266e-06
216.76499999992373,3.344373e-06,216.76499999992373,2.907234e-07,216.76499999992373,2.627256e-06,216.76499999992373,3.932833e-06
216.77999999992372,3.36955e-06,216.77999999992372,2.907234e-07,216.77999999992372,2.675077e-06,216.77999999992372,3.92925e-06
216.7949999999237,3.237359e-06,216.7949999999237,2.907234e-07,216.7949999999237,2.605721e-06,216.7949999999237,3.900464e-06
216.8099999999237,3.327482e-06,216.8099999999237,2.907234e-07,216.8099999999237,2.648616e-06,216.8099999999237,3.871464e-06
216.82499999992368,3.356985e-06,216.82499999992368,2.907234e-07,216.82499999992368,2.664524e-06,216.82499999992368,3.638885e-06
216.83999999992366,3.331712e-06,216.83999999992366,2.907234e-07,216.83999999992366,2.711688e-06,216.83999999992366,3.19355e-06
216.85499999992365,3.319004e-06,216.85499999992365,2.907234e-07,216.85499999992365,2.711688e-06,216.85499999992365,3.158065e-06
216.86999999992364,3.219907e-06,216.86999999992364,2.907234e-07,216.86999999992364,2.758045e-06,216.86999999992364,3.254718e-06
216.88499999992362,3.166973e-06,216.88499999992362,2.907234e-07,216.88499999992362,2.783465e-06,216.88499999992362,3.241707e-06
216.8999999999236,3.090432e-06,216.8999999999236,2.907234e-07,216.8999999999236,2.727227e-06,216.8999999999236,3.348582e-06
216.9149999999236,3.062961e-06,216.9149999999236,2.907234e-07,216.9149999999236,2.758045e-06,216.9149999999236,3.382069e-06
216.92999999992358,3.117661e-06,216.92999999992358,2.907234e-07,216.92999999992358,2.798606e-06,216.92999999992358,3.419349e-06
216.94499999992357,3.126685e-06,216.94499999992357,2.907234e-07,216.94499999992357,2.742679e-06,216.94499999992357,3.419349e-06
216.95999999992355,3.140172e-06,216.95999999992355,2.373747e-07,216.95999999992355,2.675077e-06,216.95999999992355,3.431686e-06
216.97499999992354,3.062961e-06,216.97499999992354,2.373747e-07,216.97499999992354,2.643292e-06,216.97499999992354,3.584279e-06
216.98999999992353,2.960054e-06,216.98999999992353,2.373747e-07,216.98999999992353,2.659232e-06,216.98999999992353,3.488681e-06
217.0049999999235,2.912075e-06,217.0049999999235,2.907234e-07,217.0049999999235,2.722057e-06,217.0049999999235,3.480596e-06
217.0199999999235,2.887788e-06,217.0199999999235,2.907234e-07,217.0199999999235,2.722057e-06,217.0199999999235,3.480596e-06
217.03499999992349,2.897527e-06,217.03499999992349,2.907234e-07,217.03499999992349,2.716877e-06,217.03499999992349,3.476546e-06
217.04999999992347,2.916909e-06,217.04999999992347,2.373747e-07,217.04999999992347,2.722057e-06,217.04999999992347,3.476546e-06
217.06499999992346,2.863294e-06,217.06499999992346,2.907234e-07,217.06499999992346,2.732388e-06,217.06499999992346,3.386231e-06
217.07999999992344,2.773325e-06,217.07999999992344,2.907234e-07,217.07999999992344,2.701278e-06,217.07999999992344,3.319004e-06
217.09499999992343,2.752932e-06,217.09499999992343,2.907234e-07,217.09499999992343,2.643292e-06,217.09499999992343,3.348582e-06
217.10999999992342,2.823661e-06,217.10999999992342,2.907234e-07,217.10999999992342,2.605721e-06,217.10999999992342,3.373728e-06
217.1249999999234,2.823661e-06,217.1249999999234,2.907234e-07,217.1249999999234,2.556603e-06,217.1249999999234,3.263362e-06
217.1399999999234,2.863294e-06,217.1399999999234,2.907234e-07,217.1399999999234,2.54002e-06,217.1399999999234,3.233005e-06
217.15499999992338,2.921734e-06,217.15499999992338,2.907234e-07,217.15499999992338,2.500897e-06,217.15499999992338,3.135683e-06
217.16999999992336,3.007266e-06,217.16999999992336,2.907234e-07,217.16999999992336,2.472574e-06,217.16999999992336,3.062961e-06
217.18499999992335,3.049133e-06,217.18499999992335,2.907234e-07,217.18499999992335,2.472574e-06,217.18499999992335,2.969556e-06
217.19999999992334,2.993181e-06,217.19999999992334,2.907234e-07,217.19999999992334,2.495258e-06,217.19999999992334,2.926552e-06
217.21499999992332,3.007266e-06,217.21499999992332,2.907234e-07,217.21499999992332,2.506524e-06,217.21499999992332,3.053749e-06
217.2299999999233,2.988471e-06,217.2299999999233,2.907234e-07,217.2299999999233,2.443922e-06,217.2299999999233,2.926552e-06
217.2449999999233,2.955291e-06,217.2449999999233,2.907234e-07,217.2449999999233,2.355876e-06,217.2449999999233,2.936162e-06
217.25999999992328,2.969556e-06,217.25999999992328,2.373747e-07,217.25999999992328,2.233089e-06,217.25999999992328,2.916909e-06
217.27499999992327,2.863294e-06,217.27499999992327,2.373747e-07,217.27499999992327,2.258181e-06,217.27499999992327,2.95052e-06
217.28999999992325,2.912075e-06,217.28999999992325,2.373747e-07,217.28999999992325,2.270622e-06,217.28999999992325,3.030597e-06
217.30499999992324,2.897527e-06,217.30499999992324,2.373747e-07,217.30499999992324,2.251934e-06,217.30499999992324,3.153601e-06
217.31999999992323,2.843547e-06,217.31999999992323,2.373747e-07,217.31999999992323,2.282997e-06,217.31999999992323,3.162522e-06
217.3349999999232,3.067557e-06,217.3349999999232,2.373747e-07,217.3349999999232,2.295304e-06,217.3349999999232,3.180289e-06
217.3499999999232,3.140172e-06,217.3499999999232,2.373747e-07,217.3499999999232,2.385586e-06,217.3499999999232,3.099535e-06
217.36499999992319,3.19355e-06,217.36499999992319,2.907234e-07,217.36499999992319,2.432367e-06,217.36499999992319,3.099535e-06
217.37999999992317,3.202359e-06,217.37999999992317,2.907234e-07,217.37999999992317,2.438151e-06,217.37999999992317,3.081303e-06
217.39499999992316,3.233005e-06,217.39499999992316,2.907234e-07,217.39499999992316,2.455423e-06,217.39499999992316,3.094987e-06
217.40999999992314,3.135683e-06,217.40999999992314,2.373747e-07,217.40999999992314,2.495258e-06,217.40999999992314,3.085871e-06
217.42499999992313,2.940956e-06,217.42499999992313,2.373747e-07,217.42499999992313,2.489606e-06,217.42499999992313,3.237359e-06
217.43999999992312,2.907234e-06,217.43999999992312,2.373747e-07,217.43999999992312,2.46687e-06,217.43999999992312,3.280583e-06
217.4549999999231,2.921734e-06,217.4549999999231,2.373747e-07,217.4549999999231,2.478264e-06,217.4549999999231,3.373728e-06
217.4699999999231,2.863294e-06,217.4699999999231,2.373747e-07,217.4699999999231,2.495258e-06,217.4699999999231,3.271984e-06
217.48499999992308,2.882905e-06,217.48499999992308,2.373747e-07,217.48499999992308,2.54002e-06,217.48499999992308,3.29344e-06
217.49999999992306,2.940956e-06,217.49999999992306,2.373747e-07,217.49999999992306,2.5676e-06,217.49999999992306,3.284874e-06
217.51499999992305,2.983753e-06,217.51499999992305,2.373747e-07,217.51499999992305,2.637958e-06,217.51499999992305,3.228645e-06
217.52999999992304,3.011947e-06,217.52999999992304,2.373747e-07,217.52999999992304,2.621889e-06,217.52999999992304,3.184716e-06
217.54499999992302,3.215529e-06,217.54499999992302,2.373747e-07,217.54499999992302,2.637958e-06,217.54499999992302,3.104077e-06
217.559999999923,3.348582e-06,217.559999999923,2.373747e-07,217.559999999923,2.605721e-06,217.559999999923,3.108612e-06
217.574999999923,3.373728e-06,217.574999999923,2.907234e-07,217.574999999923,2.54002e-06,217.574999999923,3.144655e-06
217.58999999992298,3.197958e-06,217.58999999992298,2.373747e-07,217.58999999992298,2.449679e-06,217.58999999992298,3.149131e-06
217.60499999992297,3.135683e-06,217.60499999992297,2.373747e-07,217.60499999992297,2.403235e-06,217.60499999992297,3.126685e-06
217.61999999992295,3.108612e-06,217.61999999992295,2.373747e-07,217.61999999992295,2.472574e-06,217.61999999992295,3.104077e-06
217.63499999992294,3.044509e-06,217.63499999992294,2.373747e-07,217.63499999992294,2.495258e-06,217.63499999992294,3.189136e-06
217.64999999992293,3.076727e-06,217.64999999992293,2.373747e-07,217.64999999992293,2.489606e-06,217.64999999992293,3.24605e-06
217.6649999999229,3.099535e-06,217.6649999999229,2.373747e-07,217.6649999999229,2.517739e-06,217.6649999999229,3.197958e-06
217.6799999999229,3.464369e-06,217.6799999999229,2.373747e-07,217.6799999999229,2.478264e-06,217.6799999999229,3.067557e-06
217.69499999992289,3.584279e-06,217.69499999992289,2.373747e-07,217.69499999992289,2.500897e-06,217.69499999992289,3.058359e-06
217.70999999992287,3.646619e-06,217.70999999992287,2.373747e-07,217.70999999992287,2.506524e-06,217.70999999992287,3.035241e-06
217.72499999992286,3.726858e-06,217.72499999992286,2.373747e-07,217.72499999992286,2.500897e-06,217.72499999992286,2.955291e-06
217.73999999992284,3.723076e-06,217.73999999992284,2.373747e-07,217.73999999992284,2.483942e-06,217.73999999992284,2.960054e-06
217.75499999992283,3.79057e-06,217.75499999992283,2.373747e-07,217.75499999992283,2.367805e-06,217.75499999992283,2.993181e-06
217.76999999992282,3.856882e-06,217.76999999992282,2.373747e-07,217.76999999992282,2.355876e-06,217.76999999992282,3.049133e-06
217.7849999999228,3.805405e-06,217.7849999999228,2.373747e-07,217.7849999999228,2.420756e-06,217.7849999999228,3.117661e-06
217.7999999999228,3.715501e-06,217.7999999999228,2.373747e-07,217.7999999999228,2.461153e-06,217.7999999999228,3.166973e-06
217.81499999992278,3.552699e-06,217.81499999992278,2.373747e-07,217.81499999992278,2.438151e-06,217.81499999992278,3.117661e-06
217.82999999992276,3.65048e-06,217.82999999992276,2.373747e-07,217.82999999992276,2.46687e-06,217.82999999992276,3.162522e-06
217.84499999992275,3.838577e-06,217.84499999992275,2.373747e-07,217.84499999992275,2.432367e-06,217.84499999992275,3.135683e-06
217.85999999992274,3.896851e-06,217.85999999992274,2.373747e-07,217.85999999992274,2.438151e-06,217.85999999992274,3.323245e-06
217.87499999992272,3.954266e-06,217.87499999992272,2.373747e-07,217.87499999992272,2.325787e-06,217.87499999992272,3.331712e-06
217.8899999999227,4.080498e-06,217.8899999999227,2.373747e-07,217.8899999999227,2.367805e-06,217.8899999999227,3.284874e-06
217.9049999999227,4.690778e-06,217.9049999999227,2.373747e-07,217.9049999999227,2.373747e-06,217.9049999999227,3.24605e-06
217.91999999992268,1.031556e-05,217.91999999992268,2.373747e-07,217.91999999992268,2.41493e-06,217.91999999992268,3.267676e-06
217.93499999992267,1.192084e-05,217.93499999992267,2.373747e-07,217.93499999992267,2.367805e-06,217.93499999992267,3.271984e-06
217.94999999992265,1.658568e-05,217.94999999992265,2.373747e-07,217.94999999992265,2.438151e-06,217.94999999992265,3.254718e-06
217.96499999992264,1.852207e-05,217.96499999992264,2.373747e-07,217.96499999992264,2.391484e-06,217.96499999992264,3.254718e-06
217.97999999992263,1.863278e-05,217.97999999992263,2.373747e-07,217.97999999992263,2.373747e-06,217.97999999992263,3.24605e-06
217.9949999999226,1.903517e-05,217.9949999999226,2.373747e-07,217.9949999999226,2.438151e-06,217.9949999999226,3.254718e-06
218.0099999999226,1.976634e-05,218.0099999999226,2.373747e-07,218.0099999999226,2.472574e-06,218.0099999999226,3.306247e-06
218.02499999992258,1.987224e-05,218.02499999992258,2.373747e-07,218.02499999992258,2.512137e-06,218.02499999992258,3.365367e-06
218.03999999992257,1.994795e-05,218.03999999992257,2.373747e-07,218.03999999992257,2.397367e-06,218.03999999992257,3.40283e-06
218.05499999992256,2.028825e-05,218.05499999992256,2.373747e-07,218.05499999992256,2.361848e-06,218.05499999992256,3.301983e-06
218.06999999992254,2.052364e-05,218.06999999992254,2.373747e-07,218.06999999992254,2.337869e-06,218.06999999992254,3.267676e-06
218.08499999992253,2.219548e-05,218.08499999992253,2.373747e-07,218.08499999992253,2.331836e-06,218.08499999992253,3.297714e-06
218.09999999992252,2.306874e-05,218.09999999992252,2.373747e-07,218.09999999992252,2.325787e-06,218.09999999992252,3.267676e-06
218.1149999999225,2.353603e-05,218.1149999999225,2.373747e-07,218.1149999999225,2.331836e-06,218.1149999999225,3.171418e-06
218.1299999999225,2.387534e-05,218.1299999999225,2.373747e-07,218.1299999999225,2.337869e-06,218.1299999999225,3.206755e-06
218.14499999992248,2.400185e-05,218.14499999992248,2.373747e-07,218.14499999992248,2.313642e-06,218.14499999992248,3.276286e-06
218.15999999992246,2.377956e-05,218.15999999992246,2.373747e-07,218.15999999992246,2.349889e-06,218.15999999992246,3.352786e-06
218.17499999992245,2.137229e-05,218.17499999992245,2.373747e-07,218.17499999992245,2.349889e-06,218.17499999992245,3.361178e-06
218.18999999992243,2.015799e-05,218.18999999992243,2.373747e-07,218.18999999992243,2.420756e-06,218.18999999992243,3.352786e-06
218.20499999992242,1.673028e-05,218.20499999992242,2.373747e-07,218.20499999992242,2.379674e-06,218.20499999992242,3.386231e-06
218.2199999999224,1.523272e-05,218.2199999999224,2.373747e-07,218.2199999999224,2.523327e-06,218.2199999999224,3.456227e-06
218.2349999999224,1.522255e-05,218.2349999999224,2.373747e-07,218.2349999999224,2.528904e-06,218.2349999999224,3.488681e-06
218.24999999992238,1.46904e-05,218.24999999992238,2.373747e-07,218.24999999992238,2.611121e-06,218.24999999992238,3.484641e-06
218.26499999992237,1.471244e-05,218.26499999992237,2.373747e-07,218.26499999992237,2.605721e-06,218.26499999992237,3.431686e-06
218.27999999992235,1.488474e-05,218.27999999992235,2.907234e-07,218.27999999992235,2.611121e-06,218.27999999992235,3.431686e-06
218.29499999992234,1.479646e-05,218.29499999992234,2.907234e-07,218.29499999992234,2.637958e-06,218.29499999992234,3.306247e-06
218.30999999992233,1.462891e-05,218.30999999992233,2.373747e-07,218.30999999992233,2.664524e-06,218.30999999992233,3.452149e-06
218.3249999999223,1.415318e-05,218.3249999999223,2.373747e-07,218.3249999999223,2.773325e-06,218.3249999999223,3.443979e-06
218.3399999999223,1.09347e-05,218.3399999999223,2.907234e-07,218.3399999999223,2.858369e-06,218.3399999999223,3.472492e-06
218.35499999992228,1.015176e-05,218.35499999992228,2.907234e-07,218.35499999992228,2.892662e-06,218.35499999992228,3.435788e-06
218.36999999992227,9.699014e-06,218.36999999992227,2.373747e-07,218.36999999992227,2.868209e-06,218.36999999992227,3.365367e-06
218.38499999992226,9.962669e-06,218.38499999992226,2.907234e-07,218.38499999992226,2.863294e-06,218.38499999992226,3.36955e-06
218.39999999992224,1.008773e-05,218.39999999992224,2.373747e-07,218.39999999992224,2.813666e-06,218.39999999992224,3.415227e-06
218.41499999992223,1.021539e-05,218.41499999992223,2.373747e-07,218.41499999992223,2.727227e-06,218.41499999992223,3.284874e-06
218.42999999992222,1.086881e-05,218.42999999992222,2.907234e-07,218.42999999992222,2.763147e-06,218.42999999992222,3.297714e-06
218.4449999999222,1.200327e-05,218.4449999999222,2.373747e-07,218.4449999999222,2.878015e-06,218.4449999999222,3.356985e-06
218.4599999999222,1.378307e-05,218.4599999999222,2.373747e-07,218.4599999999222,2.863294e-06,218.4599999999222,3.284874e-06
218.47499999992218,1.388693e-05,218.47499999992218,2.373747e-07,218.47499999992218,2.808655e-06,218.47499999992218,3.237359e-06
218.48999999992216,1.491593e-05,218.48999999992216,2.373747e-07,218.48999999992216,2.882905e-06,218.48999999992216,3.259043e-06
218.50499999992215,1.794575e-05,218.50499999992215,2.373747e-07,218.50499999992215,2.828646e-06,218.50499999992215,3.29344e-06
218.51999999992213,1.945314e-05,218.51999999992213,2.907234e-07,218.51999999992213,2.833621e-06,218.51999999992213,3.180289e-06
218.53499999992212,1.959456e-05,218.53499999992212,2.907234e-07,218.53499999992212,2.863294e-06,218.53499999992212,3.184716e-06
218.5499999999221,2.082346e-05,218.5499999999221,2.373747e-07,218.5499999999221,2.882905e-06,218.5499999999221,3.202359e-06
218.5649999999221,2.108897e-05,218.5649999999221,2.373747e-07,218.5649999999221,2.873116e-06,218.5649999999221,3.094987e-06
218.57999999992208,2.096705e-05,218.57999999992208,2.373747e-07,218.57999999992208,2.823661e-06,218.57999999992208,2.983753e-06
218.59499999992207,2.092132e-05,218.59499999992207,2.373747e-07,218.59499999992207,2.833621e-06,218.59499999992207,3.002579e-06
218.60999999992205,2.070881e-05,218.60999999992205,2.907234e-07,218.60999999992205,2.902385e-06,218.60999999992205,3.021286e-06
218.62499999992204,2.035894e-05,218.62499999992204,2.907234e-07,218.62499999992204,2.988471e-06,218.62499999992204,2.997883e-06
218.63999999992203,2.001563e-05,218.63999999992203,2.907234e-07,218.63999999992203,3.01662e-06,218.63999999992203,2.921734e-06
218.654999999922,1.993806e-05,218.654999999922,2.373747e-07,218.654999999922,3.039879e-06,218.654999999922,2.897527e-06
218.669999999922,1.989916e-05,218.669999999922,2.373747e-07,218.669999999922,3.025945e-06,218.669999999922,2.892662e-06
218.68499999992198,1.940456e-05,218.68499999992198,2.907234e-07,218.68499999992198,2.993181e-06,218.68499999992198,2.887788e-06
218.69999999992197,1.831942e-05,218.69999999992197,2.373747e-07,218.69999999992197,2.955291e-06,218.69999999992197,2.868209e-06
218.71499999992196,1.722644e-05,218.71499999992196,2.373747e-07,218.71499999992196,2.979029e-06,218.71499999992196,2.803635e-06
218.72999999992194,1.711322e-05,218.72999999992194,2.373747e-07,218.72999999992194,2.974296e-06,218.72999999992194,2.868209e-06
218.74499999992193,1.506909e-05,218.74499999992193,2.373747e-07,218.74499999992193,2.974296e-06,218.74499999992193,2.783465e-06
218.75999999992192,1.063031e-05,218.75999999992192,2.373747e-07,218.75999999992192,2.936162e-06,218.75999999992192,2.808655e-06
218.7749999999219,9.646586e-06,218.7749999999219,2.373747e-07,218.7749999999219,2.974296e-06,218.7749999999219,2.828646e-06
218.7899999999219,8.517419e-06,218.7899999999219,2.373747e-07,218.7899999999219,3.007266e-06,218.7899999999219,2.902385e-06
218.80499999992188,5.748683e-06,218.80499999992188,2.373747e-07,218.80499999992188,2.969556e-06,218.80499999992188,2.983753e-06
218.81999999992186,3.96849e-06,218.81999999992186,2.373747e-07,218.81999999992186,2.960054e-06,218.81999999992186,3.090432e-06
218.83499999992185,4.070128e-06,218.83499999992185,2.373747e-07,218.83499999992185,2.882905e-06,218.83499999992185,3.117661e-06
218.84999999992183,4.272744e-06,218.84999999992183,2.373747e-07,218.84999999992183,2.833621e-06,218.84999999992183,3.144655e-06
218.86499999992182,4.651575e-06,218.86499999992182,2.373747e-07,218.86499999992182,2.768241e-06,218.86499999992182,3.171418e-06
218.8799999999218,4.541245e-06,218.8799999999218,2.373747e-07,218.8799999999218,2.696058e-06,218.8799999999218,3.233005e-06
218.8949999999218,4.418613e-06,218.8949999999218,2.373747e-07,218.8949999999218,2.808655e-06,218.8949999999218,3.254718e-06
218.90999999992178,4.639445e-06,218.90999999992178,2.907234e-07,218.90999999992178,2.803635e-06,218.90999999992178,3.382069e-06
218.92499999992177,4.672725e-06,218.92499999992177,2.907234e-07,218.92499999992177,2.783465e-06,218.92499999992177,3.382069e-06
218.93999999992175,4.726678e-06,218.93999999992175,2.907234e-07,218.93999999992175,2.763147e-06,218.93999999992175,3.398688e-06
218.95499999992174,4.660651e-06,218.95499999992174,2.907234e-07,218.95499999992174,2.685588e-06,218.95499999992174,3.452149e-06
218.96999999992173,5.176183e-06,218.96999999992173,2.907234e-07,218.96999999992173,2.675077e-06,218.96999999992173,3.443979e-06
218.9849999999217,5.536481e-06,218.9849999999217,2.907234e-07,218.9849999999217,2.594886e-06,218.9849999999217,3.419349e-06
218.9999999999217,5.748683e-06,218.9999999999217,2.907234e-07,218.9999999999217,2.506524e-06,218.9999999999217,3.448066e-06
219.01499999992168,7.350954e-06,219.01499999992168,2.907234e-07,219.01499999992168,2.41493e-06,219.01499999992168,3.431686e-06
219.02999999992167,7.675319e-06,219.02999999992167,2.907234e-07,219.02999999992167,2.426568e-06,219.02999999992167,3.464369e-06
219.04499999992166,7.623756e-06,219.04499999992166,2.907234e-07,219.04499999992166,2.420756e-06,219.04499999992166,3.468433e-06
219.05999999992164,9.246955e-06,219.05999999992164,2.907234e-07,219.05999999992164,2.512137e-06,219.05999999992164,3.415227e-06
219.07499999992163,1.079859e-05,219.07499999992163,2.907234e-07,219.07499999992163,2.616511e-06,219.07499999992163,3.419349e-06
219.08999999992162,1.081944e-05,219.08999999992162,2.907234e-07,219.08999999992162,2.664524e-06,219.08999999992162,3.435788e-06
219.1049999999216,1.048621e-05,219.1049999999216,2.907234e-07,219.1049999999216,2.737538e-06,219.1049999999216,3.361178e-06
219.1199999999216,1.038768e-05,219.1199999999216,2.373747e-07,219.1199999999216,2.732388e-06,219.1199999999216,3.335938e-06
219.13499999992158,1.062235e-05,219.13499999992158,2.907234e-07,219.13499999992158,2.74781e-06,219.13499999992158,3.28916e-06
219.14999999992156,1.096943e-05,219.14999999992156,2.907234e-07,219.14999999992156,2.621889e-06,219.14999999992156,3.297714e-06
219.16499999992155,1.112627e-05,219.16499999992155,2.373747e-07,219.16499999992155,2.627256e-06,219.16499999992155,3.189136e-06
219.17999999992153,1.108441e-05,219.17999999992153,2.373747e-07,219.17999999992153,2.690828e-06,219.17999999992153,3.206755e-06
219.19499999992152,1.111613e-05,219.19499999992152,2.373747e-07,219.19499999992152,2.732388e-06,219.19499999992152,3.233005e-06
219.2099999999215,1.112247e-05,219.2099999999215,2.907234e-07,219.2099999999215,2.732388e-06,219.2099999999215,3.184716e-06
219.2249999999215,1.091794e-05,219.2249999999215,2.907234e-07,219.2249999999215,2.722057e-06,219.2249999999215,3.140172e-06
219.23999999992148,1.077116e-05,219.23999999992148,2.907234e-07,219.23999999992148,2.758045e-06,219.23999999992148,3.140172e-06
219.25499999992147,1.139646e-05,219.25499999992147,2.907234e-07,219.25499999992147,2.74781e-06,219.25499999992147,3.19355e-06
219.26999999992145,1.148756e-05,219.26999999992145,2.907234e-07,219.26999999992145,2.768241e-06,219.26999999992145,3.153601e-06
219.28499999992144,1.27278e-05,219.28499999992144,2.373747e-07,219.28499999992144,2.758045e-06,219.28499999992144,3.062961e-06
219.29999999992143,1.646121e-05,219.29999999992143,2.373747e-07,219.29999999992143,2.833621e-06,219.29999999992143,3.044509e-06
219.3149999999214,1.802251e-05,219.3149999999214,2.373747e-07,219.3149999999214,2.828646e-06,219.3149999999214,3.035241e-06
219.3299999999214,1.803969e-05,219.3299999999214,2.373747e-07,219.3299999999214,2.783465e-06,219.3299999999214,3.011947e-06
219.34499999992138,1.808259e-05,219.34499999992138,2.373747e-07,219.34499999992138,2.803635e-06,219.34499999992138,3.025945e-06
219.35999999992137,1.907804e-05,219.35999999992137,2.373747e-07,219.35999999992137,2.803635e-06,219.35999999992137,3.062961e-06
219.37499999992136,2.015519e-05,219.37499999992136,2.373747e-07,219.37499999992136,2.783465e-06,219.37499999992136,3.067557e-06
219.38999999992134,2.064341e-05,219.38999999992134,2.373747e-07,219.38999999992134,2.763147e-06,219.38999999992134,3.072146e-06
219.40499999992133,2.069589e-05,219.40499999992133,2.373747e-07,219.40499999992133,2.808655e-06,219.40499999992133,3.099535e-06
219.41999999992132,2.068363e-05,219.41999999992132,2.373747e-07,219.41999999992132,2.853437e-06,219.41999999992132,3.062961e-06
219.4349999999213,2.071494e-05,219.4349999999213,2.373747e-07,219.4349999999213,2.863294e-06,219.4349999999213,2.983753e-06
219.4499999999213,2.072649e-05,219.4499999999213,2.373747e-07,219.4499999999213,2.892662e-06,219.4499999999213,3.021286e-06
219.46499999992128,2.073397e-05,219.46499999992128,2.373747e-07,219.46499999992128,2.868209e-06,219.46499999992128,3.171418e-06
219.47999999992126,2.069452e-05,219.47999999992126,2.373747e-07,219.47999999992126,2.878015e-06,219.47999999992126,3.202359e-06
219.49499999992125,2.06359e-05,219.49499999992125,2.373747e-07,219.49499999992125,2.858369e-06,219.49499999992125,3.197958e-06
219.50999999992123,1.944155e-05,219.50999999992123,2.373747e-07,219.50999999992123,2.873116e-06,219.50999999992123,3.206755e-06
219.52499999992122,1.889628e-05,219.52499999992122,2.373747e-07,219.52499999992122,2.848496e-06,219.52499999992122,3.452149e-06
219.5399999999212,1.779598e-05,219.5399999999212,2.373747e-07,219.5399999999212,2.758045e-06,219.5399999999212,3.520835e-06
219.5549999999212,1.470957e-05,219.5549999999212,2.373747e-07,219.5549999999212,2.763147e-06,219.5549999999212,3.512824e-06
219.56999999992118,1.090633e-05,219.56999999992118,2.907234e-07,219.56999999992118,2.680338e-06,219.56999999992118,3.528828e-06
219.58499999992117,9.921579e-06,219.58499999992117,2.907234e-07,219.58499999992117,2.690828e-06,219.58499999992117,3.516832e-06
219.59999999992115,1.000218e-05,219.59999999992115,2.907234e-07,219.59999999992115,2.556603e-06,219.59999999992115,3.468433e-06
219.61499999992114,8.528988e-06,219.61499999992114,2.907234e-07,219.61499999992114,2.57308e-06,219.61499999992114,3.548731e-06
219.62999999992113,6.541815e-06,219.62999999992113,2.907234e-07,219.62999999992113,2.584006e-06,219.62999999992113,3.532818e-06
219.6449999999211,5.490492e-06,219.6449999999211,2.907234e-07,219.6449999999211,2.637958e-06,219.6449999999211,3.552699e-06
219.6599999999211,4.777073e-06,219.6599999999211,2.907234e-07,219.6599999999211,2.605721e-06,219.6599999999211,3.552699e-06
219.67499999992108,4.873412e-06,219.67499999992108,2.907234e-07,219.67499999992108,2.461153e-06,219.67499999992108,3.59605e-06
219.68999999992107,4.83569e-06,219.68999999992107,2.907234e-07,219.68999999992107,2.495258e-06,219.68999999992107,3.584279e-06
219.70499999992106,5.102175e-06,219.70499999992106,2.907234e-07,219.70499999992106,2.438151e-06,219.70499999992106,3.568524e-06
219.71999999992104,5.948592e-06,219.71999999992104,2.907234e-07,219.71999999992104,2.46687e-06,219.71999999992104,3.508812e-06
219.73499999992103,1.015592e-05,219.73499999992103,2.907234e-07,219.73499999992103,2.523327e-06,219.73499999992103,3.536803e-06
219.74999999992102,1.358957e-05,219.74999999992102,2.907234e-07,219.74999999992102,2.455423e-06,219.74999999992102,3.452149e-06
219.764999999921,1.385951e-05,219.764999999921,2.373747e-07,219.764999999921,2.472574e-06,219.764999999921,3.398688e-06
219.779999999921,1.409134e-05,219.779999999921,2.373747e-07,219.779999999921,2.443922e-06,219.779999999921,3.259043e-06
219.79499999992098,1.519198e-05,219.79499999992098,2.373747e-07,219.79499999992098,2.500897e-06,219.79499999992098,3.197958e-06
219.80999999992096,1.580726e-05,219.80999999992096,2.373747e-07,219.80999999992096,2.551088e-06,219.80999999992096,3.166973e-06
219.82499999992095,1.585087e-05,219.82499999992095,2.373747e-07,219.82499999992095,2.605721e-06,219.82499999992095,3.144655e-06
219.83999999992093,1.587928e-05,219.83999999992093,2.373747e-07,219.83999999992093,2.562108e-06,219.83999999992093,3.382069e-06
219.85499999992092,1.582419e-05,219.85499999992092,2.373747e-07,219.85499999992092,2.584006e-06,219.85499999992092,3.382069e-06
219.8699999999209,1.588993e-05,219.8699999999209,2.373747e-07,219.8699999999209,2.578549e-06,219.8699999999209,3.340158e-06
219.8849999999209,1.592358e-05,219.8849999999209,2.373747e-07,219.8849999999209,2.659232e-06,219.8849999999209,3.297714e-06
219.89999999992088,1.593861e-05,219.89999999992088,2.373747e-07,219.89999999992088,2.669806e-06,219.89999999992088,3.373728e-06
219.91499999992087,1.588283e-05,219.91499999992087,2.373747e-07,219.91499999992087,2.732388e-06,219.91499999992087,3.331712e-06
219.92999999992085,1.584643e-05,219.92999999992085,2.373747e-07,219.92999999992085,3.011947e-06,219.92999999992085,3.36955e-06
219.94499999992084,1.585265e-05,219.94499999992084,2.373747e-07,219.94499999992084,2.95052e-06,219.94499999992084,3.472492e-06
219.95999999992083,1.560276e-05,219.95999999992083,2.373747e-07,219.95999999992083,3.039879e-06,219.95999999992083,3.468433e-06
219.9749999999208,1.528719e-05,219.9749999999208,2.373747e-07,219.9749999999208,3.058359e-06,219.9749999999208,3.484641e-06
219.9899999999208,1.173745e-05,219.9899999999208,2.373747e-07,219.9899999999208,3.062961e-06,219.9899999999208,3.484641e-06
220.00499999992078,8.985815e-06,220.00499999992078,2.373747e-07,220.00499999992078,3.062961e-06,220.00499999992078,3.468433e-06
220.01999999992077,9.127357e-06,220.01999999992077,2.373747e-07,220.01999999992077,3.039879e-06,220.01999999992077,3.431686e-06
220.03499999992076,8.219473e-06,220.03499999992076,2.373747e-07,220.03499999992076,3.062961e-06,220.03499999992076,3.390388e-06
220.04999999992074,7.547619e-06,220.04999999992074,2.373747e-07,220.04999999992074,3.039879e-06,220.04999999992074,3.439886e-06
220.06499999992073,7.697311e-06,220.06499999992073,2.373747e-07,220.06499999992073,2.983753e-06,220.06499999992073,3.552699e-06
220.07999999992072,7.660622e-06,220.07999999992072,2.373747e-07,220.07999999992072,3.035241e-06,220.07999999992072,3.423466e-06
220.0949999999207,7.919212e-06,220.0949999999207,2.373747e-07,220.0949999999207,3.076727e-06,220.0949999999207,3.284874e-06
220.1099999999207,8.333508e-06,220.1099999999207,2.373747e-07,220.1099999999207,3.099535e-06,220.1099999999207,3.241707e-06
220.12499999992068,8.260502e-06,220.12499999992068,2.373747e-07,220.12499999992068,3.099535e-06,220.12499999992068,3.276286e-06
220.13999999992066,8.221186e-06,220.13999999992066,2.373747e-07,220.13999999992066,3.067557e-06,220.13999999992066,3.297714e-06
220.15499999992065,8.157542e-06,220.15499999992065,2.373747e-07,220.15499999992065,3.007266e-06,220.15499999992065,3.228645e-06
220.16999999992063,8.519072e-06,220.16999999992063,2.373747e-07,220.16999999992063,2.974296e-06,220.16999999992063,3.373728e-06
220.18499999992062,9.788648e-06,220.18499999992062,2.373747e-07,220.18499999992062,2.858369e-06,220.18499999992062,3.301983e-06
220.1999999999206,1.024843e-05,220.1999999999206,2.373747e-07,220.1999999999206,2.955291e-06,220.1999999999206,3.189136e-06
220.2149999999206,1.84596e-05,220.2149999999206,2.373747e-07,220.2149999999206,2.960054e-06,220.2149999999206,3.206755e-06
220.22999999992058,2.18649e-05,220.22999999992058,2.373747e-07,220.22999999992058,2.979029e-06,220.22999999992058,3.140172e-06
220.24499999992057,2.272855e-05,220.24499999992057,2.373747e-07,220.24499999992057,2.969556e-06,220.24499999992057,3.233005e-06
220.25999999992055,2.293585e-05,220.25999999992055,2.373747e-07,220.25999999992055,3.011947e-06,220.25999999992055,3.241707e-06
220.27499999992054,2.409675e-05,220.27499999992054,2.373747e-07,220.27499999992054,3.067557e-06,220.27499999992054,3.327482e-06
220.28999999992052,2.705759e-05,220.28999999992052,2.373747e-07,220.28999999992052,3.011947e-06,220.28999999992052,3.306247e-06
220.3049999999205,3.113999e-05,220.3049999999205,2.373747e-07,220.3049999999205,2.988471e-06,220.3049999999205,3.301983e-06
220.3199999999205,3.135503e-05,220.3199999999205,2.373747e-07,220.3199999999205,2.964809e-06,220.3199999999205,3.29344e-06
220.33499999992048,3.149489e-05,220.33499999992048,2.373747e-07,220.33499999992048,2.828646e-06,220.33499999992048,3.480596e-06
220.34999999992047,3.213382e-05,220.34999999992047,2.373747e-07,220.34999999992047,2.813666e-06,220.34999999992047,3.448066e-06
220.36499999992046,3.279767e-05,220.36499999992046,2.373747e-07,220.36499999992046,2.803635e-06,220.36499999992046,3.588207e-06
220.37999999992044,3.300575e-05,220.37999999992044,2.373747e-07,220.37999999992044,2.926552e-06,220.37999999992044,3.532818e-06
220.39499999992043,3.309526e-05,220.39499999992043,2.907234e-07,220.39499999992043,2.940956e-06,220.39499999992043,3.540784e-06
220.40999999992042,3.309611e-05,220.40999999992042,2.907234e-07,220.40999999992042,2.931361e-06,220.40999999992042,3.627253e-06
220.4249999999204,3.302538e-05,220.4249999999204,2.907234e-07,220.4249999999204,2.912075e-06,220.4249999999204,3.452149e-06
220.4399999999204,3.251426e-05,220.4399999999204,2.907234e-07,220.4399999999204,2.680338e-06,220.4399999999204,3.480596e-06
220.45499999992037,3.197341e-05,220.45499999992037,2.907234e-07,220.45499999992037,2.643292e-06,220.45499999992037,3.500774e-06
220.46999999992036,2.807551e-05,220.46999999992036,2.907234e-07,220.46999999992036,2.648616e-06,220.46999999992036,3.492716e-06
220.48499999992035,3.244965e-05,220.48499999992035,2.907234e-07,220.48499999992035,2.616511e-06,220.48499999992035,3.508812e-06
220.49999999992033,3.426921e-05,220.49999999992033,2.907234e-07,220.49999999992033,2.616511e-06,220.49999999992033,3.488681e-06
220.51499999992032,4.811567e-05,220.51499999992032,2.907234e-07,220.51499999992032,2.600309e-06,220.51499999992032,3.524834e-06
220.5299999999203,5.436113e-05,220.5299999999203,2.907234e-07,220.5299999999203,2.528904e-06,220.5299999999203,3.572469e-06
220.5449999999203,5.204301e-05,220.5449999999203,2.907234e-07,220.5449999999203,2.562108e-06,220.5449999999203,3.56062e-06
220.55999999992028,5.138381e-05,220.55999999992028,2.907234e-07,220.55999999992028,2.696058e-06,220.55999999992028,3.572469e-06
220.57499999992027,5.338873e-05,220.57499999992027,2.907234e-07,220.57499999992027,2.716877e-06,220.57499999992027,3.607783e-06
220.58999999992025,5.4551e-05,220.58999999992025,2.907234e-07,220.58999999992025,2.742679e-06,220.58999999992025,3.548731e-06
220.60499999992024,5.457166e-05,220.60499999992024,2.907234e-07,220.60499999992024,2.659232e-06,220.60499999992024,3.472492e-06
220.61999999992022,5.433055e-05,220.61999999992022,2.907234e-07,220.61999999992022,2.632612e-06,220.61999999992022,3.415227e-06
220.6349999999202,5.424569e-05,220.6349999999202,2.907234e-07,220.6349999999202,2.584006e-06,220.6349999999202,3.348582e-06
220.6499999999202,5.418698e-05,220.6499999999202,2.907234e-07,220.6499999999202,2.594886e-06,220.6499999999202,3.28916e-06
220.66499999992018,5.420803e-05,220.66499999992018,2.907234e-07,220.66499999992018,2.664524e-06,220.66499999992018,3.29344e-06
220.67999999992017,5.418828e-05,220.67999999992017,2.907234e-07,220.67999999992017,2.669806e-06,220.67999999992017,3.271984e-06
220.69499999992016,5.41862e-05,220.69499999992016,2.907234e-07,220.69499999992016,2.701278e-06,220.69499999992016,3.271984e-06
220.70999999992014,5.41399e-05,220.70999999992014,2.907234e-07,220.70999999992014,2.637958e-06,220.70999999992014,3.259043e-06
220.72499999992013,5.231244e-05,220.72499999992013,2.373747e-07,220.72499999992013,2.600309e-06,220.72499999992013,3.310505e-06
220.73999999992012,4.797582e-05,220.73999999992012,2.373747e-07,220.73999999992012,2.57308e-06,220.73999999992012,3.382069e-06
220.7549999999201,4.431824e-05,220.7549999999201,2.373747e-07,220.7549999999201,2.54556e-06,220.7549999999201,3.448066e-06
220.7699999999201,2.885836e-05,220.7699999999201,2.373747e-07,220.7699999999201,2.605721e-06,220.7699999999201,3.297714e-06
220.78499999992007,1.948859e-05,220.78499999992007,2.373747e-07,220.78499999992007,2.701278e-06,220.78499999992007,3.386231e-06
220.79999999992006,1.935732e-05,220.79999999992006,2.373747e-07,220.79999999992006,2.653929e-06,220.79999999992006,3.419349e-06
220.81499999992005,1.589436e-05,220.81499999992005,2.373747e-07,220.81499999992005,2.5676e-06,220.81499999992005,3.382069e-06
220.82999999992003,1.064619e-05,220.82999999992003,2.373747e-07,220.82999999992003,2.556603e-06,220.82999999992003,3.352786e-06
220.84499999992002,6.936866e-06,220.84499999992002,2.373747e-07,220.84499999992002,2.54556e-06,220.84499999992002,3.348582e-06
220.85999999992,5.751133e-06,220.85999999992,2.373747e-07,220.85999999992,2.534468e-06,220.85999999992,3.472492e-06
220.87499999992,5.412975e-06,220.87499999992,2.373747e-07,220.87499999992,2.5676e-06,220.87499999992,3.57641e-06
220.88999999991998,5.425972e-06,220.88999999991998,2.373747e-07,220.88999999991998,3.076727e-06,220.88999999991998,3.700305e-06
220.90499999991997,5.433755e-06,220.90499999991997,2.373747e-07,220.90499999991997,3.104077e-06,220.90499999991997,4.003829e-06
220.91999999991995,5.924864e-06,220.91999999991995,2.373747e-07,220.91999999991995,3.184716e-06,220.91999999991995,4.017877e-06
220.93499999991994,8.77805e-06,220.93499999991994,2.373747e-07,220.93499999991994,3.834905e-06,220.93499999991994,4.05626e-06
220.94999999991992,1.261105e-05,220.94999999991992,2.373747e-07,220.94999999991992,4.148967e-06,220.94999999991992,4.066665e-06
220.9649999999199,1.490082e-05,220.9649999999199,2.373747e-07,220.9649999999199,4.15914e-06,220.9649999999199,4.142171e-06
220.9799999999199,2.777132e-05,220.9799999999199,2.373747e-07,220.9799999999199,4.17604e-06,220.9799999999199,4.229668e-06
220.99499999991988,3.57956e-05,220.99499999991988,2.373747e-07,220.99499999991988,4.179412e-06,220.99499999991988,4.246287e-06
221.00999999991987,3.981071e-05,221.00999999991987,2.373747e-07,221.00999999991987,4.165909e-06,221.00999999991987,4.216325e-06
221.02499999991986,4.0758e-05,221.02499999991986,2.373747e-07,221.02499999991986,4.325173e-06,221.02499999991986,4.272744e-06
221.03999999991984,5.924199e-05,221.03999999991984,2.373747e-07,221.03999999991984,9.277373e-06,221.03999999991984,4.308857e-06
221.05499999991983,8.440114e-05,221.05499999991983,2.373747e-07,221.05499999991983,2.09872e-05,221.05499999991983,4.269446e-06
221.06999999991982,8.626046e-05,221.06999999991982,2.373747e-07,221.06999999991982,2.534246e-05,221.06999999991982,4.383405e-06
221.0849999999198,8.723414e-05,221.0849999999198,2.373747e-07,221.0849999999198,2.540852e-05,221.0849999999198,4.412233e-06
221.0999999999198,8.792481e-05,221.0999999999198,2.373747e-07,221.0999999999198,2.554233e-05,221.0999999999198,4.444044e-06
221.11499999991977,8.883682e-05,221.11499999991977,2.373747e-07,221.11499999991977,2.561943e-05,221.11499999991977,4.35115e-06
221.12999999991976,8.924278e-05,221.12999999991976,2.907234e-07,221.12999999991976,2.569245e-05,221.12999999991976,4.239647e-06
221.14499999991975,8.933397e-05,221.14499999991975,2.907234e-07,221.14499999991975,2.56469e-05,221.14499999991975,4.145571e-06
221.15999999991973,8.931946e-05,221.15999999991973,2.907234e-07,221.15999999991973,2.568093e-05,221.15999999991973,4.073587e-06
221.17499999991972,8.921625e-05,221.17499999991972,2.373747e-07,221.17499999991972,2.562437e-05,221.17499999991972,4.045829e-06
221.1899999999197,8.86565e-05,221.1899999999197,2.907234e-07,221.1899999999197,2.564306e-05,221.1899999999197,4.142171e-06
221.2049999999197,8.824513e-05,221.2049999999197,2.907234e-07,221.2049999999197,2.569519e-05,221.2049999999197,4.135364e-06
221.21999999991968,8.737065e-05,221.21999999991968,2.907234e-07,221.21999999991968,2.571492e-05,221.21999999991968,4.003829e-06
221.23499999991967,8.380436e-05,221.23499999991967,2.907234e-07,221.23499999991967,2.573792e-05,221.23499999991967,4.083948e-06
221.24999999991965,8.013901e-05,221.24999999991965,2.373747e-07,221.24999999991965,2.579314e-05,221.24999999991965,3.99326e-06
221.26499999991964,7.728778e-05,221.26499999991964,2.907234e-07,221.26499999991964,2.597382e-05,221.26499999991964,4.000309e-06
221.27999999991962,7.636716e-05,221.27999999991962,2.907234e-07,221.27999999991962,2.561667e-05,221.27999999991962,4.000309e-06
221.2949999999196,5.49621e-05,221.2949999999196,2.907234e-07,221.2949999999196,2.475705e-05,221.2949999999196,3.91848e-06
221.3099999999196,1.95665e-05,221.3099999999196,2.907234e-07,221.3099999999196,1.259317e-05,221.3099999999196,3.92925e-06
221.32499999991958,1.737787e-05,221.32499999991958,2.907234e-07,221.32499999991958,8.190286e-06,221.32499999991958,3.8751e-06
221.33999999991957,1.595451e-05,221.33999999991957,2.907234e-07,221.33999999991957,7.92099e-06,221.33999999991957,3.911283e-06
221.35499999991956,1.287087e-05,221.35499999991956,2.907234e-07,221.35499999991956,7.42721e-06,221.35499999991956,3.91848e-06
221.36999999991954,7.485775e-06,221.36999999991954,2.907234e-07,221.36999999991954,7.248678e-06,221.36999999991954,3.989731e-06
221.38499999991953,3.84957e-06,221.38499999991953,2.907234e-07,221.38499999991953,7.131124e-06,221.38499999991953,3.96849e-06
221.39999999991952,2.988471e-06,221.39999999991952,2.907234e-07,221.39999999991952,7.031661e-06,221.39999999991952,3.961384e-06
221.4149999999195,2.788521e-06,221.4149999999195,2.907234e-07,221.4149999999195,7.011599e-06,221.4149999999195,3.914884e-06
221.4299999999195,2.793568e-06,221.4299999999195,2.907234e-07,221.4299999999195,6.947012e-06,221.4299999999195,3.943564e-06
221.44499999991947,2.773325e-06,221.44499999991947,2.373747e-07,221.44499999991947,6.400318e-06,221.44499999991947,3.922073e-06
221.45999999991946,2.818668e-06,221.45999999991946,2.373747e-07,221.45999999991946,6.230803e-06,221.45999999991946,3.957827e-06
221.47499999991945,2.788521e-06,221.47499999991945,2.907234e-07,221.47499999991945,6.239839e-06,221.47499999991945,4.615091e-06
221.48999999991943,2.803635e-06,221.48999999991943,2.907234e-07,221.48999999991943,6.102884e-06,221.48999999991943,4.648545e-06
221.50499999991942,2.838588e-06,221.50499999991942,2.907234e-07,221.50499999991942,5.931993e-06,221.50499999991942,4.642481e-06
221.5199999999194,2.873116e-06,221.5199999999194,2.907234e-07,221.5199999999194,5.121465e-06,221.5199999999194,4.599804e-06
221.5349999999194,2.732388e-06,221.5349999999194,2.373747e-07,221.5349999999194,3.904074e-06,221.5349999999194,4.544346e-06
221.54999999991938,2.808655e-06,221.54999999991938,2.373747e-07,221.54999999991938,2.737538e-06,221.54999999991938,4.69378e-06
221.56499999991937,2.803635e-06,221.56499999991937,2.373747e-07,221.56499999991937,2.716877e-06,221.56499999991937,4.599804e-06
221.57999999991935,2.798606e-06,221.57999999991935,2.373747e-07,221.57999999991935,2.711688e-06,221.57999999991935,4.547444e-06
221.59499999991934,2.783465e-06,221.59499999991934,2.373747e-07,221.59499999991934,2.685588e-06,221.59499999991934,4.472482e-06
221.60999999991932,2.711688e-06,221.60999999991932,2.373747e-07,221.60999999991932,2.685588e-06,221.60999999991932,4.494475e-06
221.6249999999193,2.783465e-06,221.6249999999193,2.373747e-07,221.6249999999193,2.690828e-06,221.6249999999193,4.456705e-06
221.6399999999193,2.916909e-06,221.6399999999193,2.373747e-07,221.6399999999193,2.594886e-06,221.6399999999193,4.434525e-06
221.65499999991928,3.126685e-06,221.65499999991928,2.373747e-07,221.65499999991928,2.605721e-06,221.65499999991928,4.466178e-06
221.66999999991927,3.340158e-06,221.66999999991927,2.907234e-07,221.66999999991927,2.495258e-06,221.66999999991927,4.491339e-06
221.68499999991926,3.297714e-06,221.68499999991926,2.907234e-07,221.68499999991926,2.495258e-06,221.68499999991926,4.431347e-06
221.69999999991924,3.276286e-06,221.69999999991924,2.907234e-07,221.69999999991924,2.512137e-06,221.69999999991924,4.36408e-06
221.71499999991923,3.254718e-06,221.71499999991923,2.907234e-07,221.71499999991923,2.562108e-06,221.71499999991923,4.29248e-06
221.72999999991922,3.386231e-06,221.72999999991922,2.907234e-07,221.72999999991922,2.57308e-06,221.72999999991922,3.681221e-06
221.7449999999192,4.302314e-06,221.7449999999192,2.907234e-07,221.7449999999192,2.584006e-06,221.7449999999192,3.845909e-06
221.7599999999192,4.590608e-06,221.7599999999192,2.907234e-07,221.7599999999192,2.637958e-06,221.7599999999192,3.900464e-06
221.77499999991917,5.001795e-06,221.77499999991917,2.907234e-07,221.77499999991917,2.605721e-06,221.77499999991917,4.259536e-06
221.78999999991916,5.632336e-06,221.78999999991916,2.907234e-07,221.78999999991916,2.727227e-06,221.78999999991916,4.256228e-06
221.80499999991915,6.612493e-06,221.80499999991915,2.907234e-07,221.80499999991915,3.352786e-06,221.80499999991915,4.114875e-06
221.81999999991913,8.843601e-06,221.81999999991913,2.907234e-07,221.81999999991913,3.460301e-06,221.81999999991913,4.145571e-06
221.83499999991912,8.864284e-06,221.83499999991912,2.907234e-07,221.83499999991912,3.556662e-06,221.83499999991912,4.216325e-06
221.8499999999191,8.95126e-06,221.8499999999191,2.907234e-07,221.8499999999191,3.615583e-06,221.8499999999191,4.262842e-06
221.8649999999191,8.960697e-06,221.8649999999191,2.907234e-07,221.8649999999191,3.745709e-06,221.8649999999191,4.20294e-06
221.87999999991908,8.95126e-06,221.87999999991908,2.907234e-07,221.87999999991908,4.066665e-06,221.87999999991908,4.165909e-06
221.89499999991907,8.976404e-06,221.89499999991907,2.907234e-07,221.89499999991907,4.090841e-06,221.89499999991907,4.165909e-06
221.90999999991905,9.309204e-06,221.90999999991905,2.907234e-07,221.90999999991905,4.101159e-06,221.90999999991905,4.165909e-06
221.92499999991904,9.310717e-06,221.92499999991904,2.907234e-07,221.92499999991904,4.142171e-06,221.92499999991904,4.192873e-06
221.93999999991902,9.324323e-06,221.93999999991902,2.907234e-07,221.93999999991902,4.199587e-06,221.93999999991902,4.083948e-06
221.954999999919,9.393561e-06,221.954999999919,2.907234e-07,221.954999999919,4.179412e-06,221.954999999919,4.066665e-06
221.969999999919,9.387561e-06,221.969999999919,2.907234e-07,221.969999999919,4.219664e-06,221.969999999919,4.035369e-06
221.98499999991898,9.133529e-06,221.98499999991898,2.907234e-07,221.98499999991898,4.186148e-06,221.98499999991898,3.878734e-06
221.99999999991897,8.946537e-06,221.99999999991897,2.907234e-07,221.99999999991897,4.189512e-06,221.99999999991897,3.775675e-06
222.01499999991896,8.761987e-06,222.01499999991896,2.907234e-07,222.01499999991896,4.186148e-06,222.01499999991896,3.685046e-06
222.02999999991894,8.568535e-06,222.02999999991894,2.907234e-07,222.02999999991894,4.266145e-06,222.02999999991894,3.552699e-06
222.04499999991893,8.553727e-06,222.04499999991893,2.907234e-07,222.04499999991893,3.961384e-06,222.04499999991893,3.504795e-06
222.05999999991892,6.830453e-06,222.05999999991892,2.907234e-07,222.05999999991892,3.871464e-06,222.05999999991892,3.500774e-06
222.0749999999189,5.355417e-06,222.0749999999189,2.907234e-07,222.0749999999189,3.856882e-06,222.0749999999189,3.500774e-06
222.0899999999189,5.270573e-06,222.0899999999189,2.907234e-07,222.0899999999189,4.035369e-06,222.0899999999189,3.492716e-06
222.10499999991887,5.195198e-06,222.10499999991887,2.907234e-07,222.10499999991887,4.165909e-06,222.10499999991887,3.423466e-06
222.11999999991886,5.157098e-06,222.11999999991886,2.907234e-07,222.11999999991886,4.17604e-06,222.11999999991886,3.423466e-06
222.13499999991885,5.068936e-06,222.13499999991885,2.907234e-07,222.13499999991885,4.596741e-06,222.13499999991885,3.386231e-06
222.14999999991883,5.143422e-06,222.14999999991883,2.907234e-07,222.14999999991883,4.663672e-06,222.14999999991883,3.390388e-06
222.16499999991882,4.338181e-06,222.16499999991882,2.907234e-07,222.16499999991882,4.67875e-06,222.16499999991882,3.306247e-06
222.1799999999188,4.29576e-06,222.1799999999188,2.907234e-07,222.1799999999188,4.639445e-06,222.1799999999188,3.373728e-06
222.1949999999188,4.31539e-06,222.1949999999188,2.907234e-07,222.1949999999188,4.639445e-06,222.1949999999188,3.340158e-06
222.20999999991878,4.469331e-06,222.20999999991878,2.907234e-07,222.20999999991878,4.605925e-06,222.20999999991878,3.301983e-06
222.22499999991877,4.466178e-06,222.22499999991877,2.907234e-07,222.22499999991877,4.581393e-06,222.22499999991877,3.306247e-06
222.23999999991875,4.453544e-06,222.23999999991875,2.907234e-07,222.23999999991875,4.744526e-06,222.23999999991875,3.373728e-06
222.25499999991874,4.494475e-06,222.25499999991874,2.907234e-07,222.25499999991874,4.939447e-06,222.25499999991874,3.259043e-06
222.26999999991872,4.269446e-06,222.26999999991872,2.907234e-07,222.26999999991872,5.08004e-06,222.26999999991872,3.180289e-06
222.2849999999187,4.135364e-06,222.2849999999187,2.907234e-07,222.2849999999187,5.326404e-06,222.2849999999187,3.085871e-06
222.2999999999187,3.468433e-06,222.2999999999187,2.907234e-07,222.2999999999187,5.249148e-06,222.2999999999187,3.171418e-06
222.31499999991868,3.423466e-06,222.31499999991868,2.907234e-07,222.31499999991868,5.162558e-06,222.31499999991868,3.149131e-06
222.32999999991867,3.344373e-06,222.32999999991867,2.907234e-07,222.32999999991867,5.115961e-06,222.32999999991867,3.122176e-06
222.34499999991866,3.323245e-06,222.34499999991866,2.907234e-07,222.34499999991866,4.95937e-06,222.34499999991866,3.180289e-06
222.35999999991864,3.331712e-06,222.35999999991864,2.373747e-07,222.35999999991864,4.800605e-06,222.35999999991864,3.180289e-06
222.37499999991863,3.348582e-06,222.37499999991863,2.907234e-07,222.37499999991863,4.510119e-06,222.37499999991863,3.314757e-06
222.38999999991862,3.297714e-06,222.38999999991862,2.373747e-07,222.38999999991862,4.125132e-06,222.38999999991862,3.259043e-06
222.4049999999186,3.035241e-06,222.4049999999186,2.373747e-07,222.4049999999186,4.024883e-06,222.4049999999186,3.224279e-06
222.4199999999186,3.280583e-06,222.4199999999186,2.373747e-07,222.4199999999186,4.049309e-06,222.4199999999186,3.280583e-06
222.43499999991857,3.356985e-06,222.43499999991857,2.907234e-07,222.43499999991857,4.077044e-06,222.43499999991857,3.373728e-06
222.44999999991856,2.945742e-06,222.44999999991856,2.907234e-07,222.44999999991856,4.070128e-06,222.44999999991856,3.427579e-06
222.46499999991855,3.007266e-06,222.46499999991855,2.907234e-07,222.46499999991855,4.145571e-06,222.46499999991855,3.572469e-06
222.47999999991853,3.035241e-06,222.47999999991853,2.373747e-07,222.47999999991853,3.96849e-06,222.47999999991853,3.536803e-06
222.49499999991852,3.021286e-06,222.49499999991852,2.907234e-07,222.49499999991852,3.900464e-06,222.49499999991852,3.552699e-06
222.5099999999185,3.021286e-06,222.5099999999185,2.373747e-07,222.5099999999185,4.003829e-06,222.5099999999185,3.635012e-06
222.5249999999185,3.035241e-06,222.5249999999185,2.373747e-07,222.5249999999185,3.78313e-06,222.5249999999185,3.685046e-06
222.53999999991848,3.011947e-06,222.53999999991848,2.373747e-07,222.53999999991848,3.340158e-06,222.53999999991848,3.65048e-06
222.55499999991846,2.936162e-06,222.55499999991846,2.373747e-07,222.55499999991846,3.344373e-06,222.55499999991846,3.65048e-06
222.56999999991845,3.007266e-06,222.56999999991845,2.373747e-07,222.56999999991845,3.419349e-06,222.56999999991845,3.619477e-06
222.58499999991844,3.039879e-06,222.58499999991844,2.373747e-07,222.58499999991844,3.556662e-06,222.58499999991844,3.607783e-06
222.59999999991842,3.058359e-06,222.59999999991842,2.373747e-07,222.59999999991842,3.588207e-06,222.59999999991842,3.607783e-06
222.6149999999184,3.053749e-06,222.6149999999184,2.373747e-07,222.6149999999184,3.646619e-06,222.6149999999184,3.603876e-06
222.6299999999184,3.094987e-06,222.6299999999184,2.373747e-07,222.6299999999184,3.54476e-06,222.6299999999184,3.496747e-06
222.64499999991838,3.099535e-06,222.64499999991838,2.373747e-07,222.64499999991838,3.488681e-06,222.64499999991838,3.73441e-06
222.65999999991837,3.126685e-06,222.65999999991837,2.373747e-07,222.65999999991837,3.423466e-06,222.65999999991837,3.775675e-06
222.67499999991836,2.907234e-06,222.67499999991836,2.373747e-07,222.67499999991836,3.677393e-06,222.67499999991836,3.756974e-06
222.68999999991834,2.926552e-06,222.68999999991834,2.373747e-07,222.68999999991834,3.700305e-06,222.68999999991834,3.623367e-06
222.70499999991833,2.838588e-06,222.70499999991833,2.907234e-07,222.70499999991833,3.730636e-06,222.70499999991833,3.584279e-06
222.71999999991831,2.843547e-06,222.71999999991831,2.907234e-07,222.71999999991831,3.603876e-06,222.71999999991831,3.488681e-06
222.7349999999183,3.11314e-06,222.7349999999183,2.907234e-07,222.7349999999183,3.646619e-06,222.7349999999183,3.435788e-06
222.7499999999183,3.135683e-06,222.7499999999183,2.907234e-07,222.7499999999183,3.548731e-06,222.7499999999183,3.448066e-06
222.76499999991827,3.076727e-06,222.76499999991827,2.907234e-07,222.76499999991827,3.297714e-06,222.76499999991827,3.431686e-06
222.77999999991826,3.044509e-06,222.77999999991826,2.907234e-07,222.77999999991826,3.297714e-06,222.77999999991826,3.36955e-06
222.79499999991825,3.11314e-06,222.79499999991825,2.907234e-07,222.79499999991825,3.435788e-06,222.79499999991825,3.448066e-06
222.80999999991823,3.104077e-06,222.80999999991823,2.907234e-07,222.80999999991823,3.448066e-06,222.80999999991823,3.423466e-06
222.82499999991822,3.053749e-06,222.82499999991822,2.907234e-07,222.82499999991822,3.386231e-06,222.82499999991822,3.484641e-06
222.8399999999182,3.049133e-06,222.8399999999182,2.907234e-07,222.8399999999182,3.241707e-06,222.8399999999182,3.431686e-06
222.8549999999182,3.035241e-06,222.8549999999182,2.907234e-07,222.8549999999182,3.237359e-06,222.8549999999182,3.406967e-06
222.86999999991818,3.039879e-06,222.86999999991818,2.907234e-07,222.86999999991818,3.166973e-06,222.86999999991818,3.65048e-06
222.88499999991816,3.044509e-06,222.88499999991816,2.907234e-07,222.88499999991816,3.301983e-06,222.88499999991816,3.642754e-06
222.89999999991815,3.135683e-06,222.89999999991815,2.907234e-07,222.89999999991815,3.323245e-06,222.89999999991815,3.512824e-06
222.91499999991814,3.081303e-06,222.91499999991814,2.907234e-07,222.91499999991814,3.348582e-06,222.91499999991814,3.532818e-06
222.92999999991812,2.969556e-06,222.92999999991812,2.907234e-07,222.92999999991812,3.062961e-06,222.92999999991812,3.556662e-06
222.9449999999181,3.011947e-06,222.9449999999181,2.907234e-07,222.9449999999181,2.997883e-06,222.9449999999181,3.552699e-06
222.9599999999181,3.314757e-06,222.9599999999181,2.907234e-07,222.9599999999181,2.993181e-06,222.9599999999181,3.556662e-06
222.97499999991808,3.504795e-06,222.97499999991808,2.907234e-07,222.97499999991808,3.01662e-06,222.97499999991808,3.56062e-06
222.98999999991807,3.749468e-06,222.98999999991807,2.907234e-07,222.98999999991807,3.29344e-06,222.98999999991807,3.580347e-06
223.00499999991806,3.816494e-06,223.00499999991806,2.907234e-07,223.00499999991806,3.797995e-06,223.00499999991806,3.488681e-06
223.01999999991804,3.950702e-06,223.01999999991804,2.907234e-07,223.01999999991804,3.961384e-06,223.01999999991804,3.520835e-06
223.03499999991803,3.957827e-06,223.03499999991803,2.907234e-07,223.03499999991803,4.059732e-06,223.03499999991803,3.484641e-06
223.04999999991801,3.950702e-06,223.04999999991801,2.907234e-07,223.04999999991801,3.972038e-06,223.04999999991801,3.468433e-06
223.064999999918,3.986198e-06,223.064999999918,2.907234e-07,223.064999999918,4.334932e-06,223.064999999918,3.564574e-06
223.079999999918,4.000309e-06,223.079999999918,2.907234e-07,223.079999999918,4.360851e-06,223.079999999918,3.54476e-06
223.09499999991797,3.979125e-06,223.09499999991797,2.907234e-07,223.09499999991797,4.418613e-06,223.09499999991797,3.65048e-06
223.10999999991796,4.028382e-06,223.10999999991796,2.907234e-07,223.10999999991796,4.440873e-06,223.10999999991796,3.619477e-06
223.12499999991795,4.042345e-06,223.12499999991795,2.907234e-07,223.12499999991795,4.450379e-06,223.12499999991795,3.344373e-06
223.13999999991793,4.003829e-06,223.13999999991793,2.907234e-07,223.13999999991793,4.31539e-06,223.13999999991793,3.327482e-06
223.15499999991792,3.99326e-06,223.15499999991792,2.907234e-07,223.15499999991792,4.331681e-06,223.15499999991792,3.427579e-06
223.1699999999179,4.192873e-06,223.1699999999179,2.907234e-07,223.1699999999179,4.312125e-06,223.1699999999179,3.373728e-06
223.1849999999179,4.212983e-06,223.1849999999179,2.907234e-07,223.1849999999179,4.272744e-06,223.1849999999179,3.394541e-06
223.19999999991788,4.152361e-06,223.19999999991788,2.907234e-07,223.19999999991788,4.47563e-06,223.19999999991788,3.464369e-06
223.21499999991786,3.99326e-06,223.21499999991786,2.907234e-07,223.21499999991786,4.762306e-06,223.21499999991786,3.696496e-06
