X[s],a: EMG RMS 1-1,X[s].1,a: EMG RMS 1-2,X[s].2,a: EMG RMS 1-3,X[s].3,a: EMG RMS 1-4
100.0050000000034,3.014051e-05,100.0050000000034,1.100661e-06,100.0050000000034,4.165909e-06,100.0050000000034,2.177581e-05
100.0200000000034,2.912172e-05,100.0200000000034,1.113386e-06,100.0200000000034,4.35115e-06,100.0200000000034,2.188937e-05
100.03500000000341,2.857729e-05,100.03500000000341,1.113386e-06,100.03500000000341,4.325173e-06,100.03500000000341,2.201258e-05
100.05000000000341,2.813115e-05,100.05000000000341,1.113386e-06,100.05000000000341,4.31539e-06,100.05000000000341,2.20177e-05
100.06500000000341,2.745195e-05,100.06500000000341,1.113386e-06,100.06500000000341,4.302314e-06,100.06500000000341,2.202154e-05
100.08000000000341,2.748118e-05,100.08000000000341,1.113386e-06,100.08000000000341,4.321914e-06,100.08000000000341,2.198761e-05
100.09500000000341,2.7416e-05,100.09500000000341,1.113386e-06,100.09500000000341,4.312125e-06,100.09500000000341,2.19562e-05
100.11000000000341,2.565734e-05,100.11000000000341,1.07476e-06,100.11000000000341,4.29576e-06,100.11000000000341,2.119757e-05
100.12500000000341,1.632372e-05,100.12500000000341,8.721702e-07,100.12500000000341,3.989731e-06,100.12500000000341,1.549495e-05
100.14000000000341,1.457585e-05,100.14000000000341,7.872827e-07,100.14000000000341,3.90768e-06,100.14000000000341,1.228514e-05
100.15500000000341,1.477073e-05,100.15500000000341,7.691818e-07,100.15500000000341,3.925663e-06,100.15500000000341,1.213865e-05
100.17000000000341,1.469712e-05,100.17000000000341,7.506446e-07,100.17000000000341,3.896851e-06,100.17000000000341,1.203375e-05
100.18500000000341,1.494612e-05,100.18500000000341,6.920602e-07,100.18500000000341,3.86418e-06,100.18500000000341,1.194327e-05
100.20000000000341,1.161924e-05,100.20000000000341,5.035477e-07,100.20000000000341,3.464369e-06,100.20000000000341,8.913411e-06
100.21500000000341,1.112247e-05,100.21500000000341,2.907234e-07,100.21500000000341,3.435788e-06,100.21500000000341,6.333946e-06
100.23000000000341,1.034147e-05,100.23000000000341,2.907234e-07,100.23000000000341,3.382069e-06,100.23000000000341,6.2781e-06
100.24500000000342,9.506848e-06,100.24500000000342,2.907234e-07,100.24500000000342,3.496747e-06,100.24500000000342,6.219488e-06
100.26000000000342,8.537242e-06,100.26000000000342,2.373747e-07,100.26000000000342,2.912075e-06,100.26000000000342,5.704405e-06
100.27500000000342,8.517419e-06,100.27500000000342,2.373747e-07,100.27500000000342,2.737538e-06,100.27500000000342,5.307859e-06
100.29000000000342,8.341955e-06,100.29000000000342,2.373747e-07,100.29000000000342,2.732388e-06,100.29000000000342,5.071714e-06
100.30500000000342,8.745896e-06,100.30500000000342,2.373747e-07,100.30500000000342,2.742679e-06,100.30500000000342,5.135199e-06
100.32000000000342,8.81648e-06,100.32000000000342,2.373747e-07,100.32000000000342,2.742679e-06,100.32000000000342,5.154366e-06
100.33500000000342,8.682853e-06,100.33500000000342,2.373747e-07,100.33500000000342,2.716877e-06,100.33500000000342,5.200618e-06
100.35000000000342,8.573465e-06,100.35000000000342,2.373747e-07,100.35000000000342,2.732388e-06,100.35000000000342,5.254512e-06
100.36500000000342,8.528988e-06,100.36500000000342,2.373747e-07,100.36500000000342,2.722057e-06,100.36500000000342,5.336972e-06
100.38000000000342,8.894426e-06,100.38000000000342,2.373747e-07,100.38000000000342,2.783465e-06,100.38000000000342,5.227635e-06
100.39500000000342,9.105725e-06,100.39500000000342,2.373747e-07,100.39500000000342,2.763147e-06,100.39500000000342,5.289249e-06
100.41000000000342,8.37566e-06,100.41000000000342,2.373747e-07,100.41000000000342,2.778399e-06,100.41000000000342,6.05887e-06
100.42500000000342,8.109047e-06,100.42500000000342,2.373747e-07,100.42500000000342,2.732388e-06,100.42500000000342,6.19907e-06
100.44000000000342,7.666136e-06,100.44000000000342,2.373747e-07,100.44000000000342,2.752932e-06,100.44000000000342,6.214957e-06
100.45500000000342,7.901403e-06,100.45500000000342,2.373747e-07,100.45500000000342,2.778399e-06,100.45500000000342,6.219488e-06
100.47000000000342,8.129866e-06,100.47000000000342,2.373747e-07,100.47000000000342,2.768241e-06,100.47000000000342,6.448557e-06
100.48500000000342,8.093397e-06,100.48500000000342,2.373747e-07,100.48500000000342,2.680338e-06,100.48500000000342,7.142966e-06
100.50000000000342,8.400851e-06,100.50000000000342,2.373747e-07,100.50000000000342,2.690828e-06,100.50000000000342,7.217518e-06
100.51500000000343,8.905506e-06,100.51500000000343,2.373747e-07,100.51500000000343,2.701278e-06,100.51500000000343,7.655103e-06
100.53000000000343,9.015552e-06,100.53000000000343,2.373747e-07,100.53000000000343,2.701278e-06,100.53000000000343,7.645896e-06
100.54500000000343,8.89601e-06,100.54500000000343,2.373747e-07,100.54500000000343,2.768241e-06,100.54500000000343,7.775606e-06
100.56000000000343,8.832443e-06,100.56000000000343,2.373747e-07,100.56000000000343,2.788521e-06,100.56000000000343,7.797315e-06
100.57500000000343,8.918151e-06,100.57500000000343,2.373747e-07,100.57500000000343,2.858369e-06,100.57500000000343,7.770169e-06
100.59000000000343,9.133529e-06,100.59000000000343,2.373747e-07,100.59000000000343,2.878015e-06,100.59000000000343,7.896054e-06
100.60500000000343,9.407047e-06,100.60500000000343,2.373747e-07,100.60500000000343,2.912075e-06,100.60500000000343,8.444335e-06
100.62000000000343,9.677204e-06,100.62000000000343,2.373747e-07,100.62000000000343,2.878015e-06,100.62000000000343,8.55208e-06
100.63500000000343,9.309204e-06,100.63500000000343,2.373747e-07,100.63500000000343,2.768241e-06,100.63500000000343,8.870637e-06
100.65000000000343,9.176611e-06,100.65000000000343,2.373747e-07,100.65000000000343,2.732388e-06,100.65000000000343,8.8754e-06
100.66500000000343,9.318279e-06,100.66500000000343,2.373747e-07,100.66500000000343,2.716877e-06,100.66500000000343,8.260502e-06
100.68000000000343,1.005556e-05,100.68000000000343,2.373747e-07,100.68000000000343,2.773325e-06,100.68000000000343,8.373978e-06
100.69500000000343,9.755493e-06,100.69500000000343,2.373747e-07,100.69500000000343,2.778399e-06,100.69500000000343,8.275836e-06
100.71000000000343,9.844612e-06,100.71000000000343,2.373747e-07,100.71000000000343,2.907234e-06,100.71000000000343,8.313199e-06
100.72500000000343,1.011004e-05,100.72500000000343,2.373747e-07,100.72500000000343,2.858369e-06,100.72500000000343,8.000618e-06
100.74000000000343,1.080381e-05,100.74000000000343,2.373747e-07,100.74000000000343,2.997883e-06,100.74000000000343,7.564397e-06
100.75500000000343,1.070294e-05,100.75500000000343,2.373747e-07,100.75500000000343,2.848496e-06,100.75500000000343,7.446153e-06
100.77000000000344,1.094758e-05,100.77000000000344,2.373747e-07,100.77000000000344,2.863294e-06,100.77000000000344,6.942956e-06
100.78500000000344,1.125466e-05,100.78500000000344,2.373747e-07,100.78500000000344,2.892662e-06,100.78500000000344,6.644371e-06
100.80000000000344,1.153406e-05,100.80000000000344,2.373747e-07,100.80000000000344,2.833621e-06,100.80000000000344,6.522406e-06
100.81500000000344,1.18628e-05,100.81500000000344,2.373747e-07,100.81500000000344,2.931361e-06,100.81500000000344,6.726546e-06
100.83000000000344,1.159132e-05,100.83000000000344,2.373747e-07,100.83000000000344,2.887788e-06,100.83000000000344,6.916529e-06
100.84500000000344,1.152184e-05,100.84500000000344,2.373747e-07,100.84500000000344,2.921734e-06,100.84500000000344,6.509435e-06
100.86000000000344,1.133076e-05,100.86000000000344,2.373747e-07,100.86000000000344,2.960054e-06,100.86000000000344,5.941484e-06
100.87500000000344,1.108949e-05,100.87500000000344,2.373747e-07,100.87500000000344,2.983753e-06,100.87500000000344,5.753582e-06
100.89000000000344,1.114145e-05,100.89000000000344,2.373747e-07,100.89000000000344,3.126685e-06,100.89000000000344,5.410373e-06
100.90500000000344,1.154139e-05,100.90500000000344,2.373747e-07,100.90500000000344,3.184716e-06,100.90500000000344,5.299891e-06
100.92000000000344,1.143594e-05,100.92000000000344,2.373747e-07,100.92000000000344,3.224279e-06,100.92000000000344,5.189773e-06
100.93500000000344,1.094243e-05,100.93500000000344,2.373747e-07,100.93500000000344,3.197958e-06,100.93500000000344,5.041069e-06
100.95000000000344,1.086492e-05,100.95000000000344,2.373747e-07,100.95000000000344,3.206755e-06,100.95000000000344,5.08004e-06
100.96500000000344,1.057983e-05,100.96500000000344,2.373747e-07,100.96500000000344,3.108612e-06,100.96500000000344,5.151632e-06
100.98000000000344,1.02388e-05,100.98000000000344,2.373747e-07,100.98000000000344,3.162522e-06,100.98000000000344,5.235713e-06
100.99500000000344,9.908794e-06,100.99500000000344,2.373747e-07,100.99500000000344,3.131187e-06,100.99500000000344,5.154366e-06
101.01000000000344,1.047008e-05,101.01000000000344,2.373747e-07,101.01000000000344,3.162522e-06,101.01000000000344,5.275916e-06
101.02500000000344,1.016147e-05,101.02500000000344,2.373747e-07,101.02500000000344,3.149131e-06,101.02500000000344,5.464775e-06
101.04000000000345,9.652426e-06,101.04000000000345,2.373747e-07,101.04000000000345,3.344373e-06,101.04000000000345,5.554263e-06
101.05500000000345,8.876988e-06,101.05500000000345,2.373747e-07,101.05500000000345,3.310505e-06,101.05500000000345,5.731505e-06
101.07000000000345,9.184283e-06,101.07000000000345,2.373747e-07,101.07000000000345,3.250386e-06,101.07000000000345,5.184341e-06
101.08500000000345,9.191949e-06,101.08500000000345,2.373747e-07,101.08500000000345,3.206755e-06,101.08500000000345,5.032679e-06
101.10000000000345,9.558568e-06,101.10000000000345,2.373747e-07,101.10000000000345,3.352786e-06,101.10000000000345,5.057808e-06
101.11500000000345,1.173985e-05,101.11500000000345,2.373747e-07,101.11500000000345,3.460301e-06,101.11500000000345,5.104936e-06
101.13000000000345,1.171463e-05,101.13000000000345,2.373747e-07,101.13000000000345,3.427579e-06,101.13000000000345,5.027078e-06
101.14500000000345,1.141128e-05,101.14500000000345,2.373747e-07,101.14500000000345,3.386231e-06,101.14500000000345,5.102175e-06
101.16000000000345,1.099509e-05,101.16000000000345,2.373747e-07,101.16000000000345,3.348582e-06,101.16000000000345,5.137942e-06
101.17500000000345,1.076985e-05,101.17500000000345,2.373747e-07,101.17500000000345,3.356985e-06,101.17500000000345,5.143422e-06
101.19000000000345,1.086232e-05,101.19000000000345,2.907234e-07,101.19000000000345,3.92925e-06,101.19000000000345,5.206033e-06
101.20500000000345,1.088046e-05,101.20500000000345,2.907234e-07,101.20500000000345,4.383405e-06,101.20500000000345,5.170737e-06
101.22000000000345,1.105896e-05,101.22000000000345,2.907234e-07,101.22000000000345,4.367307e-06,101.22000000000345,4.765263e-06
101.23500000000345,1.09938e-05,101.23500000000345,2.907234e-07,101.23500000000345,4.328428e-06,101.23500000000345,4.648545e-06
101.25000000000345,1.067526e-05,101.25000000000345,2.907234e-07,101.25000000000345,4.305587e-06,101.25000000000345,4.83569e-06
101.26500000000345,1.006116e-05,101.26500000000345,2.907234e-07,101.26500000000345,4.354386e-06,101.26500000000345,8.781259e-06
101.28000000000345,1.027863e-05,101.28000000000345,2.907234e-07,101.28000000000345,4.35115e-06,101.28000000000345,3.023477e-05
101.29500000000345,1.029916e-05,101.29500000000345,2.907234e-07,101.29500000000345,4.269446e-06,101.29500000000345,5.183146e-05
101.31000000000346,1.066999e-05,101.31000000000346,2.907234e-07,101.31000000000346,4.312125e-06,101.31000000000346,5.907029e-05
101.32500000000346,1.091278e-05,101.32500000000346,2.907234e-07,101.32500000000346,4.325173e-06,101.32500000000346,5.934224e-05
101.34000000000346,1.078162e-05,101.34000000000346,2.907234e-07,101.34000000000346,4.252917e-06,101.34000000000346,6.037629e-05
101.35500000000346,1.044583e-05,101.35500000000346,2.907234e-07,101.35500000000346,4.145571e-06,101.35500000000346,6.254789e-05
101.37000000000346,8.881747e-06,101.37000000000346,2.907234e-07,101.37000000000346,4.101159e-06,101.37000000000346,6.342259e-05
101.38500000000346,9.250001e-06,101.38500000000346,2.907234e-07,101.38500000000346,4.152361e-06,101.38500000000346,6.348453e-05
101.40000000000346,9.188883e-06,101.40000000000346,2.373747e-07,101.40000000000346,4.101159e-06,101.40000000000346,6.350405e-05
101.41500000000346,9.266738e-06,101.41500000000346,2.907234e-07,101.41500000000346,4.135364e-06,101.41500000000346,6.354596e-05
101.43000000000346,1.099893e-05,101.43000000000346,2.907234e-07,101.43000000000346,4.179412e-06,101.43000000000346,6.358518e-05
101.44500000000346,1.124339e-05,101.44500000000346,2.373747e-07,101.44500000000346,3.386231e-06,101.44500000000346,6.359028e-05
101.46000000000346,1.309547e-05,101.46000000000346,2.373747e-07,101.46000000000346,3.126685e-06,101.46000000000346,6.359714e-05
101.47500000000346,1.35522e-05,101.47500000000346,2.373747e-07,101.47500000000346,3.072146e-06,101.47500000000346,6.361819e-05
101.49000000000346,1.678073e-05,101.49000000000346,2.373747e-07,101.49000000000346,3.094987e-06,101.49000000000346,6.360866e-05
101.50500000000346,2.214402e-05,101.50500000000346,2.373747e-07,101.50500000000346,3.090432e-06,101.50500000000346,6.354308e-05
101.52000000000346,2.207329e-05,101.52000000000346,2.373747e-07,101.52000000000346,3.108612e-06,101.52000000000346,6.211783e-05
101.53500000000346,2.290942e-05,101.53500000000346,2.373747e-07,101.53500000000346,3.11314e-06,101.53500000000346,5.352654e-05
101.55000000000346,2.302412e-05,101.55000000000346,2.373747e-07,101.55000000000346,3.01662e-06,101.55000000000346,2.923421e-05
101.56500000000347,2.353783e-05,101.56500000000347,2.373747e-07,101.56500000000347,2.969556e-06,101.56500000000347,2.175186e-05
101.58000000000347,2.507591e-05,101.58000000000347,2.907234e-07,101.58000000000347,2.974296e-06,101.58000000000347,2.062224e-05
101.59500000000347,2.825606e-05,101.59500000000347,2.907234e-07,101.59500000000347,3.011947e-06,101.59500000000347,1.767684e-05
101.61000000000347,3.040852e-05,101.61000000000347,2.907234e-07,101.61000000000347,3.062961e-06,101.61000000000347,9.775687e-06
101.62500000000347,3.254804e-05,101.62500000000347,2.907234e-07,101.62500000000347,3.085871e-06,101.62500000000347,5.768253e-06
101.64000000000347,3.262585e-05,101.64000000000347,2.907234e-07,101.64000000000347,3.011947e-06,101.64000000000347,5.711809e-06
101.65500000000347,3.289717e-05,101.65500000000347,2.907234e-07,101.65500000000347,2.955291e-06,101.65500000000347,5.184341e-06
101.67000000000347,3.413618e-05,101.67000000000347,2.907234e-07,101.67000000000347,2.983753e-06,101.67000000000347,4.905105e-06
101.68500000000347,3.802072e-05,101.68500000000347,2.907234e-07,101.68500000000347,2.931361e-06,101.68500000000347,4.838602e-06
101.70000000000347,3.872483e-05,101.70000000000347,2.907234e-07,101.70000000000347,2.912075e-06,101.70000000000347,4.905105e-06
101.71500000000347,3.888238e-05,101.71500000000347,2.907234e-07,101.71500000000347,3.011947e-06,101.71500000000347,4.759348e-06
101.73000000000347,3.87201e-05,101.73000000000347,2.907234e-07,101.73000000000347,3.025945e-06,101.73000000000347,4.538142e-06
101.74500000000347,3.557691e-05,101.74500000000347,2.907234e-07,101.74500000000347,2.974296e-06,101.74500000000347,4.572159e-06
101.76000000000347,3.553214e-05,101.76000000000347,2.373747e-07,101.76000000000347,2.921734e-06,101.76000000000347,4.593675e-06
101.77500000000347,3.692073e-05,101.77500000000347,2.373747e-07,101.77500000000347,2.940956e-06,101.77500000000347,4.4218e-06
101.79000000000347,4.186451e-05,101.79000000000347,2.373747e-07,101.79000000000347,2.960054e-06,101.79000000000347,4.36408e-06
101.80500000000347,4.449493e-05,101.80500000000347,2.373747e-07,101.80500000000347,3.011947e-06,101.80500000000347,4.282623e-06
101.82000000000347,4.53572e-05,101.82000000000347,2.373747e-07,101.82000000000347,3.035241e-06,101.82000000000347,4.305587e-06
101.83500000000348,4.282064e-05,101.83500000000348,2.373747e-07,101.83500000000348,3.067557e-06,101.83500000000348,4.347911e-06
101.85000000000348,4.287291e-05,101.85000000000348,2.373747e-07,101.85000000000348,3.011947e-06,101.85000000000348,4.386617e-06
101.86500000000348,4.214019e-05,101.86500000000348,2.373747e-07,101.86500000000348,3.049133e-06,101.86500000000348,4.256228e-06
101.88000000000348,4.646757e-05,101.88000000000348,2.373747e-07,101.88000000000348,3.072146e-06,101.88000000000348,4.179412e-06
101.89500000000348,5.297898e-05,101.89500000000348,2.373747e-07,101.89500000000348,3.076727e-06,101.89500000000348,4.182782e-06
101.91000000000348,5.413262e-05,101.91000000000348,2.373747e-07,101.91000000000348,3.131187e-06,101.91000000000348,4.256228e-06
101.92500000000348,5.246517e-05,101.92500000000348,2.373747e-07,101.92500000000348,3.076727e-06,101.92500000000348,4.354386e-06
101.94000000000348,5.249228e-05,101.94000000000348,2.373747e-07,101.94000000000348,3.117661e-06,101.94000000000348,4.550541e-06
101.95500000000348,5.300636e-05,101.95500000000348,2.373747e-07,101.95500000000348,3.215529e-06,101.95500000000348,7.98652e-06
101.97000000000348,5.437383e-05,101.97000000000348,2.373747e-07,101.97000000000348,3.211145e-06,101.97000000000348,1.343947e-05
101.98500000000348,5.679434e-05,101.98500000000348,2.907234e-07,101.98500000000348,3.73818e-06,101.98500000000348,1.571072e-05
102.00000000000348,5.863995e-05,102.00000000000348,2.907234e-07,102.00000000000348,3.827552e-06,102.00000000000348,2.320998e-05
102.01500000000348,6.083487e-05,102.01500000000348,2.373747e-07,102.01500000000348,3.838577e-06,102.01500000000348,2.545394e-05
102.03000000000348,6.007948e-05,102.03000000000348,2.373747e-07,102.03000000000348,3.900464e-06,102.03000000000348,2.562602e-05
102.04500000000348,5.900372e-05,102.04500000000348,2.373747e-07,102.04500000000348,3.885991e-06,102.04500000000348,2.688366e-05
102.06000000000348,5.920845e-05,102.06000000000348,2.373747e-07,102.06000000000348,3.816494e-06,102.06000000000348,2.809106e-05
102.07500000000348,6.060822e-05,102.07500000000348,2.373747e-07,102.07500000000348,3.83123e-06,102.07500000000348,2.885445e-05
102.09000000000349,6.138832e-05,102.09000000000349,2.373747e-07,102.09000000000349,3.820184e-06,102.09000000000349,2.895241e-05
102.10500000000349,6.139612e-05,102.10500000000349,2.373747e-07,102.10500000000349,3.812802e-06,102.10500000000349,2.915894e-05
102.12000000000349,5.929926e-05,102.12000000000349,2.373747e-07,102.12000000000349,3.845909e-06,102.12000000000349,2.932946e-05
102.13500000000349,5.592857e-05,102.13500000000349,2.373747e-07,102.13500000000349,3.79057e-06,102.13500000000349,3.045111e-05
102.15000000000349,5.376628e-05,102.15000000000349,2.373747e-07,102.15000000000349,3.893234e-06,102.15000000000349,3.200644e-05
102.16500000000349,5.268889e-05,102.16500000000349,2.373747e-07,102.16500000000349,4.463023e-06,102.16500000000349,3.229342e-05
102.18000000000349,5.699168e-05,102.18000000000349,2.373747e-07,102.18000000000349,4.491339e-06,102.18000000000349,3.248783e-05
102.19500000000349,5.650863e-05,102.19500000000349,2.373747e-07,102.19500000000349,4.450379e-06,102.19500000000349,3.290701e-05
102.21000000000349,5.604858e-05,102.21000000000349,2.373747e-07,102.21000000000349,4.412233e-06,102.21000000000349,3.118429e-05
102.22500000000349,5.797315e-05,102.22500000000349,2.373747e-07,102.22500000000349,4.236323e-06,102.22500000000349,3.030969e-05
102.24000000000349,5.858876e-05,102.24000000000349,2.373747e-07,102.24000000000349,4.017877e-06,102.24000000000349,2.801222e-05
102.25500000000349,5.769987e-05,102.25500000000349,2.373747e-07,102.25500000000349,4.541245e-06,102.25500000000349,2.255122e-05
102.27000000000349,5.969938e-05,102.27000000000349,2.373747e-07,102.27000000000349,4.581393e-06,102.27000000000349,2.083022e-05
102.28500000000349,6.327738e-05,102.28500000000349,2.373747e-07,102.28500000000349,4.525708e-06,102.28500000000349,2.055656e-05
102.3000000000035,6.129325e-05,102.3000000000035,2.373747e-07,102.3000000000035,4.516361e-06,102.3000000000035,1.929536e-05
102.3150000000035,6.077626e-05,102.3150000000035,2.373747e-07,102.3150000000035,4.615091e-06,102.3150000000035,1.787417e-05
102.3300000000035,6.052263e-05,102.3300000000035,2.373747e-07,102.3300000000035,4.599804e-06,102.3300000000035,1.705467e-05
102.3450000000035,6.160708e-05,102.3450000000035,2.373747e-07,102.3450000000035,4.717728e-06,102.3450000000035,1.68419e-05
102.3600000000035,6.69647e-05,102.3600000000035,2.373747e-07,102.3600000000035,4.800605e-06,102.3600000000035,1.606537e-05
102.3750000000035,6.741524e-05,102.3750000000035,2.373747e-07,102.3750000000035,4.83569e-06,102.3750000000035,1.5793e-05
102.3900000000035,6.723509e-05,102.3900000000035,2.373747e-07,102.3900000000035,4.887844e-06,102.3900000000035,1.300588e-05
102.4050000000035,6.969322e-05,102.4050000000035,2.373747e-07,102.4050000000035,4.815255e-06,102.4050000000035,8.91973e-06
102.4200000000035,6.912537e-05,102.4200000000035,2.373747e-07,102.4200000000035,4.302314e-06,102.4200000000035,8.26732e-06
102.4350000000035,6.94908e-05,102.4350000000035,2.373747e-07,102.4350000000035,4.341427e-06,102.4350000000035,7.483893e-06
102.4500000000035,7.08952e-05,102.4500000000035,2.373747e-07,102.4500000000035,4.36408e-06,102.4500000000035,5.577042e-06
102.4650000000035,7.542671e-05,102.4650000000035,2.373747e-07,102.4650000000035,4.409039e-06,102.4650000000035,4.519479e-06
102.4800000000035,7.229725e-05,102.4800000000035,2.373747e-07,102.4800000000035,4.553636e-06,102.4800000000035,4.547444e-06
102.4950000000035,7.197778e-05,102.4950000000035,2.373747e-07,102.4950000000035,4.550541e-06,102.4950000000035,4.29248e-06
102.5100000000035,7.095399e-05,102.5100000000035,2.373747e-07,102.5100000000035,4.01437e-06,102.5100000000035,4.169289e-06
102.5250000000035,7.111065e-05,102.5250000000035,2.373747e-07,102.5250000000035,4.491339e-06,102.5250000000035,4.209638e-06
102.5400000000035,7.190416e-05,102.5400000000035,2.373747e-07,102.5400000000035,4.478776e-06,102.5400000000035,4.0632e-06
102.5550000000035,7.319747e-05,102.5550000000035,2.373747e-07,102.5550000000035,4.510119e-06,102.5550000000035,4.488202e-06
102.5700000000035,7.831314e-05,102.5700000000035,2.373747e-07,102.5700000000035,4.472482e-06,102.5700000000035,4.639445e-06
102.5850000000035,7.822261e-05,102.5850000000035,2.373747e-07,102.5850000000035,4.418613e-06,102.5850000000035,4.729657e-06
102.6000000000035,7.630257e-05,102.6000000000035,2.373747e-07,102.6000000000035,4.299038e-06,102.6000000000035,4.861837e-06
102.6150000000035,7.397678e-05,102.6150000000035,2.373747e-07,102.6150000000035,1.387881e-05,102.6150000000035,4.726678e-06
102.6300000000035,7.337258e-05,102.6300000000035,2.373747e-07,102.6300000000035,2.026393e-05,102.6300000000035,4.973552e-06
102.6450000000035,7.341903e-05,102.6450000000035,2.373747e-07,102.6450000000035,2.507423e-05,102.6450000000035,4.987693e-06
102.6600000000035,7.732205e-05,102.6600000000035,2.373747e-07,102.6600000000035,2.534246e-05,102.6600000000035,5.143422e-06
102.67500000000351,7.94358e-05,102.67500000000351,2.373747e-07,102.67500000000351,2.541683e-05,102.67500000000351,5.110451e-06
102.69000000000351,7.986097e-05,102.69000000000351,2.373747e-07,102.69000000000351,2.55313e-05,102.69000000000351,5.107694e-06
102.70500000000351,7.887361e-05,102.70500000000351,2.373747e-07,102.70500000000351,4.477455e-05,102.70500000000351,5.12971e-06
102.72000000000351,7.529606e-05,102.72000000000351,2.373747e-07,102.72000000000351,6.009941e-05,102.72000000000351,5.093886e-06
102.73500000000351,7.478282e-05,102.73500000000351,2.373747e-07,102.73500000000351,6.062472e-05,102.73500000000351,5.159829e-06
102.75000000000351,7.668268e-05,102.75000000000351,2.373747e-07,102.75000000000351,6.089042e-05,102.75000000000351,5.140683e-06
102.76500000000351,8.505536e-05,102.76500000000351,2.373747e-07,102.76500000000351,6.089482e-05,102.76500000000351,5.135199e-06
102.78000000000351,8.618025e-05,102.78000000000351,2.373747e-07,102.78000000000351,6.087191e-05,102.78000000000351,5.124215e-06
102.79500000000351,8.74778e-05,102.79500000000351,2.373747e-07,102.79500000000351,6.088695e-05,102.79500000000351,5.107694e-06
102.81000000000351,8.465911e-05,102.81000000000351,2.373747e-07,102.81000000000351,6.108744e-05,102.81000000000351,4.79767e-06
102.82500000000351,8.260707e-05,102.82500000000351,2.373747e-07,102.82500000000351,6.158947e-05,102.82500000000351,4.636408e-06
102.84000000000351,8.226377e-05,102.84000000000351,2.373747e-07,102.84000000000351,6.48285e-05,102.84000000000351,4.453544e-06
102.85500000000351,8.243534e-05,102.85500000000351,2.373747e-07,102.85500000000351,6.499581e-05,102.85500000000351,4.572159e-06
102.87000000000351,8.311911e-05,102.87000000000351,2.373747e-07,102.87000000000351,6.358585e-05,102.87000000000351,5.485359e-06
102.88500000000352,8.536318e-05,102.88500000000352,2.373747e-07,102.88500000000352,6.023216e-05,102.88500000000352,5.912964e-06
102.90000000000352,8.457187e-05,102.90000000000352,2.373747e-07,102.90000000000352,6.020455e-05,102.90000000000352,5.929618e-06
102.91500000000352,7.942249e-05,102.91500000000352,2.373747e-07,102.91500000000352,6.410149e-05,102.91500000000352,5.869926e-06
102.93000000000352,7.866401e-05,102.93000000000352,2.373747e-07,102.93000000000352,7.23179e-05,102.93000000000352,5.821732e-06
102.94500000000352,7.738869e-05,102.94500000000352,2.373747e-07,102.94500000000352,7.364374e-05,102.94500000000352,5.809621e-06
102.96000000000352,7.906501e-05,102.96000000000352,2.907234e-07,102.96000000000352,5.858492e-05,102.96000000000352,5.819312e-06
102.97500000000352,8.194e-05,102.97500000000352,2.907234e-07,102.97500000000352,5.072103e-05,102.97500000000352,5.802342e-06
102.99000000000352,8.427587e-05,102.99000000000352,2.373747e-07,102.99000000000352,5.365665e-05,102.99000000000352,5.751133e-06
103.00500000000352,8.370882e-05,103.00500000000352,2.373747e-07,103.00500000000352,5.769035e-05,103.00500000000352,5.802342e-06
103.02000000000352,7.09087e-05,103.02000000000352,2.907234e-07,103.02000000000352,5.837559e-05,103.02000000000352,5.838645e-06
103.03500000000352,6.980975e-05,103.03500000000352,2.907234e-07,103.03500000000352,5.912846e-05,103.03500000000352,6.210422e-06
103.05000000000352,6.833918e-05,103.05000000000352,2.907234e-07,103.05000000000352,6.06923e-05,103.05000000000352,6.311667e-06
103.06500000000352,6.629046e-05,103.06500000000352,2.907234e-07,103.06500000000352,6.121828e-05,103.06500000000352,6.2781e-06
103.08000000000352,6.900197e-05,103.08000000000352,2.907234e-07,103.08000000000352,6.16121e-05,103.08000000000352,6.266871e-06
103.09500000000352,7.637547e-05,103.09500000000352,2.907234e-07,103.09500000000352,5.866349e-05,103.09500000000352,6.221753e-06
103.11000000000352,7.785328e-05,103.11000000000352,2.907234e-07,103.11000000000352,6.107591e-05,103.11000000000352,6.023894e-06
103.12500000000352,7.654054e-05,103.12500000000352,2.907234e-07,103.12500000000352,6.575578e-05,103.12500000000352,4.69378e-06
103.14000000000352,7.419525e-05,103.14000000000352,2.907234e-07,103.14000000000352,6.923267e-05,103.14000000000352,4.485062e-06
103.15500000000353,7.366516e-05,103.15500000000353,2.907234e-07,103.15500000000353,7.01411e-05,103.15500000000353,4.581393e-06
103.17000000000353,7.269597e-05,103.17000000000353,2.907234e-07,103.17000000000353,6.063657e-05,103.17000000000353,4.732634e-06
103.18500000000353,7.695407e-05,103.18500000000353,2.373747e-07,103.18500000000353,6.570863e-05,103.18500000000353,4.788854e-06
103.20000000000353,7.615844e-05,103.20000000000353,2.373747e-07,103.20000000000353,6.677679e-05,103.20000000000353,4.803539e-06
103.21500000000353,7.357677e-05,103.21500000000353,2.373747e-07,103.21500000000353,7.100023e-05,103.21500000000353,4.785911e-06
103.23000000000353,7.112174e-05,103.23000000000353,2.373747e-07,103.23000000000353,7.153529e-05,103.23000000000353,4.821102e-06
103.24500000000353,6.816746e-05,103.24500000000353,2.373747e-07,103.24500000000353,6.818399e-05,103.24500000000353,4.896482e-06
103.26000000000353,6.652888e-05,103.26000000000353,2.373747e-07,103.26000000000353,6.613516e-05,103.26000000000353,4.821102e-06
103.27500000000353,6.775789e-05,103.27500000000353,2.373747e-07,103.27500000000353,6.532291e-05,103.27500000000353,5.121465e-06
103.29000000000353,6.734876e-05,103.29000000000353,2.373747e-07,103.29000000000353,6.480089e-05,103.29000000000353,4.936594e-06
103.30500000000353,7.228342e-05,103.30500000000353,2.373747e-07,103.30500000000353,6.329808e-05,103.30500000000353,4.785911e-06
103.32000000000353,7.587826e-05,103.32000000000353,2.373747e-07,103.32000000000353,6.205067e-05,103.32000000000353,4.800605e-06
103.33500000000353,7.180123e-05,103.33500000000353,2.373747e-07,103.33500000000353,6.194819e-05,103.33500000000353,4.815255e-06
103.35000000000353,6.541578e-05,103.35000000000353,2.373747e-07,103.35000000000353,6.452794e-05,103.35000000000353,4.884961e-06
103.36500000000353,6.325534e-05,103.36500000000353,2.373747e-07,103.36500000000353,5.817448e-05,103.36500000000353,4.850233e-06
103.38000000000353,6.267411e-05,103.38000000000353,2.373747e-07,103.38000000000353,5.717207e-05,103.38000000000353,4.945147e-06
103.39500000000353,6.324532e-05,103.39500000000353,2.373747e-07,103.39500000000353,5.304355e-05,103.39500000000353,5.096651e-06
103.41000000000354,6.35597e-05,103.41000000000354,2.373747e-07,103.41000000000354,5.00171e-05,103.41000000000354,5.674694e-06
103.42500000000354,6.266759e-05,103.42500000000354,2.373747e-07,103.42500000000354,4.714921e-05,103.42500000000354,5.984008e-06
103.44000000000354,5.540398e-05,103.44000000000354,2.373747e-07,103.44000000000354,4.13124e-05,103.44000000000354,6.005157e-06
103.45500000000354,5.56779e-05,103.45500000000354,2.373747e-07,103.45500000000354,3.96604e-05,103.45500000000354,6.03324e-06
103.47000000000354,5.584665e-05,103.47000000000354,2.373747e-07,103.47000000000354,3.288646e-05,103.47000000000354,6.552573e-06
103.48500000000354,5.516982e-05,103.48500000000354,2.907234e-07,103.48500000000354,3.156325e-05,103.48500000000354,6.745368e-06
103.50000000000354,5.427581e-05,103.50000000000354,2.907234e-07,103.50000000000354,3.087331e-05,103.50000000000354,7.081567e-06
103.51500000000354,5.675216e-05,103.51500000000354,2.907234e-07,103.51500000000354,3.094395e-05,103.51500000000354,7.043671e-06
103.53000000000354,5.874196e-05,103.53000000000354,2.907234e-07,103.53000000000354,3.32439e-05,103.53000000000354,6.799448e-06
103.54500000000354,5.819602e-05,103.54500000000354,2.907234e-07,103.54500000000354,3.480475e-05,103.54500000000354,6.669763e-06
103.56000000000354,4.877718e-05,103.56000000000354,2.373747e-07,103.56000000000354,3.787e-05,103.56000000000354,6.654963e-06
103.57500000000354,4.623051e-05,103.57500000000354,2.373747e-07,103.57500000000354,3.813282e-05,103.57500000000354,6.97938e-06
103.59000000000354,4.449208e-05,103.59000000000354,2.373747e-07,103.59000000000354,3.727727e-05,103.59000000000354,8.053266e-06
103.60500000000354,4.590823e-05,103.60500000000354,2.373747e-07,103.60500000000354,3.245789e-05,103.60500000000354,8.826061e-06
103.62000000000354,4.644816e-05,103.62000000000354,2.373747e-07,103.62000000000354,3.315607e-05,103.62000000000354,8.91025e-06
103.63500000000354,4.645181e-05,103.63500000000354,2.373747e-07,103.63500000000354,3.374187e-05,103.63500000000354,9.085591e-06
103.65000000000354,4.612252e-05,103.65000000000354,2.373747e-07,103.65000000000354,3.447453e-05,103.65000000000354,8.876988e-06
103.66500000000354,4.521255e-05,103.66500000000354,2.373747e-07,103.66500000000354,3.701333e-05,103.66500000000354,8.822869e-06
103.68000000000355,4.392586e-05,103.68000000000355,2.907234e-07,103.68000000000355,3.713833e-05,103.68000000000355,8.724932e-06
103.69500000000355,4.541338e-05,103.69500000000355,2.907234e-07,103.69500000000355,3.416134e-05,103.69500000000355,9.533483e-06
103.71000000000355,4.590915e-05,103.71000000000355,3.356985e-07,103.71000000000355,3.394956e-05,103.71000000000355,9.427989e-06
103.72500000000355,4.58505e-05,103.72500000000355,3.356985e-07,103.72500000000355,3.280927e-05,103.72500000000355,9.20114e-06
103.74000000000355,4.69762e-05,103.74000000000355,3.356985e-07,103.74000000000355,3.287232e-05,103.74000000000355,8.832443e-06
103.75500000000355,4.73894e-05,103.75500000000355,3.356985e-07,103.75500000000355,3.439271e-05,103.75500000000355,8.848378e-06
103.77000000000355,4.497859e-05,103.77000000000355,3.356985e-07,103.77000000000355,4.054906e-05,103.77000000000355,8.857925e-06
103.78500000000355,3.97374e-05,103.78500000000355,3.356985e-07,103.78500000000355,3.825048e-05,103.78500000000355,9.073179e-06
103.80000000000355,4.353545e-05,103.80000000000355,3.356985e-07,103.80000000000355,3.61457e-05,103.80000000000355,9.295575e-06
103.81500000000355,4.282689e-05,103.81500000000355,3.356985e-07,103.81500000000355,3.436239e-05,103.81500000000355,9.359006e-06
103.83000000000355,4.784175e-05,103.83000000000355,3.356985e-07,103.83000000000355,3.417536e-05,103.83000000000355,9.152018e-06
103.84500000000355,4.822096e-05,103.84500000000355,3.356985e-07,103.84500000000355,3.409158e-05,103.84500000000355,7.781039e-06
103.86000000000355,4.835544e-05,103.86000000000355,3.356985e-07,103.86000000000355,3.398564e-05,103.86000000000355,7.432898e-06
103.87500000000355,4.705351e-05,103.87500000000355,3.356985e-07,103.87500000000355,3.400304e-05,103.87500000000355,7.410121e-06
103.89000000000355,4.707984e-05,103.89000000000355,3.356985e-07,103.89000000000355,3.58133e-05,103.89000000000355,7.172487e-06
103.90500000000355,5.296488e-05,103.90500000000355,3.356985e-07,103.90500000000355,3.442424e-05,103.90500000000355,6.981399e-06
103.92000000000355,5.352365e-05,103.92000000000355,3.356985e-07,103.92000000000355,3.14667e-05,103.92000000000355,6.69506e-06
103.93500000000355,5.327779e-05,103.93500000000355,2.907234e-07,103.93500000000355,3.125198e-05,103.93500000000355,6.309435e-06
103.95000000000356,5.240123e-05,103.95000000000356,2.907234e-07,103.95000000000356,3.154226e-05,103.95000000000356,5.402556e-06
103.96500000000356,5.285492e-05,103.96500000000356,2.373747e-07,103.96500000000356,3.19787e-05,103.96500000000356,5.373798e-06
103.98000000000356,5.345623e-05,103.98000000000356,2.373747e-07,103.98000000000356,3.334628e-05,103.98000000000356,5.379038e-06
103.99500000000356,5.226449e-05,103.99500000000356,2.373747e-07,103.99500000000356,3.295065e-05,103.99500000000356,5.323759e-06
104.01000000000356,5.249497e-05,104.01000000000356,2.373747e-07,104.01000000000356,3.220169e-05,104.01000000000356,5.208738e-06
104.02500000000356,5.22653e-05,104.02500000000356,2.373747e-07,104.02500000000356,2.448471e-05,104.02500000000356,5.104936e-06
104.04000000000356,5.239612e-05,104.04000000000356,2.373747e-07,104.04000000000356,2.428715e-05,104.04000000000356,4.624239e-06
104.05500000000356,4.985461e-05,104.05500000000356,2.373747e-07,104.05500000000356,2.422676e-05,104.05500000000356,4.453544e-06
104.07000000000356,5.028731e-05,104.07000000000356,1.678492e-07,104.07000000000356,2.42192e-05,104.07000000000356,4.34467e-06
104.08500000000356,4.551129e-05,104.08500000000356,2.373747e-07,104.08500000000356,2.49994e-05,104.08500000000356,4.289197e-06
104.10000000000356,4.484968e-05,104.10000000000356,2.373747e-07,104.10000000000356,2.891444e-05,104.10000000000356,4.360851e-06
104.11500000000356,4.466588e-05,104.11500000000356,2.373747e-07,104.11500000000356,2.819368e-05,104.11500000000356,4.219664e-06
104.13000000000356,4.547568e-05,104.13000000000356,2.373747e-07,104.13000000000356,2.768648e-05,104.13000000000356,4.282623e-06
104.14500000000356,4.225136e-05,104.14500000000356,2.373747e-07,104.14500000000356,2.45657e-05,104.14500000000356,4.31539e-06
104.16000000000356,3.809142e-05,104.16000000000356,2.373747e-07,104.16000000000356,2.432946e-05,104.16000000000356,4.383405e-06
104.17500000000356,4.084328e-05,104.17500000000356,2.373747e-07,104.17500000000356,2.512081e-05,104.17500000000356,4.318654e-06
104.19000000000356,4.190218e-05,104.19000000000356,2.373747e-07,104.19000000000356,2.616941e-05,104.19000000000356,4.360851e-06
104.20500000000357,4.176513e-05,104.20500000000357,2.373747e-07,104.20500000000357,2.600797e-05,104.20500000000357,4.602866e-06
104.22000000000357,4.232664e-05,104.22000000000357,2.907234e-07,104.22000000000357,2.57986e-05,104.22000000000357,4.503868e-06
104.23500000000357,4.165029e-05,104.23500000000357,2.907234e-07,104.23500000000357,2.341362e-05,104.23500000000357,4.538142e-06
104.25000000000357,4.277983e-05,104.25000000000357,2.907234e-07,104.25000000000357,2.338351e-05,104.25000000000357,4.581393e-06
104.26500000000357,4.328591e-05,104.26500000000357,2.907234e-07,104.26500000000357,2.278426e-05,104.26500000000357,4.741556e-06
104.28000000000357,4.386617e-05,104.28000000000357,2.907234e-07,104.28000000000357,2.574065e-05,104.28000000000357,4.633369e-06
104.29500000000357,4.496073e-05,104.29500000000357,2.907234e-07,104.29500000000357,2.840126e-05,104.29500000000357,4.633369e-06
104.31000000000357,4.415711e-05,104.31000000000357,2.907234e-07,104.31000000000357,2.854868e-05,104.31000000000357,4.590608e-06
104.32500000000357,4.415297e-05,104.32500000000357,2.907234e-07,104.32500000000357,2.845725e-05,104.32500000000357,4.456705e-06
104.34000000000357,4.507995e-05,104.34000000000357,2.907234e-07,104.34000000000357,2.768342e-05,104.34000000000357,4.402644e-06
104.35500000000357,4.400212e-05,104.35500000000357,2.907234e-07,104.35500000000357,2.376238e-05,104.35500000000357,4.431347e-06
104.37000000000357,4.577701e-05,104.37000000000357,2.907234e-07,104.37000000000357,2.376475e-05,104.37000000000357,4.519479e-06
104.38500000000357,4.599865e-05,104.38500000000357,2.907234e-07,104.38500000000357,2.388242e-05,104.38500000000357,4.550541e-06
104.40000000000357,4.674202e-05,104.40000000000357,2.907234e-07,104.40000000000357,2.429005e-05,104.40000000000357,4.466178e-06
104.41500000000357,4.672514e-05,104.41500000000357,2.907234e-07,104.41500000000357,2.430165e-05,104.41500000000357,4.472482e-06
104.43000000000357,4.229601e-05,104.43000000000357,2.373747e-07,104.43000000000357,2.242971e-05,104.43000000000357,4.453544e-06
104.44500000000357,4.134546e-05,104.44500000000357,2.373747e-07,104.44500000000357,2.182363e-05,104.44500000000357,4.393035e-06
104.46000000000357,4.139348e-05,104.46000000000357,2.373747e-07,104.46000000000357,2.120754e-05,104.46000000000357,4.354386e-06
104.47500000000358,4.528322e-05,104.47500000000358,2.373747e-07,104.47500000000358,2.116898e-05,104.47500000000358,4.602866e-06
104.49000000000358,5.090483e-05,104.49000000000358,2.373747e-07,104.49000000000358,2.175899e-05,104.49000000000358,4.559819e-06
104.50500000000358,4.929941e-05,104.50500000000358,2.373747e-07,104.50500000000358,2.129239e-05,104.50500000000358,4.550541e-06
104.52000000000358,4.781288e-05,104.52000000000358,2.373747e-07,104.52000000000358,2.007606e-05,104.52000000000358,4.4377e-06
104.53500000000358,4.752268e-05,104.53500000000358,2.373747e-07,104.53500000000358,1.266789e-05,104.53500000000358,4.360851e-06
104.55000000000358,4.703823e-05,104.55000000000358,2.373747e-07,104.55000000000358,1.231721e-05,104.55000000000358,4.466178e-06
104.56500000000358,4.844508e-05,104.56500000000358,2.373747e-07,104.56500000000358,1.216994e-05,104.56500000000358,4.970719e-06
104.58000000000358,5.046376e-05,104.58000000000358,2.373747e-07,104.58000000000358,1.21514e-05,104.58000000000358,5.34752e-06
104.59500000000358,5.042187e-05,104.59500000000358,2.373747e-07,104.59500000000358,1.163983e-05,104.59500000000358,5.845879e-06
104.61000000000358,5.242542e-05,104.61000000000358,2.373747e-07,104.61000000000358,1.380452e-05,104.61000000000358,6.376062e-06
104.62500000000358,5.096567e-05,104.62500000000358,2.907234e-07,104.62500000000358,1.752237e-05,104.62500000000358,6.313899e-06
104.64000000000358,5.200239e-05,104.64000000000358,2.907234e-07,104.64000000000358,1.756091e-05,104.64000000000358,6.345057e-06
104.65500000000358,5.3245e-05,104.65500000000358,2.907234e-07,104.65500000000358,1.699344e-05,104.65500000000358,6.322817e-06
104.67000000000358,5.349495e-05,104.67000000000358,2.907234e-07,104.67000000000358,1.694197e-05,104.67000000000358,6.563313e-06
104.68500000000358,5.36577e-05,104.68500000000358,2.907234e-07,104.68500000000358,1.68845e-05,104.68500000000358,6.57832e-06
104.70000000000358,5.423323e-05,104.70000000000358,2.907234e-07,104.70000000000358,1.688367e-05,104.70000000000358,6.574036e-06
104.71500000000358,5.324791e-05,104.71500000000358,2.907234e-07,104.71500000000358,1.693199e-05,104.71500000000358,6.463831e-06
104.73000000000359,4.677215e-05,104.73000000000359,2.907234e-07,104.73000000000359,1.687365e-05,104.73000000000359,6.333946e-06
104.74500000000359,4.494694e-05,104.74500000000359,2.907234e-07,104.74500000000359,1.749984e-05,104.74500000000359,6.481242e-06
104.76000000000359,4.520134e-05,104.76000000000359,2.907234e-07,104.76000000000359,2.118627e-05,104.76000000000359,6.571893e-06
104.77500000000359,4.543695e-05,104.77500000000359,2.907234e-07,104.77500000000359,2.278982e-05,104.77500000000359,6.595429e-06
104.79000000000359,4.804272e-05,104.79000000000359,2.907234e-07,104.79000000000359,2.280651e-05,104.79000000000359,6.724452e-06
104.80500000000359,4.77191e-05,104.80500000000359,2.907234e-07,104.80500000000359,2.280527e-05,104.80500000000359,6.671875e-06
104.82000000000359,4.748028e-05,104.82000000000359,2.907234e-07,104.82000000000359,2.283243e-05,104.82000000000359,6.271365e-06
104.83500000000359,4.562506e-05,104.83500000000359,2.907234e-07,104.83500000000359,2.287619e-05,104.83500000000359,5.969867e-06
104.85000000000359,4.487229e-05,104.85000000000359,2.907234e-07,104.85000000000359,2.369589e-05,104.85000000000359,5.554263e-06
104.86500000000359,4.557347e-05,104.86500000000359,2.907234e-07,104.86500000000359,2.044594e-05,104.86500000000359,5.165286e-06
104.88000000000359,4.484214e-05,104.88000000000359,2.907234e-07,104.88000000000359,1.91105e-05,104.88000000000359,5.08004e-06
104.89500000000359,4.309772e-05,104.89500000000359,2.907234e-07,104.89500000000359,1.989279e-05,104.89500000000359,5.085583e-06
104.91000000000359,4.203275e-05,104.91000000000359,2.907234e-07,104.91000000000359,2.037209e-05,104.91000000000359,5.203327e-06
104.92500000000359,4.166585e-05,104.92500000000359,2.373747e-07,104.92500000000359,2.039903e-05,104.92500000000359,4.967884e-06
104.9400000000036,4.185239e-05,104.9400000000036,2.907234e-07,104.9400000000036,2.109966e-05,104.9400000000036,4.990517e-06
104.9550000000036,3.991284e-05,104.9550000000036,2.907234e-07,104.9550000000036,2.334553e-05,104.9550000000036,5.526294e-06
104.9700000000036,4.238285e-05,104.9700000000036,2.907234e-07,104.9700000000036,2.552247e-05,104.9700000000036,6.037908e-06
104.9850000000036,4.648121e-05,104.9850000000036,2.907234e-07,104.9850000000036,2.852252e-05,104.9850000000036,6.774542e-06
105.0000000000036,4.671791e-05,105.0000000000036,2.907234e-07,105.0000000000036,2.489607e-05,105.0000000000036,6.684531e-06
105.0150000000036,4.792735e-05,105.0150000000036,2.907234e-07,105.0150000000036,2.405169e-05,105.0150000000036,6.663425e-06
105.0300000000036,4.79347e-05,105.0300000000036,2.907234e-07,105.0300000000036,2.505512e-05,105.0300000000036,6.74119e-06
105.0450000000036,4.210574e-05,105.0450000000036,2.907234e-07,105.0450000000036,2.759934e-05,105.0450000000036,6.75163e-06
105.0600000000036,4.143021e-05,105.0600000000036,2.373747e-07,105.0600000000036,3.111193e-05,105.0600000000036,7.254505e-06
105.0750000000036,4.137407e-05,105.0750000000036,2.373747e-07,105.0750000000036,3.201171e-05,105.0750000000036,7.621908e-06
105.0900000000036,4.187056e-05,105.0900000000036,2.373747e-07,105.0900000000036,3.248956e-05,105.0900000000036,8.089915e-06
105.1050000000036,4.208901e-05,105.1050000000036,2.373747e-07,105.1050000000036,3.474196e-05,105.1050000000036,8.143716e-06
105.1200000000036,4.050039e-05,105.1200000000036,2.373747e-07,105.1200000000036,3.621656e-05,105.1200000000036,8.091657e-06
105.1350000000036,3.851399e-05,105.1350000000036,2.373747e-07,105.1350000000036,3.668264e-05,105.1350000000036,8.202317e-06
105.1500000000036,3.816716e-05,105.1500000000036,2.373747e-07,105.1500000000036,3.676895e-05,105.1500000000036,8.482616e-06
105.1650000000036,3.815756e-05,105.1650000000036,2.373747e-07,105.1650000000036,3.79421e-05,105.1650000000036,8.395818e-06
105.1800000000036,3.810363e-05,105.1800000000036,2.373747e-07,105.1800000000036,3.882654e-05,105.1800000000036,8.708772e-06
105.1950000000036,4.134716e-05,105.1950000000036,2.373747e-07,105.1950000000036,4.224936e-05,105.1950000000036,8.952834e-06
105.2100000000036,4.186485e-05,105.2100000000036,2.373747e-07,105.2100000000036,4.043425e-05,105.2100000000036,8.661737e-06
105.2250000000036,3.643952e-05,105.2250000000036,2.373747e-07,105.2250000000036,4.066423e-05,105.2250000000036,8.734614e-06
105.2400000000036,3.325661e-05,105.2400000000036,2.373747e-07,105.2400000000036,4.178705e-05,105.2400000000036,8.467658e-06
105.2550000000036,3.302452e-05,105.2550000000036,2.373747e-07,105.2550000000036,4.223602e-05,105.2550000000036,8.645458e-06
105.2700000000036,3.056562e-05,105.2700000000036,2.373747e-07,105.2700000000036,4.229102e-05,105.2700000000036,8.761987e-06
105.2850000000036,3.091617e-05,105.2850000000036,2.373747e-07,105.2850000000036,4.18194e-05,105.2850000000036,8.883333e-06
105.3000000000036,3.149355e-05,105.3000000000036,2.373747e-07,105.3000000000036,4.567813e-05,105.3000000000036,8.687718e-06
105.31500000000361,3.369299e-05,105.31500000000361,2.373747e-07,105.31500000000361,4.71949e-05,105.31500000000361,8.452672e-06
105.33000000000361,3.404279e-05,105.33000000000361,2.373747e-07,105.33000000000361,4.66485e-05,105.33000000000361,8.333508e-06
105.34500000000361,3.306161e-05,105.34500000000361,2.373747e-07,105.34500000000361,4.810543e-05,105.34500000000361,8.02874e-06
105.36000000000361,3.144386e-05,105.36000000000361,2.373747e-07,105.36000000000361,4.624239e-05,105.36000000000361,8.129866e-06
105.37500000000361,3.092711e-05,105.37500000000361,2.373747e-07,105.37500000000361,4.544315e-05,105.37500000000361,8.145445e-06
105.39000000000361,3.406802e-05,105.39000000000361,2.373747e-07,105.39000000000361,4.896252e-05,105.39000000000361,8.02523e-06
105.40500000000361,3.411182e-05,105.40500000000361,2.373747e-07,105.40500000000361,5.19273e-05,105.40500000000361,7.804539e-06
105.42000000000361,3.360843e-05,105.42000000000361,2.373747e-07,105.42000000000361,5.205465e-05,105.42000000000361,7.689987e-06
105.43500000000361,3.328159e-05,105.43500000000361,2.373747e-07,105.43500000000361,5.177544e-05,105.43500000000361,7.752019e-06
105.45000000000361,2.856496e-05,105.45000000000361,2.373747e-07,105.45000000000361,4.904703e-05,105.45000000000361,7.517698e-06
105.46500000000361,2.819418e-05,105.46500000000361,2.373747e-07,105.46500000000361,4.859605e-05,105.46500000000361,7.029658e-06
105.48000000000361,2.832876e-05,105.48000000000361,2.373747e-07,105.48000000000361,4.748917e-05,105.48000000000361,6.914493e-06
105.49500000000361,2.836652e-05,105.49500000000361,2.373747e-07,105.49500000000361,4.964849e-05,105.49500000000361,6.863372e-06
105.51000000000361,2.818068e-05,105.51000000000361,2.373747e-07,105.51000000000361,4.929455e-05,105.51000000000361,6.487759e-06
105.52500000000362,2.765542e-05,105.52500000000362,2.373747e-07,105.52500000000362,4.918871e-05,105.52500000000362,6.187698e-06
105.54000000000362,2.708985e-05,105.54000000000362,2.373747e-07,105.54000000000362,5.054241e-05,105.54000000000362,6.327271e-06
105.55500000000362,2.654991e-05,105.55500000000362,2.373747e-07,105.55500000000362,4.306928e-05,105.55500000000362,6.65708e-06
105.57000000000362,2.300821e-05,105.57000000000362,2.373747e-07,105.57000000000362,4.271755e-05,105.57000000000362,6.42229e-06
105.58500000000362,2.306935e-05,105.58500000000362,2.373747e-07,105.58500000000362,4.166145e-05,105.58500000000362,6.167175e-06
105.60000000000362,2.41096e-05,105.60000000000362,2.373747e-07,105.60000000000362,4.363854e-05,105.60000000000362,6.002811e-06
105.61500000000362,3.272328e-05,105.61500000000362,2.373747e-07,105.61500000000362,4.877024e-05,105.61500000000362,5.797484e-06
105.63000000000362,3.316711e-05,105.63000000000362,2.373747e-07,105.63000000000362,4.870492e-05,105.63000000000362,5.765811e-06
105.64500000000362,3.102352e-05,105.64500000000362,2.373747e-07,105.64500000000362,4.220399e-05,105.64500000000362,6.089019e-06
105.66000000000362,3.089247e-05,105.66000000000362,2.373747e-07,105.66000000000362,4.139552e-05,105.66000000000362,6.089019e-06
105.67500000000362,3.076407e-05,105.67500000000362,2.373747e-07,105.67500000000362,4.182411e-05,105.67500000000362,6.091332e-06
105.69000000000362,2.988282e-05,105.69000000000362,2.373747e-07,105.69000000000362,4.291987e-05,105.69000000000362,6.098266e-06
105.70500000000362,2.973633e-05,105.70500000000362,2.373747e-07,105.70500000000362,4.29717e-05,105.70500000000362,6.03324e-06
105.72000000000362,2.992992e-05,105.72000000000362,2.373747e-07,105.72000000000362,4.335744e-05,105.72000000000362,5.943854e-06
105.73500000000362,2.996097e-05,105.73500000000362,2.373747e-07,105.73500000000362,4.332559e-05,105.73500000000362,5.857914e-06
105.75000000000362,3.005955e-05,105.75000000000362,2.373747e-07,105.75000000000362,4.047047e-05,105.75000000000362,5.53139e-06
105.76500000000362,3.013256e-05,105.76500000000362,2.373747e-07,105.76500000000362,4.321817e-05,105.76500000000362,5.915346e-06
105.78000000000362,3.013303e-05,105.78000000000362,2.373747e-07,105.78000000000362,4.443759e-05,105.78000000000362,5.843468e-06
105.79500000000363,2.993181e-05,105.79500000000363,2.373747e-07,105.79500000000363,4.680135e-05,105.79500000000363,5.659781e-06
105.81000000000363,2.915025e-05,105.81000000000363,2.373747e-07,105.81000000000363,4.744644e-05,105.81000000000363,5.726587e-06
105.82500000000363,2.909511e-05,105.82500000000363,2.373747e-07,105.82500000000363,4.96184e-05,105.82500000000363,5.694519e-06
105.84000000000363,2.855066e-05,105.84000000000363,2.373747e-07,105.84000000000363,5.178469e-05,105.84000000000363,5.647323e-06
105.85500000000363,2.569409e-05,105.85500000000363,2.373747e-07,105.85500000000363,5.992241e-05,105.85500000000363,5.891484e-06
105.87000000000363,1.660605e-05,105.87000000000363,2.373747e-07,105.87000000000363,5.973099e-05,105.87000000000363,5.924864e-06
105.88500000000363,1.429185e-05,105.88500000000363,2.373747e-07,105.88500000000363,6.233967e-05,105.88500000000363,5.860319e-06
105.90000000000363,1.783946e-05,105.90000000000363,2.373747e-07,105.90000000000363,6.364652e-05,105.90000000000363,5.510979e-06
105.91500000000363,2.318204e-05,105.91500000000363,2.373747e-07,105.91500000000363,6.455828e-05,105.91500000000363,5.589657e-06
105.93000000000363,3.738519e-05,105.93000000000363,2.373747e-07,105.93000000000363,6.655874e-05,105.93000000000363,5.584614e-06
105.94500000000363,5.23851e-05,105.94500000000363,2.373747e-07,105.94500000000363,7.128931e-05,105.94500000000363,5.135199e-06
105.96000000000363,5.369366e-05,105.96000000000363,2.373747e-07,105.96000000000363,7.749438e-05,105.96000000000363,5.238403e-06
105.97500000000363,5.335943e-05,105.97500000000363,2.373747e-07,105.97500000000363,7.98285e-05,105.97500000000363,5.485359e-06
105.99000000000363,5.345728e-05,105.99000000000363,2.373747e-07,105.99000000000363,8.379309e-05,105.99000000000363,5.609782e-06
106.00500000000363,5.353786e-05,106.00500000000363,2.373747e-07,106.00500000000363,8.912494e-05,106.00500000000363,5.289249e-06
106.02000000000363,5.352996e-05,106.02000000000363,2.373747e-07,106.02000000000363,9.01766e-05,106.02000000000363,5.412975e-06
106.03500000000363,5.974207e-05,106.03500000000363,2.373747e-07,106.03500000000363,8.977926e-05,106.03500000000363,5.431162e-06
106.05000000000364,6.076745e-05,106.05000000000364,2.373747e-07,106.05000000000364,8.953856e-05,106.05000000000364,5.00461e-06
106.06500000000364,6.163176e-05,106.06500000000364,2.373747e-07,106.06500000000364,8.9377e-05,106.06500000000364,4.893604e-06
106.08000000000364,6.373211e-05,106.08000000000364,2.373747e-07,106.08000000000364,8.859785e-05,106.08000000000364,4.996159e-06
106.09500000000364,7.050228e-05,106.09500000000364,2.373747e-07,106.09500000000364,8.374634e-05,106.09500000000364,5.412975e-06
106.11000000000364,8.478098e-05,106.11000000000364,2.373747e-07,106.11000000000364,8.005036e-05,106.11000000000364,5.243778e-06
106.12500000000364,8.921405e-05,106.12500000000364,2.373747e-07,106.12500000000364,7.938187e-05,106.12500000000364,5.251831e-06
106.14000000000364,8.980734e-05,106.14000000000364,2.373747e-07,106.14000000000364,7.860777e-05,106.14000000000364,5.249148e-06
106.15500000000364,9.003058e-05,106.15500000000364,2.373747e-07,106.15500000000364,7.807679e-05,106.15500000000364,5.135199e-06
106.17000000000364,8.787048e-05,106.17000000000364,2.373747e-07,106.17000000000364,7.605738e-05,106.17000000000364,5.159829e-06
106.18500000000364,7.885789e-05,106.18500000000364,2.373747e-07,106.18500000000364,7.472251e-05,106.18500000000364,5.14616e-06
106.20000000000364,7.754272e-05,106.20000000000364,2.373747e-07,106.20000000000364,6.776289e-05,106.20000000000364,5.055022e-06
106.21500000000364,7.71559e-05,106.21500000000364,2.373747e-07,106.21500000000364,6.150593e-05,106.21500000000364,5.035477e-06
106.23000000000364,7.717506e-05,106.23000000000364,2.373747e-07,106.23000000000364,5.970362e-05,106.23000000000364,4.587538e-06
106.24500000000364,7.713051e-05,106.24500000000364,2.373747e-07,106.24500000000364,5.398643e-05,106.24500000000364,4.666692e-06
106.26000000000364,7.7265e-05,106.26000000000364,2.373747e-07,106.26000000000364,4.470528e-05,106.26000000000364,4.675739e-06
106.27500000000364,7.741963e-05,106.27500000000364,2.373747e-07,106.27500000000364,4.108605e-05,106.27500000000364,4.572159e-06
106.29000000000364,7.340905e-05,106.29000000000364,2.373747e-07,106.29000000000364,3.923797e-05,106.29000000000364,4.648545e-06
106.30500000000364,7.315011e-05,106.30500000000364,2.373747e-07,106.30500000000364,4.133422e-05,106.30500000000364,4.711753e-06
106.32000000000365,7.235393e-05,106.32000000000365,2.373747e-07,106.32000000000365,3.952199e-05,106.32000000000365,4.83569e-06
106.33500000000365,7.105715e-05,106.33500000000365,2.373747e-07,106.33500000000365,3.900789e-05,106.33500000000365,4.47563e-06
106.35000000000365,4.916092e-05,106.35000000000365,2.373747e-07,106.35000000000365,3.894681e-05,106.35000000000365,4.440873e-06
106.36500000000365,4.051187e-05,106.36500000000365,2.373747e-07,106.36500000000365,3.83575e-05,106.36500000000365,4.415424e-06
106.38000000000365,3.470747e-05,106.38000000000365,2.373747e-07,106.38000000000365,3.682675e-05,106.38000000000365,4.431347e-06
106.39500000000365,3.300063e-05,106.39500000000365,2.373747e-07,106.39500000000365,3.387146e-05,106.39500000000365,4.525708e-06
106.41000000000365,3.32261e-05,106.41000000000365,2.373747e-07,106.41000000000365,3.425646e-05,106.41000000000365,4.48192e-06
106.42500000000365,3.747025e-05,106.42500000000365,2.373747e-07,106.42500000000365,3.459364e-05,106.42500000000365,4.450379e-06
106.44000000000365,3.773399e-05,106.44000000000365,2.373747e-07,106.44000000000365,3.459731e-05,106.44000000000365,4.36408e-06
106.45500000000365,3.560857e-05,106.45500000000365,2.373747e-07,106.45500000000365,3.67609e-05,106.45500000000365,4.338181e-06
106.47000000000365,3.54468e-05,106.47000000000365,2.373747e-07,106.47000000000365,3.956865e-05,106.47000000000365,4.232997e-06
106.48500000000365,3.776235e-05,106.48500000000365,2.373747e-07,106.48500000000365,3.646812e-05,106.48500000000365,4.252917e-06
106.50000000000365,3.851912e-05,106.50000000000365,2.373747e-07,106.50000000000365,3.704794e-05,106.50000000000365,4.249604e-06
106.51500000000365,3.910923e-05,106.51500000000365,2.373747e-07,106.51500000000365,3.865601e-05,106.51500000000365,4.165909e-06
106.53000000000365,3.744317e-05,106.53000000000365,2.373747e-07,106.53000000000365,3.979549e-05,106.53000000000365,4.169289e-06
106.54500000000365,3.856699e-05,106.54500000000365,2.373747e-07,106.54500000000365,4.059593e-05,106.54500000000365,4.0632e-06
106.56000000000365,4.085776e-05,106.56000000000365,2.373747e-07,106.56000000000365,3.917222e-05,106.56000000000365,4.262842e-06
106.57500000000366,4.115148e-05,106.57500000000366,2.373747e-07,106.57500000000366,3.995552e-05,106.57500000000366,4.017877e-06
106.59000000000366,4.109394e-05,106.59000000000366,2.373747e-07,106.59000000000366,4.022538e-05,106.59000000000366,4.028382e-06
106.60500000000366,4.208667e-05,106.60500000000366,2.373747e-07,106.60500000000366,4.056226e-05,106.60500000000366,3.954266e-06
106.62000000000366,4.03851e-05,106.62000000000366,2.373747e-07,106.62000000000366,4.0906e-05,106.62000000000366,3.90768e-06
106.63500000000366,4.059558e-05,106.63500000000366,2.373747e-07,106.63500000000366,4.187359e-05,106.63500000000366,3.688867e-06
106.65000000000366,4.208667e-05,106.65000000000366,2.373747e-07,106.65000000000366,4.192705e-05,106.65000000000366,3.677393e-06
106.66500000000366,4.040254e-05,106.66500000000366,2.373747e-07,106.66500000000366,4.091668e-05,106.66500000000366,3.700305e-06
106.68000000000366,4.043564e-05,106.68000000000366,2.373747e-07,106.68000000000366,4.088602e-05,106.68000000000366,3.775675e-06
106.69500000000366,4.064517e-05,106.69500000000366,2.373747e-07,106.69500000000366,4.099303e-05,106.69500000000366,3.812802e-06
106.71000000000366,4.050422e-05,106.71000000000366,2.373747e-07,106.71000000000366,4.229334e-05,106.71000000000366,3.723076e-06
106.72500000000366,4.029815e-05,106.72500000000366,2.373747e-07,106.72500000000366,3.887296e-05,106.72500000000366,3.719291e-06
106.74000000000366,3.773361e-05,106.74000000000366,2.373747e-07,106.74000000000366,3.812469e-05,106.74000000000366,3.779404e-06
106.75500000000366,3.721184e-05,106.75500000000366,2.373747e-07,106.75500000000366,3.737766e-05,106.75500000000366,3.73818e-06
106.77000000000366,3.594561e-05,106.77000000000366,2.373747e-07,106.77000000000366,3.899416e-05,106.77000000000366,3.760722e-06
106.78500000000366,3.598556e-05,106.78500000000366,2.373747e-07,106.78500000000366,3.980611e-05,106.78500000000366,3.794284e-06
106.80000000000366,3.480596e-05,106.80000000000366,2.373747e-07,106.80000000000366,3.766299e-05,106.80000000000366,3.768206e-06
106.81500000000366,3.352282e-05,106.81500000000366,2.373747e-07,106.81500000000366,3.53226e-05,106.81500000000366,3.662038e-06
106.83000000000366,4.242968e-05,106.83000000000366,2.373747e-07,106.83000000000366,3.500975e-05,106.83000000000366,3.669723e-06
106.84500000000367,4.182175e-05,106.84500000000367,2.373747e-07,106.84500000000367,3.530105e-05,106.84500000000367,3.607783e-06
106.86000000000367,4.290018e-05,106.86000000000367,2.907234e-07,106.86000000000367,3.981602e-05,106.86000000000367,3.638885e-06
106.87500000000367,4.426926e-05,106.87500000000367,2.907234e-07,106.87500000000367,3.775526e-05,106.87500000000367,3.771943e-06
106.89000000000367,4.252784e-05,106.89000000000367,2.907234e-07,106.89000000000367,3.674403e-05,106.89000000000367,3.786851e-06
106.90500000000367,4.137203e-05,106.90500000000367,2.373747e-07,106.90500000000367,3.689783e-05,106.90500000000367,3.764466e-06
106.92000000000367,3.843967e-05,106.92000000000367,2.373747e-07,106.92000000000367,3.757199e-05,106.92000000000367,3.745709e-06
106.93500000000367,3.680226e-05,106.93500000000367,2.373747e-07,106.93500000000367,3.832186e-05,106.93500000000367,3.631134e-06
106.95000000000367,3.611373e-05,106.95000000000367,2.373747e-07,106.95000000000367,3.457205e-05,106.95000000000367,3.665883e-06
106.96500000000367,3.605322e-05,106.96500000000367,2.373747e-07,106.96500000000367,3.457042e-05,106.96500000000367,3.646619e-06
106.98000000000367,3.803887e-05,106.98000000000367,2.373747e-07,106.98000000000367,3.488398e-05,106.98000000000367,3.568524e-06
106.99500000000367,4.555151e-05,106.99500000000367,2.373747e-07,106.99500000000367,3.873464e-05,106.99500000000367,3.615583e-06
107.01000000000367,4.592602e-05,107.01000000000367,2.373747e-07,107.01000000000367,3.880949e-05,107.01000000000367,3.86418e-06
107.02500000000367,4.621039e-05,107.02500000000367,2.907234e-07,107.02500000000367,3.398025e-05,107.02500000000367,3.860533e-06
107.04000000000367,4.610052e-05,107.04000000000367,2.907234e-07,107.04000000000367,3.338133e-05,107.04000000000367,3.867824e-06
107.05500000000367,4.484026e-05,107.05500000000367,2.907234e-07,107.05500000000367,3.328286e-05,107.05500000000367,3.79057e-06
107.07000000000367,4.453828e-05,107.07000000000367,2.907234e-07,107.07000000000367,3.346141e-05,107.07000000000367,3.764466e-06
107.08500000000367,3.680571e-05,107.08500000000367,2.907234e-07,107.08500000000367,3.36298e-05,107.08500000000367,3.73441e-06
107.10000000000367,3.814981e-05,107.10000000000367,2.907234e-07,107.10000000000367,3.470626e-05,107.10000000000367,3.78313e-06
107.11500000000368,3.65557e-05,107.11500000000368,2.907234e-07,107.11500000000368,3.051765e-05,107.11500000000368,3.882364e-06
107.13000000000368,3.675899e-05,107.13000000000368,2.907234e-07,107.13000000000368,3.004032e-05,107.13000000000368,3.936414e-06
107.14500000000368,3.735918e-05,107.14500000000368,2.907234e-07,107.14500000000368,2.986915e-05,107.14500000000368,3.91848e-06
107.16000000000368,4.107028e-05,107.16000000000368,2.907234e-07,107.16000000000368,2.914493e-05,107.16000000000368,4.010859e-06
107.17500000000368,4.730014e-05,107.17500000000368,2.907234e-07,107.17500000000368,2.779565e-05,107.17500000000368,4.148967e-06
107.19000000000368,4.724889e-05,107.19000000000368,2.907234e-07,107.19000000000368,3.273663e-05,107.19000000000368,4.17604e-06
107.20500000000368,5.607973e-05,107.20500000000368,2.907234e-07,107.20500000000368,3.67003e-05,107.20500000000368,4.11145e-06
107.22000000000368,5.728997e-05,107.22000000000368,2.907234e-07,107.22000000000368,3.666959e-05,107.22000000000368,4.179412e-06
107.23500000000368,5.403077e-05,107.23500000000368,2.907234e-07,107.23500000000368,3.570576e-05,107.23500000000368,4.212983e-06
107.25000000000368,5.027386e-05,107.25000000000368,2.907234e-07,107.25000000000368,3.210706e-05,107.25000000000368,4.216325e-06
107.26500000000368,5.037743e-05,107.26500000000368,2.907234e-07,107.26500000000368,3.121409e-05,107.26500000000368,4.312125e-06
107.28000000000368,5.076406e-05,107.28000000000368,2.907234e-07,107.28000000000368,3.13896e-05,107.28000000000368,4.450379e-06
107.29500000000368,5.104411e-05,107.29500000000368,2.907234e-07,107.29500000000368,3.216361e-05,107.29500000000368,4.418613e-06
107.31000000000368,5.12394e-05,107.31000000000368,2.907234e-07,107.31000000000368,3.474479e-05,107.31000000000368,4.424985e-06
107.32500000000368,5.070992e-05,107.32500000000368,2.907234e-07,107.32500000000368,3.781715e-05,107.32500000000368,4.759348e-06
107.34000000000368,5.021106e-05,107.34000000000368,2.907234e-07,107.34000000000368,3.990331e-05,107.34000000000368,4.928026e-06
107.35500000000368,4.854733e-05,107.35500000000368,2.907234e-07,107.35500000000368,3.936271e-05,107.35500000000368,4.942298e-06
107.37000000000369,4.798258e-05,107.37000000000369,2.907234e-07,107.37000000000369,4.420717e-05,107.37000000000369,4.902232e-06
107.38500000000369,4.861547e-05,107.38500000000369,2.907234e-07,107.38500000000369,4.723875e-05,107.38500000000369,4.856038e-06
107.40000000000369,4.839883e-05,107.40000000000369,2.373747e-07,107.40000000000369,4.751379e-05,107.40000000000369,4.884961e-06
107.41500000000369,4.366307e-05,107.41500000000369,2.373747e-07,107.41500000000369,4.762395e-05,107.41500000000369,4.702775e-06
107.43000000000369,5.365062e-05,107.43000000000369,2.907234e-07,107.43000000000369,4.619881e-05,107.43000000000369,4.66971e-06
107.44500000000369,7.344819e-05,107.44500000000369,2.373747e-07,107.44500000000369,4.735193e-05,107.44500000000369,4.675739e-06
107.46000000000369,7.417076e-05,107.46000000000369,2.907234e-07,107.46000000000369,4.398355e-05,107.46000000000369,4.636408e-06
107.47500000000369,7.905806e-05,107.47500000000369,2.907234e-07,107.47500000000369,4.476385e-05,107.47500000000369,4.660651e-06
107.49000000000369,7.966653e-05,107.49000000000369,2.907234e-07,107.49000000000369,4.532271e-05,107.49000000000369,4.569077e-06
107.50500000000369,7.994383e-05,107.50500000000369,2.373747e-07,107.50500000000369,4.576439e-05,107.50500000000369,4.444044e-06
107.52000000000369,7.983292e-05,107.52000000000369,2.373747e-07,107.52000000000369,5.937215e-05,107.52000000000369,4.155752e-06
107.53500000000369,7.960055e-05,107.53500000000369,2.373747e-07,107.53500000000369,6.105145e-05,107.53500000000369,4.049309e-06
107.55000000000369,7.946186e-05,107.55000000000369,2.373747e-07,107.55000000000369,7.625641e-05,107.55000000000369,4.035369e-06
107.56500000000369,7.913411e-05,107.56500000000369,2.373747e-07,107.56500000000369,7.585374e-05,107.56500000000369,3.73441e-06
107.5800000000037,7.947374e-05,107.5800000000037,2.373747e-07,107.5800000000037,7.619801e-05,107.5800000000037,3.711708e-06
107.5950000000037,7.994506e-05,107.5950000000037,2.373747e-07,107.5950000000037,7.578202e-05,107.5950000000037,3.480596e-06
107.6100000000037,8.090159e-05,107.6100000000037,2.373747e-07,107.6100000000037,7.424137e-05,107.6100000000037,3.427579e-06
107.6250000000037,8.642215e-05,107.6250000000037,2.373747e-07,107.6250000000037,7.06444e-05,107.6250000000037,3.516832e-06
107.6400000000037,0.0001005148,107.6400000000037,2.373747e-07,107.6400000000037,7.014632e-05,107.6400000000037,3.584279e-06
107.6550000000037,0.0001028346,107.6550000000037,2.373747e-07,107.6550000000037,7.097502e-05,107.6550000000037,3.532818e-06
107.6700000000037,0.0001002584,107.6700000000037,2.373747e-07,107.6700000000037,8.170328e-05,107.6700000000037,3.635012e-06
107.6850000000037,9.28939e-05,107.6850000000037,2.373747e-07,107.6850000000037,8.968759e-05,107.6850000000037,3.700305e-06
107.7000000000037,7.911008e-05,107.7000000000037,2.373747e-07,107.7000000000037,0.0001129347,107.7000000000037,3.972038e-06
107.7150000000037,7.554857e-05,107.7150000000037,2.373747e-07,107.7150000000037,0.0001145681,107.7150000000037,3.989731e-06
107.7300000000037,7.0305e-05,107.7300000000037,2.373747e-07,107.7300000000037,0.0001142645,107.7300000000037,3.92925e-06
107.7450000000037,7.006656e-05,107.7450000000037,2.373747e-07,107.7450000000037,0.0001142759,107.7450000000037,3.954266e-06
107.7600000000037,7.695041e-05,107.7600000000037,2.373747e-07,107.7600000000037,0.0001092483,107.7600000000037,3.893234e-06
107.7750000000037,8.115298e-05,107.7750000000037,2.373747e-07,107.7750000000037,0.0001076155,107.7750000000037,4.05626e-06
107.7900000000037,8.268803e-05,107.7900000000037,2.373747e-07,107.7900000000037,0.0001010009,107.7900000000037,4.021382e-06
107.8050000000037,8.361302e-05,107.8050000000037,2.373747e-07,107.8050000000037,9.694729e-05,107.8050000000037,4.007346e-06
107.8200000000037,8.44028e-05,107.8200000000037,2.373747e-07,107.8200000000037,9.642015e-05,107.8200000000037,3.975583e-06
107.8350000000037,8.509245e-05,107.8350000000037,2.373747e-07,107.8350000000037,9.609219e-05,107.8350000000037,4.038859e-06
107.8500000000037,8.478597e-05,107.8500000000037,2.373747e-07,107.8500000000037,9.633377e-05,107.8500000000037,4.077044e-06
107.8650000000037,8.298273e-05,107.8650000000037,2.373747e-07,107.8650000000037,9.702194e-05,107.8650000000037,4.165909e-06
107.8800000000037,7.386225e-05,107.8800000000037,2.373747e-07,107.8800000000037,9.793453e-05,107.8800000000037,4.135364e-06
107.8950000000037,5.636136e-05,107.8950000000037,2.907234e-07,107.8950000000037,9.792417e-05,107.8950000000037,4.087396e-06
107.9100000000037,5.450838e-05,107.9100000000037,2.907234e-07,107.9100000000037,9.759636e-05,107.9100000000037,4.179412e-06
107.9250000000037,5.544465e-05,107.9250000000037,2.907234e-07,107.9250000000037,8.786551e-05,107.9250000000037,4.094283e-06
107.9400000000037,5.630435e-05,107.9400000000037,2.907234e-07,107.9400000000037,6.358739e-05,107.9400000000037,4.182782e-06
107.95500000000371,5.663811e-05,107.95500000000371,2.907234e-07,107.95500000000371,4.3117e-05,107.95500000000371,3.957827e-06
107.97000000000371,5.660378e-05,107.97000000000371,2.907234e-07,107.97000000000371,4.067912e-05,107.97000000000371,4.077044e-06
107.98500000000371,5.694395e-05,107.98500000000371,2.907234e-07,107.98500000000371,4.092907e-05,107.98500000000371,4.393035e-06
108.00000000000371,5.734257e-05,108.00000000000371,2.907234e-07,108.00000000000371,4.210407e-05,108.00000000000371,4.578317e-06
108.01500000000371,4.794116e-05,108.01500000000371,2.907234e-07,108.01500000000371,4.196231e-05,108.01500000000371,4.516361e-06
108.03000000000371,4.281603e-05,108.03000000000371,2.907234e-07,108.03000000000371,4.252652e-05,108.03000000000371,4.510119e-06
108.04500000000371,3.978487e-05,108.04500000000371,2.373747e-07,108.04500000000371,4.123219e-05,108.04500000000371,4.642481e-06
108.06000000000371,3.898549e-05,108.06000000000371,2.373747e-07,108.06000000000371,4.005728e-05,108.06000000000371,4.648545e-06
108.07500000000371,3.737841e-05,108.07500000000371,2.373747e-07,108.07500000000371,4.188066e-05,108.07500000000371,4.587538e-06
108.09000000000371,3.830495e-05,108.09000000000371,2.373747e-07,108.09000000000371,4.047534e-05,108.09000000000371,4.657627e-06
108.10500000000371,3.832002e-05,108.10500000000371,2.373747e-07,108.10500000000371,4.270436e-05,108.10500000000371,4.575239e-06
108.12000000000371,3.8711e-05,108.12000000000371,2.373747e-07,108.12000000000371,4.073449e-05,108.12000000000371,4.383405e-06
108.13500000000371,3.948134e-05,108.13500000000371,2.373747e-07,108.13500000000371,4.043112e-05,108.13500000000371,4.35762e-06
108.15000000000371,3.854178e-05,108.15000000000371,2.373747e-07,108.15000000000371,3.993084e-05,108.15000000000371,4.299038e-06
108.16500000000372,3.607002e-05,108.16500000000372,2.373747e-07,108.16500000000372,3.907031e-05,108.16500000000372,4.341427e-06
108.18000000000372,3.595149e-05,108.18000000000372,2.373747e-07,108.18000000000372,3.847118e-05,108.18000000000372,4.334932e-06
108.19500000000372,3.877862e-05,108.19500000000372,2.373747e-07,108.19500000000372,3.686345e-05,108.19500000000372,4.325173e-06
108.21000000000372,3.915099e-05,108.21000000000372,2.373747e-07,108.21000000000372,3.511741e-05,108.21000000000372,4.186148e-06
108.22500000000372,4.393644e-05,108.22500000000372,2.373747e-07,108.22500000000372,3.399517e-05,108.22500000000372,4.15914e-06
108.24000000000372,4.417561e-05,108.24000000000372,2.373747e-07,108.24000000000372,3.359124e-05,108.24000000000372,3.662038e-06
108.25500000000372,4.73998e-05,108.25500000000372,2.373747e-07,108.25500000000372,3.190151e-05,108.25500000000372,3.715501e-06
108.27000000000372,4.759614e-05,108.27000000000372,2.373747e-07,108.27000000000372,3.160963e-05,108.27000000000372,3.79057e-06
108.28500000000372,5.690064e-05,108.28500000000372,2.373747e-07,108.28500000000372,3.133705e-05,108.28500000000372,3.834905e-06
108.30000000000372,6.453514e-05,108.30000000000372,2.373747e-07,108.30000000000372,3.109518e-05,108.30000000000372,3.786851e-06
108.31500000000372,6.943544e-05,108.31500000000372,2.373747e-07,108.31500000000372,2.710285e-05,108.31500000000372,3.92925e-06
108.33000000000372,7.229978e-05,108.33000000000372,2.373747e-07,108.33000000000372,3.302239e-05,108.33000000000372,3.99326e-06
108.34500000000372,7.279531e-05,108.34500000000372,2.373747e-07,108.34500000000372,4.041369e-05,108.34500000000372,3.947135e-06
108.36000000000372,7.357926e-05,108.36000000000372,2.373747e-07,108.36000000000372,3.718647e-05,108.36000000000372,3.961384e-06
108.37500000000372,7.284831e-05,108.37500000000372,2.373747e-07,108.37500000000372,3.819963e-05,108.37500000000372,4.045829e-06
108.39000000000372,7.293798e-05,108.39000000000372,2.373747e-07,108.39000000000372,4.659865e-05,108.39000000000372,4.118297e-06
108.40500000000372,7.39524e-05,108.40500000000372,2.373747e-07,108.40500000000372,6.023239e-05,108.40500000000372,4.192873e-06
108.42000000000372,7.459176e-05,108.42000000000372,2.373747e-07,108.42000000000372,6.034478e-05,108.42000000000372,4.165909e-06
108.43500000000373,7.437597e-05,108.43500000000373,2.373747e-07,108.43500000000373,6.042456e-05,108.43500000000373,4.242968e-06
108.45000000000373,7.475305e-05,108.45000000000373,2.373747e-07,108.45000000000373,6.043039e-05,108.45000000000373,4.312125e-06
108.46500000000373,7.484156e-05,108.46500000000373,2.373747e-07,108.46500000000373,6.042479e-05,108.46500000000373,4.328428e-06
108.48000000000373,8.721057e-05,108.48000000000373,2.373747e-07,108.48000000000373,6.04919e-05,108.48000000000373,4.289197e-06
108.49500000000373,8.73063e-05,108.49500000000373,2.373747e-07,108.49500000000373,6.092858e-05,108.49500000000373,4.370531e-06
108.51000000000373,8.661102e-05,108.51000000000373,2.373747e-07,108.51000000000373,6.431386e-05,108.51000000000373,4.466178e-06
108.52500000000373,8.731469e-05,108.52500000000373,2.373747e-07,108.52500000000373,6.420096e-05,108.52500000000373,4.334932e-06
108.54000000000373,9.225343e-05,108.54000000000373,2.373747e-07,108.54000000000373,6.422071e-05,108.54000000000373,4.229668e-06
108.55500000000373,9.74272e-05,108.55500000000373,2.373747e-07,108.55500000000373,6.626602e-05,108.55500000000373,4.172666e-06
108.57000000000373,9.851535e-05,108.57000000000373,2.373747e-07,108.57000000000373,7.079598e-05,108.57000000000373,3.954266e-06
108.58500000000373,9.664123e-05,108.58500000000373,2.373747e-07,108.58500000000373,6.799407e-05,108.58500000000373,3.989731e-06
108.60000000000373,9.745495e-05,108.60000000000373,2.373747e-07,108.60000000000373,7.112986e-05,108.60000000000373,4.052786e-06
108.61500000000373,9.912659e-05,108.61500000000373,2.373747e-07,108.61500000000373,7.204996e-05,108.61500000000373,4.010859e-06
108.63000000000373,9.95977e-05,108.63000000000373,2.373747e-07,108.63000000000373,7.346065e-05,108.63000000000373,3.979125e-06
108.64500000000373,0.0001003607,108.64500000000373,2.373747e-07,108.64500000000373,6.025928e-05,108.64500000000373,3.896851e-06
108.66000000000373,9.97838e-05,108.66000000000373,2.373747e-07,108.66000000000373,5.934747e-05,108.66000000000373,3.860533e-06
108.67500000000373,9.93744e-05,108.67500000000373,2.373747e-07,108.67500000000373,5.936574e-05,108.67500000000373,3.696496e-06
108.69000000000374,9.952582e-05,108.69000000000374,2.373747e-07,108.69000000000374,6.111165e-05,108.69000000000374,3.607783e-06
108.70500000000374,9.897101e-05,108.70500000000374,2.373747e-07,108.70500000000374,6.381451e-05,108.70500000000374,3.57641e-06
108.72000000000374,9.953941e-05,108.72000000000374,2.373747e-07,108.72000000000374,6.425645e-05,108.72000000000374,3.54476e-06
108.73500000000374,8.720216e-05,108.73500000000374,2.373747e-07,108.73500000000374,6.551004e-05,108.73500000000374,3.56062e-06
108.75000000000374,8.593668e-05,108.75000000000374,2.373747e-07,108.75000000000374,6.820609e-05,108.75000000000374,3.456227e-06
108.76500000000374,8.976168e-05,108.76500000000374,2.373747e-07,108.76500000000374,6.592737e-05,108.76500000000374,3.352786e-06
108.78000000000374,8.616995e-05,108.78000000000374,2.373747e-07,108.78000000000374,6.619988e-05,108.78000000000374,3.306247e-06
108.79500000000374,7.171878e-05,108.79500000000374,2.373747e-07,108.79500000000374,6.815134e-05,108.79500000000374,3.373728e-06
108.81000000000374,7.086559e-05,108.81000000000374,2.907234e-07,108.81000000000374,6.566467e-05,108.81000000000374,3.435788e-06
108.82500000000374,7.107796e-05,108.82500000000374,2.373747e-07,108.82500000000374,6.332723e-05,108.82500000000374,3.580347e-06
108.84000000000374,6.969221e-05,108.84000000000374,2.373747e-07,108.84000000000374,6.264375e-05,108.84000000000374,3.524834e-06
108.85500000000374,6.860539e-05,108.85500000000374,2.907234e-07,108.85500000000374,6.254879e-05,108.85500000000374,3.365367e-06
108.87000000000374,6.670376e-05,108.87000000000374,2.907234e-07,108.87000000000374,6.227003e-05,108.87000000000374,3.344373e-06
108.88500000000374,6.615219e-05,108.88500000000374,2.907234e-07,108.88500000000374,6.10173e-05,108.88500000000374,3.306247e-06
108.90000000000374,6.576178e-05,108.90000000000374,2.907234e-07,108.90000000000374,6.367572e-05,108.90000000000374,3.228645e-06
108.91500000000374,6.584762e-05,108.91500000000374,2.907234e-07,108.91500000000374,6.581852e-05,108.91500000000374,3.202359e-06
108.93000000000374,6.558718e-05,108.93000000000374,2.907234e-07,108.93000000000374,6.514086e-05,108.93000000000374,3.250386e-06
108.94500000000374,6.519533e-05,108.94500000000374,2.907234e-07,108.94500000000374,6.127325e-05,108.94500000000374,3.301983e-06
108.96000000000375,6.519987e-05,108.96000000000375,2.907234e-07,108.96000000000375,6.078067e-05,108.96000000000375,3.427579e-06
108.97500000000375,6.323618e-05,108.97500000000375,2.907234e-07,108.97500000000375,6.032774e-05,108.97500000000375,3.394541e-06
108.99000000000375,6.775831e-05,108.99000000000375,2.907234e-07,108.99000000000375,6.2099e-05,108.99000000000375,3.319004e-06
109.00500000000375,7.686853e-05,109.00500000000375,2.907234e-07,109.00500000000375,5.829276e-05,109.00500000000375,3.419349e-06
109.02000000000375,7.447193e-05,109.02000000000375,2.907234e-07,109.02000000000375,5.802075e-05,109.02000000000375,3.665883e-06
109.03500000000375,7.424308e-05,109.03500000000375,2.907234e-07,109.03500000000375,5.937025e-05,109.03500000000375,3.707911e-06
109.05000000000375,7.387293e-05,109.05000000000375,2.907234e-07,109.05000000000375,5.907339e-05,109.05000000000375,3.665883e-06
109.06500000000375,6.281577e-05,109.06500000000375,2.907234e-07,109.06500000000375,6.90434e-05,109.06500000000375,3.603876e-06
109.08000000000375,5.957655e-05,109.08000000000375,2.907234e-07,109.08000000000375,7.415138e-05,109.08000000000375,3.520835e-06
109.09500000000375,5.92919e-05,109.09500000000375,2.907234e-07,109.09500000000375,6.951229e-05,109.09500000000375,3.635012e-06
109.11000000000375,5.958388e-05,109.11000000000375,2.907234e-07,109.11000000000375,6.769258e-05,109.11000000000375,3.779404e-06
109.12500000000375,6.068325e-05,109.12500000000375,2.907234e-07,109.12500000000375,6.794101e-05,109.12500000000375,3.820184e-06
109.14000000000375,6.287831e-05,109.14000000000375,2.907234e-07,109.14000000000375,6.604244e-05,109.14000000000375,3.805405e-06
109.15500000000375,6.319162e-05,109.15500000000375,2.907234e-07,109.15500000000375,6.460539e-05,109.15500000000375,3.84957e-06
109.17000000000375,6.550079e-05,109.17000000000375,2.907234e-07,109.17000000000375,6.241623e-05,109.17000000000375,3.871464e-06
109.18500000000375,6.516032e-05,109.18500000000375,2.907234e-07,109.18500000000375,6.213869e-05,109.18500000000375,3.91848e-06
109.20000000000375,6.83299e-05,109.20000000000375,2.907234e-07,109.20000000000375,6.431014e-05,109.20000000000375,3.8751e-06
109.21500000000376,6.892536e-05,109.21500000000376,2.907234e-07,109.21500000000376,6.469843e-05,109.21500000000376,3.838577e-06
109.23000000000376,6.637986e-05,109.23000000000376,2.907234e-07,109.23000000000376,6.247646e-05,109.23000000000376,3.889614e-06
109.24500000000376,6.106737e-05,109.24500000000376,2.907234e-07,109.24500000000376,6.187402e-05,109.24500000000376,3.936414e-06
109.26000000000376,4.94623e-05,109.26000000000376,2.907234e-07,109.26000000000376,6.23347e-05,109.26000000000376,3.91848e-06
109.27500000000376,4.799696e-05,109.27500000000376,2.373747e-07,109.27500000000376,6.333813e-05,109.27500000000376,3.73441e-06
109.29000000000376,4.784263e-05,109.29000000000376,2.373747e-07,109.29000000000376,6.331522e-05,109.29000000000376,3.83123e-06
109.30500000000376,4.812299e-05,109.30500000000376,2.373747e-07,109.30500000000376,5.878151e-05,109.30500000000376,3.809105e-06
109.32000000000376,4.962039e-05,109.32000000000376,2.373747e-07,109.32000000000376,4.168309e-05,109.32000000000376,3.900464e-06
109.33500000000376,5.033827e-05,109.33500000000376,2.373747e-07,109.33500000000376,3.792167e-05,109.33500000000376,3.86418e-06
109.35000000000376,5.451019e-05,109.35000000000376,2.373747e-07,109.35000000000376,3.790792e-05,109.35000000000376,3.925663e-06
109.36500000000376,5.256067e-05,109.36500000000376,2.373747e-07,109.36500000000376,3.743904e-05,109.36500000000376,3.809105e-06
109.38000000000376,5.221649e-05,109.38000000000376,2.373747e-07,109.38000000000376,3.509173e-05,109.38000000000376,3.760722e-06
109.39500000000376,4.908923e-05,109.39500000000376,2.373747e-07,109.39500000000376,3.42877e-05,109.39500000000376,3.845909e-06
109.41000000000376,4.912624e-05,109.41000000000376,2.373747e-07,109.41000000000376,3.383776e-05,109.41000000000376,3.764466e-06
109.42500000000376,4.524308e-05,109.42500000000376,2.373747e-07,109.42500000000376,3.458916e-05,109.42500000000376,3.73441e-06
109.44000000000376,4.538421e-05,109.44000000000376,2.373747e-07,109.44000000000376,3.95957e-05,109.44000000000376,3.730636e-06
109.45500000000376,4.209437e-05,109.45500000000376,2.373747e-07,109.45500000000376,3.668764e-05,109.45500000000376,3.726858e-06
109.47000000000376,4.118434e-05,109.47000000000376,2.373747e-07,109.47000000000376,3.581723e-05,109.47000000000376,3.947135e-06
109.48500000000377,4.024463e-05,109.48500000000377,2.373747e-07,109.48500000000377,3.52787e-05,109.48500000000377,3.96849e-06
109.50000000000377,3.871646e-05,109.50000000000377,2.373747e-07,109.50000000000377,3.51523e-05,109.50000000000377,3.922073e-06
109.51500000000377,3.916862e-05,109.51500000000377,2.373747e-07,109.51500000000377,3.635554e-05,109.51500000000377,3.889614e-06
109.53000000000377,4.051708e-05,109.53000000000377,2.373747e-07,109.53000000000377,3.200732e-05,109.53000000000377,3.893234e-06
109.54500000000377,4.21121e-05,109.54500000000377,2.373747e-07,109.54500000000377,3.276157e-05,109.54500000000377,3.860533e-06
109.56000000000377,4.244661e-05,109.56000000000377,2.373747e-07,109.56000000000377,3.215441e-05,109.56000000000377,3.82387e-06
109.57500000000377,4.440017e-05,109.57500000000377,2.373747e-07,109.57500000000377,3.191387e-05,109.57500000000377,3.79057e-06
109.59000000000377,4.286076e-05,109.59000000000377,2.373747e-07,109.59000000000377,3.41176e-05,109.59000000000377,3.723076e-06
109.60500000000377,4.090497e-05,109.60500000000377,2.373747e-07,109.60500000000377,3.358537e-05,109.60500000000377,3.749468e-06
109.62000000000377,4.774654e-05,109.62000000000377,2.373747e-07,109.62000000000377,3.332643e-05,109.62000000000377,3.820184e-06
109.63500000000377,4.958859e-05,109.63500000000377,2.373747e-07,109.63500000000377,3.212241e-05,109.63500000000377,3.882364e-06
109.65000000000377,4.866268e-05,109.65000000000377,2.373747e-07,109.65000000000377,3.228383e-05,109.65000000000377,3.896851e-06
109.66500000000377,4.927254e-05,109.66500000000377,2.373747e-07,109.66500000000377,3.70962e-05,109.66500000000377,3.957827e-06
109.68000000000377,4.905622e-05,109.68000000000377,2.373747e-07,109.68000000000377,3.38989e-05,109.68000000000377,4.059732e-06
109.69500000000377,4.860967e-05,109.69500000000377,2.373747e-07,109.69500000000377,3.420667e-05,109.69500000000377,4.045829e-06
109.71000000000377,4.907144e-05,109.71000000000377,2.373747e-07,109.71000000000377,3.668495e-05,109.71000000000377,3.943564e-06
109.72500000000377,4.934882e-05,109.72500000000377,2.373747e-07,109.72500000000377,3.744731e-05,109.72500000000377,3.809105e-06
109.74000000000377,5.041768e-05,109.74000000000377,2.373747e-07,109.74000000000377,3.780187e-05,109.74000000000377,3.73441e-06
109.75500000000378,5.291698e-05,109.75500000000378,2.373747e-07,109.75500000000378,4.234095e-05,109.75500000000378,3.834905e-06
109.77000000000378,5.294253e-05,109.77000000000378,2.373747e-07,109.77000000000378,4.368758e-05,109.77000000000378,3.764466e-06
109.78500000000378,5.131879e-05,109.78500000000378,2.373747e-07,109.78500000000378,4.704572e-05,109.78500000000378,3.78313e-06
109.80000000000378,5.076406e-05,109.80000000000378,2.373747e-07,109.80000000000378,4.906282e-05,109.80000000000378,3.82387e-06
109.81500000000378,4.819086e-05,109.81500000000378,2.373747e-07,109.81500000000378,5.10328e-05,109.81500000000378,3.84957e-06
109.83000000000378,4.80395e-05,109.83000000000378,2.373747e-07,109.83000000000378,5.148951e-05,109.83000000000378,4.05626e-06
109.84500000000378,4.691349e-05,109.84500000000378,2.373747e-07,109.84500000000378,5.243402e-05,109.84500000000378,4.05626e-06
109.86000000000378,4.287916e-05,109.86000000000378,2.373747e-07,109.86000000000378,5.641907e-05,109.86000000000378,4.01437e-06
109.87500000000378,3.658536e-05,109.87500000000378,2.373747e-07,109.87500000000378,5.79554e-05,109.87500000000378,3.96849e-06
109.89000000000378,3.424495e-05,109.89000000000378,2.373747e-07,109.89000000000378,5.822555e-05,109.89000000000378,4.028382e-06
109.90500000000378,3.353164e-05,109.90500000000378,2.373747e-07,109.90500000000378,5.838959e-05,109.90500000000378,3.878734e-06
109.92000000000378,3.353332e-05,109.92000000000378,2.373747e-07,109.92000000000378,5.606843e-05,109.92000000000378,3.893234e-06
109.93500000000378,3.504875e-05,109.93500000000378,2.373747e-07,109.93500000000378,5.828793e-05,109.93500000000378,3.83123e-06
109.95000000000378,3.84763e-05,109.95000000000378,2.373747e-07,109.95000000000378,5.760336e-05,109.95000000000378,3.925663e-06
109.96500000000378,3.966608e-05,109.96500000000378,2.373747e-07,109.96500000000378,5.628258e-05,109.96500000000378,3.947135e-06
109.98000000000378,4.299235e-05,109.98000000000378,2.373747e-07,109.98000000000378,5.627056e-05,109.98000000000378,4.035369e-06
109.99500000000378,4.310557e-05,109.99500000000378,2.373747e-07,109.99500000000378,5.620745e-05,109.99500000000378,4.038859e-06
110.01000000000379,4.420749e-05,110.01000000000379,2.373747e-07,110.01000000000379,5.433106e-05,110.01000000000379,3.986198e-06
110.02500000000379,4.502335e-05,110.02500000000379,2.373747e-07,110.02500000000379,5.191374e-05,110.02500000000379,3.96849e-06
110.04000000000379,4.551779e-05,110.04000000000379,2.373747e-07,110.04000000000379,4.862213e-05,110.04000000000379,3.954266e-06
110.05500000000379,4.71731e-05,110.05500000000379,2.373747e-07,110.05500000000379,4.566857e-05,110.05500000000379,3.845909e-06
110.07000000000379,4.776247e-05,110.07000000000379,2.373747e-07,110.07000000000379,4.427403e-05,110.07000000000379,3.631134e-06
110.08500000000379,4.774241e-05,110.08500000000379,2.373747e-07,110.08500000000379,4.375943e-05,110.08500000000379,3.707911e-06
110.10000000000379,4.772795e-05,110.10000000000379,2.373747e-07,110.10000000000379,3.73007e-05,110.10000000000379,3.688867e-06
110.11500000000379,4.773356e-05,110.11500000000379,2.373747e-07,110.11500000000379,3.537878e-05,110.11500000000379,3.662038e-06
110.13000000000379,4.895619e-05,110.13000000000379,2.373747e-07,110.13000000000379,3.338977e-05,110.13000000000379,3.685046e-06
110.14500000000379,5.189393e-05,110.14500000000379,2.373747e-07,110.14500000000379,3.369843e-05,110.14500000000379,3.607783e-06
110.16000000000379,5.254271e-05,110.16000000000379,2.373747e-07,110.16000000000379,3.492716e-05,110.16000000000379,3.619477e-06
110.17500000000379,5.185238e-05,110.17500000000379,2.373747e-07,110.17500000000379,3.459283e-05,110.17500000000379,3.552699e-06
110.19000000000379,4.994129e-05,110.19000000000379,2.373747e-07,110.19000000000379,2.820766e-05,110.19000000000379,3.536803e-06
110.20500000000379,4.735342e-05,110.20500000000379,2.373747e-07,110.20500000000379,2.784831e-05,110.20500000000379,3.508812e-06
110.2200000000038,4.341134e-05,110.2200000000038,2.373747e-07,110.2200000000038,2.734964e-05,110.2200000000038,3.4111e-06
110.2350000000038,4.138973e-05,110.2350000000038,2.373747e-07,110.2350000000038,2.674603e-05,110.2350000000038,3.4111e-06
110.2500000000038,3.758587e-05,110.2500000000038,2.373747e-07,110.2500000000038,2.29837e-05,110.2500000000038,3.607783e-06
110.2650000000038,3.615077e-05,110.2650000000038,2.373747e-07,110.2650000000038,2.193309e-05,110.2650000000038,3.627253e-06
110.2800000000038,3.596638e-05,110.2800000000038,2.373747e-07,110.2800000000038,2.606045e-05,110.2800000000038,3.658189e-06
110.2950000000038,3.543846e-05,110.2950000000038,2.373747e-07,110.2950000000038,2.692032e-05,110.2950000000038,3.696496e-06
110.3100000000038,3.227379e-05,110.3100000000038,2.373747e-07,110.3100000000038,2.700965e-05,110.3100000000038,3.723076e-06
110.3250000000038,3.169819e-05,110.3250000000038,2.907234e-07,110.3250000000038,2.651009e-05,110.3250000000038,3.853228e-06
110.3400000000038,3.272156e-05,110.3400000000038,2.373747e-07,110.3400000000038,2.646541e-05,110.3400000000038,3.943564e-06
110.3550000000038,3.483953e-05,110.3550000000038,2.373747e-07,110.3550000000038,2.659073e-05,110.3550000000038,3.871464e-06
110.3700000000038,3.482012e-05,110.3700000000038,2.907234e-07,110.3700000000038,2.680758e-05,110.3700000000038,3.932833e-06
110.3850000000038,2.939136e-05,110.3850000000038,2.907234e-07,110.3850000000038,3.034963e-05,110.3850000000038,3.922073e-06
110.4000000000038,3.094031e-05,110.4000000000038,2.907234e-07,110.4000000000038,2.939711e-05,110.4000000000038,3.932833e-06
110.4150000000038,3.13438e-05,110.4150000000038,2.907234e-07,110.4150000000038,2.946794e-05,110.4150000000038,4.000309e-06
110.4300000000038,3.605517e-05,110.4300000000038,2.907234e-07,110.4300000000038,3.021146e-05,110.4300000000038,4.021382e-06
110.4450000000038,3.997068e-05,110.4450000000038,2.907234e-07,110.4450000000038,3.309951e-05,110.4450000000038,4.042345e-06
110.4600000000038,4.128238e-05,110.4600000000038,2.373747e-07,110.4600000000038,4.375621e-05,110.4600000000038,4.0632e-06
110.4750000000038,3.986481e-05,110.4750000000038,2.373747e-07,110.4750000000038,4.657144e-05,110.4750000000038,4.038859e-06
110.4900000000038,4.03701e-05,110.4900000000038,2.907234e-07,110.4900000000038,4.844101e-05,110.4900000000038,3.996786e-06
110.5050000000038,4.129978e-05,110.5050000000038,2.907234e-07,110.5050000000038,4.961585e-05,110.5050000000038,3.745709e-06
110.5200000000038,4.214487e-05,110.5200000000038,2.907234e-07,110.5200000000038,4.963232e-05,110.5200000000038,3.78313e-06
110.5350000000038,4.222034e-05,110.5350000000038,2.907234e-07,110.5350000000038,4.928826e-05,110.5350000000038,3.82387e-06
110.5500000000038,4.206725e-05,110.5500000000038,2.907234e-07,110.5500000000038,5.132044e-05,110.5500000000038,3.685046e-06
110.5650000000038,4.181838e-05,110.5650000000038,2.907234e-07,110.5650000000038,5.218357e-05,110.5650000000038,3.568524e-06
110.5800000000038,4.249438e-05,110.5800000000038,2.907234e-07,110.5800000000038,5.3566e-05,110.5800000000038,3.540784e-06
110.59500000000381,4.038022e-05,110.59500000000381,2.907234e-07,110.59500000000381,5.434791e-05,110.59500000000381,3.532818e-06
110.61000000000381,4.041439e-05,110.61000000000381,2.907234e-07,110.61000000000381,5.636237e-05,110.61000000000381,3.599965e-06
110.62500000000381,4.200224e-05,110.62500000000381,2.907234e-07,110.62500000000381,5.7068e-05,110.62500000000381,3.536803e-06
110.64000000000381,4.141219e-05,110.64000000000381,2.907234e-07,110.64000000000381,5.789704e-05,110.64000000000381,3.599965e-06
110.65500000000381,4.183388e-05,110.65500000000381,2.907234e-07,110.65500000000381,5.742873e-05,110.65500000000381,3.642754e-06
110.67000000000381,4.379161e-05,110.67000000000381,2.907234e-07,110.67000000000381,5.613045e-05,110.67000000000381,3.548731e-06
110.68500000000381,4.062507e-05,110.68500000000381,2.907234e-07,110.68500000000381,5.541542e-05,110.68500000000381,3.508812e-06
110.70000000000381,3.968845e-05,110.70000000000381,2.907234e-07,110.70000000000381,5.344964e-05,110.70000000000381,3.484641e-06
110.71500000000381,4.047673e-05,110.71500000000381,2.907234e-07,110.71500000000381,4.436875e-05,110.71500000000381,3.484641e-06
110.73000000000381,4.119938e-05,110.73000000000381,2.907234e-07,110.73000000000381,4.309151e-05,110.73000000000381,3.476546e-06
110.74500000000381,4.161781e-05,110.74500000000381,2.907234e-07,110.74500000000381,4.103596e-05,110.74500000000381,3.472492e-06
110.76000000000381,4.000239e-05,110.76000000000381,2.907234e-07,110.76000000000381,4.110456e-05,110.76000000000381,3.580347e-06
110.77500000000381,3.902233e-05,110.77500000000381,2.373747e-07,110.77500000000381,3.979124e-05,110.77500000000381,3.588207e-06
110.79000000000381,3.891895e-05,110.79000000000381,2.373747e-07,110.79000000000381,4.250432e-05,110.79000000000381,3.536803e-06
110.80500000000382,3.838687e-05,110.80500000000382,2.373747e-07,110.80500000000382,4.035125e-05,110.80500000000382,3.516832e-06
110.82000000000382,3.819262e-05,110.82000000000382,2.373747e-07,110.82000000000382,3.781417e-05,110.82000000000382,3.627253e-06
110.83500000000382,3.739875e-05,110.83500000000382,2.373747e-07,110.83500000000382,3.622706e-05,110.83500000000382,3.607783e-06
110.85000000000382,3.779405e-05,110.85000000000382,2.373747e-07,110.85000000000382,3.361974e-05,110.85000000000382,3.520835e-06
110.86500000000382,3.747063e-05,110.86500000000382,2.373747e-07,110.86500000000382,3.080205e-05,110.86500000000382,3.504795e-06
110.88000000000382,3.702056e-05,110.88000000000382,2.373747e-07,110.88000000000382,3.283373e-05,110.88000000000382,3.476546e-06
110.89500000000382,3.73573e-05,110.89500000000382,2.373747e-07,110.89500000000382,3.153109e-05,110.89500000000382,3.654337e-06
110.91000000000382,3.415639e-05,110.91000000000382,2.373747e-07,110.91000000000382,3.204075e-05,110.91000000000382,3.764466e-06
110.92500000000382,3.150562e-05,110.92500000000382,2.907234e-07,110.92500000000382,3.244357e-05,110.92500000000382,3.904074e-06
110.94000000000382,2.856052e-05,110.94000000000382,2.907234e-07,110.94000000000382,3.253419e-05,110.94000000000382,3.900464e-06
110.95500000000382,2.606207e-05,110.95500000000382,2.907234e-07,110.95500000000382,3.427578e-05,110.95500000000382,3.845909e-06
110.97000000000382,2.619255e-05,110.97000000000382,2.907234e-07,110.97000000000382,3.403037e-05,110.97000000000382,3.911283e-06
110.98500000000382,2.422501e-05,110.98500000000382,2.907234e-07,110.98500000000382,3.474925e-05,110.98500000000382,3.84957e-06
111.00000000000382,2.431324e-05,111.00000000000382,2.907234e-07,111.00000000000382,3.449128e-05,111.00000000000382,3.786851e-06
111.01500000000382,2.483034e-05,111.01500000000382,2.907234e-07,111.01500000000382,3.37331e-05,111.01500000000382,3.726858e-06
111.03000000000382,2.500109e-05,111.03000000000382,2.907234e-07,111.03000000000382,3.133615e-05,111.03000000000382,3.741947e-06
111.04500000000382,2.508434e-05,111.04500000000382,2.907234e-07,111.04500000000382,2.706384e-05,111.04500000000382,3.771943e-06
111.06000000000382,2.771597e-05,111.06000000000382,2.907234e-07,111.06000000000382,2.677445e-05,111.06000000000382,3.715501e-06
111.07500000000383,2.836702e-05,111.07500000000383,2.907234e-07,111.07500000000383,2.672811e-05,111.07500000000383,3.627253e-06
111.09000000000383,2.86162e-05,111.09000000000383,2.907234e-07,111.09000000000383,2.799764e-05,111.09000000000383,3.662038e-06
111.10500000000383,2.776624e-05,111.10500000000383,2.907234e-07,111.10500000000383,2.878553e-05,111.10500000000383,3.658189e-06
111.12000000000383,2.812364e-05,111.12000000000383,2.907234e-07,111.12000000000383,2.785286e-05,111.12000000000383,3.688867e-06
111.13500000000383,2.73481e-05,111.13500000000383,2.907234e-07,111.13500000000383,2.332803e-05,111.13500000000383,3.658189e-06
111.15000000000383,2.67028e-05,111.15000000000383,2.907234e-07,111.15000000000383,2.254809e-05,111.15000000000383,3.654337e-06
111.16500000000383,2.704613e-05,111.16500000000383,2.907234e-07,111.16500000000383,2.135449e-05,111.16500000000383,3.723076e-06
111.18000000000383,2.808755e-05,111.18000000000383,2.907234e-07,111.18000000000383,2.102475e-05,111.18000000000383,3.568524e-06
111.19500000000383,2.739082e-05,111.19500000000383,2.907234e-07,111.19500000000383,1.962473e-05,111.19500000000383,3.627253e-06
111.21000000000383,2.927273e-05,111.21000000000383,2.907234e-07,111.21000000000383,2.077334e-05,111.21000000000383,3.696496e-06
111.22500000000383,3.014378e-05,111.22500000000383,2.373747e-07,111.22500000000383,2.2205e-05,111.22500000000383,3.688867e-06
111.24000000000383,2.99995e-05,111.24000000000383,2.373747e-07,111.24000000000383,2.251684e-05,111.24000000000383,3.753223e-06
111.25500000000383,3.018068e-05,111.25500000000383,2.907234e-07,111.25500000000383,2.287496e-05,111.25500000000383,3.996786e-06
111.27000000000383,2.971785e-05,111.27000000000383,2.373747e-07,111.27000000000383,2.269505e-05,111.27000000000383,3.99326e-06
111.28500000000383,2.977988e-05,111.28500000000383,2.373747e-07,111.28500000000383,2.268636e-05,111.28500000000383,4.128545e-06
111.30000000000383,3.002766e-05,111.30000000000383,2.373747e-07,111.30000000000383,2.270809e-05,111.30000000000383,4.20294e-06
111.31500000000383,2.846765e-05,111.31500000000383,2.373747e-07,111.31500000000383,2.270809e-05,111.31500000000383,4.20294e-06
111.33000000000384,2.831433e-05,111.33000000000384,2.373747e-07,111.33000000000384,2.274342e-05,111.33000000000384,4.299038e-06
111.34500000000384,3.23614e-05,111.34500000000384,2.907234e-07,111.34500000000384,2.150698e-05,111.34500000000384,4.312125e-06
111.36000000000384,3.196415e-05,111.36000000000384,2.907234e-07,111.36000000000384,2.157304e-05,111.36000000000384,4.328428e-06
111.37500000000384,3.094486e-05,111.37500000000384,2.907234e-07,111.37500000000384,2.2205e-05,111.37500000000384,4.325173e-06
111.39000000000384,3.04326e-05,111.39000000000384,2.907234e-07,111.39000000000384,2.220056e-05,111.39000000000384,4.373753e-06
111.40500000000384,3.03872e-05,111.40500000000384,2.907234e-07,111.40500000000384,2.229996e-05,111.40500000000384,4.209638e-06
111.42000000000384,2.924481e-05,111.42000000000384,2.907234e-07,111.42000000000384,2.2281e-05,111.42000000000384,3.961384e-06
111.43500000000384,3.056378e-05,111.43500000000384,2.907234e-07,111.43500000000384,2.227404e-05,111.43500000000384,4.028382e-06
111.45000000000384,3.065122e-05,111.45000000000384,2.907234e-07,111.45000000000384,2.19363e-05,111.45000000000384,4.021382e-06
111.46500000000384,2.685273e-05,111.46500000000384,2.907234e-07,111.46500000000384,1.919655e-05,111.46500000000384,4.035369e-06
111.48000000000384,2.643772e-05,111.48000000000384,2.373747e-07,111.48000000000384,2.024028e-05,111.48000000000384,3.961384e-06
111.49500000000384,2.588364e-05,111.49500000000384,2.907234e-07,111.49500000000384,2.051609e-05,111.49500000000384,3.964939e-06
111.51000000000384,2.570999e-05,111.51000000000384,2.907234e-07,111.51000000000384,2.099458e-05,111.51000000000384,3.760722e-06
111.52500000000384,2.715892e-05,111.52500000000384,2.907234e-07,111.52500000000384,2.106558e-05,111.52500000000384,3.726858e-06
111.54000000000384,2.989979e-05,111.54000000000384,2.907234e-07,111.54000000000384,2.173761e-05,111.54000000000384,3.685046e-06
111.55500000000384,2.999246e-05,111.55500000000384,2.373747e-07,111.55500000000384,2.301249e-05,111.55500000000384,3.611685e-06
111.57000000000384,2.902482e-05,111.57000000000384,2.373747e-07,111.57000000000384,2.343406e-05,111.57000000000384,3.59605e-06
111.58500000000384,2.815268e-05,111.58500000000384,2.373747e-07,111.58500000000384,2.435434e-05,111.58500000000384,3.54476e-06
111.60000000000385,2.439653e-05,111.60000000000385,2.373747e-07,111.60000000000385,2.661033e-05,111.60000000000385,3.431686e-06
111.61500000000385,2.474795e-05,111.61500000000385,2.373747e-07,111.61500000000385,2.495541e-05,111.61500000000385,3.456227e-06
111.63000000000385,2.542348e-05,111.63000000000385,2.907234e-07,111.63000000000385,2.420989e-05,111.63000000000385,3.431686e-06
111.64500000000385,2.565459e-05,111.64500000000385,2.373747e-07,111.64500000000385,2.426452e-05,111.64500000000385,3.431686e-06
111.66000000000385,2.635607e-05,111.66000000000385,2.373747e-07,111.66000000000385,2.476104e-05,111.66000000000385,3.423466e-06
111.67500000000385,2.553957e-05,111.67500000000385,2.907234e-07,111.67500000000385,2.527344e-05,111.67500000000385,3.4111e-06
111.69000000000385,2.561173e-05,111.69000000000385,2.907234e-07,111.69000000000385,2.626076e-05,111.69000000000385,3.468433e-06
111.70500000000385,2.534913e-05,111.70500000000385,2.373747e-07,111.70500000000385,2.628971e-05,111.70500000000385,3.352786e-06
111.72000000000385,2.544176e-05,111.72000000000385,2.373747e-07,111.72000000000385,2.434046e-05,111.72000000000385,3.427579e-06
111.73500000000385,2.579314e-05,111.73500000000385,2.373747e-07,111.73500000000385,2.457372e-05,111.73500000000385,3.603876e-06
111.75000000000385,2.691561e-05,111.75000000000385,2.373747e-07,111.75000000000385,2.406281e-05,111.75000000000385,3.631134e-06
111.76500000000385,2.872626e-05,111.76500000000385,2.373747e-07,111.76500000000385,2.353783e-05,111.76500000000385,3.696496e-06
111.78000000000385,2.560622e-05,111.78000000000385,2.373747e-07,111.78000000000385,2.311693e-05,111.78000000000385,3.726858e-06
111.79500000000385,2.34887e-05,111.79500000000385,2.373747e-07,111.79500000000385,2.258742e-05,111.79500000000385,3.726858e-06
111.81000000000385,2.34839e-05,111.81000000000385,2.373747e-07,111.81000000000385,2.207202e-05,111.81000000000385,3.719291e-06
111.82500000000385,2.364054e-05,111.82500000000385,2.373747e-07,111.82500000000385,2.17784e-05,111.82500000000385,3.696496e-06
111.84000000000385,2.429991e-05,111.84000000000385,2.373747e-07,111.84000000000385,2.074144e-05,111.84000000000385,3.820184e-06
111.85500000000386,2.394133e-05,111.85500000000386,2.373747e-07,111.85500000000386,2.04487e-05,111.85500000000386,3.936414e-06
111.87000000000386,2.396368e-05,111.87000000000386,2.373747e-07,111.87000000000386,2.035756e-05,111.87000000000386,3.860533e-06
111.88500000000386,2.34929e-05,111.88500000000386,2.373747e-07,111.88500000000386,2.034995e-05,111.88500000000386,3.904074e-06
111.90000000000386,2.402473e-05,111.90000000000386,2.373747e-07,111.90000000000386,1.972925e-05,111.90000000000386,3.90768e-06
111.91500000000386,2.2473e-05,111.91500000000386,2.373747e-07,111.91500000000386,2.031114e-05,111.91500000000386,3.896851e-06
111.93000000000386,2.291373e-05,111.93000000000386,2.373747e-07,111.93000000000386,1.952614e-05,111.93000000000386,3.925663e-06
111.94500000000386,2.422036e-05,111.94500000000386,2.373747e-07,111.94500000000386,2.34863e-05,111.94500000000386,4.101159e-06
111.96000000000386,2.435492e-05,111.96000000000386,2.907234e-07,111.96000000000386,2.385645e-05,111.96000000000386,4.108022e-06
111.97500000000386,2.546279e-05,111.97500000000386,2.373747e-07,111.97500000000386,2.41965e-05,111.97500000000386,4.010859e-06
111.99000000000386,2.459492e-05,111.99000000000386,2.907234e-07,111.99000000000386,2.290573e-05,111.99000000000386,3.84957e-06
112.00500000000386,2.327785e-05,112.00500000000386,2.907234e-07,112.00500000000386,2.404642e-05,112.00500000000386,3.82387e-06
112.02000000000386,2.100464e-05,112.02000000000386,2.907234e-07,112.02000000000386,2.432714e-05,112.02000000000386,3.73441e-06
112.03500000000386,2.105086e-05,112.03500000000386,2.907234e-07,112.03500000000386,2.566392e-05,112.03500000000386,3.775675e-06
112.05000000000386,2.135185e-05,112.05000000000386,2.373747e-07,112.05000000000386,2.64734e-05,112.05000000000386,3.726858e-06
112.06500000000386,2.17965e-05,112.06500000000386,2.373747e-07,112.06500000000386,2.806548e-05,112.06500000000386,3.700305e-06
112.08000000000386,2.17227e-05,112.08000000000386,2.373747e-07,112.08000000000386,2.973301e-05,112.08000000000386,3.70411e-06
112.09500000000386,2.010691e-05,112.09500000000386,2.373747e-07,112.09500000000386,2.863736e-05,112.09500000000386,3.73818e-06
112.11000000000386,1.996701e-05,112.11000000000386,2.373747e-07,112.11000000000386,2.866686e-05,112.11000000000386,3.615583e-06
112.12500000000387,2.006132e-05,112.12500000000387,2.373747e-07,112.12500000000387,2.865457e-05,112.12500000000387,3.615583e-06
112.14000000000387,2.592279e-05,112.14000000000387,2.907234e-07,112.14000000000387,2.866391e-05,112.14000000000387,3.665883e-06
112.15500000000387,2.758351e-05,112.15500000000387,2.907234e-07,112.15500000000387,2.85546e-05,112.15500000000387,3.685046e-06
112.17000000000387,2.795836e-05,112.17000000000387,2.907234e-07,112.17000000000387,2.777132e-05,112.17000000000387,3.669723e-06
112.18500000000387,3.377317e-05,112.18500000000387,2.907234e-07,112.18500000000387,2.617802e-05,112.18500000000387,3.669723e-06
112.20000000000387,3.396449e-05,112.20000000000387,2.373747e-07,112.20000000000387,2.390482e-05,112.20000000000387,3.564574e-06
112.21500000000387,3.401878e-05,112.21500000000387,2.373747e-07,112.21500000000387,2.335156e-05,112.21500000000387,3.592131e-06
112.23000000000387,3.333614e-05,112.23000000000387,2.373747e-07,112.23000000000387,2.333587e-05,112.23000000000387,3.775675e-06
112.24500000000387,3.396449e-05,112.24500000000387,2.373747e-07,112.24500000000387,2.350429e-05,112.24500000000387,3.827552e-06
112.26000000000387,3.374605e-05,112.26000000000387,2.373747e-07,112.26000000000387,2.231953e-05,112.26000000000387,3.904074e-06
112.27500000000387,3.40767e-05,112.27500000000387,2.907234e-07,112.27500000000387,2.182363e-05,112.27500000000387,3.816494e-06
112.29000000000387,3.422026e-05,112.29000000000387,2.373747e-07,112.29000000000387,2.060584e-05,112.29000000000387,3.943564e-06
112.30500000000387,3.425729e-05,112.30500000000387,2.373747e-07,112.30500000000387,2.100598e-05,112.30500000000387,3.90768e-06
112.32000000000387,3.465508e-05,112.32000000000387,2.373747e-07,112.32000000000387,1.73649e-05,112.32000000000387,3.954266e-06
112.33500000000387,3.569156e-05,112.33500000000387,2.373747e-07,112.33500000000387,1.842217e-05,112.33500000000387,3.878734e-06
112.35000000000387,3.78056e-05,112.35000000000387,2.373747e-07,112.35000000000387,1.744906e-05,112.35000000000387,3.943564e-06
112.36500000000387,3.797847e-05,112.36500000000387,2.907234e-07,112.36500000000387,1.806467e-05,112.36500000000387,4.000309e-06
112.38000000000388,3.816974e-05,112.38000000000388,2.907234e-07,112.38000000000388,1.885747e-05,112.38000000000388,3.925663e-06
112.39500000000388,3.466686e-05,112.39500000000388,2.907234e-07,112.39500000000388,2.835112e-05,112.39500000000388,3.99326e-06
112.41000000000388,3.418442e-05,112.41000000000388,2.373747e-07,112.41000000000388,2.912027e-05,112.41000000000388,3.947135e-06
112.42500000000388,3.473628e-05,112.42500000000388,2.373747e-07,112.42500000000388,3.034824e-05,112.42500000000388,3.91848e-06
112.44000000000388,3.157663e-05,112.44000000000388,2.373747e-07,112.44000000000388,3.152573e-05,112.44000000000388,3.896851e-06
112.45500000000388,3.11852e-05,112.45500000000388,2.373747e-07,112.45500000000388,3.167551e-05,112.45500000000388,3.860533e-06
112.47000000000388,3.155789e-05,112.47000000000388,2.373747e-07,112.47000000000388,3.502141e-05,112.47000000000388,3.853228e-06
112.48500000000388,3.157083e-05,112.48500000000388,2.373747e-07,112.48500000000388,3.713112e-05,112.48500000000388,3.688867e-06
112.50000000000388,3.148818e-05,112.50000000000388,2.373747e-07,112.50000000000388,3.794396e-05,112.50000000000388,3.745709e-06
112.51500000000388,3.33885e-05,112.51500000000388,2.373747e-07,112.51500000000388,4.13458e-05,112.51500000000388,3.730636e-06
112.53000000000388,3.358999e-05,112.53000000000388,2.373747e-07,112.53000000000388,4.216459e-05,112.53000000000388,3.692683e-06
112.54500000000388,3.388518e-05,112.54500000000388,2.373747e-07,112.54500000000388,4.229967e-05,112.54500000000388,3.552699e-06
112.56000000000388,3.431275e-05,112.56000000000388,2.373747e-07,112.56000000000388,4.264494e-05,112.56000000000388,3.512824e-06
112.57500000000388,3.357237e-05,112.57500000000388,2.373747e-07,112.57500000000388,4.416285e-05,112.57500000000388,3.460301e-06
112.59000000000388,3.64403e-05,112.59000000000388,2.373747e-07,112.59000000000388,4.591252e-05,112.59000000000388,3.492716e-06
112.60500000000388,3.460341e-05,112.60500000000388,2.373747e-07,112.60500000000388,4.632852e-05,112.60500000000388,3.452149e-06
112.62000000000388,3.437756e-05,112.62000000000388,2.373747e-07,112.62000000000388,4.60565e-05,112.62000000000388,3.552699e-06
112.63500000000388,3.426304e-05,112.63500000000388,2.373747e-07,112.63500000000388,5.066907e-05,112.63500000000388,3.512824e-06
112.65000000000389,3.296945e-05,112.65000000000389,2.373747e-07,112.65000000000389,4.690718e-05,112.65000000000389,3.564574e-06
112.66500000000389,3.245399e-05,112.66500000000389,2.373747e-07,112.66500000000389,4.671067e-05,112.66500000000389,3.642754e-06
112.68000000000389,2.901511e-05,112.68000000000389,2.373747e-07,112.68000000000389,4.730461e-05,112.68000000000389,3.665883e-06
112.69500000000389,2.851561e-05,112.69500000000389,2.373747e-07,112.69500000000389,4.75615e-05,112.69500000000389,3.677393e-06
112.71000000000389,2.862949e-05,112.71000000000389,2.373747e-07,112.71000000000389,4.959597e-05,112.71000000000389,3.711708e-06
112.72500000000389,2.874342e-05,112.72500000000389,2.373747e-07,112.72500000000389,4.700468e-05,112.72500000000389,3.801702e-06
112.74000000000389,2.963573e-05,112.74000000000389,2.373747e-07,112.74000000000389,4.562567e-05,112.74000000000389,3.820184e-06
112.75500000000389,3.015313e-05,112.75500000000389,2.373747e-07,112.75500000000389,4.442776e-05,112.75500000000389,3.856882e-06
112.77000000000389,3.211628e-05,112.77000000000389,2.373747e-07,112.77000000000389,4.159242e-05,112.77000000000389,3.922073e-06
112.78500000000389,3.788525e-05,112.78500000000389,2.373747e-07,112.78500000000389,4.136556e-05,112.78500000000389,3.936414e-06
112.80000000000389,3.829759e-05,112.80000000000389,2.373747e-07,112.80000000000389,4.08712e-05,112.80000000000389,3.932833e-06
112.81500000000389,3.809882e-05,112.81500000000389,2.373747e-07,112.81500000000389,4.088464e-05,112.81500000000389,3.950702e-06
112.83000000000389,3.642947e-05,112.83000000000389,2.373747e-07,112.83000000000389,3.767645e-05,112.83000000000389,4.003829e-06
112.84500000000389,3.476628e-05,112.84500000000389,2.373747e-07,112.84500000000389,3.691882e-05,112.84500000000389,3.950702e-06
112.8600000000039,3.443528e-05,112.8600000000039,2.373747e-07,112.8600000000039,3.779069e-05,112.8600000000039,3.86418e-06
112.8750000000039,3.379777e-05,112.8750000000039,2.373747e-07,112.8750000000039,3.833473e-05,112.8750000000039,3.756974e-06
112.8900000000039,3.357866e-05,112.8900000000039,2.373747e-07,112.8900000000039,3.20838e-05,112.8900000000039,3.580347e-06
112.9050000000039,3.366329e-05,112.9050000000039,2.373747e-07,112.9050000000039,3.050703e-05,112.9050000000039,3.603876e-06
112.9200000000039,3.376775e-05,112.9200000000039,2.373747e-07,112.9200000000039,2.944164e-05,112.9200000000039,3.588207e-06
112.9350000000039,3.336318e-05,112.9350000000039,2.373747e-07,112.9350000000039,2.820317e-05,112.9350000000039,3.54476e-06
112.9500000000039,3.378693e-05,112.9500000000039,2.373747e-07,112.9500000000039,2.550646e-05,112.9500000000039,3.496747e-06
112.9650000000039,3.397735e-05,112.9650000000039,2.373747e-07,112.9650000000039,2.365126e-05,112.9650000000039,3.394541e-06
112.9800000000039,3.369383e-05,112.9800000000039,2.373747e-07,112.9800000000039,2.505568e-05,112.9800000000039,3.365367e-06
112.9950000000039,3.287661e-05,112.9950000000039,2.907234e-07,112.9950000000039,2.613871e-05,112.9950000000039,3.250386e-06
113.0100000000039,3.187677e-05,113.0100000000039,2.907234e-07,113.0100000000039,2.631863e-05,113.0100000000039,3.219907e-06
113.0250000000039,2.606802e-05,113.0250000000039,2.907234e-07,113.0250000000039,2.625647e-05,113.0250000000039,3.094987e-06
113.0400000000039,1.87135e-05,113.0400000000039,2.373747e-07,113.0400000000039,2.52383e-05,113.0400000000039,3.11314e-06
113.0550000000039,1.715268e-05,113.0550000000039,2.373747e-07,113.0550000000039,2.509164e-05,113.0550000000039,3.117661e-06
113.0700000000039,1.658313e-05,113.0700000000039,2.373747e-07,113.0700000000039,2.460466e-05,113.0700000000039,3.108612e-06
113.0850000000039,1.633062e-05,113.0850000000039,2.373747e-07,113.0850000000039,2.563591e-05,113.0850000000039,3.280583e-06
113.1000000000039,1.588993e-05,113.1000000000039,2.373747e-07,113.1000000000039,2.501573e-05,113.1000000000039,3.435788e-06
113.1150000000039,1.612489e-05,113.1150000000039,2.373747e-07,113.1150000000039,2.415747e-05,113.1150000000039,3.40283e-06
113.1300000000039,1.647661e-05,113.1300000000039,2.373747e-07,113.1300000000039,2.238759e-05,113.1300000000039,3.472492e-06
113.1450000000039,1.65048e-05,113.1450000000039,2.373747e-07,113.1450000000039,2.212429e-05,113.1450000000039,3.492716e-06
113.1600000000039,1.659162e-05,113.1600000000039,2.373747e-07,113.1600000000039,2.255247e-05,113.1600000000039,3.54476e-06
113.1750000000039,1.586064e-05,113.1750000000039,2.373747e-07,113.1750000000039,2.312119e-05,113.1750000000039,3.512824e-06
113.1900000000039,1.552946e-05,113.1900000000039,2.373747e-07,113.1900000000039,2.315468e-05,113.1900000000039,3.476546e-06
113.2050000000039,1.598626e-05,113.2050000000039,2.373747e-07,113.2050000000039,2.318447e-05,113.2050000000039,3.536803e-06
113.2200000000039,1.525213e-05,113.2200000000039,2.373747e-07,113.2200000000039,2.250307e-05,113.2200000000039,3.57641e-06
113.23500000000391,1.426422e-05,113.23500000000391,2.373747e-07,113.23500000000391,2.560622e-05,113.23500000000391,3.580347e-06
113.25000000000391,1.455844e-05,113.25000000000391,2.373747e-07,113.25000000000391,2.662091e-05,113.25000000000391,3.584279e-06
113.26500000000391,1.392946e-05,113.26500000000391,2.373747e-07,113.26500000000391,2.687842e-05,113.26500000000391,3.548731e-06
113.28000000000391,1.333847e-05,113.28000000000391,2.373747e-07,113.28000000000391,2.730531e-05,113.28000000000391,3.711708e-06
113.29500000000391,1.506161e-05,113.29500000000391,2.373747e-07,113.29500000000391,2.846171e-05,113.29500000000391,3.665883e-06
113.31000000000391,1.507936e-05,113.31000000000391,2.373747e-07,113.31000000000391,2.836354e-05,113.31000000000391,3.745709e-06
113.32500000000391,1.554668e-05,113.32500000000391,2.373747e-07,113.32500000000391,3.028226e-05,113.32500000000391,3.59605e-06
113.34000000000391,1.596951e-05,113.34000000000391,2.373747e-07,113.34000000000391,2.842506e-05,113.34000000000391,3.607783e-06
113.35500000000391,1.634355e-05,113.35500000000391,2.373747e-07,113.35500000000391,2.893489e-05,113.35500000000391,3.456227e-06
113.37000000000391,1.766568e-05,113.37000000000391,2.373747e-07,113.37000000000391,3.020307e-05,113.37000000000391,3.580347e-06
113.38500000000391,1.974709e-05,113.38500000000391,2.373747e-07,113.38500000000391,3.382443e-05,113.38500000000391,3.548731e-06
113.40000000000391,1.971925e-05,113.40000000000391,2.373747e-07,113.40000000000391,3.745822e-05,113.40000000000391,3.508812e-06
113.41500000000391,2.030213e-05,113.41500000000391,2.373747e-07,113.41500000000391,3.710114e-05,113.41500000000391,3.419349e-06
113.43000000000391,2.254497e-05,113.43000000000391,2.373747e-07,113.43000000000391,3.826815e-05,113.43000000000391,3.406967e-06
113.44500000000392,2.340519e-05,113.44500000000392,2.373747e-07,113.44500000000392,4.085466e-05,113.44500000000392,3.439886e-06
113.46000000000392,2.262481e-05,113.46000000000392,2.373747e-07,113.46000000000392,4.21024e-05,113.46000000000392,3.406967e-06
113.47500000000392,2.362087e-05,113.47500000000392,2.373747e-07,113.47500000000392,4.070093e-05,113.47500000000392,3.365367e-06
113.49000000000392,2.392426e-05,113.49000000000392,2.373747e-07,113.49000000000392,3.807182e-05,113.49000000000392,3.423466e-06
113.50500000000392,2.368459e-05,113.50500000000392,2.373747e-07,113.50500000000392,3.907212e-05,113.50500000000392,3.419349e-06
113.52000000000392,2.383518e-05,113.52000000000392,2.373747e-07,113.52000000000392,3.882292e-05,113.52000000000392,3.390388e-06
113.53500000000392,2.675182e-05,113.53500000000392,2.373747e-07,113.53500000000392,3.862612e-05,113.53500000000392,3.280583e-06
113.55000000000392,2.704145e-05,113.55000000000392,2.373747e-07,113.55000000000392,3.782944e-05,113.55000000000392,3.452149e-06
113.56500000000392,2.839481e-05,113.56500000000392,2.373747e-07,113.56500000000392,3.716449e-05,113.56500000000392,3.4111e-06
113.58000000000392,3.036773e-05,113.58000000000392,2.373747e-07,113.58000000000392,3.578497e-05,113.58000000000392,3.406967e-06
113.59500000000392,3.177808e-05,113.59500000000392,2.373747e-07,113.59500000000392,3.573179e-05,113.59500000000392,3.386231e-06
113.61000000000392,3.271597e-05,113.61000000000392,2.373747e-07,113.61000000000392,3.444019e-05,113.61000000000392,3.456227e-06
113.62500000000392,3.175591e-05,113.62500000000392,2.373747e-07,113.62500000000392,3.31446e-05,113.62500000000392,3.319004e-06
113.64000000000392,3.287318e-05,113.64000000000392,2.373747e-07,113.64000000000392,3.11409e-05,113.64000000000392,3.276286e-06
113.65500000000392,3.277318e-05,113.65500000000392,2.907234e-07,113.65500000000392,2.960149e-05,113.65500000000392,3.323245e-06
113.67000000000392,3.844261e-05,113.67000000000392,2.907234e-07,113.67000000000392,2.948562e-05,113.67000000000392,3.323245e-06
113.68500000000392,4.724323e-05,113.68500000000392,2.907234e-07,113.68500000000392,2.422966e-05,113.68500000000392,3.361178e-06
113.70000000000393,5.227015e-05,113.70000000000393,2.907234e-07,113.70000000000393,2.345269e-05,113.70000000000393,3.377901e-06
113.71500000000393,5.580451e-05,113.71500000000393,2.907234e-07,113.71500000000393,2.093747e-05,113.71500000000393,3.431686e-06
113.73000000000393,6.187447e-05,113.73000000000393,2.907234e-07,113.73000000000393,2.122812e-05,113.73000000000393,3.4111e-06
113.74500000000393,6.363103e-05,113.74500000000393,2.907234e-07,113.74500000000393,2.058601e-05,113.74500000000393,3.419349e-06
113.76000000000393,6.735043e-05,113.76000000000393,2.907234e-07,113.76000000000393,1.850685e-05,113.76000000000393,3.394541e-06
113.77500000000393,7.556497e-05,113.77500000000393,2.907234e-07,113.77500000000393,1.866677e-05,113.77500000000393,3.415227e-06
113.79000000000393,7.563522e-05,113.79000000000393,2.907234e-07,113.79000000000393,1.870145e-05,113.79000000000393,3.377901e-06
113.80500000000393,7.585115e-05,113.80500000000393,2.907234e-07,113.80500000000393,1.906253e-05,113.80500000000393,3.219907e-06
113.82000000000393,7.498128e-05,113.82000000000393,2.907234e-07,113.82000000000393,2.296286e-05,113.82000000000393,3.267676e-06
113.83500000000393,7.480956e-05,113.83500000000393,2.907234e-07,113.83500000000393,2.721333e-05,113.83500000000393,3.280583e-06
113.85000000000393,7.401333e-05,113.85000000000393,2.907234e-07,113.85000000000393,2.848644e-05,113.85000000000393,3.331712e-06
113.86500000000393,7.419487e-05,113.86500000000393,2.907234e-07,113.86500000000393,2.973538e-05,113.86500000000393,3.323245e-06
113.88000000000393,7.795039e-05,113.88000000000393,2.907234e-07,113.88000000000393,2.625379e-05,113.88000000000393,3.331712e-06
113.89500000000393,7.749201e-05,113.89500000000393,2.373747e-07,113.89500000000393,2.67613e-05,113.89500000000393,3.394541e-06
113.91000000000393,7.853407e-05,113.91000000000393,2.373747e-07,113.91000000000393,2.854671e-05,113.91000000000393,3.488681e-06
113.92500000000393,7.561231e-05,113.92500000000393,2.373747e-07,113.92500000000393,2.862359e-05,113.92500000000393,3.460301e-06
113.94000000000393,7.949802e-05,113.94000000000393,2.373747e-07,113.94000000000393,2.877966e-05,113.94000000000393,3.431686e-06
113.95500000000393,8.308995e-05,113.95500000000393,2.373747e-07,113.95500000000393,2.877574e-05,113.95500000000393,3.419349e-06
113.97000000000394,8.431163e-05,113.97000000000394,2.373747e-07,113.97000000000394,2.858665e-05,113.97000000000394,3.323245e-06
113.98500000000394,8.55035e-05,113.98500000000394,2.373747e-07,113.98500000000394,2.976379e-05,113.98500000000394,3.348582e-06
114.00000000000394,8.695482e-05,114.00000000000394,2.373747e-07,114.00000000000394,3.187677e-05,114.00000000000394,3.398688e-06
114.01500000000394,9.804106e-05,114.01500000000394,2.373747e-07,114.01500000000394,3.494894e-05,114.01500000000394,3.460301e-06
114.03000000000394,9.485027e-05,114.03000000000394,2.373747e-07,114.03000000000394,3.495377e-05,114.03000000000394,3.377901e-06
114.04500000000394,9.400756e-05,114.04500000000394,2.373747e-07,114.04500000000394,3.50017e-05,114.04500000000394,3.40283e-06
114.06000000000394,9.439084e-05,114.06000000000394,2.373747e-07,114.06000000000394,3.47456e-05,114.06000000000394,3.356985e-06
114.07500000000394,9.684639e-05,114.07500000000394,2.373747e-07,114.07500000000394,3.502101e-05,114.07500000000394,3.398688e-06
114.09000000000394,9.715789e-05,114.09000000000394,2.373747e-07,114.09000000000394,3.257227e-05,114.09000000000394,3.564574e-06
114.10500000000394,9.721659e-05,114.10500000000394,2.373747e-07,114.10500000000394,3.304073e-05,114.10500000000394,3.524834e-06
114.12000000000394,9.634254e-05,114.12000000000394,2.373747e-07,114.12000000000394,3.290573e-05,114.12000000000394,3.516832e-06
114.13500000000394,9.617674e-05,114.13500000000394,2.373747e-07,114.13500000000394,3.421902e-05,114.13500000000394,3.492716e-06
