X[s],a: EMG RMS 1-1,X[s].1,a: EMG RMS 1-2,X[s].2,a: EMG RMS 1-3,X[s].3,a: EMG RMS 1-4
658.0049999995225,2.644518e-05,658.0049999995225,0.001919415,658.0049999995225,1.919509e-05,658.0049999995225,4.052265e-05
658.0199999995225,2.763045e-05,658.0199999995225,0.001857668,658.0199999995225,1.958377e-05,658.0199999995225,4.031038e-05
658.0349999995225,3.381027e-05,658.0349999995225,0.001765823,658.0349999995225,2.065774e-05,658.0349999995225,3.857466e-05
658.0499999995225,3.247221e-05,658.0499999995225,0.001682569,658.0499999995225,2.113168e-05,658.0499999995225,3.767645e-05
658.0649999995225,3.235662e-05,658.0649999995225,0.001659658,658.0649999995225,2.07523e-05,658.0649999995225,3.665383e-05
658.0799999995224,3.275599e-05,658.0799999995224,0.001583726,658.0799999995224,2.039351e-05,658.0799999995224,2.995063e-05
658.0949999995224,3.512383e-05,658.0949999995224,0.001504351,658.0949999995224,2.034095e-05,658.0949999995224,2.33811e-05
658.1099999995224,4.100609e-05,658.1099999995224,0.001481834,658.1099999995224,2.025698e-05,658.1099999995224,2.199722e-05
658.1249999995224,4.190184e-05,658.1249999995224,0.001439515,658.1249999995224,1.959599e-05,658.1249999995224,1.614671e-05
658.1399999995224,4.341946e-05,658.1399999995224,0.001492739,658.1399999995224,2.013911e-05,658.1399999995224,1.585354e-05
658.1549999995224,4.376748e-05,658.1549999995224,0.001680875,658.1549999995224,2.043353e-05,658.1549999995224,1.572686e-05
658.1699999995224,4.188436e-05,658.1699999995224,0.002096033,658.1699999995224,2.083969e-05,658.1699999995224,1.567662e-05
658.1849999995223,4.184903e-05,658.1849999995223,0.002280921,658.1849999995223,1.773016e-05,658.1849999995223,1.321966e-05
658.1999999995223,4.203576e-05,658.1999999995223,0.002450944,658.1999999995223,1.768879e-05,658.1999999995223,1.194327e-05
658.2149999995223,4.438811e-05,658.2149999995223,0.002794562,658.2149999995223,1.744906e-05,658.2149999995223,1.12459e-05
658.2299999995223,4.52686e-05,658.2299999995223,0.003100242,658.2299999995223,1.786865e-05,658.2299999995223,1.108441e-05
658.2449999995223,4.526238e-05,658.2449999995223,0.003342805,658.2449999995223,1.757935e-05,658.2449999995223,1.085324e-05
658.2599999995223,4.417529e-05,658.2599999995223,0.003460058,658.2599999995223,1.849924e-05,658.2599999995223,1.054783e-05
658.2749999995223,4.330673e-05,658.2749999995223,0.003466641,658.2749999995223,1.818203e-05,658.2749999995223,1.109965e-05
658.2899999995223,4.211578e-05,658.2899999995223,0.00352345,658.2899999995223,1.710087e-05,658.2899999995223,1.108186e-05
658.3049999995222,4.538918e-05,658.3049999995222,0.003566869,658.3049999995222,1.734785e-05,658.3049999995222,1.099765e-05
658.3199999995222,4.743605e-05,658.3199999995222,0.003593313,658.3199999995222,1.842676e-05,658.3199999995222,1.084935e-05
658.3349999995222,4.724114e-05,658.3349999995222,0.003601819,658.3349999995222,1.855398e-05,658.3349999995222,1.023192e-05
658.3499999995222,4.26152e-05,658.3499999995222,0.00357153,658.3499999995222,1.88627e-05,658.3499999995222,9.25609e-06
658.3649999995222,4.986168e-05,658.3649999995222,0.003570375,658.3649999995222,1.892235e-05,658.3649999995222,8.454338e-06
658.3799999995222,5.132922e-05,658.3799999995222,0.003542629,658.3799999995222,1.812383e-05,658.3799999995222,7.246734e-06
658.3949999995222,4.965331e-05,658.3949999995222,0.003531079,658.3949999995222,1.756091e-05,658.3949999995222,6.951067e-06
658.4099999995221,4.955079e-05,658.4099999995221,0.003344225,658.4099999995221,1.755931e-05,658.4099999995221,6.953093e-06
658.4249999995221,4.952975e-05,658.4249999995221,0.003013997,658.4249999995221,1.784104e-05,658.4249999995221,6.930771e-06
658.4399999995221,4.957126e-05,658.4399999995221,0.002786409,658.4399999995221,1.872027e-05,658.4399999995221,7.037669e-06
658.4549999995221,5.136077e-05,658.4549999995221,0.002582648,658.4549999995221,1.84512e-05,658.4549999995221,7.061647e-06
658.4699999995221,4.988145e-05,658.4699999995221,0.002258072,658.4699999995221,1.805765e-05,658.4699999995221,7.48201e-06
658.4849999995221,4.981108e-05,658.4849999995221,0.001836092,658.4849999995221,1.813316e-05,658.4849999995221,7.329844e-06
658.4999999995221,5.00779e-05,658.4999999995221,0.001298987,658.4999999995221,1.989491e-05,658.4999999995221,7.22532e-06
658.514999999522,5.035309e-05,658.514999999522,0.001000957,658.514999999522,1.940674e-05,658.514999999522,7.168558e-06
658.529999999522,5.216143e-05,658.529999999522,0.0009759893,658.529999999522,1.936387e-05,658.529999999522,7.237009e-06
658.544999999522,4.928884e-05,658.544999999522,0.0007928297,658.544999999522,1.934203e-05,658.544999999522,7.043671e-06
658.559999999522,4.721668e-05,658.559999999522,0.0005869817,658.559999999522,1.890075e-05,658.559999999522,7.069622e-06
658.574999999522,4.635648e-05,658.574999999522,0.0004595145,658.574999999522,1.919729e-05,658.574999999522,7.117283e-06
658.589999999522,4.742714e-05,658.589999999522,0.0009079581,658.589999999522,1.946762e-05,658.589999999522,7.2409e-06
658.604999999522,5.082701e-05,658.604999999522,0.001056135,658.604999999522,1.954489e-05,658.604999999522,7.258388e-06
658.619999999522,3.921031e-05,658.619999999522,0.001237889,658.619999999522,1.982256e-05,658.619999999522,7.308674e-06
658.6349999995219,3.917725e-05,658.6349999995219,0.001445708,658.6349999995219,1.983961e-05,658.6349999995219,7.302889e-06
658.6499999995219,3.881784e-05,658.6499999995219,0.001534771,658.6499999995219,1.990978e-05,658.6499999995219,7.34712e-06
658.6649999995219,4.55181e-05,658.6649999995219,0.001600184,658.6649999995219,1.968207e-05,658.6649999995219,7.483893e-06
658.6799999995219,4.792676e-05,658.6799999995219,0.001685599,658.6799999995219,1.889479e-05,658.6799999995219,7.542018e-06
658.6949999995219,4.71731e-05,658.6949999995219,0.001968975,658.6949999995219,1.748535e-05,658.6949999995219,7.601551e-06
658.7099999995219,4.480412e-05,658.7099999995219,0.002052687,658.7099999995219,1.710745e-05,658.7099999995219,7.640368e-06
658.7249999995219,4.485942e-05,658.7249999995219,0.002046109,658.7249999995219,1.681846e-05,658.7249999995219,7.625604e-06
658.7399999995218,4.547909e-05,658.7399999995218,0.002052116,658.7399999995218,1.623112e-05,658.7399999995218,7.689987e-06
658.7549999995218,4.72626e-05,658.7549999995218,0.002080989,658.7549999995218,1.408034e-05,658.7549999995218,7.813558e-06
658.7699999995218,4.699599e-05,658.7699999995218,0.002134195,658.7699999995218,1.357505e-05,658.7699999995218,7.308674e-06
658.7849999995218,4.278773e-05,658.7849999995218,0.002152373,658.7849999995218,1.308901e-05,658.7849999995218,7.172487e-06
658.7999999995218,4.291692e-05,658.7999999995218,0.002172305,658.7999999995218,1.224379e-05,658.7999999995218,7.037669e-06
658.8149999995218,4.293333e-05,658.8149999995218,0.002212665,658.8149999995218,1.209912e-05,658.8149999995218,7.201887e-06
658.8299999995218,4.285484e-05,658.8299999995218,0.002453152,658.8299999995218,9.392062e-06,658.8299999995218,7.370092e-06
658.8449999995217,3.656302e-05,658.8449999995217,0.002450861,658.8449999995217,9.518695e-06,658.8449999995217,7.22727e-06
658.8599999995217,3.587343e-05,658.8599999995217,0.002624582,658.8599999995217,9.381556e-06,658.8599999995217,7.354785e-06
658.8749999995217,3.551985e-05,658.8749999995217,0.002723984,658.8749999995217,9.040516e-06,658.8749999995217,7.545752e-06
658.8899999995217,3.551469e-05,658.8899999995217,0.002840497,658.8899999995217,9.805902e-06,658.8899999995217,7.724713e-06
658.9049999995217,3.2217e-05,658.9049999995217,0.002969088,658.9049999995217,9.884596e-06,658.9049999995217,7.831566e-06
658.9199999995217,2.576855e-05,658.9199999995217,0.003118572,658.9199999995217,9.971149e-06,658.9199999995217,7.739288e-06
658.9349999995217,2.117496e-05,658.9349999995217,0.003243269,658.9349999995217,1.019883e-05,658.9349999995217,8.154087e-06
658.9499999995217,2.028825e-05,658.9499999995217,0.003349752,658.9499999995217,1.089987e-05,658.9499999995217,8.08469e-06
658.9649999995216,1.940964e-05,658.9649999995216,0.003627858,658.9649999995216,1.171583e-05,658.9649999995216,8.195444e-06
658.9799999995216,1.889851e-05,658.9799999995216,0.003869941,658.9799999995216,1.206648e-05,658.9799999995216,7.942303e-06
658.9949999995216,1.425928e-05,658.9949999995216,0.004039758,658.9949999995216,1.233892e-05,658.9949999995216,8.02874e-06
659.0099999995216,1.018224e-05,659.0099999995216,0.004188745,659.0099999995216,1.238905e-05,659.0099999995216,8.034001e-06
659.0249999995216,9.122726e-06,659.0249999995216,0.004353304,659.0249999995216,1.263114e-05,659.0249999995216,8.02874e-06
659.0399999995216,7.997096e-06,659.0399999995216,0.004530921,659.0399999995216,1.346042e-05,659.0399999995216,8.576751e-06
659.0549999995216,8.002378e-06,659.0549999995216,0.004713504,659.0549999995216,1.347506e-05,659.0549999995216,8.99365e-06
659.0699999995215,7.558809e-06,659.0699999995215,0.00482795,659.0699999995215,1.382185e-05,659.0699999995215,8.984247e-06
659.0849999995215,7.466933e-06,659.0849999995215,0.004870711,659.0849999995215,1.386256e-05,659.0849999995215,9.122726e-06
659.0999999995215,7.3567e-06,659.0999999995215,0.004888614,659.0999999995215,1.45352e-05,659.0999999995215,9.236285e-06
659.1149999995215,7.425313e-06,659.1149999995215,0.004968585,659.1149999995215,1.448861e-05,659.1149999995215,9.145859e-06
659.1299999995215,7.513949e-06,659.1299999995215,0.005026565,659.1299999995215,1.47268e-05,659.1299999995215,8.876988e-06
659.1449999995215,7.732004e-06,659.1449999995215,0.005018926,659.1449999995215,1.470861e-05,659.1449999995215,8.902342e-06
659.1599999995215,7.72289e-06,659.1599999995215,0.004871618,659.1599999995215,1.633234e-05,659.1599999995215,8.803689e-06
659.1749999995214,7.673483e-06,659.1749999995214,0.00473424,659.1749999995214,1.623632e-05,659.1749999995214,8.805288e-06
659.1899999995214,7.625604e-06,659.1899999995214,0.004646641,659.1899999995214,1.604256e-05,659.1899999995214,8.668239e-06
659.2049999995214,7.768356e-06,659.2049999995214,0.004540524,659.2049999995214,1.582597e-05,659.2049999995214,8.859515e-06
659.2199999995214,7.797315e-06,659.2199999995214,0.004519102,659.2199999995214,1.554396e-05,659.2199999995214,8.736227e-06
659.2349999995214,7.719241e-06,659.2349999995214,0.004480069,659.2349999995214,1.557203e-05,659.2349999995214,9.104177e-06
659.2499999995214,7.618211e-06,659.2499999995214,0.004370788,659.2499999995214,1.566583e-05,659.2499999995214,9.20114e-06
659.2649999995214,7.737468e-06,659.2649999995214,0.00431674,659.2649999995214,1.568021e-05,659.2649999995214,9.37705e-06
659.2799999995214,7.713764e-06,659.2799999995214,0.004107469,659.2799999995214,1.504289e-05,659.2799999995214,9.441426e-06
659.2949999995213,7.713764e-06,659.2949999995213,0.003916799,659.2949999995213,1.464334e-05,659.2949999995213,9.065413e-06
659.3099999995213,7.373913e-06,659.3099999995213,0.003754228,659.3099999995213,1.481834e-05,659.3099999995213,9.059196e-06
659.3249999995213,7.133099e-06,659.3249999995213,0.003554152,659.3249999995213,1.487906e-05,659.3249999995213,9.116548e-06
659.3399999995213,7.534543e-06,659.3399999995213,0.003425856,659.3399999995213,1.531665e-05,659.3399999995213,8.965412e-06
659.3549999995213,7.588568e-06,659.3549999995213,0.003273054,659.3549999995213,1.525675e-05,659.3549999995213,8.92131e-06
659.3699999995213,7.540149e-06,659.3699999995213,0.003057804,659.3699999995213,1.538913e-05,659.3699999995213,9.131986e-06
659.3849999995213,7.379642e-06,659.3849999995213,0.00290325,659.3849999995213,1.491121e-05,659.3849999995213,9.328855e-06
659.3999999995212,7.258388e-06,659.3999999995212,0.002939791,659.3999999995212,1.457875e-05,659.3999999995212,9.31223e-06
659.4149999995212,7.34712e-06,659.4149999995212,0.002958889,659.4149999995212,1.270232e-05,659.4149999995212,9.401056e-06
659.4299999995212,7.553216e-06,659.4299999995212,0.003087179,659.4299999995212,1.266567e-05,659.4299999995212,9.372543e-06
659.4449999995212,7.423416e-06,659.4449999995212,0.003177503,659.4449999995212,1.285116e-05,659.4449999995212,9.549722e-06
659.4599999995212,7.22532e-06,659.4599999995212,0.003353231,659.4599999995212,1.307609e-05,659.4599999995212,9.435456e-06
659.4749999995212,6.782854e-06,659.4749999995212,0.003446921,659.4749999995212,1.376261e-05,659.4749999995212,9.548246e-06
659.4899999995212,6.80152e-06,659.4899999995212,0.003494264,659.4899999995212,1.348447e-05,659.4899999995212,9.570351e-06
659.5049999995211,7.011599e-06,659.5049999995211,0.003669909,659.5049999995211,1.45942e-05,659.5049999995211,9.775687e-06
659.5199999995211,7.1823e-06,659.5199999995211,0.003878786,659.5199999995211,1.466161e-05,659.5199999995211,9.774246e-06
659.5349999995211,7.693649e-06,659.5349999995211,0.004036104,659.5349999995211,1.521329e-05,659.5349999995211,9.624658e-06
659.5499999995211,7.638524e-06,659.5499999995211,0.004122505,659.5499999995211,1.555212e-05,659.5499999995211,9.623194e-06
659.5649999995211,7.706456e-06,659.5649999995211,0.004150137,659.5649999995211,1.530376e-05,659.5649999995211,9.505367e-06
659.5799999995211,7.702799e-06,659.5799999995211,0.004220277,659.5799999995211,1.480598e-05,659.5799999995211,9.430977e-06
659.5949999995211,7.264208e-06,659.5949999995211,0.004369288,659.5949999995211,1.314807e-05,659.5949999995211,9.73815e-06
659.609999999521,7.166593e-06,659.609999999521,0.004515127,659.609999999521,1.304805e-05,659.609999999521,9.911636e-06
659.624999999521,7.186222e-06,659.624999999521,0.004597334,659.624999999521,1.290148e-05,659.624999999521,9.751159e-06
659.639999999521,7.612662e-06,659.639999999521,0.004503314,659.639999999521,1.291021e-05,659.639999999521,9.844612e-06
659.654999999521,7.56626e-06,659.654999999521,0.00450354,659.654999999521,1.2884e-05,659.654999999521,9.878894e-06
659.669999999521,7.775606e-06,659.669999999521,0.00451128,659.669999999521,1.32058e-05,659.669999999521,9.820256e-06
659.684999999521,8.056763e-06,659.684999999521,0.004350934,659.684999999521,1.325159e-05,659.684999999521,9.831725e-06
659.699999999521,7.922768e-06,659.699999999521,0.00427137,659.699999999521,1.302752e-05,659.699999999521,9.706273e-06
659.714999999521,8.209184e-06,659.714999999521,0.004062674,659.714999999521,1.188297e-05,659.714999999521,9.642205e-06
659.7299999995209,8.643829e-06,659.7299999995209,0.003802268,659.7299999995209,1.140634e-05,659.7299999995209,9.717876e-06
659.7449999995209,8.616079e-06,659.7449999995209,0.003621444,659.7449999995209,1.04889e-05,659.7449999995209,9.425e-06
659.7599999995209,8.299631e-06,659.7599999995209,0.003605503,659.7599999995209,9.831725e-06,659.7599999995209,9.380055e-06
659.7749999995209,8.219473e-06,659.7749999995209,0.003445514,659.7749999995209,8.977973e-06,659.7749999995209,9.530527e-06
659.7899999995209,7.799122e-06,659.7899999995209,0.003157476,659.7899999995209,7.924546e-06,659.7899999995209,9.668466e-06
659.8049999995209,7.876405e-06,659.8049999995209,0.003115924,659.8049999995209,8.102095e-06,659.8049999995209,9.602679e-06
659.8199999995209,7.913874e-06,659.8199999995209,0.003237588,659.8199999995209,8.797286e-06,659.8199999995209,9.605612e-06
659.8349999995208,7.924546e-06,659.8349999995208,0.003181785,659.8349999995208,8.881747e-06,659.8349999995208,9.50833e-06
659.8499999995208,7.822567e-06,659.8499999995208,0.002883664,659.8499999995208,9.579178e-06,659.8499999995208,9.430977e-06
659.8649999995208,7.954708e-06,659.8649999995208,0.002499834,659.8649999995208,1.071478e-05,659.8649999995208,9.366529e-06
659.8799999995208,7.85312e-06,659.8799999995208,0.002260318,659.8799999995208,1.147161e-05,659.8799999995208,9.365025e-06
659.8949999995208,7.564397e-06,659.8949999995208,0.002241496,659.8949999995208,1.151695e-05,659.8949999995208,9.348464e-06
659.9099999995208,7.442368e-06,659.9099999995208,0.002134528,659.9099999995208,1.154017e-05,659.9099999995208,9.348464e-06
659.9249999995208,6.753716e-06,659.9249999995208,0.002067658,659.9249999995208,1.097072e-05,659.9249999995208,9.334893e-06
659.9399999995208,6.863372e-06,659.9399999995208,0.002070227,659.9399999995208,1.09231e-05,659.9399999995208,9.368033e-06
659.9549999995207,6.791156e-06,659.9549999995207,0.002096475,659.9549999995207,1.089857e-05,659.9549999995207,9.552672e-06
659.9699999995207,6.768301e-06,659.9699999995207,0.002094463,659.9699999995207,1.133946e-05,659.9699999995207,9.433964e-06
659.9849999995207,6.757886e-06,659.9849999995207,0.002025374,659.9849999995207,1.21514e-05,659.9849999995207,9.33791e-06
659.9999999995207,6.953093e-06,659.9999999995207,0.001987845,659.9999999995207,1.231721e-05,659.9999999995207,9.233234e-06
660.0149999995207,6.896133e-06,660.0149999995207,0.001538284,660.0149999995207,1.256517e-05,660.0149999995207,9.429483e-06
660.0299999995207,6.97938e-06,660.0299999995207,0.001371163,660.0299999995207,1.252137e-05,660.0299999995207,9.380055e-06
660.0449999995207,7.324076e-06,660.0449999995207,0.001357817,660.0449999995207,1.300588e-05,660.0449999995207,9.420515e-06
660.0599999995206,7.176414e-06,660.0599999995206,0.001063891,660.0599999995206,1.309547e-05,660.0599999995206,9.369536e-06
660.0749999995206,7.270023e-06,660.0749999995206,0.0007913173,660.0749999995206,1.288947e-05,660.0749999995206,9.462292e-06
660.0899999995206,7.385367e-06,660.0899999995206,0.000687369,660.0899999995206,1.285992e-05,660.0899999995206,9.514254e-06
660.1049999995206,7.383459e-06,660.1049999995206,0.001034039,660.1049999995206,1.174705e-05,660.1049999995206,9.462292e-06
660.1199999995206,8.005899e-06,660.1199999995206,0.00143894,660.1199999995206,1.102068e-05,660.1199999995206,9.596809e-06
660.1349999995206,8.279239e-06,660.1349999995206,0.001680866,660.1349999995206,1.073448e-05,660.1349999995206,9.497953e-06
660.1499999995206,8.974835e-06,660.1499999995206,0.001793593,660.1499999995206,1.064487e-05,660.1499999995206,9.503884e-06
660.1649999995205,9.059196e-06,660.1649999995205,0.001946435,660.1649999995205,1.079076e-05,660.1649999995205,9.614407e-06
660.1799999995205,9.045189e-06,660.1799999995205,0.002444009,660.1799999995205,1.099893e-05,660.1799999995205,9.567407e-06
660.1949999995205,9.552672e-06,660.1949999995205,0.002804738,660.1949999995205,1.109584e-05,660.1949999995205,9.517214e-06
660.2099999995205,9.351477e-06,660.2099999995205,0.003110316,660.2099999995205,1.142608e-05,660.2099999995205,9.612942e-06
660.2249999995205,9.342435e-06,660.2249999995205,0.003259102,660.2249999995205,1.147284e-05,660.2249999995205,9.637821e-06
660.2399999995205,9.512773e-06,660.2399999995205,0.003252172,660.2399999995205,1.085065e-05,660.2399999995205,9.908794e-06
660.2549999995205,1.009889e-05,660.2549999995205,0.003286347,660.2549999995205,1.104494e-05,660.2549999995205,1.018639e-05
660.2699999995205,1.01767e-05,660.2699999995205,0.003298634,660.2699999995205,1.09553e-05,660.2699999995205,1.012953e-05
660.2849999995204,1.081684e-05,660.2849999995204,0.003307039,660.2849999995204,1.111993e-05,660.2849999995204,1.002047e-05
660.2999999995204,1.104621e-05,660.2999999995204,0.003331883,660.2999999995204,1.070294e-05,660.2999999995204,1.012814e-05
660.3149999995204,1.124465e-05,660.3149999995204,0.00340366,660.3149999995204,1.085713e-05,660.3149999995204,1.023468e-05
660.3299999995204,1.135807e-05,660.3299999995204,0.003487898,660.3299999995204,1.060244e-05,660.3299999995204,1.007095e-05
660.3449999995204,1.154139e-05,660.3449999995204,0.00354899,660.3449999995204,1.058782e-05,660.3449999995204,1.007375e-05
660.3599999995204,1.158889e-05,660.3599999995204,0.003509984,660.3599999995204,1.078946e-05,660.3599999995204,9.968323e-06
660.3749999995204,1.118057e-05,660.3749999995204,0.003400953,660.3749999995204,1.116292e-05,660.3749999995204,1.021263e-05
660.3899999995203,1.084675e-05,660.3899999995203,0.003295142,660.3899999995203,1.104621e-05,660.3899999995203,1.020297e-05
660.4049999995203,1.072923e-05,660.4049999995203,0.00321792,660.4049999995203,1.128466e-05,660.4049999995203,1.024293e-05
660.4199999995203,1.125341e-05,660.4199999995203,0.003046588,660.4199999995203,1.163741e-05,660.4199999995203,1.017947e-05
660.4349999995203,1.102835e-05,660.4349999995203,0.002702308,660.4349999995203,1.162045e-05,660.4349999995203,1.018362e-05
660.4499999995203,1.117931e-05,660.4499999995203,0.002261351,660.4499999995203,1.201031e-05,660.4499999995203,1.025942e-05
660.4649999995203,1.158281e-05,660.4649999995203,0.001653579,660.4649999995203,1.178536e-05,660.4649999995203,1.040936e-05
660.4799999995203,1.174225e-05,660.4799999995203,0.001411685,660.4799999995203,1.16797e-05,660.4799999995203,1.028274e-05
660.4949999995202,1.161197e-05,660.4949999995202,0.001464196,660.4949999995202,1.140387e-05,660.4949999995202,1.012118e-05
660.5099999995202,1.134691e-05,660.5099999995202,0.001482653,660.5099999995202,1.105641e-05,660.5099999995202,9.989498e-06
660.5249999995202,1.147652e-05,660.5249999995202,0.001485974,660.5249999995202,1.096044e-05,660.5249999995202,9.955596e-06
660.5399999995202,1.107169e-05,660.5399999995202,0.001485219,660.5399999995202,1.097072e-05,660.5399999995202,1.013648e-05
660.5549999995202,1.104876e-05,660.5549999995202,0.001448176,660.5549999995202,1.069636e-05,660.5549999995202,1.001907e-05
660.5699999995202,1.09874e-05,660.5699999995202,0.001331855,660.5699999995202,1.105769e-05,660.5699999995202,1.024156e-05
660.5849999995202,1.093213e-05,660.5849999995202,0.001134603,660.5849999995202,1.118309e-05,660.5849999995202,1.056384e-05
660.5999999995202,1.249434e-05,660.5999999995202,0.0009328582,660.5999999995202,1.141251e-05,660.5999999995202,1.043234e-05
660.6149999995201,1.3103e-05,660.6149999995201,0.0006824711,660.6149999995201,1.150349e-05,660.6149999995201,1.033466e-05
660.6299999995201,1.306316e-05,660.6299999995201,0.0004462909,660.6299999995201,1.388997e-05,660.6299999995201,1.046066e-05
660.6449999995201,1.314486e-05,660.6449999995201,0.0004365738,660.6449999995201,1.385748e-05,660.6449999995201,1.042559e-05
660.6599999995201,1.290476e-05,660.6599999995201,0.000436001,660.6599999995201,1.370312e-05,660.6599999995201,1.028821e-05
660.6749999995201,1.277861e-05,660.6749999995201,0.000429915,660.6749999995201,1.350952e-05,660.6749999995201,1.029506e-05
660.6899999995201,1.291894e-05,660.6899999995201,0.0004212062,660.6899999995201,1.314164e-05,660.6899999995201,1.047949e-05
660.70499999952,1.258757e-05,660.70499999952,0.000421684,660.70499999952,1.265899e-05,660.70499999952,1.032375e-05
660.71999999952,1.216415e-05,660.71999999952,0.0004202169,660.71999999952,1.251012e-05,660.71999999952,1.045392e-05
660.73499999952,1.20968e-05,660.73499999952,0.0003998181,660.73499999952,1.243898e-05,660.73499999952,1.041342e-05
660.74999999952,1.19786e-05,660.74999999952,0.0003675493,660.74999999952,1.254273e-05,660.74999999952,1.027999e-05
660.76499999952,1.156821e-05,660.76499999952,0.0003661346,660.76499999952,1.270675e-05,660.76499999952,1.032102e-05
660.77999999952,1.175424e-05,660.77999999952,0.0003136391,660.77999999952,1.27466e-05,660.77999999952,1.027863e-05
660.79499999952,1.203258e-05,660.79499999952,0.0002279758,660.79499999952,1.301779e-05,660.79499999952,1.029643e-05
660.80999999952,1.420782e-05,660.80999999952,0.0001932634,660.80999999952,1.389301e-05,660.80999999952,1.027999e-05
660.82499999952,1.500726e-05,660.82499999952,0.0001926637,660.82499999952,1.402621e-05,660.82499999952,9.873189e-06
660.8399999995199,1.483544e-05,660.8399999995199,0.0001916552,660.8399999995199,1.444284e-05,660.8399999995199,9.907371e-06
660.8549999995199,1.41223e-05,660.8549999995199,0.0002108338,660.8549999995199,1.449833e-05,660.8549999995199,1.008354e-05
660.8699999995199,1.378716e-05,660.8699999995199,0.0002457974,660.8699999995199,1.396078e-05,660.8699999995199,1.015869e-05
660.8849999995199,1.409134e-05,660.8849999995199,0.0002951017,660.8849999995199,1.29842e-05,660.8849999995199,9.942854e-06
660.8999999995199,1.43489e-05,660.8999999995199,0.0004017707,660.8999999995199,1.360407e-05,660.8999999995199,1.022366e-05
660.9149999995199,1.521699e-05,660.9149999995199,0.0004703902,660.9149999995199,1.345205e-05,660.9149999995199,1.034828e-05
660.9299999995199,1.569099e-05,660.9299999995199,0.0005105294,660.9299999995199,1.342794e-05,660.9299999995199,1.022779e-05
660.9449999995198,1.58402e-05,660.9449999995198,0.000729872,660.9449999995198,1.37411e-05,660.9449999995198,1.021401e-05
660.9599999995198,1.639089e-05,660.9599999995198,0.0009332498,660.9599999995198,1.413725e-05,660.9599999995198,9.890295e-06
660.9749999995198,1.631508e-05,660.9749999995198,0.0009575499,660.9749999995198,1.43489e-05,660.9749999995198,9.999364e-06
660.9899999995198,1.643723e-05,660.9899999995198,0.001044508,660.9899999995198,1.521977e-05,660.9899999995198,9.894567e-06
661.0049999995198,1.697519e-05,661.0049999995198,0.001194089,661.0049999995198,1.535247e-05,661.0049999995198,9.94427e-06
661.0199999995198,1.749018e-05,661.0199999995198,0.001205418,661.0199999995198,1.528811e-05,661.0199999995198,1.000641e-05
661.0349999995198,1.699178e-05,661.0349999995198,0.001229716,661.0349999995198,1.540102e-05,661.0349999995198,9.884596e-06
661.0499999995197,1.680254e-05,661.0499999995197,0.001246896,661.0499999995197,1.515577e-05,661.0499999995197,9.874615e-06
661.0649999995197,1.486011e-05,661.0649999995197,0.001249917,661.0649999995197,1.468561e-05,661.0649999995197,1.01184e-05
661.0799999995197,1.41979e-05,661.0799999995197,0.001268933,661.0799999995197,1.429579e-05,661.0799999995197,1.012258e-05
661.0949999995197,1.381166e-05,661.0949999995197,0.001284529,661.0949999995197,1.357816e-05,661.0949999995197,1.004294e-05
661.1099999995197,1.368872e-05,661.1099999995197,0.001283021,661.1099999995197,1.353972e-05,661.1099999995197,1.016285e-05
661.1249999995197,1.38035e-05,661.1249999995197,0.001287877,661.1249999995197,1.32654e-05,661.1249999995197,1.013231e-05
661.1399999995197,1.376159e-05,661.1399999995197,0.001289701,661.1399999995197,1.202321e-05,661.1399999995197,1.003171e-05
661.1549999995196,1.370723e-05,661.1549999995196,0.001257203,661.1549999995196,1.167488e-05,661.1549999995196,1.013509e-05
661.1699999995196,1.291567e-05,661.1699999995196,0.00124731,661.1699999995196,1.174825e-05,661.1699999995196,1.014759e-05
661.1849999995196,1.234462e-05,661.1849999995196,0.001445645,661.1849999995196,1.182355e-05,661.1849999995196,1.008773e-05
661.1999999995196,1.219884e-05,661.1999999995196,0.001642126,661.1999999995196,1.082595e-05,661.1999999995196,9.804465e-06
661.2149999995196,1.193265e-05,661.2149999995196,0.001627741,661.2149999995196,1.105259e-05,661.2149999995196,9.78289e-06
661.2299999995196,1.199271e-05,661.2299999995196,0.001670356,661.2299999995196,1.019054e-05,661.2299999995196,9.938602e-06
661.2449999995196,1.253487e-05,661.2449999995196,0.001876775,661.2449999995196,9.791525e-06,661.2449999995196,9.837455e-06
661.2599999995196,1.151328e-05,661.2599999995196,0.002308953,661.2599999995196,9.330365e-06,661.2599999995196,9.932932e-06
661.2749999995195,1.109711e-05,661.2749999995195,0.00256932,661.2749999995195,9.31979e-06,661.2749999995195,9.722225e-06
661.2899999995195,1.158889e-05,661.2899999995195,0.002650145,661.2899999995195,9.040516e-06,661.2899999995195,9.877468e-06
661.3049999995195,1.16483e-05,661.3049999995195,0.002706862,661.3049999995195,8.323359e-06,661.3049999995195,9.604145e-06
661.3199999995195,1.166884e-05,661.3199999995195,0.0027843,661.3199999995195,8.255384e-06,661.3199999995195,9.626121e-06
661.3349999995195,1.15974e-05,661.3349999995195,0.002806677,661.3349999995195,8.070739e-06,661.3349999995195,9.669923e-06
661.3499999995195,1.188771e-05,661.3499999995195,0.002795478,661.3499999995195,8.016449e-06,661.3499999995195,9.696108e-06
661.3649999995195,1.230462e-05,661.3649999995195,0.002835733,661.3649999995195,7.664298e-06,661.3649999995195,9.327345e-06
661.3799999995194,1.221846e-05,661.3799999995194,0.002978145,661.3799999995194,8.563602e-06,661.3799999995194,9.401056e-06
661.3949999995194,1.178177e-05,661.3949999995194,0.003092631,661.3949999995194,8.707154e-06,661.3949999995194,9.116548e-06
661.4099999995194,1.119065e-05,661.4099999995194,0.003111232,661.4099999995194,9.142777e-06,661.4099999995194,8.966984e-06
661.4249999995194,1.100789e-05,661.4249999995194,0.003105544,661.4249999995194,9.509811e-06,661.4249999995194,9.378553e-06
661.4399999995194,1.091665e-05,661.4399999995194,0.002916728,661.4399999995194,9.576237e-06,661.4399999995194,9.486082e-06
661.4549999995194,1.041071e-05,661.4549999995194,0.00291919,661.4549999995194,9.68448e-06,661.4549999995194,9.469733e-06
661.4699999995194,1.030873e-05,661.4699999995194,0.002873886,661.4699999995194,9.947104e-06,661.4699999995194,9.339419e-06
661.4849999995193,1.007934e-05,661.4849999995193,0.00290144,661.4849999995193,9.86034e-06,661.4849999995193,9.195013e-06
661.4999999995193,1.005976e-05,661.4999999995193,0.002958601,661.4999999995193,9.898837e-06,661.4999999995193,9.284961e-06
661.5149999995193,1.02553e-05,661.5149999995193,0.002775057,661.5149999995193,1.018501e-05,661.5149999995193,9.383058e-06
661.5299999995193,1.00275e-05,661.5299999995193,0.002661279,661.5299999995193,1.013926e-05,661.5299999995193,9.372543e-06
661.5449999995193,9.438442e-06,661.5449999995193,0.002598011,661.5449999995193,1.012258e-05,661.5449999995193,9.304663e-06
661.5599999995193,9.815953e-06,661.5599999995193,0.002510454,661.5599999995193,9.94427e-06,661.5599999995193,9.248478e-06
661.5749999995193,1.031966e-05,661.5749999995193,0.002386229,661.5749999995193,1.033875e-05,661.5749999995193,9.021799e-06
661.5899999995193,1.03142e-05,661.5899999995193,0.002382302,661.5899999995193,1.021401e-05,661.5899999995193,9.048304e-06
661.6049999995192,9.765595e-06,661.6049999995192,0.002423191,661.6049999995192,1.018915e-05,661.6049999995192,8.981111e-06
661.6199999995192,8.880161e-06,661.6199999995192,0.002376041,661.6199999995192,9.75838e-06,661.6199999995192,8.902342e-06
661.6349999995192,9.056085e-06,661.6349999995192,0.002225422,661.6349999995192,9.410042e-06,661.6349999995192,8.91025e-06
661.6499999995192,9.070073e-06,661.6499999995192,0.002138593,661.6499999995192,9.104177e-06,661.6499999995192,9.06075e-06
661.6649999995192,9.564462e-06,661.6649999995192,0.002258858,661.6649999995192,8.869049e-06,661.6649999995192,8.737838e-06
661.6799999995192,9.853194e-06,661.6799999995192,0.002299923,661.6799999995192,8.532291e-06,661.6799999995192,8.525684e-06
661.6949999995192,9.917319e-06,661.6949999995192,0.00223346,661.6949999995192,8.26732e-06,661.6949999995192,8.430979e-06
661.7099999995191,9.756936e-06,661.7099999995191,0.002023073,661.7099999995191,8.8754e-06,661.7099999995191,8.430979e-06
661.7249999995191,9.658262e-06,661.7249999995191,0.001976156,661.7249999995191,8.798887e-06,661.7249999995191,8.304722e-06
661.7399999995191,1.021539e-05,661.7399999995191,0.001902711,661.7399999995191,9.107272e-06,661.7399999995191,8.109047e-06
661.7549999995191,9.669923e-06,661.7549999995191,0.001742502,661.7549999995191,8.864284e-06,661.7549999995191,8.063755e-06
661.7699999995191,9.677204e-06,661.7699999995191,0.001727727,661.7699999995191,8.900759e-06,661.7699999995191,7.944076e-06
661.7849999995191,9.785769e-06,661.7849999995191,0.001715669,661.7849999995191,8.938661e-06,661.7849999995191,7.717415e-06
661.7999999995191,9.79584e-06,661.7999999995191,0.001826466,661.7999999995191,9.41902e-06,661.7999999995191,7.543885e-06
661.814999999519,9.37705e-06,661.814999999519,0.001939483,661.814999999519,9.40555e-06,661.814999999519,7.42721e-06
661.829999999519,8.650345e-06,661.829999999519,0.001982488,661.829999999519,8.960697e-06,661.829999999519,7.50457e-06
661.844999999519,8.753946e-06,661.844999999519,0.001962335,661.844999999519,9.018676e-06,661.844999999519,7.506446e-06
661.859999999519,8.795684e-06,661.859999999519,0.001957458,661.859999999519,9.167396e-06,661.859999999519,7.12124e-06
661.874999999519,1.007515e-05,661.874999999519,0.002084754,661.874999999519,9.608544e-06,661.874999999519,7.172487e-06
661.889999999519,1.054382e-05,661.889999999519,0.002465078,661.889999999519,1.010307e-05,661.889999999519,7.097463e-06
661.904999999519,1.040395e-05,661.904999999519,0.002708058,661.904999999519,1.021401e-05,661.904999999519,6.867475e-06
661.919999999519,9.922999e-06,661.919999999519,0.002792314,661.919999999519,1.035509e-05,661.919999999519,6.784931e-06
661.9349999995189,9.938602e-06,661.9349999995189,0.002851867,661.9349999995189,1.033739e-05,661.9349999995189,6.7391e-06
661.9499999995189,9.968323e-06,661.9499999995189,0.002996584,661.9499999995189,1.054115e-05,661.9499999995189,6.496438e-06
661.9649999995189,9.979622e-06,661.9649999995189,0.003226496,661.9649999995189,1.023468e-05,661.9649999995189,6.561167e-06
661.9799999995189,1.02553e-05,661.9799999995189,0.003407226,661.9799999995189,1.050634e-05,661.9799999995189,6.673986e-06
661.9949999995189,9.67866e-06,661.9949999995189,0.003439564,661.9949999995189,1.049293e-05,661.9949999995189,6.665538e-06
662.0099999995189,9.655344e-06,662.0099999995189,0.003374648,662.0099999995189,1.056784e-05,662.0099999995189,6.362793e-06
662.0249999995189,9.668466e-06,662.0249999995189,0.003373671,662.0249999995189,1.073711e-05,662.0249999995189,6.435437e-06
662.0399999995188,9.650967e-06,662.0399999995188,0.00336033,662.0399999995188,1.067262e-05,662.0399999995188,6.565459e-06
662.0549999995188,9.442919e-06,662.0549999995188,0.003301032,662.0549999995188,1.072398e-05,662.0549999995188,6.552573e-06
662.0699999995188,9.462292e-06,662.0699999995188,0.003266044,662.0699999995188,1.08934e-05,662.0699999995188,6.667651e-06
662.0849999995188,9.469733e-06,662.0849999995188,0.003309163,662.0849999995188,1.15304e-05,662.0849999995188,6.316129e-06
662.0999999995188,9.477167e-06,662.0999999995188,0.003518903,662.0999999995188,1.166764e-05,662.0999999995188,6.437625e-06
662.1149999995188,9.251524e-06,662.1149999995188,0.003592466,662.1149999995188,1.140758e-05,662.1149999995188,6.616753e-06
662.1299999995188,7.603404e-06,662.1299999995188,0.003490874,662.1299999995188,1.072923e-05,662.1299999995188,6.690851e-06
662.1449999995187,7.616361e-06,662.1449999995187,0.003250911,662.1449999995187,1.056651e-05,662.1449999995187,6.749543e-06
662.1599999995187,7.515824e-06,662.1599999995187,0.003015833,662.1599999995187,1.047143e-05,662.1599999995187,6.784931e-06
662.1749999995187,7.519571e-06,662.1749999995187,0.002843813,662.1749999995187,1.025942e-05,662.1749999995187,6.635885e-06
662.1899999995187,7.131124e-06,662.1899999995187,0.002794784,662.1899999995187,1.045796e-05,662.1899999995187,6.599699e-06
662.2049999995187,7.095478e-06,662.2049999995187,0.002574317,662.2049999995187,1.049158e-05,662.2049999995187,6.563313e-06
662.2199999995187,7.131124e-06,662.2199999995187,0.00223708,662.2199999995187,1.015869e-05,662.2199999995187,6.4921e-06
662.2349999995187,6.699267e-06,662.2349999995187,0.001979108,662.2349999995187,1.021677e-05,662.2349999995187,6.373853e-06
662.2499999995186,8.221186e-06,662.2499999995186,0.001837527,662.2499999995186,1.01184e-05,662.2499999995186,6.230803e-06
662.2649999995186,8.136793e-06,662.2649999995186,0.00184055,662.2649999995186,1.030873e-05,662.2649999995186,6.260124e-06
662.2799999995186,8.217759e-06,662.2799999995186,0.001840582,662.2799999995186,1.037411e-05,662.2799999995186,6.095956e-06
662.2949999995186,8.95126e-06,662.2949999995186,0.001816016,662.2949999995186,1.122458e-05,662.2949999995186,6.005157e-06
662.3099999995186,8.957552e-06,662.3099999995186,0.001806862,662.3099999995186,1.100533e-05,662.3099999995186,5.979298e-06
662.3249999995186,9.791525e-06,662.3249999995186,0.00180574,662.3249999995186,1.095787e-05,662.3249999995186,5.93674e-06
662.3399999995186,9.743934e-06,662.3399999995186,0.001579986,662.3399999995186,1.092697e-05,662.3399999995186,5.874723e-06
662.3549999995186,9.959841e-06,662.3549999995186,0.00111032,662.3549999995186,1.092955e-05,662.3549999995186,5.998116e-06
662.3699999995185,1.002469e-05,662.3699999995185,0.0008552233,662.3699999995185,1.08714e-05,662.3699999995185,5.441526e-06
662.3849999995185,1.011283e-05,662.3849999995185,0.0007639287,662.3849999995185,1.093986e-05,662.3849999995185,5.503306e-06
662.3999999995185,9.913058e-06,662.3999999995185,0.0007674553,662.3999999995185,1.092052e-05,662.3999999995185,5.53139e-06
662.4149999995185,1.011283e-05,662.4149999995185,0.0008144589,662.4149999995185,1.083245e-05,662.4149999995185,5.355417e-06
662.4299999995185,1.032512e-05,662.4299999995185,0.0007646357,662.4299999995185,1.082465e-05,662.4299999995185,5.350154e-06
662.4449999995185,1.067131e-05,662.4449999995185,0.0007504351,662.4449999995185,1.027177e-05,662.4449999995185,5.350154e-06
662.4599999995185,1.068977e-05,662.4599999995185,0.0008169591,662.4599999995185,1.023192e-05,662.4599999995185,5.352786e-06
662.4749999995184,1.062765e-05,662.4749999995184,0.0008183176,662.4749999995184,1.05184e-05,662.4749999995184,5.278585e-06
662.4899999995184,1.016562e-05,662.4899999995184,0.0008191345,662.4899999995184,1.048084e-05,662.4899999995184,5.302549e-06
662.5049999995184,9.172005e-06,662.5049999995184,0.0008559374,662.5049999995184,1.034964e-05,662.5049999995184,5.315815e-06
662.5199999995184,9.162785e-06,662.5199999995184,0.0008590572,662.5199999995184,1.020435e-05,662.5199999995184,5.451871e-06
662.5349999995184,8.627516e-06,662.5349999995184,0.0008714565,662.5349999995184,9.999364e-06,662.5349999995184,5.436346e-06
662.5499999995184,8.26732e-06,662.5499999995184,0.0008669977,662.5499999995184,9.339419e-06,662.5499999995184,5.34752e-06
662.5649999995184,8.233172e-06,662.5649999995184,0.0008054833,662.5649999995184,9.009299e-06,662.5649999995184,5.334332e-06
662.5799999995183,7.24479e-06,662.5799999995183,0.000741441,662.5799999995183,9.035841e-06,662.5799999995183,5.326404e-06
662.5949999995183,7.213613e-06,662.5949999995183,0.0008006093,662.5949999995183,8.861105e-06,662.5949999995183,5.281253e-06
662.6099999995183,6.824264e-06,662.6099999995183,0.0007920134,662.6099999995183,8.857925e-06,662.6099999995183,4.996159e-06
662.6249999995183,6.782854e-06,662.6249999995183,0.0007788696,662.6249999995183,8.992083e-06,662.6249999995183,5.015856e-06
662.6399999995183,6.728641e-06,662.6399999995183,0.0007762202,662.6399999995183,8.846786e-06,662.6399999995183,4.69378e-06
662.6549999995183,6.584741e-06,662.6549999995183,0.0007411503,662.6549999995183,8.834038e-06,662.6549999995183,4.633369e-06
662.6699999995183,6.442001e-06,662.6699999995183,0.0006914499,662.6699999995183,8.832443e-06,662.6699999995183,4.630328e-06
662.6849999995183,5.943854e-06,662.6849999995183,0.0007543481,662.6849999995183,8.846786e-06,662.6849999995183,4.547444e-06
662.6999999995182,5.662269e-06,662.6999999995182,0.0007556626,662.6999999995182,8.50749e-06,662.6999999995182,4.615091e-06
662.7149999995182,6.205884e-06,662.7149999995182,0.0007248424,662.7149999995182,8.467658e-06,662.7149999995182,4.513241e-06
662.7299999995182,6.275856e-06,662.7299999995182,0.0007497077,662.7299999995182,8.147174e-06,662.7299999995182,4.522595e-06
662.7449999995182,6.329497e-06,662.7449999995182,0.0007712918,662.7449999995182,8.319974e-06,662.7449999995182,4.615091e-06
662.7599999995182,6.345057e-06,662.7599999995182,0.0007557132,662.7599999995182,8.387425e-06,662.7599999995182,4.431347e-06
662.7749999995182,7.03967e-06,662.7749999995182,0.0007391998,662.7749999995182,8.55208e-06,662.7749999995182,4.172666e-06
662.7899999995182,7.24479e-06,662.7899999995182,0.000745288,662.7899999995182,8.479295e-06,662.7899999995182,3.99326e-06
662.8049999995181,7.568121e-06,662.8049999995181,0.0007692818,662.8049999995181,8.990517e-06,662.8049999995181,3.936414e-06
662.8199999995181,7.947621e-06,662.8199999995181,0.0007722804,662.8199999995181,9.713527e-06,662.8199999995181,3.932833e-06
662.8349999995181,7.981227e-06,662.8349999995181,0.0007472826,662.8349999995181,9.502402e-06,662.8349999995181,4.219664e-06
662.8499999995181,7.97593e-06,662.8499999995181,0.00069169,662.8499999995181,9.196546e-06,662.8499999995181,4.226336e-06
662.8649999995181,8.063755e-06,662.8649999995181,0.0007385904,662.8649999995181,9.532005e-06,662.8649999995181,4.318654e-06
662.8799999995181,8.068993e-06,662.8799999995181,0.0007371138,662.8799999995181,9.413036e-06,662.8799999995181,4.415424e-06
662.8949999995181,7.998858e-06,662.8949999995181,0.0007235859,662.8949999995181,9.327345e-06,662.8949999995181,4.399444e-06
662.909999999518,7.824367e-06,662.909999999518,0.000726684,662.909999999518,9.413036e-06,662.909999999518,4.27604e-06
662.924999999518,8.005899e-06,662.924999999518,0.0006964469,662.924999999518,9.68448e-06,662.924999999518,4.299038e-06
662.939999999518,8.141986e-06,662.939999999518,0.0006185796,662.939999999518,1.003733e-05,662.939999999518,4.447213e-06
662.954999999518,8.072484e-06,662.954999999518,0.0005944039,662.954999999518,1.00961e-05,662.954999999518,4.34467e-06
662.969999999518,7.888914e-06,662.969999999518,0.0006092672,662.969999999518,1.014065e-05,662.969999999518,4.318654e-06
662.984999999518,7.96002e-06,662.984999999518,0.0005767252,662.984999999518,1.015176e-05,662.984999999518,4.27604e-06
662.999999999518,8.014691e-06,662.999999999518,0.0005256638,662.999999999518,1.008773e-05,662.999999999518,4.4218e-06
663.014999999518,7.735647e-06,663.014999999518,0.000516256,663.014999999518,1.000359e-05,663.014999999518,4.506994e-06
663.0299999995179,7.974164e-06,663.0299999995179,0.0005227542,663.0299999995179,9.656803e-06,663.0299999995179,4.538142e-06
663.0449999995179,7.753835e-06,663.0449999995179,0.0005160292,663.0449999995179,9.580649e-06,663.0449999995179,4.717728e-06
663.0599999995179,7.362442e-06,663.0599999995179,0.0005720664,663.0599999995179,8.69096e-06,663.0599999995179,4.81818e-06
663.0749999995179,7.341366e-06,663.0749999995179,0.001323346,663.0749999995179,8.803689e-06,663.0749999995179,4.771172e-06
663.0899999995179,7.398706e-06,663.0899999995179,0.001581438,663.0899999995179,8.795684e-06,663.0899999995179,4.447213e-06
663.1049999995179,7.457495e-06,663.1049999995179,0.00191987,663.1049999995179,9.469733e-06,663.1049999995179,4.360851e-06
663.1199999995179,7.545752e-06,663.1199999995179,0.002376453,663.1199999995179,9.29709e-06,663.1199999995179,4.488202e-06
663.1349999995178,7.519571e-06,663.1349999995178,0.002726818,663.1349999995178,9.286478e-06,663.1349999995178,4.466178e-06
663.1499999995178,8.490915e-06,663.1499999995178,0.002841775,663.1499999995178,9.645126e-06,663.1499999995178,4.791795e-06
663.1649999995178,8.456004e-06,663.1649999995178,0.002850209,663.1649999995178,9.67866e-06,663.1649999995178,4.844421e-06
663.1799999995178,8.325052e-06,663.1799999995178,0.002870206,663.1799999995178,9.21185e-06,663.1799999995178,4.93374e-06
663.1949999995178,8.141986e-06,663.1949999995178,0.002883239,663.1949999995178,9.351477e-06,663.1949999995178,4.93374e-06
663.2099999995178,8.056763e-06,663.2099999995178,0.002897575,663.2099999995178,9.277373e-06,663.2099999995178,5.007424e-06
663.2249999995178,8.077717e-06,663.2249999995178,0.002930651,663.2249999995178,8.916571e-06,663.2249999995178,5.099414e-06
663.2399999995177,8.250264e-06,663.2399999995177,0.002990746,663.2399999995177,9.046747e-06,663.2399999995177,4.979213e-06
663.2549999995177,8.326743e-06,663.2549999995177,0.003041083,663.2549999995177,9.269777e-06,663.2549999995177,4.896482e-06
663.2699999995177,8.331817e-06,663.2699999995177,0.00305531,663.2699999995177,9.30012e-06,663.2699999995177,5.00461e-06
663.2849999995177,7.788277e-06,663.2849999995177,0.00305609,663.2849999995177,9.577708e-06,663.2849999995177,5.251831e-06
663.2999999995177,7.779228e-06,663.2999999995177,0.003072849,663.2999999995177,9.551197e-06,663.2999999995177,5.135199e-06
663.3149999995177,7.739288e-06,663.3149999995177,0.003035923,663.3149999995177,9.693203e-06,663.3149999995177,5.168013e-06
663.3299999995177,7.607108e-06,663.3299999995177,0.002801269,663.3299999995177,9.517214e-06,663.3299999995177,5.329048e-06
663.3449999995177,7.675319e-06,663.3449999995177,0.002592171,663.3449999995177,9.503884e-06,663.3449999995177,5.487926e-06
663.3599999995176,7.612662e-06,663.3599999995176,0.002496372,663.3599999995176,9.094889e-06,663.3599999995176,5.571988e-06
663.3749999995176,7.827967e-06,663.3749999995176,0.002347854,663.3749999995176,9.105725e-06,663.3749999995176,5.659781e-06
663.3899999995176,7.528932e-06,663.3899999995176,0.002123429,663.3899999995176,9.088692e-06,663.3899999995176,5.574516e-06
663.4049999995176,7.013608e-06,663.4049999995176,0.002034782,663.4049999995176,8.886504e-06,663.4049999995176,5.521194e-06
663.4199999995176,7.04567e-06,663.4199999995176,0.002142362,663.4199999995176,9.37705e-06,663.4199999995176,5.95096e-06
663.4349999995176,7.083556e-06,663.4349999995176,0.002435802,663.4349999995176,9.568879e-06,663.4349999995176,6.063518e-06
663.4499999995176,7.502692e-06,663.4499999995176,0.002633258,663.4499999995176,9.63051e-06,663.4499999995176,6.174023e-06
663.4649999995175,7.928101e-06,663.4649999995175,0.002653245,663.4649999995175,1.013648e-05,663.4649999995175,6.257873e-06
663.4799999995175,8.669864e-06,663.4799999995175,0.002634702,663.4799999995175,1.042964e-05,663.4799999995175,6.509435e-06
663.4949999995175,8.399174e-06,663.4949999995175,0.002613716,663.4949999995175,1.038497e-05,663.4949999995175,6.749543e-06
663.5099999995175,8.308113e-06,663.5099999995175,0.002587783,663.5099999995175,1.015176e-05,663.5099999995175,6.692956e-06
663.5249999995175,8.336888e-06,663.5249999995175,0.002581132,663.5249999995175,1.027863e-05,663.5249999995175,6.726546e-06
663.5399999995175,8.566891e-06,663.5399999995175,0.002598579,663.5399999995175,1.048218e-05,663.5399999995175,6.840758e-06
663.5549999995175,8.540542e-06,663.5549999995175,0.002606507,663.5549999995175,1.077116e-05,663.5549999995175,7.001547e-06
663.5699999995174,8.547137e-06,663.5699999995174,0.002557516,663.5699999995174,1.016978e-05,663.5699999995174,7.059652e-06
663.5849999995174,9.059196e-06,663.5849999995174,0.00249674,663.5849999995174,1.047143e-05,663.5849999995174,7.03967e-06
663.5999999995174,9.118093e-06,663.5999999995174,0.00249584,663.5999999995174,1.053981e-05,663.5999999995174,7.339447e-06
663.6149999995174,9.153557e-06,663.6149999995174,0.002392691,663.6149999995174,1.042424e-05,663.6149999995174,7.350954e-06
663.6299999995174,8.583318e-06,663.6299999995174,0.002121903,663.6299999995174,1.048353e-05,663.6299999995174,7.530803e-06
663.6449999995174,8.744285e-06,663.6449999995174,0.001801903,663.6449999995174,1.033739e-05,663.6449999995174,7.761099e-06
663.6599999995174,9.035841e-06,663.6599999995174,0.001728963,663.6599999995174,1.062765e-05,663.6599999995174,7.748384e-06
663.6749999995174,9.499437e-06,663.6749999995174,0.001650577,663.6749999995174,9.911636e-06,663.6749999995174,7.847737e-06
663.6899999995173,9.456335e-06,663.6899999995173,0.001396243,663.6899999995173,1.013092e-05,663.6899999995173,7.813558e-06
663.7049999995173,8.867461e-06,663.7049999995173,0.0012699,663.7049999995173,1.01184e-05,663.7049999995173,7.775606e-06
663.7199999995173,8.387425e-06,663.7199999995173,0.001415895,663.7199999995173,9.548246e-06,663.7199999995173,7.669811e-06
663.7349999995173,8.138525e-06,663.7349999995173,0.001425972,663.7349999995173,9.877468e-06,663.7349999995173,7.70097e-06
663.7499999995173,7.967094e-06,663.7499999995173,0.001347171,663.7499999995173,9.674292e-06,663.7499999995173,7.750201e-06
663.7649999995173,8.070739e-06,663.7649999995173,0.001358742,663.7649999995173,9.46378e-06,663.7649999995173,7.739288e-06
663.7799999995173,7.871038e-06,663.7799999995173,0.001470797,663.7799999995173,1.006676e-05,663.7799999995173,7.874616e-06
663.7949999995172,7.638524e-06,663.7949999995172,0.001501185,663.7949999995172,9.292544e-06,663.7949999995172,7.686323e-06
663.8099999995172,7.757469e-06,663.8099999995172,0.00176476,663.8099999995172,1.002469e-05,663.8099999995172,7.949394e-06
663.8249999995172,7.750201e-06,663.8249999995172,0.001859205,663.8249999995172,9.722225e-06,663.8249999995172,7.952937e-06
663.8399999995172,6.955118e-06,663.8399999995172,0.001860454,663.8399999995172,9.854623e-06,663.8399999995172,7.8585e-06
663.8549999995172,8.063755e-06,663.8549999995172,0.001882683,663.8549999995172,9.883171e-06,663.8549999995172,7.779228e-06
663.8699999995172,9.08404e-06,663.8699999995172,0.001909879,663.8699999995172,9.930095e-06,663.8699999995172,7.752019e-06
663.8849999995172,9.071627e-06,663.8849999995172,0.001905062,663.8849999995172,9.846043e-06,663.8849999995172,7.871038e-06
663.8999999995171,8.803689e-06,663.8999999995171,0.001869776,663.8999999995171,9.863196e-06,663.8999999995171,7.560672e-06
663.9149999995171,8.08469e-06,663.9149999995171,0.001838802,663.9149999995171,9.81021e-06,663.9149999995171,7.436688e-06
663.9299999995171,8.355453e-06,663.9299999995171,0.001815961,663.9299999995171,1.002188e-05,663.9299999995171,7.577422e-06
663.9449999995171,8.341955e-06,663.9449999995171,0.001873284,663.9449999995171,9.35449e-06,663.9449999995171,7.782849e-06
663.9599999995171,8.243432e-06,663.9599999995171,0.001900727,663.9599999995171,9.240859e-06,663.9599999995171,7.845942e-06
663.9749999995171,8.174792e-06,663.9749999995171,0.001791509,663.9749999995171,9.303149e-06,663.9749999995171,7.965326e-06
663.9899999995171,8.545489e-06,663.9899999995171,0.001752419,663.9899999995171,9.478654e-06,663.9899999995171,8.011176e-06
664.004999999517,8.710389e-06,664.004999999517,0.001765646,664.004999999517,9.611476e-06,664.004999999517,8.055015e-06
664.019999999517,8.797286e-06,664.019999999517,0.001702989,664.019999999517,9.662636e-06,664.019999999517,8.103833e-06
664.034999999517,9.25609e-06,664.034999999517,0.001594781,664.034999999517,9.147398e-06,664.034999999517,8.02523e-06
664.049999999517,9.253046e-06,664.049999999517,0.00148429,664.049999999517,9.602679e-06,664.049999999517,7.847737e-06
664.064999999517,9.23781e-06,664.064999999517,0.001055092,664.064999999517,8.974835e-06,664.064999999517,7.791894e-06
664.079999999517,9.34545e-06,664.079999999517,0.0008813994,664.079999999517,8.976404e-06,664.079999999517,7.8907e-06
664.094999999517,9.327345e-06,664.094999999517,0.0008713788,664.094999999517,8.878575e-06,664.094999999517,7.8585e-06
664.109999999517,7.755652e-06,664.109999999517,0.0008229198,664.109999999517,8.768416e-06,664.109999999517,7.813558e-06
664.124999999517,7.448044e-06,664.124999999517,0.0007992057,664.124999999517,8.876988e-06,664.124999999517,7.742928e-06
664.1399999995169,7.431003e-06,664.1399999995169,0.0008085895,664.1399999995169,9.398059e-06,664.1399999995169,7.741108e-06
664.1549999995169,7.440475e-06,664.1549999995169,0.0008145484,664.1549999995169,9.251524e-06,664.1549999995169,7.822567e-06
664.1699999995169,7.497057e-06,664.1699999995169,0.0008037815,664.1699999995169,8.774839e-06,664.1699999995169,7.616361e-06
664.1849999995169,7.22532e-06,664.1849999995169,0.000776007,664.1849999995169,8.76681e-06,664.1849999995169,7.377733e-06
664.1999999995169,7.645896e-06,664.1999999995169,0.0006369969,664.1999999995169,8.774839e-06,664.1999999995169,7.333686e-06
664.2149999995169,7.922768e-06,664.2149999995169,0.000504558,664.2149999995169,8.814882e-06,664.2149999995169,7.360529e-06
664.2299999995168,9.012426e-06,664.2299999995168,0.0004867963,664.2299999995168,8.98895e-06,664.2299999995168,7.238955e-06
664.2449999995168,1.556117e-05,664.2449999995168,0.0004779302,664.2449999995168,8.982679e-06,664.2449999995168,7.337527e-06
664.2599999995168,2.459951e-05,664.2599999995168,0.0004408855,664.2599999995168,1.048353e-05,664.2599999995168,7.314453e-06
664.2749999995168,2.574339e-05,664.2749999995168,0.0004180543,664.2749999995168,1.059314e-05,664.2749999995168,7.449935e-06
664.2899999995168,2.606532e-05,664.2899999995168,0.0005362712,664.2899999995168,1.07266e-05,664.2899999995168,7.62745e-06
664.3049999995168,2.615811e-05,664.3049999995168,0.0008357682,664.3049999995168,1.082985e-05,664.3049999995168,7.750201e-06
664.3199999995168,2.631114e-05,664.3199999995168,0.0008511558,664.3199999995168,1.386764e-05,664.3199999995168,7.634834e-06
664.3349999995168,2.650052e-05,664.3349999995168,0.0009713182,664.3349999995168,1.439986e-05,664.3349999995168,7.824367e-06
664.3499999995167,2.675814e-05,664.3499999995167,0.001344494,664.3499999995167,1.462216e-05,664.3499999995167,7.842351e-06
664.3649999995167,2.714232e-05,664.3649999995167,0.001656267,664.3649999995167,1.517992e-05,664.3649999995167,7.802733e-06
664.3799999995167,2.720711e-05,664.3799999995167,0.002097595,664.3799999995167,1.615456e-05,664.3799999995167,7.917432e-06
664.3949999995167,2.724437e-05,664.3949999995167,0.002516229,664.3949999995167,1.716007e-05,664.3949999995167,7.838757e-06
664.4099999995167,2.719624e-05,664.4099999995167,0.002780504,664.4099999995167,1.743533e-05,664.4099999995167,7.860292e-06
664.4249999995167,2.719002e-05,664.4249999995167,0.002957837,664.4249999995167,1.777459e-05,664.4249999995167,7.990047e-06
664.4399999995167,2.713193e-05,664.4399999995167,0.003239466,664.4399999995167,1.794889e-05,664.4399999995167,7.824367e-06
664.4549999995166,2.709401e-05,664.4549999995166,0.003396143,664.4549999995166,1.794732e-05,664.4549999995166,7.865667e-06
664.4699999995166,2.704822e-05,664.4699999995166,0.003404088,664.4699999995166,1.771903e-05,664.4699999995166,7.790086e-06
664.4849999995166,2.673391e-05,664.4849999995166,0.003417586,664.4849999995166,1.764654e-05,664.4849999995166,7.790086e-06
664.4999999995166,1.654486e-05,664.4999999995166,0.003498766,664.4999999995166,1.686614e-05,664.4999999995166,7.702799e-06
664.5149999995166,1.285554e-05,664.5149999995166,0.003745522,664.5149999995166,1.660181e-05,664.5149999995166,7.542018e-06
664.5299999995166,1.079859e-05,664.5299999995166,0.003965025,664.5299999995166,1.639347e-05,664.5299999995166,7.354785e-06
664.5449999995166,1.001907e-05,664.5449999995166,0.004032728,664.5449999995166,1.61981e-05,664.5449999995166,7.184261e-06
664.5599999995165,9.331874e-06,664.5599999995165,0.004218381,664.5599999995165,1.454005e-05,664.5599999995165,7.095478e-06
664.5749999995165,9.291028e-06,664.5749999995165,0.004449548,664.5749999995165,1.311911e-05,664.5749999995165,6.975343e-06
664.5899999995165,9.065413e-06,664.5899999995165,0.004612979,664.5899999995165,1.288181e-05,664.5899999995165,6.928738e-06
664.6049999995165,8.236593e-06,664.6049999995165,0.004541521,664.6049999995165,1.247403e-05,664.6049999995165,6.961192e-06
664.6199999995165,7.649581e-06,664.6199999995165,0.004433826,664.6199999995165,1.156943e-05,664.6199999995165,7.12124e-06
664.6349999995165,7.693649e-06,664.6349999995165,0.004242077,664.6349999995165,1.017532e-05,664.6349999995165,7.105398e-06
664.6499999995165,7.768356e-06,664.6499999995165,0.004021447,664.6499999995165,9.12427e-06,664.6499999995165,7.101431e-06
664.6649999995165,7.761099e-06,664.6649999995165,0.003888776,664.6649999995165,9.618801e-06,664.6649999995165,7.205797e-06
664.6799999995164,7.768356e-06,664.6799999995164,0.003727375,664.6799999995164,8.932356e-06,664.6799999995164,7.166593e-06
664.6949999995164,7.656943e-06,664.6949999995164,0.003502368,664.6949999995164,1.008354e-05,664.6949999995164,7.231167e-06
664.7099999995164,7.568121e-06,664.7099999995164,0.003375411,664.7099999995164,1.03714e-05,664.7099999995164,7.316379e-06
664.7249999995164,7.47636e-06,664.7249999995164,0.00336983,664.7249999995164,1.144579e-05,664.7249999995164,7.252564e-06
664.7399999995164,7.184261e-06,664.7399999995164,0.003367118,664.7399999995164,1.203024e-05,664.7399999995164,6.940926e-06
664.7549999995164,7.04567e-06,664.7549999995164,0.00328803,664.7549999995164,1.240496e-05,664.7549999995164,6.859265e-06
664.7699999995164,7.160693e-06,664.7699999995164,0.003011293,664.7699999995164,1.241744e-05,664.7699999995164,6.828391e-06
664.7849999995163,7.757469e-06,664.7849999995163,0.002592489,664.7849999995163,1.233435e-05,664.7849999995163,6.855157e-06
664.7999999995163,8.138525e-06,664.7999999995163,0.002475956,664.7999999995163,1.247742e-05,664.7999999995163,7.025649e-06
664.8149999995163,8.687718e-06,664.8149999995163,0.002396279,664.8149999995163,1.225299e-05,664.8149999995163,7.166593e-06
664.8299999995163,8.277538e-06,664.8299999995163,0.002263766,664.8299999995163,1.235147e-05,664.8299999995163,7.033664e-06
664.8449999995163,7.019631e-06,664.8449999995163,0.00188972,664.8449999995163,1.238677e-05,664.8449999995163,6.904299e-06
664.8599999995163,7.083556e-06,664.8599999995163,0.001810895,664.8599999995163,1.25775e-05,664.8599999995163,6.855157e-06
664.8749999995163,7.023643e-06,664.8749999995163,0.00191694,664.8749999995163,1.242991e-05,664.8749999995163,6.824264e-06
664.8899999995162,7.682656e-06,664.8899999995162,0.001983423,664.8899999995162,1.235489e-05,664.8899999995162,6.787006e-06
664.9049999995162,8.243432e-06,664.9049999995162,0.002001974,664.9049999995162,1.212006e-05,664.9049999995162,6.703471e-06
664.9199999995162,8.492574e-06,664.9199999995162,0.002011937,664.9199999995162,1.170861e-05,664.9199999995162,6.635885e-06
664.9349999995162,8.716856e-06,664.9349999995162,0.002012854,664.9349999995162,1.158768e-05,664.9349999995162,6.684531e-06
664.9499999995162,8.840414e-06,664.9499999995162,0.002015706,664.9499999995162,1.106405e-05,664.9499999995162,6.616753e-06
664.9649999995162,8.826061e-06,664.9649999995162,0.002020164,664.9649999995162,1.083636e-05,664.9649999995162,6.420096e-06
664.9799999995162,8.827657e-06,664.9799999995162,0.002027888,664.9799999995162,9.836022e-06,664.9799999995162,6.382687e-06
664.9949999995162,8.792481e-06,664.9949999995162,0.002034697,664.9949999995162,9.099535e-06,664.9949999995162,6.428867e-06
665.0099999995161,9.178147e-06,665.0099999995161,0.001924787,665.0099999995161,9.275854e-06,665.0099999995161,6.507271e-06
665.0249999995161,8.982679e-06,665.0249999995161,0.00184931,665.0249999995161,9.348464e-06,665.0249999995161,6.608231e-06
665.0399999995161,8.451005e-06,665.0399999995161,0.001902245,665.0399999995161,9.38606e-06,665.0399999995161,6.376062e-06
665.0549999995161,7.912094e-06,665.0549999995161,0.001880002,665.0549999995161,9.390561e-06,665.0549999995161,6.137409e-06
665.0699999995161,7.903186e-06,665.0699999995161,0.001662408,665.0699999995161,9.222548e-06,665.0699999995161,5.905813e-06
665.0849999995161,8.02523e-06,665.0849999995161,0.00150034,665.0849999995161,8.884918e-06,665.0849999995161,5.898653e-06
665.0999999995161,8.147174e-06,665.0999999995161,0.001578571,665.0999999995161,9.097987e-06,665.0999999995161,5.75603e-06
665.114999999516,8.449338e-06,665.114999999516,0.00160856,665.114999999516,1.136551e-05,665.114999999516,5.449287e-06
665.129999999516,8.630781e-06,665.129999999516,0.001596605,665.129999999516,1.273444e-05,665.129999999516,5.22494e-06
665.144999999516,7.901403e-06,665.144999999516,0.001612003,665.144999999516,1.370312e-05,665.144999999516,5.249148e-06
665.159999999516,7.205797e-06,665.159999999516,0.001713646,665.159999999516,1.413326e-05,665.159999999516,4.987693e-06
665.174999999516,7.231167e-06,665.174999999516,0.001741644,665.174999999516,1.388794e-05,665.174999999516,4.873412e-06
665.189999999516,6.857212e-06,665.189999999516,0.001736683,665.189999999516,1.3664e-05,665.189999999516,4.747494e-06
665.204999999516,7.517698e-06,665.204999999516,0.001736859,665.204999999516,1.356363e-05,665.204999999516,4.788854e-06
665.219999999516,7.862084e-06,665.219999999516,0.001781817,665.219999999516,1.405631e-05,665.219999999516,4.768218e-06
665.2349999995159,7.940529e-06,665.2349999995159,0.001973595,665.2349999995159,1.430859e-05,665.2349999995159,4.720713e-06
665.2499999995159,7.638524e-06,665.2499999995159,0.002050844,665.2499999995159,1.467697e-05,665.2499999995159,4.729657e-06
665.2649999995159,7.542018e-06,665.2649999995159,0.002056759,665.2649999995159,1.45942e-05,665.2649999995159,4.466178e-06
665.2799999995159,7.434793e-06,665.2799999995159,0.002101042,665.2799999995159,1.461927e-05,665.2799999995159,4.519479e-06
665.2949999995159,7.675319e-06,665.2949999995159,0.002043244,665.2949999995159,1.483829e-05,665.2949999995159,4.497608e-06
665.3099999995159,8.810087e-06,665.3099999995159,0.001990764,665.3099999995159,1.488852e-05,665.3099999995159,4.500739e-06
665.3249999995159,8.798887e-06,665.3249999995159,0.002042282,665.3249999995159,1.491877e-05,665.3249999995159,4.547444e-06
665.3399999995158,8.575109e-06,665.3399999995158,0.001958214,665.3399999995158,1.477169e-05,665.3399999995158,4.488202e-06
665.3549999995158,8.439329e-06,665.3549999995158,0.001805129,665.3549999995158,1.482689e-05,665.3549999995158,4.478776e-06
665.3699999995158,8.542191e-06,665.3699999995158,0.001805393,665.3699999995158,1.23092e-05,665.3699999995158,4.559819e-06
665.3849999995158,8.606265e-06,665.3849999995158,0.002256681,665.3849999995158,1.143841e-05,665.3849999995158,4.494475e-06
665.3999999995158,8.726546e-06,665.3999999995158,0.002636356,665.3999999995158,1.110472e-05,665.3999999995158,4.424985e-06
665.4149999995158,8.822869e-06,665.4149999995158,0.002712924,665.4149999995158,1.116166e-05,665.4149999995158,4.447213e-06
665.4299999995158,8.848378e-06,665.4299999995158,0.002903524,665.4299999995158,1.160711e-05,665.4299999995158,4.289197e-06
665.4449999995157,9.466757e-06,665.4449999995157,0.003170276,665.4449999995157,1.154871e-05,665.4449999995157,4.531929e-06
665.4599999995157,1.245143e-05,665.4599999995157,0.003333056,665.4599999995157,1.284019e-05,665.4599999995157,4.618143e-06
665.4749999995157,1.306639e-05,665.4749999995157,0.003511321,665.4749999995157,1.246161e-05,665.4749999995157,4.497608e-06
665.4899999995157,1.395775e-05,665.4899999995157,0.003659979,665.4899999995157,1.139027e-05,665.4899999995157,4.633369e-06
665.5049999995157,1.544031e-05,665.5049999995157,0.003801135,665.5049999995157,1.2689e-05,665.5049999995157,4.596741e-06
665.5199999995157,1.550404e-05,665.5199999995157,0.003899829,665.5199999995157,1.348134e-05,665.5199999995157,4.360851e-06
665.5349999995157,1.58713e-05,665.5349999995157,0.004064465,665.5349999995157,1.338907e-05,665.5349999995157,4.469331e-06
665.5499999995156,1.554668e-05,665.5499999995156,0.004308047,665.5499999995156,1.288947e-05,665.5499999995156,4.453544e-06
665.5649999995156,1.522162e-05,665.5649999995156,0.004510338,665.5649999995156,1.272005e-05,665.5649999995156,4.562907e-06
665.5799999995156,1.536623e-05,665.5799999995156,0.00465462,665.5799999995156,1.282373e-05,665.5799999995156,4.559819e-06
665.5949999995156,1.543757e-05,665.5949999995156,0.004740187,665.5949999995156,1.288509e-05,665.5949999995156,4.550541e-06
665.6099999995156,1.531113e-05,665.6099999995156,0.00488957,665.6099999995156,1.286869e-05,665.6099999995156,4.544346e-06
665.6249999995156,1.515763e-05,665.6249999995156,0.004996727,665.6249999995156,1.295379e-05,665.6249999995156,4.562907e-06
665.6399999995156,1.507656e-05,665.6399999995156,0.004996727,665.6399999995156,1.306531e-05,665.6399999995156,4.569077e-06
665.6549999995156,1.506535e-05,665.6549999995156,0.004974541,665.6549999995156,1.289711e-05,665.6549999995156,4.565993e-06
665.6699999995155,1.508777e-05,665.6699999995155,0.004972615,665.6699999995155,1.250449e-05,665.6699999995155,4.645514e-06
665.6849999995155,1.516785e-05,665.6849999995155,0.004803813,665.6849999995155,1.246613e-05,665.6849999995155,4.544346e-06
665.6999999995155,1.407334e-05,665.6999999995155,0.004648192,665.6999999995155,1.254273e-05,665.6999999995155,4.242968e-06
665.7149999995155,1.148265e-05,665.7149999995155,0.004624961,665.7149999995155,1.186161e-05,665.7149999995155,4.249604e-06
665.7299999995155,1.148388e-05,665.7299999995155,0.004485304,665.7299999995155,1.191493e-05,665.7299999995155,4.252917e-06
665.7449999995155,9.971149e-06,665.7449999995155,0.004278848,665.7449999995155,1.234919e-05,665.7449999995155,4.101159e-06
665.7599999995155,8.504177e-06,665.7599999995155,0.004075813,665.7599999995155,1.11136e-05,665.7599999995155,4.118297e-06
665.7749999995154,8.465993e-06,665.7749999995154,0.003962235,665.7749999995154,1.127717e-05,665.7749999995154,4.059732e-06
665.7899999995154,8.217759e-06,665.7899999995154,0.003800144,665.7899999995154,1.134815e-05,665.7899999995154,3.867824e-06
665.8049999995154,8.581677e-06,665.8049999995154,0.003558459,665.8049999995154,1.203258e-05,665.8049999995154,3.889614e-06
665.8199999995154,8.467658e-06,665.8199999995154,0.00326239,665.8199999995154,1.195742e-05,665.8199999995154,3.867824e-06
665.8349999995154,8.402527e-06,665.8349999995154,0.002895294,665.8349999995154,1.200914e-05,665.8349999995154,3.867824e-06
665.8499999995154,8.37566e-06,665.8499999995154,0.002653521,665.8499999995154,1.234234e-05,665.8499999995154,3.889614e-06
665.8649999995154,8.99365e-06,665.8649999995154,0.002404114,665.8649999995154,1.213865e-05,665.8649999995154,3.756974e-06
665.8799999995153,9.065413e-06,665.8799999995153,0.002078879,665.8799999995153,1.219191e-05,665.8799999995153,3.556662e-06
665.8949999995153,9.217965e-06,665.8949999995153,0.001608173,665.8949999995153,1.207932e-05,665.8949999995153,3.552699e-06
665.9099999995153,9.262176e-06,665.9099999995153,0.001217345,665.9099999995153,1.244011e-05,665.9099999995153,3.516832e-06
665.9249999995153,8.787673e-06,665.9249999995153,0.001186827,665.9249999995153,1.265009e-05,665.9249999995153,3.386231e-06
665.9399999995153,8.739451e-06,665.9399999995153,0.001128657,665.9399999995153,1.222307e-05,665.9399999995153,3.276286e-06
665.9549999995153,8.489256e-06,665.9549999995153,0.0008452127,665.9549999995153,1.180089e-05,665.9549999995153,3.267676e-06
665.9699999995153,8.308113e-06,665.9699999995153,0.0005303509,665.9699999995153,1.190902e-05,665.9699999995153,3.415227e-06
665.9849999995153,8.617714e-06,665.9849999995153,0.0004655492,665.9849999995153,1.203726e-05,665.9849999995153,3.340158e-06
665.9999999995152,8.739451e-06,665.9999999995152,0.0004651035,665.9999999995152,1.265454e-05,665.9999999995152,3.29344e-06
666.0149999995152,8.193725e-06,666.0149999995152,0.0004270187,666.0149999995152,1.235033e-05,666.0149999995152,3.259043e-06
666.0299999995152,8.200599e-06,666.0299999995152,0.0003731235,666.0299999995152,1.206648e-05,666.0299999995152,3.267676e-06
666.0449999995152,7.808148e-06,666.0449999995152,0.0003754063,666.0449999995152,1.190192e-05,666.0449999995152,3.356985e-06
666.0599999995152,7.847737e-06,666.0599999995152,0.0003680122,666.0599999995152,1.153773e-05,666.0599999995152,3.348582e-06
666.0749999995152,7.768356e-06,666.0749999995152,0.0003506702,666.0749999995152,1.176622e-05,666.0749999995152,3.153601e-06
666.0899999995152,7.879981e-06,666.0899999995152,0.0003605704,666.0899999995152,1.319299e-05,666.0899999995152,3.072146e-06
666.1049999995151,8.402527e-06,666.1049999995151,0.0003741403,666.1049999995151,1.30707e-05,666.1049999995151,3.171418e-06
666.1199999995151,1.031556e-05,666.1199999995151,0.0003930516,666.1199999995151,1.386358e-05,666.1199999995151,3.189136e-06
666.1349999995151,1.16059e-05,666.1349999995151,0.0003757054,666.1349999995151,1.39072e-05,666.1349999995151,3.344373e-06
666.1499999995151,1.440573e-05,666.1499999995151,0.000373544,666.1499999995151,1.515484e-05,666.1499999995151,3.611685e-06
666.1649999995151,1.771028e-05,666.1649999995151,0.0004664275,666.1649999995151,1.547858e-05,666.1649999995151,3.889614e-06
666.1799999995151,1.8189e-05,666.1799999995151,0.0007898769,666.1799999995151,1.583931e-05,666.1799999995151,4.031877e-06
666.1949999995151,1.838696e-05,666.1949999995151,0.0008239382,666.1949999995151,1.778885e-05,666.1949999995151,4.219664e-06
666.209999999515,1.850153e-05,666.209999999515,0.0009049729,666.209999999515,1.774921e-05,666.209999999515,4.497608e-06
666.224999999515,1.848096e-05,666.224999999515,0.001141983,666.224999999515,1.756492e-05,666.224999999515,4.453544e-06
666.239999999515,1.849086e-05,666.239999999515,0.001368365,666.239999999515,1.72632e-05,666.239999999515,4.741556e-06
666.254999999515,1.859267e-05,666.254999999515,0.001376425,666.254999999515,1.673028e-05,666.254999999515,4.815255e-06
666.269999999515,1.887688e-05,666.269999999515,0.001442206,666.269999999515,1.710251e-05,666.269999999515,4.876302e-06
666.284999999515,1.900406e-05,666.284999999515,0.00144901,666.284999999515,1.781338e-05,666.284999999515,4.870521e-06
666.299999999515,1.891863e-05,666.299999999515,0.001457931,666.299999999515,1.782603e-05,666.299999999515,4.806471e-06
666.314999999515,1.893575e-05,666.314999999515,0.001474335,666.314999999515,1.776032e-05,666.314999999515,4.870521e-06
666.3299999995149,1.904183e-05,666.3299999995149,0.001480283,666.3299999995149,1.760018e-05,666.3299999995149,5.057808e-06
666.3449999995149,1.902703e-05,666.3449999995149,0.001568518,666.3449999995149,1.664418e-05,666.3449999995149,5.088352e-06
666.3599999995149,1.847257e-05,666.3599999995149,0.001628726,666.3599999995149,1.659672e-05,666.3599999995149,5.168013e-06
666.3749999995149,1.7373e-05,666.3749999995149,0.001631511,666.3749999995149,1.675384e-05,666.3749999995149,5.197909e-06
666.3899999995149,1.683939e-05,666.3899999995149,0.001646101,666.3899999995149,1.617112e-05,666.3899999995149,4.982041e-06
666.4049999995149,1.311052e-05,666.4049999995149,0.001666925,666.4049999995149,1.538547e-05,666.4049999995149,4.950841e-06
666.4199999995149,1.047949e-05,666.4199999995149,0.001616228,666.4199999995149,1.456134e-05,666.4199999995149,4.884961e-06
666.4349999995148,1.004855e-05,666.4349999995148,0.001468932,666.4349999995148,1.367637e-05,666.4349999995148,4.768218e-06
666.4499999995148,9.959841e-06,666.4499999995148,0.001456719,666.4499999995148,1.189718e-05,666.4499999995148,4.516361e-06
666.4649999995148,9.775687e-06,666.4649999995148,0.00142264,666.4649999995148,1.192084e-05,666.4649999995148,4.223002e-06
666.4799999995148,9.81021e-06,666.4799999995148,0.001164058,666.4799999995148,1.183664e-05,666.4799999995148,4.229668e-06
666.4949999995148,9.502402e-06,666.4949999995148,0.0009978577,666.4949999995148,1.191848e-05,666.4949999995148,4.017877e-06
666.5099999995148,8.935509e-06,666.5099999995148,0.000988032,666.5099999995148,1.195624e-05,666.5099999995148,3.957827e-06
666.5249999995148,8.373978e-06,666.5249999995148,0.000922334,666.5249999995148,1.135683e-05,666.5249999995148,3.975583e-06
666.5399999995147,8.233172e-06,666.5399999995147,0.0009177543,666.5399999995147,1.043099e-05,666.5399999995147,3.957827e-06
666.5549999995147,8.17996e-06,666.5549999995147,0.0008780121,666.5549999995147,1.02553e-05,666.5549999995147,3.893234e-06
666.5699999995147,7.935205e-06,666.5699999995147,0.0008451699,666.5699999995147,1.048218e-05,666.5699999995147,3.635012e-06
666.5849999995147,7.699141e-06,666.5849999995147,0.0008213053,666.5849999995147,1.020573e-05,666.5849999995147,3.925663e-06
666.5999999995147,7.678988e-06,666.5999999995147,0.0006265396,666.5999999995147,1.091665e-05,666.5999999995147,3.975583e-06
666.6149999995147,7.612662e-06,666.6149999995147,0.0004861379,666.6149999995147,1.085454e-05,666.6149999995147,3.896851e-06
666.6299999995147,7.728359e-06,666.6299999995147,0.0004829066,666.6299999995147,1.004434e-05,666.6299999995147,3.84957e-06
666.6449999995147,7.404416e-06,666.6449999995147,0.0004461068,666.6449999995147,9.800154e-06,666.6449999995147,3.753223e-06
666.6599999995146,7.293238e-06,666.6599999995146,0.0004194663,666.6599999995146,9.546771e-06,666.6599999995146,3.885991e-06
666.6749999995146,7.383459e-06,666.6749999995146,0.0004117927,666.6749999995146,9.74827e-06,666.6749999995146,3.900464e-06
666.6899999995146,7.558809e-06,666.6899999995146,0.0005061906,666.6899999995146,9.685934e-06,666.6899999995146,3.950702e-06
666.7049999995146,7.726537e-06,666.7049999995146,0.0005332637,666.7049999995146,1.044044e-05,666.7049999995146,4.003829e-06
666.7199999995146,9.181215e-06,666.7199999995146,0.0005265997,666.7199999995146,1.103984e-05,666.7199999995146,3.979125e-06
666.7349999995146,9.221021e-06,666.7349999995146,0.0005275572,666.7349999995146,1.140881e-05,666.7349999995146,4.236323e-06
666.7499999995146,9.362016e-06,666.7499999995146,0.0006647175,666.7499999995146,1.162045e-05,666.7499999995146,4.312125e-06
666.7649999995145,9.315255e-06,666.7649999995145,0.0009171736,666.7649999995145,1.142608e-05,666.7649999995145,4.608983e-06
666.7799999995145,9.275854e-06,666.7799999995145,0.001622253,666.7799999995145,1.149737e-05,666.7799999995145,4.690778e-06
666.7949999995145,9.876042e-06,666.7949999995145,0.00181562,666.7949999995145,1.153406e-05,666.7949999995145,4.950841e-06
666.8099999995145,1.03809e-05,666.8099999995145,0.001824246,666.8099999995145,1.160833e-05,666.8099999995145,4.947995e-06
666.8249999995145,1.066206e-05,666.8249999995145,0.0019117,666.8249999995145,1.179133e-05,666.8249999995145,4.962209e-06
666.8399999995145,1.106278e-05,666.8399999995145,0.00207858,666.8399999995145,1.206882e-05,666.8399999995145,4.930884e-06
666.8549999995145,1.114398e-05,666.8549999995145,0.002255881,666.8549999995145,1.13407e-05,666.8549999995145,4.950841e-06
666.8699999995144,1.194799e-05,666.8699999995144,0.002355681,666.8699999995144,1.121454e-05,666.8699999995144,5.135199e-06
666.8849999995144,1.182116e-05,666.8849999995144,0.002376442,666.8849999995144,1.120071e-05,666.8849999995144,5.222243e-06
666.8999999995144,1.271894e-05,666.8999999995144,0.00237451,666.8999999995144,1.107296e-05,666.8999999995144,5.467352e-06
666.9149999995144,1.293093e-05,666.9149999995144,0.002434256,666.9149999995144,1.102707e-05,666.9149999995144,5.454455e-06
666.9299999995144,1.309762e-05,666.9299999995144,0.00249868,666.9299999995144,1.092568e-05,666.9299999995144,5.574516e-06
666.9449999995144,1.287416e-05,666.9449999995144,0.002494505,666.9449999995144,1.068977e-05,666.9449999995144,5.672212e-06
666.9599999995144,1.274881e-05,666.9599999995144,0.002496033,666.9599999995144,1.047412e-05,666.9599999995144,5.760922e-06
666.9749999995144,1.18152e-05,666.9749999995144,0.002494908,666.9749999995144,9.938602e-06,666.9749999995144,5.915346e-06
666.9899999995143,1.163499e-05,666.9899999995143,0.002490628,666.9899999995143,9.887446e-06,666.9899999995143,5.81689e-06
667.0049999995143,1.155481e-05,667.0049999995143,0.002437661,667.0049999995143,1.032375e-05,667.0049999995143,5.799914e-06
667.0199999995143,1.170621e-05,667.0199999995143,0.002240292,667.0199999995143,1.025942e-05,667.0199999995143,5.946224e-06
667.0349999995143,1.235717e-05,667.0349999995143,0.001792976,667.0349999995143,1.058915e-05,667.0349999995143,5.901041e-06
667.0499999995143,1.246161e-05,667.0499999995143,0.001687331,667.0499999995143,1.065016e-05,667.0499999995143,5.802342e-06
667.0649999995143,1.219653e-05,667.0649999995143,0.001681216,667.0649999995143,1.065413e-05,667.0649999995143,5.865124e-06
667.0799999995143,1.186161e-05,667.0799999995143,0.001591237,667.0799999995143,1.051974e-05,667.0799999995143,5.869926e-06
667.0949999995142,1.181043e-05,667.0949999995142,0.001415377,667.0949999995142,1.034556e-05,667.0949999995142,6.196798e-06
667.1099999995142,1.19031e-05,667.1099999995142,0.001173559,667.1099999995142,1.068318e-05,667.1099999995142,6.162605e-06
667.1249999995142,1.127842e-05,667.1249999995142,0.0009727157,667.1249999995142,1.064222e-05,667.1249999995142,6.302733e-06
667.1399999995142,1.081944e-05,667.1399999995142,0.0009322442,667.1399999995142,1.070426e-05,667.1399999995142,6.428867e-06
667.1549999995142,9.94852e-06,667.1549999995142,0.0009331529,667.1549999995142,1.060643e-05,667.1549999995142,6.459471e-06
667.1699999995142,9.97821e-06,667.1699999995142,0.0008257805,667.1699999995142,1.06845e-05,667.1699999995142,6.450741e-06
667.1849999995142,9.838886e-06,667.1849999995142,0.0007387579,667.1849999995142,1.045931e-05,667.1849999995142,6.778699e-06
667.1999999995141,9.843181e-06,667.1999999995141,0.0007217295,667.1999999995141,1.064487e-05,667.1999999995141,7.051666e-06
667.2149999995141,9.667009e-06,667.2149999995141,0.00072569,667.2149999995141,1.006816e-05,667.2149999995141,7.425313e-06
667.2299999995141,1.065016e-05,667.2299999995141,0.0007422653,667.2299999995141,9.989498e-06,667.2299999995141,7.599698e-06
667.2449999995141,1.080511e-05,667.2449999995141,0.0007697159,667.2449999995141,9.451865e-06,667.2449999995141,7.644054e-06
667.2599999995141,1.097585e-05,667.2599999995141,0.0007810695,667.2599999995141,9.904527e-06,667.2599999995141,7.59228e-06
667.2749999995141,1.085973e-05,667.2749999995141,0.0007726859,667.2749999995141,1.011422e-05,667.2749999995141,7.673483e-06
667.2899999995141,9.336401e-06,667.2899999995141,0.0007710716,667.2899999995141,1.032102e-05,667.2899999995141,8.17996e-06
667.304999999514,9.348464e-06,667.304999999514,0.0007721263,667.304999999514,1.042288e-05,667.304999999514,8.26732e-06
667.319999999514,9.30012e-06,667.319999999514,0.0007675997,667.319999999514,1.004715e-05,667.319999999514,8.389105e-06
667.334999999514,9.286478e-06,667.334999999514,0.0007258346,667.334999999514,1.056784e-05,667.334999999514,8.573465e-06
667.349999999514,1.005696e-05,667.349999999514,0.000625899,667.349999999514,1.042559e-05,667.349999999514,8.638938e-06
667.364999999514,1.007515e-05,667.364999999514,0.0005882565,667.364999999514,1.048621e-05,667.364999999514,8.630781e-06
667.379999999514,1.017809e-05,667.379999999514,0.0005824928,667.379999999514,1.116797e-05,667.379999999514,8.419275e-06
667.394999999514,1.027177e-05,667.394999999514,0.0005391269,667.394999999514,1.142238e-05,667.394999999514,8.537242e-06
667.409999999514,1.057983e-05,667.409999999514,0.0005032121,667.409999999514,1.206415e-05,667.409999999514,8.530639e-06
667.424999999514,1.084675e-05,667.424999999514,0.0004613436,667.424999999514,1.209447e-05,667.424999999514,8.563602e-06
667.4399999995139,1.099124e-05,667.4399999995139,0.0004684713,667.4399999995139,1.230348e-05,667.4399999995139,8.695822e-06
667.4549999995139,1.097072e-05,667.4549999995139,0.0005420232,667.4549999995139,1.25461e-05,667.4549999995139,8.58496e-06
667.4699999995139,1.075546e-05,667.4699999995139,0.0005665836,667.4699999995139,1.278632e-05,667.4699999995139,8.373978e-06
667.4849999995139,1.030463e-05,667.4849999995139,0.0006398017,667.4849999995139,1.287963e-05,667.4849999995139,8.367247e-06
667.4999999995139,1.06581e-05,667.4999999995139,0.0006441362,667.4999999995139,1.356986e-05,667.4999999995139,8.415928e-06
667.5149999995139,1.064884e-05,667.5149999995139,0.0006642232,667.5149999995139,1.379431e-05,667.5149999995139,8.520726e-06
667.5299999995138,1.061837e-05,667.5299999995138,0.0007631294,667.5299999995138,1.361236e-05,667.5299999995138,8.797286e-06
667.5449999995138,1.078293e-05,667.5449999995138,0.0008748896,667.5449999995138,1.414422e-05,667.5449999995138,8.509145e-06
667.5599999995138,1.080511e-05,667.5599999995138,0.0009303426,667.5599999995138,1.411431e-05,667.5599999995138,8.638938e-06
667.5749999995138,1.088046e-05,667.5749999995138,0.000932929,667.5749999995138,1.428199e-05,667.5749999995138,8.664989e-06
667.5899999995138,1.088305e-05,667.5899999995138,0.0009622209,667.5899999995138,1.403324e-05,667.5899999995138,8.58824e-06
667.6049999995138,9.70337e-06,667.6049999995138,0.00100754,667.6049999995138,1.396784e-05,667.6049999995138,8.70068e-06
667.6199999995138,9.756936e-06,667.6199999995138,0.001055702,667.6199999995138,1.333742e-05,667.6199999995138,8.726546e-06
667.6349999995138,9.877468e-06,667.6349999995138,0.001077802,667.6349999995138,1.331098e-05,667.6349999995138,8.916571e-06
667.6499999995137,9.390561e-06,667.6499999995137,0.001083303,667.6499999995137,1.289056e-05,667.6499999995137,8.970124e-06
667.6649999995137,8.742674e-06,667.6649999995137,0.001067763,667.6649999995137,1.258534e-05,667.6649999995137,9.049861e-06
667.6799999995137,8.143716e-06,667.6799999995137,0.001061633,667.6799999995137,1.205363e-05,667.6799999995137,9.048304e-06
667.6949999995137,8.240013e-06,667.6949999995137,0.001021121,667.6949999995137,1.225874e-05,667.6949999995137,9.115002e-06
667.7099999995137,8.17996e-06,667.7099999995137,0.0009956349,667.7099999995137,1.196919e-05,667.7099999995137,9.049861e-06
667.7249999995137,8.470984e-06,667.7249999995137,0.0009726777,667.7249999995137,1.16253e-05,667.7249999995137,9.228656e-06
667.7399999995137,8.745896e-06,667.7399999995137,0.0009260203,667.7399999995137,1.166764e-05,667.7399999995137,9.291028e-06
667.7549999995136,8.487596e-06,667.7549999995136,0.0009433461,667.7549999995136,1.090633e-05,667.7549999995136,9.224075e-06
667.7699999995136,8.410905e-06,667.7699999995136,0.001000275,667.7699999995136,1.032784e-05,667.7699999995136,9.30012e-06
667.7849999995136,8.926046e-06,667.7849999995136,0.001015533,667.7849999995136,9.31979e-06,667.7849999995136,9.330365e-06
667.7999999995136,8.977973e-06,667.7999999995136,0.0009770028,667.7999999995136,8.999913e-06,667.7999999995136,9.339419e-06
667.8149999995136,9.038959e-06,667.8149999995136,0.0009528889,667.8149999995136,8.982679e-06,667.8149999995136,9.248478e-06
667.8299999995136,9.10263e-06,667.8299999995136,0.001048705,667.8299999995136,9.509811e-06,667.8299999995136,9.225602e-06
667.8449999995136,8.91025e-06,667.8449999995136,0.001075128,667.8449999995136,1.01933e-05,667.8449999995136,9.204201e-06
667.8599999995135,8.996782e-06,667.8599999995135,0.001181489,667.8599999995135,1.03714e-05,667.8599999995135,9.301635e-06
667.8749999995135,8.990517e-06,667.8749999995135,0.001267225,667.8749999995135,1.021539e-05,667.8749999995135,9.393561e-06
667.8899999995135,8.684475e-06,667.8899999995135,0.001251593,667.8899999995135,9.749715e-06,667.8899999995135,9.266738e-06
667.9049999995135,8.728161e-06,667.9049999995135,0.001255403,667.9049999995135,9.76271e-06,667.9049999995135,9.517214e-06
667.9199999995135,8.716856e-06,667.9199999995135,0.001284347,667.9199999995135,9.834591e-06,667.9199999995135,9.447393e-06
667.9349999995135,1.010865e-05,667.9349999995135,0.001302653,667.9349999995135,1.006116e-05,667.9349999995135,9.545296e-06
667.9499999995135,1.064222e-05,667.9499999995135,0.001305126,667.9499999995135,9.913058e-06,667.9499999995135,9.474194e-06
667.9649999995135,1.11288e-05,667.9649999995135,0.001298775,667.9649999995135,1.027177e-05,667.9649999995135,9.429483e-06
667.9799999995134,1.084285e-05,667.9799999995134,0.001298588,667.9799999995134,1.022504e-05,667.9799999995134,9.512773e-06
667.9949999995134,1.087528e-05,667.9949999995134,0.001298267,667.9949999995134,1.062368e-05,667.9949999995134,9.40555e-06
668.0099999995134,1.107042e-05,668.0099999995134,0.001274318,668.0099999995134,1.040259e-05,668.0099999995134,9.402554e-06
668.0249999995134,1.109076e-05,668.0249999995134,0.001203023,668.0249999995134,1.086621e-05,668.0249999995134,9.10263e-06
668.0399999995134,1.154261e-05,668.0399999995134,0.001119864,668.0399999995134,1.121077e-05,668.0399999995134,8.98895e-06
668.0549999995134,1.216647e-05,668.0549999995134,0.001087866,668.0549999995134,1.212471e-05,668.0549999995134,8.851561e-06
668.0699999995134,1.285554e-05,668.0699999995134,0.001055112,668.0699999995134,1.185567e-05,668.0699999995134,8.830848e-06
668.0849999995133,1.293964e-05,668.0849999995133,0.0009441947,668.0849999995133,1.143348e-05,668.0849999995133,8.676361e-06
668.0999999995133,1.293746e-05,668.0999999995133,0.0009059825,668.0999999995133,1.09797e-05,668.0999999995133,8.550433e-06
668.1149999995133,1.302103e-05,668.1149999995133,0.0006319347,668.1149999995133,1.081554e-05,668.1149999995133,8.62425e-06
668.1299999995133,1.324202e-05,668.1299999995133,0.0004111772,668.1299999995133,1.118939e-05,668.1299999995133,8.661737e-06
668.1449999995133,1.3632e-05,668.1449999995133,0.00040662,668.1449999995133,1.131334e-05,668.1449999995133,8.533942e-06
668.1599999995133,1.369387e-05,668.1599999995133,0.0003764371,668.1599999995133,1.149737e-05,668.1599999995133,8.479295e-06
668.1749999995133,1.415717e-05,668.1749999995133,0.00033537,668.1749999995133,1.153406e-05,668.1749999995133,8.24514e-06
668.1899999995132,1.368872e-05,668.1899999995132,0.0003328988,668.1899999995132,1.178894e-05,668.1899999995132,8.1264e-06
668.2049999995132,1.362787e-05,668.2049999995132,0.0003523004,668.2049999995132,1.165797e-05,668.2049999995132,7.887128e-06
668.2199999995132,1.31962e-05,668.2199999995132,0.0003307973,668.2199999995132,1.146178e-05,668.2199999995132,7.817162e-06
668.2349999995132,1.332262e-05,668.2349999995132,0.0003422184,668.2349999995132,1.114398e-05,668.2349999995132,7.872827e-06
668.2499999995132,1.350013e-05,668.2499999995132,0.0003514713,668.2499999995132,1.109838e-05,668.2499999995132,7.910313e-06
668.2649999995132,1.36846e-05,668.2649999995132,0.0003529346,668.2649999995132,1.104239e-05,668.2649999995132,8.081204e-06
668.2799999995132,1.381472e-05,668.2799999995132,0.0003899485,668.2799999995132,1.051573e-05,668.2799999995132,8.138525e-06
668.2949999995132,1.322073e-05,668.2949999995132,0.0007095799,668.2949999995132,1.034964e-05,668.2949999995132,8.51411e-06
668.3099999995131,1.326859e-05,668.3099999995131,0.00135673,668.3099999995131,9.831725e-06,668.3099999995131,8.627516e-06
668.3249999995131,1.295705e-05,668.3249999995131,0.001553637,668.3249999995131,1.037547e-05,668.3249999995131,8.803689e-06
668.3399999995131,1.287963e-05,668.3399999995131,0.002009721,668.3399999995131,1.033466e-05,668.3399999995131,9.028043e-06
668.3549999995131,1.285335e-05,668.3549999995131,0.002415044,668.3549999995131,1.025118e-05,668.3549999995131,8.954407e-06
668.3699999995131,1.288291e-05,668.3699999995131,0.00256264,668.3699999995131,1.011422e-05,668.3699999995131,8.998348e-06
668.3849999995131,1.267345e-05,668.3849999995131,0.002570507,668.3849999995131,9.930095e-06,668.3849999995131,9.049861e-06
668.399999999513,1.252587e-05,668.399999999513,0.002569971,668.399999999513,9.823125e-06,668.399999999513,9.0374e-06
668.414999999513,1.264006e-05,668.414999999513,0.002568739,668.414999999513,9.466757e-06,668.414999999513,9.006171e-06
668.429999999513,1.259541e-05,668.429999999513,0.00257793,668.429999999513,1.011144e-05,668.429999999513,9.063859e-06
668.444999999513,1.222307e-05,668.444999999513,0.002631956,668.444999999513,1.072135e-05,668.444999999513,9.407047e-06
668.459999999513,1.205013e-05,668.459999999513,0.00273255,668.459999999513,1.188178e-05,668.459999999513,9.457824e-06
668.474999999513,1.187704e-05,668.474999999513,0.002832211,668.474999999513,1.202555e-05,668.474999999513,9.746825e-06
668.489999999513,1.173145e-05,668.489999999513,0.002866127,668.489999999513,1.348969e-05,668.489999999513,9.771364e-06
668.504999999513,1.162167e-05,668.504999999513,0.002867421,668.504999999513,1.381574e-05,668.504999999513,9.772805e-06
668.519999999513,1.127217e-05,668.519999999513,0.002869252,668.519999999513,1.404929e-05,668.519999999513,9.851764e-06
668.5349999995129,1.04889e-05,668.5349999995129,0.002868179,668.5349999995129,1.394766e-05,668.5349999995129,9.787209e-06
668.5499999995129,1.048487e-05,668.5499999995129,0.002695598,668.5499999995129,1.399202e-05,668.5499999995129,9.645126e-06
668.5649999995129,1.069504e-05,668.5649999995129,0.002411884,668.5649999995129,1.379124e-05,668.5649999995129,9.435456e-06
668.5799999995129,1.058116e-05,668.5799999995129,0.002328481,668.5799999995129,1.340379e-05,668.5799999995129,9.401056e-06
668.5949999995129,1.078423e-05,668.5949999995129,0.0019386,668.5949999995129,1.379839e-05,668.5949999995129,9.245431e-06
668.6099999995129,1.077247e-05,668.6099999995129,0.001445701,668.6099999995129,1.385748e-05,668.6099999995129,9.315255e-06
668.6249999995129,1.068977e-05,668.6249999995129,0.001232274,668.6249999995129,1.418897e-05,668.6249999995129,9.369536e-06
668.6399999995128,1.088435e-05,668.6399999995128,0.001206528,668.6399999995128,1.413426e-05,668.6399999995128,9.359006e-06
668.6549999995128,1.076985e-05,668.6549999995128,0.001182578,668.6549999995128,1.440573e-05,668.6549999995128,9.520175e-06
668.6699999995128,1.130586e-05,668.6699999995128,0.001175827,668.6699999995128,1.469328e-05,668.6699999995128,9.469733e-06
668.6849999995128,1.081814e-05,668.6849999995128,0.001165961,668.6849999995128,1.438322e-05,668.6849999995128,9.52757e-06
668.6999999995128,1.06779e-05,668.6999999995128,0.001086907,668.6999999995128,1.368769e-05,668.6999999995128,9.454845e-06
668.7149999995128,1.091924e-05,668.7149999995128,0.0008744405,668.7149999995128,1.346879e-05,668.7149999995128,9.374045e-06
668.7299999995128,1.098098e-05,668.7299999995128,0.0006020055,668.7299999995128,1.314379e-05,668.7299999995128,9.257612e-06
668.7449999995127,1.106151e-05,668.7449999995127,0.0004717605,668.7449999995127,1.258757e-05,668.7449999995127,9.21338e-06
668.7599999995127,1.145563e-05,668.7599999995127,0.0004602282,668.7599999995127,1.164467e-05,668.7599999995127,9.023361e-06
668.7749999995127,1.306424e-05,668.7749999995127,0.0004521322,668.7749999995127,1.32569e-05,668.7749999995127,9.096438e-06
668.7899999995127,1.267123e-05,668.7899999995127,0.0004453298,668.7899999995127,1.330146e-05,668.7899999995127,8.902342e-06
668.8049999995127,1.324734e-05,668.8049999995127,0.0004416464,668.8049999995127,1.373598e-05,668.8049999995127,8.949686e-06
668.8199999995127,1.32367e-05,668.8199999995127,0.0004416015,668.8199999995127,1.37534e-05,668.8199999995127,9.038959e-06
668.8349999995127,1.35522e-05,668.8349999995127,0.0004327461,668.8349999995127,1.371545e-05,668.8349999995127,9.21185e-06
668.8499999995126,1.399102e-05,668.8499999995126,0.0003837842,668.8499999995126,1.356259e-05,668.8499999995126,9.20114e-06
668.8649999995126,1.532676e-05,668.8649999995126,0.0003198514,668.8649999995126,1.423951e-05,668.8649999995126,9.515735e-06
668.8799999995126,1.889404e-05,668.8799999995126,0.0004078953,668.8799999995126,1.637025e-05,668.8799999995126,9.426494e-06
668.8949999995126,2.008097e-05,668.8949999995126,0.0004047632,668.8949999995126,1.652612e-05,668.8949999995126,9.457824e-06
668.9099999995126,2.020615e-05,668.9099999995126,0.000417791,668.9099999995126,1.62528e-05,668.9099999995126,9.445902e-06
668.9249999995126,1.966775e-05,668.9249999995126,0.000465132,668.9249999995126,1.675468e-05,668.9249999995126,9.53496e-06
668.9399999995126,1.963836e-05,668.9399999995126,0.0005012621,668.9399999995126,1.645351e-05,668.9399999995126,9.614407e-06
668.9549999995126,1.956866e-05,668.9549999995126,0.0005073996,668.9549999995126,1.697104e-05,668.9549999995126,9.307691e-06
668.9699999995125,1.94951e-05,668.9699999995125,0.0005090659,668.9699999995125,1.722644e-05,668.9699999995125,9.37104e-06
668.9849999995125,1.963334e-05,668.9849999995125,0.0005014215,668.9849999995125,1.765611e-05,668.9849999995125,9.427989e-06
668.9999999995125,1.958809e-05,668.9999999995125,0.0005042002,668.9999999995125,1.74426e-05,668.9999999995125,9.408545e-06
669.0149999995125,1.94857e-05,669.0149999995125,0.0005218692,669.0149999995125,1.730069e-05,669.0149999995125,9.426494e-06
669.0299999995125,1.877212e-05,669.0299999995125,0.0005237628,669.0299999995125,1.690701e-05,669.0299999995125,9.420515e-06
669.0449999995125,1.901518e-05,669.0449999995125,0.0005309035,669.0449999995125,1.689701e-05,669.0449999995125,9.362016e-06
669.0599999995125,1.853424e-05,669.0599999995125,0.0005434523,669.0599999995125,1.714858e-05,669.0599999995125,9.321302e-06
669.0749999995124,1.862522e-05,669.0749999995124,0.0005724261,669.0749999995124,1.708026e-05,669.0749999995124,9.328855e-06
669.0899999995124,1.839692e-05,669.0899999995124,0.0006079647,669.0899999995124,1.710498e-05,669.0899999995124,9.307691e-06
669.1049999995124,1.83816e-05,669.1049999995124,0.0006169862,669.1049999995124,1.722071e-05,669.1049999995124,9.113456e-06
669.1199999995124,1.738678e-05,669.1199999995124,0.0005758317,669.1199999995124,1.537906e-05,669.1199999995124,8.846786e-06
669.1349999995124,1.281384e-05,669.1349999995124,0.000545995,669.1349999995124,1.428495e-05,669.1349999995124,8.676361e-06
669.1499999995124,1.176622e-05,669.1499999995124,0.000749182,669.1499999995124,1.453229e-05,669.1499999995124,8.789276e-06
669.1649999995124,1.137542e-05,669.1649999995124,0.0009342516,669.1649999995124,1.40503e-05,669.1649999995124,8.668239e-06
669.1799999995123,1.110599e-05,669.1799999995123,0.0009939474,669.1799999995123,1.411132e-05,669.1799999995123,8.538892e-06
669.1949999995123,1.138533e-05,669.1949999995123,0.000975673,669.1949999995123,1.342269e-05,669.1949999995123,8.537242e-06
669.2099999995123,1.188297e-05,669.2099999995123,0.001017543,669.2099999995123,1.305992e-05,669.2099999995123,8.482616e-06
669.2249999995123,1.151573e-05,669.2249999995123,0.001084984,669.2249999995123,1.313306e-05,669.2249999995123,8.474309e-06
669.2399999995123,1.154871e-05,669.2399999995123,0.001100692,669.2399999995123,1.339538e-05,669.2399999995123,8.469321e-06
669.2549999995123,1.168814e-05,669.2549999995123,0.001098414,669.2549999995123,1.336696e-05,669.2549999995123,8.505834e-06
669.2699999995123,1.120323e-05,669.2699999995123,0.001093524,669.2699999995123,1.512041e-05,669.2699999995123,8.580036e-06
669.2849999995123,1.117175e-05,669.2849999995123,0.001111529,669.2849999995123,1.549677e-05,669.2849999995123,8.367247e-06
669.2999999995122,1.074104e-05,669.2999999995122,0.00114241,669.2999999995122,1.579746e-05,669.2999999995122,8.297934e-06
669.3149999995122,1.060775e-05,669.3149999995122,0.001140067,669.3149999995122,1.546856e-05,669.3149999995122,8.321666e-06
669.3299999995122,1.007795e-05,669.3299999995122,0.001137147,669.3299999995122,1.682265e-05,669.3299999995122,8.291141e-06
669.3449999995122,9.746825e-06,669.3449999995122,0.001143518,669.3449999995122,1.678996e-05,669.3449999995122,8.216045e-06
669.3599999995122,9.34545e-06,669.3599999995122,0.001131009,669.3599999995122,1.697436e-05,669.3599999995122,8.270727e-06
669.3749999995122,8.684475e-06,669.3749999995122,0.001167054,669.3749999995122,1.688116e-05,669.3749999995122,8.269024e-06
669.3899999995122,8.846786e-06,669.3899999995122,0.001189536,669.3899999995122,1.672102e-05,669.3899999995122,8.58824e-06
669.4049999995121,9.532005e-06,669.4049999995121,0.001092248,669.4049999995121,1.707201e-05,669.4049999995121,8.373978e-06
669.4199999995121,9.571822e-06,669.4199999995121,0.0009197221,669.4199999995121,1.695277e-05,669.4199999995121,8.370614e-06
669.4349999995121,9.359006e-06,669.4349999995121,0.0008281689,669.4349999995121,1.749582e-05,669.4349999995121,8.357139e-06
669.4499999995121,8.918151e-06,669.4499999995121,0.0008552897,669.4499999995121,1.748374e-05,669.4499999995121,8.316587e-06
669.4649999995121,8.903924e-06,669.4649999995121,0.0008289574,669.4649999995121,1.772777e-05,669.4649999995121,8.200599e-06
669.4799999995121,8.819675e-06,669.4799999995121,0.0007867318,669.4799999995121,1.654486e-05,669.4799999995121,8.258797e-06
669.4949999995121,8.651973e-06,669.4949999995121,0.0008066476,669.4949999995121,1.675552e-05,669.4949999995121,8.095138e-06
669.509999999512,9.532005e-06,669.509999999512,0.0008055871,669.509999999512,1.650565e-05,669.509999999512,7.97593e-06
669.524999999512,9.617337e-06,669.524999999512,0.0008557537,669.524999999512,1.457295e-05,669.524999999512,7.93698e-06
669.539999999512,9.465269e-06,669.539999999512,0.001048657,669.539999999512,1.428593e-05,669.539999999512,7.984756e-06
669.554999999512,9.851764e-06,669.554999999512,0.001193216,669.554999999512,1.471723e-05,669.554999999512,8.000618e-06
669.569999999512,9.850334e-06,669.569999999512,0.001209751,669.569999999512,1.410533e-05,669.569999999512,7.896054e-06
669.584999999512,9.614407e-06,669.584999999512,0.00127741,669.584999999512,1.319299e-05,669.584999999512,7.93698e-06
669.599999999512,9.108818e-06,669.599999999512,0.001376968,669.599999999512,1.294944e-05,669.599999999512,7.98652e-06
669.614999999512,9.227129e-06,669.614999999512,0.001402027,669.614999999512,1.293638e-05,669.614999999512,7.954708e-06
669.6299999995119,9.165859e-06,669.6299999995119,0.001379455,669.6299999995119,1.311374e-05,669.6299999995119,7.910313e-06
669.6449999995119,8.781259e-06,669.6449999995119,0.001345401,669.6449999995119,1.285445e-05,669.6449999995119,7.52706e-06
669.6599999995119,8.594799e-06,669.6599999995119,0.001329523,669.6599999995119,1.2397e-05,669.6599999995119,7.453716e-06
669.6749999995119,8.834038e-06,669.6749999995119,0.001330944,669.6749999995119,1.27731e-05,669.6749999995119,7.451826e-06
669.6899999995119,9.420515e-06,669.6899999995119,0.001324065,669.6899999995119,1.136551e-05,669.6899999995119,7.246734e-06
669.7049999995119,9.309204e-06,669.7049999995119,0.001315418,669.7049999995119,1.244011e-05,669.7049999995119,7.279705e-06
669.7199999995119,9.478654e-06,669.7199999995119,0.001317872,669.7199999995119,1.285773e-05,669.7199999995119,7.065636e-06
669.7349999995118,9.565934e-06,669.7349999995118,0.001371981,669.7349999995118,1.308363e-05,669.7349999995118,7.003558e-06
669.7499999995118,9.004607e-06,669.7499999995118,0.001442212,669.7499999995118,1.266233e-05,669.7499999995118,6.989465e-06
669.7649999995118,8.509145e-06,669.7649999995118,0.001444469,669.7649999995118,1.285664e-05,669.7649999995118,6.908378e-06
669.7799999995118,8.810087e-06,669.7799999995118,0.00141367,669.7799999995118,1.27455e-05,669.7799999995118,6.80152e-06
669.7949999995118,1.079076e-05,669.7949999995118,0.001262199,669.7949999995118,1.252587e-05,669.7949999995118,6.824264e-06
669.8099999995118,1.034284e-05,669.8099999995118,0.001143284,669.8099999995118,1.241971e-05,669.8099999995118,6.749543e-06
669.8249999995118,1.14421e-05,669.8249999995118,0.001163595,669.8249999995118,1.248419e-05,669.8249999995118,6.571893e-06
669.8399999995117,1.416413e-05,669.8399999995117,0.001080472,669.8399999995117,1.324734e-05,669.8399999995117,6.526725e-06
669.8549999995117,1.615631e-05,669.8549999995117,0.0009705953,669.8549999995117,1.456425e-05,669.8549999995117,6.404719e-06
669.8699999995117,1.795595e-05,669.8699999995117,0.0009506666,669.8699999995117,1.519105e-05,669.8699999995117,6.665538e-06
669.8849999995117,3.115039e-05,669.8849999995117,0.0009518448,669.8849999995117,1.582419e-05,669.8849999995117,6.528882e-06
669.8999999995117,3.519475e-05,669.8999999995117,0.0009677645,669.8999999995117,1.832634e-05,669.8999999995117,6.526725e-06
669.9149999995117,3.656302e-05,669.9149999995117,0.0009833222,669.9149999995117,1.859721e-05,669.9149999995117,6.772462e-06
669.9299999995117,3.650017e-05,669.9299999995117,0.001151306,669.9299999995117,1.853803e-05,669.9299999995117,6.776621e-06
669.9449999995117,3.658421e-05,669.9449999995117,0.001253349,669.9449999995117,1.860857e-05,669.9449999995117,6.904299e-06
669.9599999995116,3.650634e-05,669.9599999995116,0.001441232,669.9599999995116,1.812694e-05,669.9599999995116,6.900217e-06
669.9749999995116,3.65291e-05,669.9749999995116,0.001780447,669.9749999995116,1.792139e-05,669.9749999995116,6.906339e-06
669.9899999995116,3.686002e-05,669.9899999995116,0.001902442,669.9899999995116,1.774445e-05,669.9899999995116,6.885912e-06
670.0049999995116,3.692874e-05,670.0049999995116,0.001870677,670.0049999995116,1.831327e-05,670.0049999995116,7.001547e-06
670.0199999995116,3.688217e-05,670.0199999995116,0.001906954,670.0199999995116,1.824777e-05,670.0199999995116,7.049668e-06
670.0349999995116,3.677431e-05,670.0349999995116,0.002261515,670.0349999995116,1.833863e-05,670.0349999995116,6.894089e-06
670.0499999995116,3.632376e-05,670.0499999995116,0.002438804,670.0499999995116,1.863202e-05,670.0499999995116,6.787006e-06
670.0649999995115,3.629854e-05,670.0649999995115,0.002437004,670.0649999995115,1.846723e-05,670.0649999995115,6.7391e-06
670.0799999995115,3.590875e-05,670.0799999995115,0.002457412,670.0799999995115,1.874058e-05,670.0799999995115,6.644371e-06
670.0949999995115,3.497311e-05,670.0949999995115,0.00250758,670.0949999995115,1.836857e-05,670.0949999995115,6.57832e-06
670.1099999995115,3.384026e-05,670.1099999995115,0.002548047,670.1099999995115,1.746358e-05,670.1099999995115,6.601833e-06
670.1249999995115,3.116667e-05,670.1249999995115,0.002561234,670.1249999995115,1.784025e-05,670.1249999995115,6.187698e-06
670.1399999995115,2.0316e-05,670.1399999995115,0.00263751,670.1399999995115,1.56172e-05,670.1399999995115,6.203613e-06
670.1549999995115,1.350117e-05,670.1549999995115,0.002666656,670.1549999995115,1.545945e-05,670.1549999995115,6.21269e-06
670.1699999995114,9.375548e-06,670.1699999995114,0.002665048,670.1699999995114,1.522255e-05,670.1699999995114,5.912964e-06
670.1849999995114,9.328855e-06,670.1849999995114,0.002536779,670.1849999995114,1.507936e-05,670.1849999995114,5.853103e-06
670.1999999995114,8.822869e-06,670.1999999995114,0.002509291,670.1999999995114,1.504663e-05,670.1999999995114,5.682137e-06
670.2149999995114,8.761987e-06,670.2149999995114,0.002375494,670.2149999995114,1.544943e-05,670.2149999995114,5.699464e-06
670.2299999995114,8.622616e-06,670.2299999995114,0.002145701,670.2299999995114,1.565953e-05,670.2299999995114,5.721665e-06
670.2449999995114,7.089519e-06,670.2449999995114,0.001930279,670.2449999995114,1.64218e-05,670.2449999995114,5.662269e-06
670.2599999995114,6.439814e-06,670.2599999995114,0.001893638,670.2599999995114,1.613362e-05,670.2599999995114,5.431162e-06
670.2749999995114,6.50294e-06,670.2749999995114,0.001832548,670.2749999995114,1.604168e-05,670.2749999995114,5.425972e-06
670.2899999995113,6.608231e-06,670.2899999995113,0.00146161,670.2899999995113,1.597745e-05,670.2899999995113,5.407768e-06
670.3049999995113,6.737009e-06,670.3049999995113,0.00128048,670.3049999995113,1.640206e-05,670.3049999995113,5.444114e-06
670.3199999995113,6.791156e-06,670.3199999995113,0.001286993,670.3199999995113,1.639604e-05,670.3199999995113,5.420777e-06
670.3349999995113,6.985433e-06,670.3349999995113,0.001198451,670.3349999995113,1.615805e-05,670.3349999995113,5.561867e-06
670.3499999995113,7.073606e-06,670.3499999995113,0.001056996,670.3499999995113,1.590233e-05,670.3499999995113,5.647323e-06
670.3649999995113,7.757469e-06,670.3649999995113,0.0009495743,670.3649999995113,1.559011e-05,670.3649999995113,5.748683e-06
670.3799999995113,7.728359e-06,670.3799999995113,0.0008894097,670.3799999995113,1.473254e-05,670.3799999995113,5.721665e-06
670.3949999995112,7.790086e-06,670.3949999995112,0.0006654722,670.3949999995112,1.456715e-05,670.3949999995112,5.765811e-06
670.4099999995112,7.896054e-06,670.4099999995112,0.0005371289,670.4099999995112,1.442039e-05,670.4099999995112,5.792623e-06
670.4249999995112,8.032248e-06,670.4249999995112,0.0005046258,670.4249999995112,1.55349e-05,670.4249999995112,5.592176e-06
670.4399999995112,7.908532e-06,670.4399999995112,0.000494333,670.4399999995112,1.577872e-05,670.4399999995112,5.554263e-06
670.4549999995112,8.030494e-06,670.4549999995112,0.0005148242,670.4549999995112,1.588993e-05,670.4549999995112,5.457037e-06
670.4699999995112,8.150632e-06,670.4699999995112,0.000517399,670.4699999995112,1.624673e-05,670.4699999995112,5.420777e-06
670.4849999995112,8.107309e-06,670.4849999995112,0.0005301897,670.4849999995112,1.60645e-05,670.4849999995112,5.281253e-06
670.4999999995111,8.034001e-06,670.4999999995111,0.0005234775,670.4999999995111,1.548495e-05,670.4999999995111,5.457037e-06
670.5149999995111,8.176516e-06,670.5149999995111,0.000488036,670.5149999995111,1.547767e-05,670.5149999995111,5.418178e-06
670.5299999995111,8.107309e-06,670.5299999995111,0.0004188525,670.5299999995111,1.545307e-05,670.5299999995111,5.612292e-06
670.5449999995111,8.034001e-06,670.5449999995111,0.0003772739,670.5449999995111,1.667969e-05,670.5449999995111,5.549188e-06
670.5599999995111,7.757469e-06,670.5599999995111,0.0003667528,670.5599999995111,1.601092e-05,670.5599999995111,5.584614e-06
670.5749999995111,8.970124e-06,670.5749999995111,0.0003337056,670.5749999995111,1.650821e-05,670.5749999995111,5.587136e-06
670.5899999995111,8.905506e-06,670.5899999995111,0.0003093434,670.5899999995111,1.677149e-05,670.5899999995111,5.559333e-06
670.604999999511,8.886504e-06,670.604999999511,0.0002982405,670.604999999511,1.678828e-05,670.604999999511,5.360675e-06
670.619999999511,8.081204e-06,670.619999999511,0.000298829,670.619999999511,1.755289e-05,670.619999999511,5.587136e-06
670.634999999511,8.122932e-06,670.634999999511,0.0003005975,670.634999999511,1.809349e-05,670.634999999511,5.821732e-06
670.649999999511,8.002378e-06,670.649999999511,0.0002955479,670.649999999511,1.811994e-05,670.649999999511,5.679657e-06
670.664999999511,7.96002e-06,670.664999999511,0.0002891967,670.664999999511,1.75296e-05,670.664999999511,5.809621e-06
670.679999999511,7.879981e-06,670.679999999511,0.0002998251,670.679999999511,1.668391e-05,670.679999999511,5.845879e-06
670.694999999511,7.761099e-06,670.694999999511,0.0003009737,670.694999999511,1.722807e-05,670.694999999511,5.931993e-06
670.709999999511,7.616361e-06,670.709999999511,0.0002803553,670.709999999511,1.621375e-05,670.709999999511,6.06584e-06
670.7249999995109,8.209184e-06,670.7249999995109,0.0002676751,670.7249999995109,1.676561e-05,670.7249999995109,6.11902e-06
670.7399999995109,8.451005e-06,670.7399999995109,0.000228949,670.7399999995109,1.704145e-05,670.7399999995109,6.19907e-06
670.7549999995109,8.609537e-06,670.7549999995109,0.0002226884,670.7549999995109,1.650992e-05,670.7549999995109,6.030905e-06
670.7699999995109,8.487596e-06,670.7699999995109,0.0001978925,670.7699999995109,1.684022e-05,670.7699999995109,5.986361e-06
670.7849999995109,8.583318e-06,670.7849999995109,0.0001690906,670.7849999995109,1.626406e-05,670.7849999995109,5.915346e-06
670.7999999995109,8.553727e-06,670.7999999995109,0.0001699061,670.7999999995109,1.561088e-05,670.7999999995109,5.995767e-06
670.8149999995109,8.616079e-06,670.8149999995109,0.0001661197,670.8149999995109,1.538547e-05,670.8149999995109,5.946224e-06
670.8299999995108,7.603404e-06,670.8299999995108,0.0001809985,670.8299999995108,1.42316e-05,670.8299999995108,6.056544e-06
670.8449999995108,7.485775e-06,670.8449999995108,0.0001881686,670.8449999995108,1.379227e-05,670.8449999995108,6.230803e-06
670.8599999995108,7.515824e-06,670.8599999995108,0.0001932535,670.8599999995108,1.377796e-05,670.8599999995108,6.219488e-06
670.8749999995108,7.448044e-06,670.8749999995108,0.0002041448,670.8749999995108,1.258534e-05,670.8749999995108,5.912964e-06
670.8899999995108,7.398706e-06,670.8899999995108,0.0001994714,670.8899999995108,1.235945e-05,670.8899999995108,5.802342e-06
670.9049999995108,7.536412e-06,670.9049999995108,0.0001905554,670.9049999995108,1.227138e-05,670.9049999995108,5.753582e-06
670.9199999995108,7.562535e-06,670.9199999995108,0.0001902407,670.9199999995108,1.265788e-05,670.9199999995108,5.780451e-06
670.9349999995108,7.795508e-06,670.9349999995108,0.0001767342,670.9349999995108,1.23697e-05,670.9349999995108,6.146583e-06
670.9499999995107,8.055015e-06,670.9499999995107,0.0001918642,670.9499999995107,1.132329e-05,670.9499999995107,6.201342e-06
670.9649999995107,7.362442e-06,670.9649999995107,0.0002188249,670.9649999995107,1.15304e-05,670.9649999995107,6.153455e-06
670.9799999995107,6.863372e-06,670.9799999995107,0.0002163403,670.9799999995107,1.085065e-05,670.9799999995107,6.19907e-06
670.9949999995107,6.749543e-06,670.9949999995107,0.0002260477,670.9949999995107,1.119065e-05,670.9949999995107,6.367219e-06
671.0099999995107,6.842817e-06,671.0099999995107,0.0002430546,671.0099999995107,1.113892e-05,671.0099999995107,6.541815e-06
671.0249999995107,6.799448e-06,671.0249999995107,0.0002434162,671.0249999995107,1.124339e-05,671.0249999995107,6.640129e-06
671.0399999995107,6.908378e-06,671.0399999995107,0.0002488501,671.0399999995107,1.113512e-05,671.0399999995107,6.567604e-06
671.0549999995106,7.168558e-06,671.0549999995106,0.0002561188,671.0549999995106,1.142362e-05,671.0549999995106,6.610363e-06
671.0699999995106,7.379642e-06,671.0699999995106,0.0002560746,671.0699999995106,1.152307e-05,671.0699999995106,6.857212e-06
671.0849999995106,7.312527e-06,671.0849999995106,0.0002656637,671.0849999995106,1.165072e-05,671.0849999995106,6.855157e-06
671.0999999995106,7.314453e-06,671.0999999995106,0.0002740363,671.0999999995106,1.180685e-05,671.0999999995106,6.826328e-06
671.1149999995106,7.691819e-06,671.1149999995106,0.000272421,671.1149999995106,1.200562e-05,671.1149999995106,6.916529e-06
671.1299999995106,7.790086e-06,671.1299999995106,0.0002647668,671.1299999995106,1.175424e-05,671.1299999995106,7.019631e-06
671.1449999995106,7.706456e-06,671.1449999995106,0.0002933362,671.1449999995106,1.179253e-05,671.1449999995106,7.304818e-06
671.1599999995105,7.644054e-06,671.1599999995105,0.0003290273,671.1599999995105,1.240041e-05,671.1599999995105,7.465047e-06
671.1749999995105,7.62006e-06,671.1749999995105,0.0003314677,671.1749999995105,1.272891e-05,671.1749999995105,7.373913e-06
671.1899999995105,7.287441e-06,671.1899999995105,0.0003502601,671.1899999995105,1.267345e-05,671.1899999995105,7.30096e-06
671.2049999995105,7.312527e-06,671.2049999995105,0.0003815581,671.2049999995105,1.288181e-05,671.2049999995105,7.231167e-06
671.2199999995105,7.423416e-06,671.2199999995105,0.0003872345,671.2199999995105,1.364027e-05,671.2199999995105,7.316379e-06
671.2349999995105,7.495178e-06,671.2349999995105,0.0003901476,671.2349999995105,1.319833e-05,671.2349999995105,7.237009e-06
671.2499999995105,7.423416e-06,671.2499999995105,0.0004336059,671.2499999995105,1.295813e-05,671.2499999995105,7.34712e-06
671.2649999995105,7.279705e-06,671.2649999995105,0.000616411,671.2649999995105,1.270454e-05,671.2649999995105,7.337527e-06
671.2799999995104,7.647739e-06,671.2799999995104,0.0009714482,671.2799999995104,1.251912e-05,671.2799999995104,7.463159e-06
671.2949999995104,8.515764e-06,671.2949999995104,0.0009919953,671.2949999995104,1.275433e-05,671.2949999995104,7.675319e-06
671.3099999995104,8.336888e-06,671.3099999995104,0.001043143,671.3099999995104,1.285554e-05,671.3099999995104,7.919212e-06
671.3249999995104,8.065501e-06,671.3249999995104,0.001165755,671.3249999995104,1.235147e-05,671.3249999995104,8.062008e-06
671.3399999995104,8.109047e-06,671.3399999995104,0.001292306,671.3399999995104,1.337749e-05,671.3399999995104,8.110784e-06
671.3549999995104,9.250001e-06,671.3549999995104,0.001369044,671.3549999995104,1.371853e-05,671.3549999995104,8.167896e-06
671.3699999995104,9.210321e-06,671.3699999995104,0.001381663,671.3699999995104,1.410533e-05,671.3699999995104,8.325052e-06
671.3849999995103,9.153557e-06,671.3849999995103,0.001388451,671.3849999995103,1.447402e-05,671.3849999995103,8.352081e-06
671.3999999995103,9.577708e-06,671.3999999995103,0.001416304,671.3999999995103,1.461927e-05,671.3999999995103,8.43766e-06
671.4149999995103,9.765595e-06,671.4149999995103,0.001430588,671.4149999995103,1.358646e-05,671.4149999995103,8.405879e-06
671.4299999995103,9.901682e-06,671.4299999995103,0.001470421,671.4299999995103,1.361649e-05,671.4299999995103,8.669864e-06
671.4449999995103,1.016424e-05,671.4449999995103,0.001631028,671.4449999995103,1.448277e-05,671.4449999995103,9.359006e-06
671.4599999995103,1.023605e-05,671.4599999995103,0.001733896,671.4599999995103,1.464719e-05,671.4599999995103,9.456335e-06
671.4749999995103,1.125091e-05,671.4749999995103,0.001792286,671.4749999995103,1.447596e-05,671.4749999995103,9.894567e-06
671.4899999995102,1.14544e-05,671.4899999995102,0.002022545,671.4899999995102,1.431745e-05,671.4899999995102,9.941437e-06
671.5049999995102,1.150716e-05,671.5049999995102,0.002069751,671.5049999995102,1.489231e-05,671.5049999995102,1.007795e-05
671.5199999995102,1.156456e-05,671.5199999995102,0.002092977,671.5199999995102,1.565504e-05,671.5199999995102,1.022779e-05
671.5349999995102,1.115535e-05,671.5349999995102,0.002210008,671.5349999995102,1.561449e-05,671.5349999995102,1.031146e-05
671.5499999995102,1.066999e-05,671.5499999995102,0.002279111,671.5499999995102,1.554759e-05,671.5499999995102,1.023192e-05
671.5649999995102,1.067526e-05,671.5649999995102,0.002282591,671.5649999995102,1.567302e-05,671.5649999995102,1.000781e-05
671.5799999995102,1.121956e-05,671.5799999995102,0.002346988,671.5799999995102,1.57546e-05,671.5799999995102,1.000077e-05
671.5949999995102,1.245821e-05,671.5949999995102,0.002312965,671.5949999995102,1.494518e-05,671.5949999995102,1.021677e-05
671.6099999995101,1.206765e-05,671.6099999995101,0.002273029,671.6099999995101,1.471532e-05,671.6099999995101,1.022641e-05
671.6249999995101,1.280394e-05,671.6249999995101,0.002272099,671.6249999995101,1.458068e-05,671.6249999995101,1.012814e-05
671.6399999995101,1.272448e-05,671.6399999995101,0.002290556,671.6399999995101,1.447304e-05,671.6399999995101,1.020435e-05
671.6549999995101,1.294508e-05,671.6549999995101,0.0023221,671.6549999995101,1.437146e-05,671.6549999995101,1.03101e-05
671.6699999995101,1.283141e-05,671.6699999995101,0.002331379,671.6699999995101,1.429382e-05,671.6699999995101,1.031829e-05
671.6849999995101,1.259652e-05,671.6849999995101,0.002287962,671.6849999995101,1.376671e-05,671.6849999995101,9.636359e-06
671.69999999951,1.249885e-05,671.69999999951,0.002133451,671.69999999951,1.319406e-05,671.69999999951,9.615872e-06
671.71499999951,1.233435e-05,671.71499999951,0.00207639,671.71499999951,1.241517e-05,671.71499999951,9.210321e-06
671.72999999951,1.141375e-05,671.72999999951,0.001988446,671.72999999951,1.291021e-05,671.72999999951,9.327345e-06
671.74499999951,1.137295e-05,671.74499999951,0.001785863,671.74499999951,1.380043e-05,671.74499999951,9.004607e-06
671.75999999951,1.134691e-05,671.75999999951,0.001762484,671.75999999951,1.304265e-05,671.75999999951,8.977973e-06
671.77499999951,1.121328e-05,671.77499999951,0.001558272,671.77499999951,1.321859e-05,671.77499999951,8.883333e-06
671.78999999951,1.155725e-05,671.78999999951,0.001241354,671.78999999951,1.369387e-05,671.78999999951,8.886504e-06
671.80499999951,1.280174e-05,671.80499999951,0.001179987,671.80499999951,1.503165e-05,671.80499999951,8.781259e-06
671.81999999951,1.326328e-05,671.81999999951,0.001080403,671.81999999951,1.482784e-05,671.81999999951,8.842007e-06
671.8349999995099,1.240155e-05,671.8349999995099,0.0009021734,671.8349999995099,1.473062e-05,671.8349999995099,8.612809e-06
671.8499999995099,1.19527e-05,671.8499999995099,0.001130578,671.8499999995099,1.491027e-05,671.8499999995099,8.648716e-06
671.8649999995099,1.166039e-05,671.8649999995099,0.001294529,671.8649999995099,1.494141e-05,671.8649999995099,8.638938e-06
671.8799999995099,1.169778e-05,671.8799999995099,0.001301783,671.8799999995099,1.756573e-05,671.8799999995099,8.741063e-06
671.8949999995099,1.190784e-05,671.8949999995099,0.001406927,671.8949999995099,1.858888e-05,671.8949999995099,8.348708e-06
671.9099999995099,1.238222e-05,671.9099999995099,0.001610217,671.9099999995099,1.876236e-05,671.9099999995099,8.325052e-06
671.9249999995099,1.242198e-05,671.9249999995099,0.001680801,671.9249999995099,1.886942e-05,671.9249999995099,8.299631e-06
671.9399999995098,1.279403e-05,671.9399999995098,0.001694516,671.9399999995098,1.874809e-05,671.9399999995098,8.309809e-06
671.9549999995098,1.288837e-05,671.9549999995098,0.001721018,671.9549999995098,1.863353e-05,671.9549999995098,8.370614e-06
671.9699999995098,1.305237e-05,671.9699999995098,0.001718987,671.9699999995098,1.846647e-05,671.9699999995098,8.367247e-06
671.9849999995098,1.305669e-05,671.9849999995098,0.001723011,671.9849999995098,1.827323e-05,671.9849999995098,8.291141e-06
671.9999999995098,1.299721e-05,671.9999999995098,0.001744082,671.9999999995098,1.813316e-05,671.9999999995098,8.36051e-06
672.0149999995098,1.303833e-05,672.0149999995098,0.001795236,672.0149999995098,1.925663e-05,672.0149999995098,8.419275e-06
672.0299999995098,1.291349e-05,672.0299999995098,0.001819102,672.0299999995098,1.949943e-05,672.0299999995098,8.34702e-06
672.0449999995097,1.212704e-05,672.0449999995097,0.001804017,672.0449999995097,1.806856e-05,672.0449999995097,8.568535e-06
672.0599999995097,1.111867e-05,672.0599999995097,0.001772569,672.0599999995097,1.796928e-05,672.0599999995097,8.68934e-06
672.0749999995097,1.079207e-05,672.0749999995097,0.001768761,672.0749999995097,1.811139e-05,672.0749999995097,8.792481e-06
672.0899999995097,1.068318e-05,672.0899999995097,0.001764699,672.0899999995097,1.818823e-05,672.0899999995097,8.918151e-06
672.1049999995097,9.521654e-06,672.1049999995097,0.001614131,672.1049999995097,1.854791e-05,672.1049999995097,9.004607e-06
672.1199999995097,9.74827e-06,672.1199999995097,0.00147758,672.1199999995097,1.668644e-05,672.1199999995097,9.026482e-06
672.1349999995097,9.887446e-06,672.1349999995097,0.001458179,672.1349999995097,1.52244e-05,672.1349999995097,9.196546e-06
672.1499999995096,8.996782e-06,672.1499999995096,0.001287248,672.1499999995096,1.4281e-05,672.1499999995096,9.221021e-06
672.1649999995096,8.301328e-06,672.1649999995096,0.001055318,672.1649999995096,1.442039e-05,672.1649999995096,9.038959e-06
672.1799999995096,8.204034e-06,672.1799999995096,0.0009917044,672.1799999995096,1.453229e-05,672.1799999995096,9.051417e-06
672.1949999995096,7.786468e-06,672.1949999995096,0.0009605243,672.1949999995096,1.443308e-05,672.1949999995096,9.020237e-06
672.2099999995096,8.026986e-06,672.2099999995096,0.0009365318,672.2099999995096,1.468465e-05,672.2099999995096,8.992083e-06
672.2249999995096,9.336401e-06,672.2249999995096,0.000922911,672.2249999995096,1.441453e-05,672.2249999995096,8.843601e-06
672.2399999995096,9.532005e-06,672.2399999995096,0.000913131,672.2399999995096,1.444284e-05,672.2399999995096,8.845193e-06
672.2549999995096,9.701918e-06,672.2549999995096,0.000810319,672.2549999995096,1.262668e-05,672.2549999995096,8.916571e-06
672.2699999995095,1.024293e-05,672.2699999995095,0.0006404606,672.2699999995095,1.15194e-05,672.2699999995095,8.95126e-06
672.2849999995095,1.015869e-05,672.2849999995095,0.0005662118,672.2849999995095,1.121328e-05,672.2849999995095,9.035841e-06
672.2999999995095,1.027451e-05,672.2999999995095,0.0005598127,672.2999999995095,1.141498e-05,672.2999999995095,8.916571e-06
672.3149999995095,1.015869e-05,672.3149999995095,0.0005953785,672.3149999995095,1.096686e-05,672.3149999995095,8.957552e-06
672.3299999995095,1.015315e-05,672.3299999995095,0.0006278715,672.3299999995095,1.052644e-05,672.3299999995095,8.826061e-06
672.3449999995095,1.02498e-05,672.3449999995095,0.0005277,672.3449999995095,9.685934e-06,672.3449999995095,8.761987e-06
672.3599999995095,1.007515e-05,672.3599999995095,0.0004223959,672.3599999995095,9.579178e-06,672.3599999995095,8.573465e-06
672.3749999995094,9.831725e-06,672.3749999995094,0.000391101,672.3749999995094,9.741042e-06,672.3749999995094,8.594799e-06
672.3899999995094,9.466757e-06,672.3899999995094,0.0003715822,672.3899999995094,9.521654e-06,672.3899999995094,8.303025e-06
672.4049999995094,9.558568e-06,672.4049999995094,0.0003633732,672.4049999995094,9.236285e-06,672.4049999995094,8.352081e-06
672.4199999995094,9.685934e-06,672.4199999995094,0.0003014235,672.4199999995094,9.717876e-06,672.4199999995094,8.459336e-06
672.4349999995094,9.697562e-06,672.4349999995094,0.0002922631,672.4349999995094,1.030736e-05,672.4349999995094,8.553727e-06
672.4499999995094,9.81021e-06,672.4499999995094,0.0002921396,672.4499999995094,1.093857e-05,672.4499999995094,8.545489e-06
672.4649999995094,9.456335e-06,672.4649999995094,0.0002918876,672.4649999995094,1.079598e-05,672.4649999995094,8.50749e-06
672.4799999995093,8.107309e-06,672.4799999995093,0.0002918524,672.4799999995093,1.091794e-05,672.4799999995093,8.607901e-06
672.4949999995093,7.806343e-06,672.4949999995093,0.0002918179,672.4949999995093,1.090116e-05,672.4949999995093,8.581677e-06
672.5099999995093,7.759284e-06,672.5099999995093,0.0002916643,672.5099999995093,1.110472e-05,672.5099999995093,8.494233e-06
672.5249999995093,7.194059e-06,672.5249999995093,0.0002863486,672.5249999995093,1.084415e-05,672.5249999995093,8.265616e-06
672.5399999995093,7.139021e-06,672.5399999995093,0.000282499,672.5399999995093,1.095015e-05,672.5399999995093,8.538892e-06
672.5549999995093,7.737468e-06,672.5549999995093,0.0002737851,672.5549999995093,1.082855e-05,672.5549999995093,8.449338e-06
672.5699999995093,7.733825e-06,672.5699999995093,0.0002020926,672.5699999995093,1.102451e-05,672.5699999995093,8.284342e-06
672.5849999995093,8.253678e-06,672.5849999995093,0.0001431046,672.5849999995093,1.119442e-05,672.5849999995093,8.24514e-06
672.5999999995092,8.08469e-06,672.5999999995092,0.0002026137,672.5999999995092,1.14014e-05,672.5999999995092,8.186846e-06
672.6149999995092,8.055015e-06,672.6149999995092,0.0002325621,672.6149999995092,1.158768e-05,672.6149999995092,8.243432e-06
672.6299999995092,8.026986e-06,672.6299999995092,0.0002330613,672.6299999995092,1.154383e-05,672.6299999995092,8.60299e-06
672.6449999995092,8.480955e-06,672.6449999995092,0.0002707492,672.6449999995092,1.237995e-05,672.6449999995092,8.625883e-06
672.6599999995092,8.616079e-06,672.6599999995092,0.0002897981,672.6599999995092,1.410833e-05,672.6599999995092,8.612809e-06
672.6749999995092,9.20114e-06,672.6749999995092,0.0003061774,672.6749999995092,1.361443e-05,672.6749999995092,8.66011e-06
