X[s],a: EMG RMS 1-1,X[s].1,a: EMG RMS 1-2,X[s].2,a: EMG RMS 1-3,X[s].3,a: EMG RMS 1-4
758.0099999994316,0.0001112261,758.0099999994316,7.59228e-06,758.0099999994316,1.010726e-05,758.0099999994316,8.240013e-06
758.0249999994315,0.0001128607,758.0249999994315,7.087532e-06,758.0249999994315,1.021263e-05,758.0249999994315,8.176516e-06
758.0399999994315,0.0001249215,758.0399999994315,6.682424e-06,758.0399999994315,1.028821e-05,758.0399999994315,8.62425e-06
758.0549999994315,0.0001256988,758.0549999994315,6.635885e-06,758.0549999994315,1.005696e-05,758.0549999994315,9.327345e-06
758.0699999994315,0.0001269598,758.0699999994315,5.561867e-06,758.0699999994315,1.016285e-05,758.0699999994315,9.304663e-06
758.0849999994315,0.0001226351,758.0849999994315,5.780451e-06,758.0849999994315,8.679607e-06,758.0849999994315,9.560042e-06
758.0999999994315,0.0001206577,758.0999999994315,8.093397e-06,758.0999999994315,8.851561e-06,758.0999999994315,9.156633e-06
758.1149999994315,0.0001300701,758.1149999994315,9.077836e-06,758.1149999994315,8.291141e-06,758.1149999994315,9.251524e-06
758.1299999994314,0.000131911,758.1299999994314,8.949686e-06,758.1299999994314,7.521444e-06,758.1299999994314,9.046747e-06
758.1449999994314,0.0001319748,758.1449999994314,8.653601e-06,758.1449999994314,7.771981e-06,758.1449999994314,8.905506e-06
758.1599999994314,0.0001334926,758.1599999994314,8.637307e-06,758.1599999994314,8.02523e-06,758.1599999994314,8.821272e-06
758.1749999994314,0.0001266325,758.1749999994314,8.794083e-06,758.1749999994314,8.2229e-06,758.1749999994314,8.724932e-06
758.1899999994314,0.0001309454,758.1899999994314,8.742674e-06,758.1899999994314,8.331817e-06,758.1899999994314,8.734614e-06
758.2049999994314,0.0001323849,758.2049999994314,8.686096e-06,758.2049999994314,8.289442e-06,758.2049999994314,8.571823e-06
758.2199999994314,0.0001330409,758.2199999994314,8.677985e-06,758.2199999994314,8.479295e-06,758.2199999994314,8.519072e-06
758.2349999994314,0.0001309087,758.2349999994314,8.677985e-06,758.2349999994314,8.576751e-06,758.2349999994314,8.492574e-06
758.2499999994313,0.0001357902,758.2499999994313,8.985815e-06,758.2499999994313,9.539391e-06,758.2499999994313,8.484277e-06
758.2649999994313,0.0001368129,758.2649999994313,9.253046e-06,758.2649999994313,1.01767e-05,758.2649999994313,8.265616e-06
758.2799999994313,0.0001315856,758.2799999994313,1.045392e-05,758.2799999994313,1.037411e-05,758.2799999994313,8.243432e-06
758.2949999994313,0.0001250108,758.2949999994313,1.52355e-05,758.2949999994313,1.038904e-05,758.2949999994313,7.354785e-06
758.3099999994313,0.0001241027,758.3099999994313,2.257494e-05,758.3099999994313,1.023468e-05,758.3099999994313,6.539662e-06
758.3249999994313,0.0001200435,758.3249999994313,2.362325e-05,758.3249999994313,9.957012e-06,758.3249999994313,6.210422e-06
758.3399999994313,0.0001227095,758.3399999994313,2.39113e-05,758.3399999994313,1.025942e-05,758.3399999994313,6.275856e-06
758.3549999994312,0.0001193101,758.3549999994312,2.554454e-05,758.3549999994312,1.087399e-05,758.3549999994312,6.153455e-06
758.3699999994312,0.0001098118,758.3699999994312,2.641e-05,758.3699999994312,1.088046e-05,758.3699999994312,5.948592e-06
758.3849999994312,0.0001074247,758.3849999994312,2.729809e-05,758.3849999994312,1.079859e-05,758.3849999994312,6.176305e-06
758.3999999994312,0.0001074331,758.3999999994312,3.102942e-05,758.3999999994312,1.058915e-05,758.3999999994312,6.369431e-06
758.4149999994312,0.0001035709,758.4149999994312,3.145326e-05,758.4149999994312,1.026217e-05,758.4149999994312,6.537507e-06
758.4299999994312,0.00010202,758.4299999994312,3.183654e-05,758.4299999994312,1.021125e-05,758.4299999994312,6.745368e-06
758.4449999994312,9.378793e-05,758.4449999994312,3.22943e-05,758.4449999994312,1.006676e-05,758.4449999994312,6.730734e-06
758.4599999994311,9.299484e-05,758.4599999994311,3.561688e-05,758.4599999994311,1.045796e-05,758.4599999994311,6.772462e-06
758.4749999994311,9.282868e-05,758.4749999994311,3.655763e-05,758.4749999994311,1.061572e-05,758.4749999994311,7.242846e-06
758.4899999994311,8.966857e-05,758.4899999994311,3.657689e-05,758.4899999994311,1.104749e-05,758.4899999994311,7.308674e-06
758.5049999994311,7.378764e-05,758.5049999994311,3.653681e-05,758.5049999994311,9.86034e-06,758.5049999994311,7.474476e-06
758.5199999994311,6.797915e-05,758.5199999994311,3.655146e-05,758.5199999994311,9.339419e-06,758.5199999994311,7.800928e-06
758.5349999994311,6.933413e-05,758.5349999994311,3.462905e-05,758.5349999994311,9.392062e-06,758.5349999994311,7.788277e-06
758.5499999994311,6.686681e-05,758.5499999994311,3.338133e-05,758.5499999994311,9.29406e-06,758.5499999994311,7.775606e-06
758.564999999431,6.744658e-05,758.564999999431,2.997601e-05,758.564999999431,9.152018e-06,758.564999999431,7.786468e-06
758.579999999431,6.421303e-05,758.579999999431,2.894755e-05,758.579999999431,9.05764e-06,758.579999999431,7.775606e-06
758.594999999431,6.34954e-05,758.594999999431,2.818418e-05,758.594999999431,8.25709e-06,758.594999999431,7.523317e-06
758.609999999431,6.156132e-05,758.609999999431,2.664418e-05,758.609999999431,7.599698e-06,758.609999999431,7.525189e-06
758.624999999431,6.291436e-05,758.624999999431,2.544619e-05,758.624999999431,7.543885e-06,758.624999999431,7.436688e-06
758.639999999431,6.328851e-05,758.639999999431,2.137888e-05,758.639999999431,7.607108e-06,758.639999999431,7.41962e-06
758.654999999431,6.267523e-05,758.654999999431,2.075502e-05,758.654999999431,7.612662e-06,758.654999999431,7.250621e-06
758.669999999431,6.139497e-05,758.669999999431,1.994371e-05,758.669999999431,7.573703e-06,758.669999999431,7.023643e-06
758.6849999994309,5.972768e-05,758.6849999994309,1.906475e-05,758.6849999994309,7.607108e-06,758.6849999994309,6.926705e-06
758.6999999994309,5.862169e-05,758.6999999994309,1.710004e-05,758.6999999994309,7.547619e-06,758.6999999994309,6.778699e-06
758.7149999994309,5.801638e-05,758.7149999994309,9.665551e-06,758.7149999994309,6.680315e-06,758.7149999994309,6.678206e-06
758.7299999994309,5.934272e-05,758.7299999994309,9.147398e-06,758.7299999994309,6.228541e-06,758.7299999994309,6.745368e-06
758.7449999994309,5.957466e-05,758.7449999994309,9.020237e-06,758.7449999994309,5.518642e-06,758.7449999994309,6.640129e-06
758.7599999994309,6.130497e-05,758.7599999994309,1.282482e-05,758.7599999994309,5.536481e-06,758.7599999994309,6.457289e-06
758.7749999994309,5.903404e-05,758.7749999994309,1.279623e-05,758.7749999994309,5.339611e-06,758.7749999994309,6.228541e-06
758.7899999994308,5.214738e-05,758.7899999994308,1.359372e-05,758.7899999994308,5.477649e-06,758.7899999994308,6.318359e-06
758.8049999994308,5.286505e-05,758.8049999994308,1.420584e-05,758.8049999994308,5.262549e-06,758.8049999994308,6.659195e-06
758.8199999994308,5.232887e-05,758.8199999994308,1.459516e-05,758.8199999994308,6.030905e-06,758.8199999994308,6.701369e-06
758.8349999994308,5.149663e-05,758.8349999994308,1.469328e-05,758.8349999994308,6.402519e-06,758.8349999994308,6.965238e-06
758.8499999994308,5.035002e-05,758.8499999994308,1.473827e-05,758.8499999994308,6.509435e-06,758.8499999994308,6.859265e-06
758.8649999994308,5.039979e-05,758.8649999994308,1.476406e-05,758.8649999994308,6.327271e-06,758.8649999994308,7.318304e-06
758.8799999994308,4.929912e-05,758.8799999994308,1.603641e-05,758.8799999994308,6.351713e-06,758.8799999994308,7.988284e-06
758.8949999994308,4.766091e-05,758.8949999994308,1.530376e-05,758.8949999994308,6.137409e-06,758.8949999994308,9.612942e-06
758.9099999994307,4.677486e-05,758.9099999994307,1.55222e-05,758.9099999994307,7.362442e-06,758.9099999994307,1.128466e-05
758.9249999994307,4.695221e-05,758.9249999994307,1.543209e-05,758.9249999994307,7.551351e-06,758.9249999994307,1.150104e-05
758.9399999994307,5.223187e-05,758.9399999994307,1.535614e-05,758.9399999994307,7.510198e-06,758.9399999994307,1.151451e-05
758.9549999994307,5.395355e-05,758.9549999994307,1.524474e-05,758.9549999994307,7.331766e-06,758.9549999994307,1.162288e-05
758.9699999994307,4.984783e-05,758.9699999994307,1.525767e-05,758.9699999994307,7.246734e-06,758.9699999994307,1.223113e-05
758.9849999994307,4.795497e-05,758.9849999994307,1.464334e-05,758.9849999994307,7.119262e-06,758.9849999994307,1.285664e-05
758.9999999994307,5.482661e-05,758.9999999994307,1.461349e-05,758.9999999994307,7.133099e-06,758.9999999994307,1.31073e-05
759.0149999994306,5.43448e-05,759.0149999994306,1.020021e-05,759.0149999994306,7.140994e-06,759.0149999994306,1.613799e-05
759.0299999994306,5.904239e-05,759.0299999994306,1.01684e-05,759.0299999994306,7.343284e-06,759.0299999994306,1.815412e-05
759.0449999994306,6.635801e-05,759.0449999994306,9.181215e-06,759.0449999994306,7.2409e-06,759.0449999994306,2.032986e-05
759.0599999994306,7.357753e-05,759.0599999994306,8.752336e-06,759.0599999994306,7.770169e-06,759.0599999994306,2.790995e-05
759.0749999994306,8.001463e-05,759.0749999994306,8.195444e-06,759.0749999994306,7.540149e-06,759.0749999994306,4.622624e-05
759.0899999994306,8.981095e-05,759.0899999994306,8.221186e-06,759.0899999994306,7.413922e-06,759.0899999994306,4.78008e-05
759.1049999994306,0.000104461,759.1049999994306,8.889673e-06,759.1049999994306,8.461e-06,759.1049999994306,4.854907e-05
759.1199999994305,0.000117321,759.1199999994305,9.284961e-06,759.1199999994305,8.676361e-06,759.1199999994305,4.969046e-05
759.1349999994305,0.0001353638,759.1349999994305,7.201887e-06,759.1349999994305,9.426494e-06,759.1349999994305,4.978392e-05
759.1499999994305,0.0002537844,759.1499999994305,6.975343e-06,759.1499999994305,1.161682e-05,759.1499999994305,4.944207e-05
759.1649999994305,0.0002562873,759.1649999994305,7.312527e-06,759.1649999994305,1.151206e-05,759.1649999994305,4.920302e-05
759.1799999994305,0.0002655662,759.1799999994305,8.274134e-06,759.1799999994305,1.609166e-05,759.1799999994305,4.931969e-05
759.1949999994305,0.0002709478,759.1949999994305,9.417524e-06,759.1949999994305,2.304063e-05,759.1949999994305,5.032567e-05
759.2099999994305,0.0002799661,759.2099999994305,9.712076e-06,759.2099999994305,2.507142e-05,759.2099999994305,5.075129e-05
759.2249999994305,0.0002855154,759.2249999994305,9.67866e-06,759.2249999994305,2.621352e-05,759.2249999994305,5.08597e-05
759.2399999994304,0.0002949426,759.2399999994304,1.258086e-05,759.2399999994304,2.811212e-05,759.2399999994304,5.16384e-05
759.2549999994304,0.0002954022,759.2549999994304,1.625887e-05,759.2549999994304,2.832677e-05,759.2549999994304,5.149772e-05
759.2699999994304,0.0002960289,759.2699999994304,1.754085e-05,759.2699999994304,2.8562e-05,759.2699999994304,5.25671e-05
759.2849999994304,0.0003024392,759.2849999994304,1.775477e-05,759.2849999994304,2.892077e-05,759.2849999994304,5.222782e-05
759.2999999994304,0.0003029676,759.2999999994304,1.956362e-05,759.2999999994304,2.905926e-05,759.2999999994304,5.176972e-05
759.3149999994304,0.0003015806,759.3149999994304,2.337387e-05,759.3149999994304,2.946651e-05,759.3149999994304,4.245358e-05
759.3299999994304,0.0002979851,759.3299999994304,2.359521e-05,759.3299999994304,2.991768e-05,759.3299999994304,2.990073e-05
759.3449999994303,0.0003020844,759.3449999994303,2.596569e-05,759.3449999994303,2.971121e-05,759.3449999994303,2.834864e-05
759.3599999994303,0.0002970176,759.3599999994303,0.0009755068,759.3599999994303,2.980967e-05,759.3599999994303,2.908494e-05
759.3749999994303,0.000294601,759.3749999994303,0.001667688,759.3749999994303,2.969414e-05,759.3749999994303,2.873557e-05
759.3899999994303,0.0002854567,759.3899999994303,0.002102258,759.3899999994303,2.900637e-05,759.3899999994303,2.91135e-05
759.4049999994303,0.0001907222,759.4049999994303,0.002474562,759.4049999994303,2.864327e-05,759.4049999994303,2.935779e-05
759.4199999994303,0.0001893879,759.4199999994303,0.002631246,759.4199999994303,2.783465e-05,759.4199999994303,2.939567e-05
759.4349999994303,0.0001702705,759.4349999994303,0.00286478,759.4349999994303,2.552523e-05,759.4349999994303,2.939423e-05
759.4499999994302,0.0001687253,759.4499999994302,0.003000892,759.4499999994302,1.817738e-05,759.4499999994302,2.689886e-05
759.4649999994302,0.0001483233,759.4649999994302,0.00302194,759.4649999994302,1.759457e-05,759.4649999994302,2.679812e-05
759.4799999994302,0.0001323606,759.4799999994302,0.003024008,759.4799999994302,1.356363e-05,759.4799999994302,2.604802e-05
759.4949999994302,0.0001258769,759.4949999994302,0.003036737,759.4949999994302,1.228629e-05,759.4949999994302,2.394897e-05
759.5099999994302,0.0001266025,759.5099999994302,0.003051854,759.5099999994302,1.182355e-05,759.5099999994302,2.356295e-05
759.5249999994302,0.0001284471,759.5249999994302,0.003062522,759.5249999994302,1.102196e-05,759.5249999994302,2.063522e-05
759.5399999994302,0.0001102546,759.5399999994302,0.003068355,759.5399999994302,1.018915e-05,759.5399999994302,1.95016e-05
759.5549999994302,0.0001055948,759.5549999994302,0.003071188,759.5549999994302,9.836022e-06,759.5549999994302,1.948642e-05
759.5699999994301,0.0001126884,759.5699999994301,0.003072435,759.5699999994301,7.119262e-06,759.5699999994301,1.920096e-05
759.5849999994301,0.0001022928,759.5849999994301,0.003072906,759.5849999994301,6.13052e-06,759.5849999994301,1.930047e-05
759.5999999994301,9.441069e-05,759.5999999994301,0.003073068,759.5999999994301,5.726587e-06,759.5999999994301,1.854107e-05
759.6149999994301,9.398059e-05,759.6149999994301,0.002788387,759.6149999994301,5.679657e-06,759.6149999994301,1.593507e-05
759.6299999994301,9.171406e-05,759.6299999994301,0.002476519,759.6299999994301,5.627332e-06,759.6299999994301,1.184259e-05
759.6449999994301,8.956106e-05,759.6449999994301,0.002106491,759.6449999994301,5.459618e-06,759.6449999994301,1.159983e-05
759.65999999943,8.467907e-05,759.65999999943,0.001605729,759.65999999943,5.412975e-06,759.65999999943,1.119568e-05
759.67499999943,8.412044e-05,759.67499999943,0.001444011,759.67499999943,5.336972e-06,759.67499999943,1.091924e-05
759.68999999943,8.697312e-05,759.68999999943,0.0009274346,759.68999999943,5.780451e-06,759.68999999943,1.002328e-05
759.70499999943,8.474392e-05,759.70499999943,0.0004828335,759.70499999943,5.881913e-06,759.70499999943,1.009889e-05
759.71999999943,8.817998e-05,759.71999999943,0.0003632537,759.71999999943,6.01219e-06,759.71999999943,9.754049e-06
759.73499999943,9.027965e-05,759.73499999943,0.0003648905,759.73499999943,6.311667e-06,759.73499999943,9.484596e-06
759.74999999943,8.556443e-05,759.74999999943,0.0003241842,759.74999999943,6.338393e-06,759.74999999943,9.381556e-06
759.76499999943,7.2695e-05,759.76499999943,0.0002573813,759.76499999943,6.228541e-06,759.76499999943,9.716427e-06
759.77999999943,7.312604e-05,759.77999999943,0.0001928424,759.77999999943,6.028569e-06,759.77999999943,9.349971e-06
759.7949999994299,7.662534e-05,759.7949999994299,0.0001422714,759.7949999994299,6.075122e-06,759.7949999994299,9.05764e-06
759.8099999994299,7.201202e-05,759.8099999994299,0.0001054962,759.8099999994299,6.498606e-06,759.8099999994299,8.903924e-06
759.8249999994299,6.310328e-05,759.8249999994299,7.958002e-05,759.8249999994299,6.4921e-06,759.8249999994299,8.380704e-06
759.8399999994299,6.400869e-05,759.8399999994299,6.071388e-05,759.8399999994299,6.749543e-06,759.8399999994299,8.43432e-06
759.8549999994299,6.348231e-05,759.8549999994299,4.690718e-05,759.8549999994299,7.186222e-06,759.8549999994299,8.492574e-06
759.8699999994299,6.350316e-05,759.8699999994299,3.631212e-05,759.8699999994299,7.41962e-06,759.8699999994299,8.345331e-06
759.8849999994299,6.318783e-05,759.8849999994299,2.823811e-05,759.8849999994299,7.564397e-06,759.8849999994299,8.204034e-06
759.8999999994298,6.369188e-05,759.8999999994298,2.19318e-05,759.8999999994298,7.83696e-06,759.8999999994298,8.164447e-06
759.9149999994298,6.806095e-05,759.9149999994298,1.684942e-05,759.9149999994298,7.897837e-06,759.9149999994298,8.287742e-06
759.9299999994298,6.450588e-05,759.9299999994298,1.339222e-05,759.9299999994298,7.915653e-06,759.9299999994298,8.255384e-06
759.9449999994298,6.185399e-05,759.9449999994298,1.109838e-05,759.9449999994298,7.799122e-06,759.9449999994298,7.894269e-06
759.9599999994298,5.92358e-05,759.9599999994298,1.085973e-05,759.9599999994298,8.241723e-06,759.9599999994298,7.871038e-06
759.9749999994298,5.374034e-05,759.9749999994298,1.025118e-05,759.9749999994298,7.944076e-06,759.9749999994298,7.605257e-06
759.9899999994298,4.993395e-05,759.9899999994298,9.071627e-06,759.9899999994298,7.894269e-06,759.9899999994298,7.605257e-06
760.0049999994297,4.990037e-05,760.0049999994297,8.405879e-06,760.0049999994297,7.704628e-06,760.0049999994297,7.19993e-06
760.0199999994297,4.919615e-05,760.0199999994297,8.583318e-06,760.0199999994297,7.673483e-06,760.0199999994297,6.148874e-06
760.0349999994297,4.172193e-05,760.0349999994297,8.589881e-06,760.0349999994297,7.945849e-06,760.0349999994297,6.063518e-06
760.0499999994297,4.191596e-05,760.0499999994297,8.601352e-06,760.0499999994297,8.02523e-06,760.0499999994297,6.404719e-06
760.0649999994297,4.083569e-05,760.0649999994297,8.661737e-06,760.0649999994297,8.238303e-06,760.0649999994297,6.298262e-06
760.0799999994297,4.031178e-05,760.0799999994297,8.773234e-06,760.0799999994297,8.355453e-06,760.0799999994297,6.246608e-06
760.0949999994297,3.61792e-05,760.0949999994297,8.977973e-06,760.0949999994297,8.140256e-06,760.0949999994297,6.056544e-06
760.1099999994296,3.590444e-05,760.1099999994296,8.985815e-06,760.1099999994296,7.879981e-06,760.1099999994296,6.019215e-06
760.1249999994296,3.53748e-05,760.1249999994296,8.95126e-06,760.1249999994296,7.982992e-06,760.1249999994296,6.009847e-06
760.1399999994296,3.405479e-05,760.1399999994296,8.990517e-06,760.1399999994296,7.844146e-06,760.1399999994296,6.128222e-06
760.1549999994296,3.364069e-05,760.1549999994296,8.990517e-06,760.1549999994296,7.755652e-06,760.1549999994296,6.030905e-06
760.1699999994296,2.284477e-05,760.1699999994296,9.018676e-06,760.1699999994296,8.110784e-06,760.1699999994296,6.255622e-06
760.1849999994296,1.895211e-05,760.1849999994296,8.876988e-06,760.1849999994296,8.454338e-06,760.1849999994296,6.255622e-06
760.1999999994296,1.399907e-05,760.1999999994296,8.773234e-06,760.1999999994296,9.460803e-06,760.1999999994296,6.627389e-06
760.2149999994296,1.370518e-05,760.2149999994296,7.46882e-06,760.2149999994296,9.141237e-06,760.2149999994296,6.676097e-06
760.2299999994295,1.380554e-05,760.2299999994295,7.119262e-06,760.2299999994295,9.265217e-06,760.2299999994295,7.059652e-06
760.2449999994295,1.358646e-05,760.2449999994295,6.924671e-06,760.2449999994295,9.34545e-06,760.2449999994295,7.558809e-06
760.2599999994295,1.318552e-05,760.2599999994295,6.25337e-06,760.2599999994295,9.554146e-06,760.2599999994295,7.838757e-06
760.2749999994295,1.224954e-05,760.2749999994295,5.632336e-06,760.2749999994295,1.004575e-05,760.2749999994295,7.95825e-06
760.2899999994295,9.280408e-06,760.2899999994295,5.838645e-06,760.2899999994295,1.074104e-05,760.2899999994295,7.97593e-06
760.3049999994295,8.326743e-06,760.3049999994295,5.778013e-06,760.3049999994295,1.082075e-05,760.3049999994295,7.97063e-06
760.3199999994295,7.912094e-06,760.3199999994295,5.934367e-06,760.3199999994295,1.155725e-05,760.3199999994295,7.972397e-06
760.3349999994294,8.576751e-06,760.3349999994294,5.931993e-06,760.3349999994294,1.166522e-05,760.3349999994294,7.922768e-06
760.3499999994294,8.547137e-06,760.3499999994294,5.958057e-06,760.3499999994294,1.188652e-05,760.3499999994294,7.766543e-06
760.3649999994294,8.712006e-06,760.3649999994294,5.984008e-06,760.3649999994294,1.169055e-05,760.3649999994294,7.757469e-06
760.3799999994294,8.70068e-06,760.3799999994294,6.237581e-06,760.3799999994294,1.17722e-05,760.3799999994294,7.689987e-06
760.3949999994294,8.629149e-06,760.3949999994294,6.148874e-06,760.3949999994294,1.171222e-05,760.3949999994294,8.355453e-06
760.4099999994294,8.533942e-06,760.4099999994294,6.11211e-06,760.4099999994294,1.199271e-05,760.4099999994294,1.318445e-05
760.4249999994294,8.561957e-06,760.4249999994294,6.075122e-06,760.4249999994294,1.192911e-05,760.4249999994294,1.421872e-05
760.4399999994293,9.133529e-06,760.4399999994293,6.102884e-06,760.4399999994293,1.166643e-05,760.4399999994293,1.465104e-05
760.4549999994293,9.107272e-06,760.4549999994293,6.356147e-06,760.4549999994293,1.081163e-05,760.4549999994293,1.786156e-05
760.4699999994293,8.870637e-06,760.4699999994293,6.428867e-06,760.4699999994293,1.090116e-05,760.4699999994293,1.845731e-05
760.4849999994293,8.519072e-06,760.4849999994293,6.415707e-06,760.4849999994293,1.082595e-05,760.4849999994293,1.935586e-05
760.4999999994293,8.439329e-06,760.4999999994293,6.608231e-06,760.4999999994293,1.091536e-05,760.4999999994293,1.936532e-05
760.5149999994293,8.50749e-06,760.5149999994293,6.50294e-06,760.5149999994293,1.062235e-05,760.5149999994293,1.927856e-05
760.5299999994293,8.611173e-06,760.5299999994293,6.221753e-06,760.5299999994293,1.000641e-05,760.5299999994293,1.968636e-05
760.5449999994293,9.846043e-06,760.5449999994293,5.551726e-06,760.5449999994293,9.433964e-06,760.5449999994293,2.19594e-05
760.5599999994292,9.834591e-06,760.5599999994292,5.500745e-06,760.5599999994292,9.380055e-06,760.5599999994292,2.221198e-05
760.5749999994292,9.864624e-06,760.5749999994292,5.321112e-06,760.5749999994292,8.851561e-06,760.5749999994292,2.380088e-05
760.5899999994292,9.687388e-06,760.5899999994292,5.528843e-06,760.5899999994292,9.574765e-06,760.5899999994292,2.63015e-05
760.6049999994292,1.813859e-05,760.6049999994292,5.487926e-06,760.6049999994292,9.665551e-06,760.6049999994292,3.136671e-05
760.6199999994292,4.072342e-05,760.6199999994292,5.838645e-06,760.6199999994292,9.804465e-06,760.6199999994292,3.452394e-05
760.6349999994292,5.197719e-05,760.6349999994292,5.855509e-06,760.6349999994292,1.027451e-05,760.6349999994292,3.606572e-05
760.6499999994292,6.6149e-05,760.6499999994292,5.877121e-06,760.6499999994292,1.149001e-05,760.6499999994292,3.593072e-05
760.6649999994291,8.859801e-05,760.6649999994291,5.960421e-06,760.6649999994291,1.275654e-05,760.6649999994291,3.499285e-05
760.6799999994291,0.0001116884,760.6799999994291,6.028569e-06,760.6799999994291,1.343423e-05,760.6799999994291,3.471275e-05
760.6949999994291,0.0001218322,760.6949999994291,5.824151e-06,760.6949999994291,1.647746e-05,760.6949999994291,3.396864e-05
760.7099999994291,0.0001343361,760.7099999994291,5.454455e-06,760.7099999994291,1.815955e-05,760.7099999994291,3.329724e-05
760.7249999994291,0.0001442286,760.7249999994291,5.410373e-06,760.7249999994291,2.018592e-05,760.7249999994291,3.295706e-05
760.7399999994291,0.0001521974,760.7399999994291,5.206033e-06,760.7399999994291,2.298922e-05,760.7399999994291,3.419225e-05
760.7549999994291,0.0001988175,760.7549999994291,5.154366e-06,760.7549999994291,2.587275e-05,760.7549999994291,3.466077e-05
760.769999999429,0.0002088453,760.769999999429,6.100575e-06,760.769999999429,2.742628e-05,760.769999999429,3.50821e-05
760.784999999429,0.0002106894,760.784999999429,6.251117e-06,760.784999999429,2.75068e-05,760.784999999429,3.510578e-05
760.799999999429,0.0002135718,760.799999999429,7.184261e-06,760.799999999429,2.791601e-05,760.799999999429,3.455616e-05
760.814999999429,0.0002168369,760.814999999429,8.260502e-06,760.814999999429,2.970552e-05,760.814999999429,3.563823e-05
760.829999999429,0.0002171635,760.829999999429,1.274771e-05,760.829999999429,2.976427e-05,760.829999999429,3.326e-05
760.844999999429,0.0002180468,760.844999999429,1.407534e-05,760.844999999429,2.948228e-05,760.844999999429,3.219338e-05
760.859999999429,0.0002175703,760.859999999429,2.703936e-05,760.859999999429,2.979927e-05,760.859999999429,3.080434e-05
760.874999999429,0.0002146275,760.874999999429,4.916522e-05,760.874999999429,3.081897e-05,760.874999999429,2.807802e-05
760.8899999994289,0.0002133221,760.8899999994289,4.968337e-05,760.8899999994289,3.046452e-05,760.8899999994289,2.690095e-05
760.9049999994289,0.0002111189,760.9049999994289,5.145613e-05,760.9049999994289,3.005767e-05,760.9049999994289,2.682019e-05
760.9199999994289,0.0001984445,760.9199999994289,0.001225182,760.9199999994289,3.005814e-05,760.9199999994289,2.762841e-05
760.9349999994289,0.0001900851,760.9349999994289,0.001823719,760.9349999994289,3.025759e-05,760.9349999994289,2.777791e-05
760.9499999994289,0.0001877573,760.9499999994289,0.00223783,760.9499999994289,2.892759e-05,760.9499999994289,2.771597e-05
760.9649999994289,0.000179248,760.9649999994289,0.002362571,760.9649999994289,2.829144e-05,760.9649999994289,2.765899e-05
760.9799999994289,0.0001730345,760.9799999994289,0.002592666,760.9799999994289,2.681178e-05,760.9799999994289,2.748221e-05
760.9949999994288,0.0001313873,760.9949999994288,0.002688404,760.9949999994288,2.327119e-05,760.9949999994288,2.602962e-05
761.0099999994288,0.0001052065,761.0099999994288,0.002697274,761.0099999994288,1.978985e-05,761.0099999994288,2.582807e-05
761.0249999994288,9.602415e-05,761.0249999994288,0.002701731,761.0249999994288,1.95629e-05,761.0249999994288,2.517627e-05
761.0399999994288,9.636374e-05,761.0399999994288,0.002714699,761.0399999994288,1.946979e-05,761.0399999994288,2.47616e-05
761.0549999994288,8.867731e-05,761.0549999994288,0.002727183,761.0549999994288,1.769278e-05,761.0549999994288,2.257557e-05
761.0699999994288,8.304637e-05,761.0699999994288,0.002735913,761.0699999994288,1.532676e-05,761.0699999994288,2.208478e-05
761.0849999994288,8.03088e-05,761.0849999994288,0.002740795,761.0849999994288,1.518827e-05,761.0849999994288,2.072717e-05
761.0999999994287,8.055032e-05,761.0999999994287,0.002743177,761.0999999994287,1.503446e-05,761.0999999994287,1.994936e-05
761.1149999994287,7.834029e-05,761.1149999994287,0.00274428,761.1149999994287,1.394665e-05,761.1149999994287,1.717566e-05
761.1299999994287,7.713508e-05,761.1299999994287,0.002744757,761.1299999994287,1.119946e-05,761.1299999994287,1.552038e-05
761.1449999994287,7.621686e-05,761.1449999994287,0.002745127,761.1449999994287,1.117931e-05,761.1449999994287,1.511575e-05
761.1599999994287,6.948289e-05,761.1599999994287,0.002676416,761.1599999994287,1.104494e-05,761.1599999994287,1.355636e-05
761.1749999994287,6.473173e-05,761.1749999994287,0.002310592,761.1749999994287,9.629048e-06,761.1749999994287,1.185924e-05
761.1899999994287,6.26505e-05,761.1899999994287,0.001901305,761.1899999994287,7.543885e-06,761.1899999994287,1.134939e-05
761.2049999994287,6.039425e-05,761.2049999994287,0.001454247,761.2049999994287,7.283574e-06,761.2049999994287,1.101173e-05
761.2199999994286,5.849925e-05,761.2199999994286,0.001241696,761.2199999994286,6.483414e-06,761.2199999994286,9.710626e-06
761.2349999994286,5.523745e-05,761.2349999994286,0.0007300499,761.2349999994286,6.028569e-06,761.2349999994286,8.982679e-06
761.2499999994286,4.581669e-05,761.2499999994286,0.0003706855,761.2499999994286,6.255622e-06,761.2499999994286,8.741063e-06
761.2649999994286,4.387709e-05,761.2649999994286,0.0003108617,761.2649999994286,6.351713e-06,761.2649999994286,7.70097e-06
761.2799999994286,3.725762e-05,761.2799999994286,0.0003049138,761.2799999994286,6.228541e-06,761.2799999994286,7.375824e-06
761.2949999994286,2.061336e-05,761.2949999994286,0.0002628719,761.2949999994286,6.162605e-06,761.2949999994286,7.349037e-06
761.3099999994286,1.903665e-05,761.3099999994286,0.0002081758,761.3099999994286,6.169459e-06,761.3099999994286,7.34712e-06
761.3249999994285,1.880286e-05,761.3249999994285,0.0001554516,761.3249999994285,6.296025e-06,761.3249999994285,6.906339e-06
761.3399999994285,1.569727e-05,761.3399999994285,0.0001178208,761.3399999994285,6.420096e-06,761.3399999994285,6.834577e-06
761.3549999994285,1.496308e-05,761.3549999994285,9.191198e-05,761.3549999994285,6.709772e-06,761.3549999994285,6.446372e-06
761.3699999994285,1.255059e-05,761.3699999994285,6.982387e-05,761.3699999994285,6.813935e-06,761.3699999994285,6.494269e-06
761.3849999994285,1.09102e-05,761.3849999994285,5.760654e-05,761.3849999994285,6.848989e-06,761.3849999994285,6.466009e-06
761.3999999994285,9.054529e-06,761.3999999994285,4.409614e-05,761.3999999994285,6.764137e-06,761.3999999994285,6.244353e-06
761.4149999994285,8.870637e-06,761.4149999994285,3.183211e-05,761.4149999994285,7.111343e-06,761.4149999994285,6.718165e-06
761.4299999994284,7.845942e-06,761.4299999994284,2.178551e-05,761.4299999994284,6.726546e-06,761.4299999994284,6.912455e-06
761.4449999994284,8.044515e-06,761.4449999994284,1.583486e-05,761.4449999994284,6.450741e-06,761.4449999994284,7.343284e-06
761.4599999994284,8.784466e-06,761.4599999994284,1.280724e-05,761.4599999994284,7.289374e-06,761.4599999994284,7.453716e-06
761.4749999994284,9.088692e-06,761.4749999994284,1.116671e-05,761.4749999994284,7.607108e-06,761.4749999994284,7.558809e-06
761.4899999994284,8.547137e-06,761.4899999994284,9.877468e-06,761.4899999994284,8.385746e-06,761.4899999994284,7.603404e-06
761.5049999994284,8.303025e-06,761.5049999994284,9.271297e-06,761.5049999994284,8.59316e-06,761.5049999994284,7.52706e-06
761.5199999994284,7.8585e-06,761.5199999994284,8.489256e-06,761.5199999994284,8.537242e-06,761.5199999994284,7.693649e-06
761.5349999994284,7.8907e-06,761.5349999994284,7.614512e-06,761.5349999994284,9.546771e-06,761.5349999994284,7.744747e-06
761.5499999994283,8.049767e-06,761.5499999994283,7.542018e-06,761.5499999994283,9.908794e-06,761.5499999994283,8.042764e-06
761.5649999994283,8.141986e-06,761.5649999994283,7.68449e-06,761.5649999994283,9.937185e-06,761.5649999994283,8.410905e-06
761.5799999994283,8.224612e-06,761.5799999994283,7.375824e-06,761.5799999994283,1.020573e-05,761.5799999994283,8.596438e-06
761.5949999994283,8.157542e-06,761.5949999994283,7.543885e-06,761.5949999994283,1.026628e-05,761.5949999994283,8.620983e-06
761.6099999994283,8.08469e-06,761.6099999994283,7.3106e-06,761.6099999994283,1.027588e-05,761.6099999994283,8.702299e-06
761.6249999994283,7.791894e-06,761.6249999994283,7.318304e-06,761.6249999994283,1.045662e-05,761.6249999994283,8.806888e-06
761.6399999994283,7.728359e-06,761.6399999994283,7.168558e-06,761.6399999994283,1.053312e-05,761.6399999994283,9.107272e-06
761.6549999994282,7.704628e-06,761.6549999994282,7.196016e-06,761.6549999994282,1.039175e-05,761.6549999994282,9.148938e-06
761.6699999994282,7.981227e-06,761.6699999994282,7.362442e-06,761.6699999994282,1.034556e-05,761.6699999994282,8.89601e-06
761.6849999994282,8.195444e-06,761.6849999994282,7.394897e-06,761.6849999994282,1.039582e-05,761.6849999994282,8.472646e-06
761.6999999994282,7.99181e-06,761.6999999994282,7.387274e-06,761.6999999994282,1.00289e-05,761.6999999994282,8.262207e-06
761.7149999994282,7.125195e-06,761.7149999994282,7.335607e-06,761.7149999994282,9.903105e-06,761.7149999994282,8.560311e-06
761.7299999994282,7.105398e-06,761.7299999994282,7.219469e-06,761.7299999994282,9.669923e-06,761.7299999994282,9.759823e-06
761.7449999994282,7.139021e-06,761.7449999994282,7.1921e-06,761.7449999994282,9.018676e-06,761.7449999994282,9.378553e-06
761.7599999994281,7.142966e-06,761.7599999994281,7.12124e-06,761.7599999994281,8.671489e-06,761.7599999994281,1.506628e-05
761.7749999994281,7.231167e-06,761.7749999994281,7.235062e-06,761.7749999994281,8.658483e-06,761.7749999994281,1.728521e-05
761.7899999994281,7.345202e-06,761.7899999994281,7.119262e-06,761.7899999994281,7.735647e-06,761.7899999994281,1.885672e-05
761.8049999994281,7.170523e-06,761.8049999994281,6.061194e-06,761.8049999994281,7.605257e-06,761.8049999994281,1.899665e-05
761.8199999994281,6.989465e-06,761.8199999994281,5.360675e-06,761.8199999994281,7.791894e-06,761.8199999994281,1.89469e-05
761.8349999994281,6.918566e-06,761.8349999994281,5.748683e-06,761.8349999994281,7.451826e-06,761.8349999994281,2.02368e-05
761.8499999994281,6.922637e-06,761.8499999994281,5.355417e-06,761.8499999994281,7.160693e-06,761.8499999994281,2.104551e-05
761.864999999428,6.900217e-06,761.864999999428,5.238403e-06,761.864999999428,7.8585e-06,761.864999999428,2.155605e-05
761.879999999428,7.472591e-06,761.879999999428,5.176183e-06,761.879999999428,7.647739e-06,761.879999999428,2.19671e-05
761.894999999428,7.497057e-06,761.894999999428,5.857914e-06,761.894999999428,7.48201e-06,761.894999999428,2.242908e-05
761.909999999428,8.081204e-06,761.909999999428,5.981653e-06,761.909999999428,7.42721e-06,761.909999999428,2.327846e-05
761.924999999428,8.055015e-06,761.924999999428,5.872325e-06,761.924999999428,8.055015e-06,761.924999999428,2.364173e-05
761.939999999428,8.561957e-06,761.939999999428,5.993417e-06,761.939999999428,8.231461e-06,761.939999999428,2.54639e-05
761.954999999428,4.290018e-05,761.954999999428,6.061194e-06,761.954999999428,8.697441e-06,761.954999999428,2.611067e-05
761.969999999428,5.100491e-05,761.969999999428,6.049562e-06,761.969999999428,8.673113e-06,761.969999999428,2.748836e-05
761.9849999994279,6.01753e-05,761.9849999994279,6.098266e-06,761.9849999994279,9.794402e-06,761.9849999994279,2.847903e-05
761.9999999994279,7.364547e-05,761.9999999994279,5.948592e-06,761.9999999994279,1.263226e-05,761.9999999994279,2.896263e-05
762.0149999994279,0.000100943,762.0149999994279,5.637336e-06,762.0149999994279,1.380554e-05,762.0149999994279,2.889592e-05
762.0299999994279,0.0001416517,762.0299999994279,5.574516e-06,762.0299999994279,1.669319e-05,762.0299999994279,2.890859e-05
762.0449999994279,0.0001472092,762.0449999994279,5.714275e-06,762.0449999994279,1.716418e-05,762.0449999994279,2.836453e-05
762.0599999994279,0.0001568373,762.0599999994279,5.637336e-06,762.0599999994279,1.853424e-05,762.0599999994279,2.985028e-05
762.0749999994279,0.0001716294,762.0749999994279,5.446701e-06,762.0749999994279,1.952398e-05,762.0749999994279,3.257227e-05
762.0899999994278,0.0001919349,762.0899999994278,5.192486e-06,762.0899999994278,2.413705e-05,762.0899999994278,3.267374e-05
762.1049999994278,0.0002353004,762.1049999994278,5.281253e-06,762.1049999994278,2.463441e-05,762.1049999994278,3.221088e-05
762.1199999994278,0.0002382989,762.1199999994278,4.976383e-06,762.1199999994278,2.645051e-05,762.1199999994278,3.29545e-05
762.1349999994278,0.0002433317,762.1349999994278,4.925167e-06,762.1349999994278,2.719158e-05,762.1349999994278,3.354844e-05
762.1499999994278,0.0002461005,762.1499999994278,4.172666e-06,762.1499999994278,2.772359e-05,762.1499999994278,3.397693e-05
762.1649999994278,0.0002501373,762.1649999994278,4.114875e-06,762.1649999994278,2.813866e-05,762.1649999994278,3.49574e-05
762.1799999994278,0.0002516989,762.1799999994278,4.35762e-06,762.1799999994278,2.834566e-05,762.1799999994278,3.475939e-05
762.1949999994278,0.0002544581,762.1949999994278,0.0007712769,762.1949999994278,2.850128e-05,762.1949999994278,3.42219e-05
762.2099999994277,0.0002519724,762.2099999994277,0.001486368,762.2099999994277,2.847903e-05,762.2099999994277,3.468271e-05
762.2249999994277,0.0002552902,762.2249999994277,0.002039871,762.2249999994277,2.822414e-05,762.2249999994277,3.37836e-05
762.2399999994277,0.0002656058,762.2399999994277,0.002428401,762.2399999994277,2.889446e-05,762.2399999994277,3.426304e-05
762.2549999994277,0.0002588864,762.2549999994277,0.002644385,762.2549999994277,2.765237e-05,762.2549999994277,3.390222e-05
762.2699999994277,0.0002448865,762.2699999994277,0.002976856,762.2699999994277,2.733831e-05,762.2699999994277,3.267288e-05
762.2849999994277,0.0002358506,762.2849999994277,0.00322366,762.2849999994277,2.660821e-05,762.2849999994277,3.306289e-05
762.2999999994277,0.0002357968,762.2999999994277,0.00328278,762.2999999994277,2.671757e-05,762.2999999994277,3.381027e-05
762.3149999994276,0.0002279566,762.3149999994276,0.003284213,762.3149999994276,2.563921e-05,762.3149999994276,3.373185e-05
762.3299999994276,0.0002109977,762.3299999994276,0.003316641,762.3299999994276,2.426278e-05,762.3299999994276,3.387936e-05
762.3449999994276,0.0001888627,762.3449999994276,0.003369822,762.3449999994276,2.072989e-05,762.3449999994276,3.378985e-05
762.3599999994276,0.0001571466,762.3599999994276,0.003417007,762.3599999994276,2.006623e-05,762.3599999994276,3.386689e-05
762.3749999994276,0.0001508443,762.3749999994276,0.003447797,762.3749999994276,1.783472e-05,762.3749999994276,3.367459e-05
762.3899999994276,0.000146275,762.3899999994276,0.00346452,762.3899999994276,1.674375e-05,762.3899999994276,3.3891e-05
762.4049999994276,0.0001433691,762.4049999994276,0.003473887,762.4049999994276,1.587573e-05,762.4049999994276,3.180023e-05
762.4199999994275,0.0001424038,762.4199999994275,0.003479548,762.4199999994275,1.545763e-05,762.4199999994275,3.175635e-05
762.4349999994275,0.0001407095,762.4349999994275,0.003482788,762.4349999994275,1.461927e-05,762.4349999994275,3.148192e-05
762.4499999994275,0.0001376555,762.4499999994275,0.003294211,762.4499999994275,1.447888e-05,762.4499999994275,3.120687e-05
762.4649999994275,0.0001390115,762.4649999994275,0.003006979,762.4649999994275,1.436656e-05,762.4649999994275,3.009186e-05
762.4799999994275,0.0001303434,762.4799999994275,0.00271825,762.4799999994275,1.355428e-05,762.4799999994275,3.062593e-05
762.4949999994275,0.0001094499,762.4949999994275,0.002360608,762.4949999994275,1.199975e-05,762.4949999994275,2.890079e-05
762.5099999994275,0.0001096446,762.5099999994275,0.002122951,762.5099999994275,1.197743e-05,762.5099999994275,2.754467e-05
762.5249999994275,0.000103459,762.5249999994275,0.001603969,762.5249999994275,1.185567e-05,762.5249999994275,2.668645e-05
762.5399999994274,0.0001031362,762.5399999994274,0.0009484193,762.5399999994274,8.814882e-06,762.5399999994274,2.612092e-05
762.5549999994274,9.78633e-05,762.5549999994274,0.0006716925,762.5549999994274,7.786468e-06,762.5549999994274,2.439941e-05
762.5699999994274,9.340113e-05,762.5699999994274,0.0006719379,762.5699999994274,6.409116e-06,762.5699999994274,2.029241e-05
762.5849999994274,8.924972e-05,762.5849999994274,0.00064098,762.5849999994274,5.711809e-06,762.5849999994274,1.918114e-05
762.5999999994274,9.09828e-05,762.5999999994274,0.0005446546,762.5999999994274,5.431162e-06,762.5999999994274,1.872253e-05
762.6149999994274,9.26923e-05,762.6149999994274,0.0004280797,762.6149999994274,5.637336e-06,762.6149999994274,1.726972e-05
762.6299999994274,9.470402e-05,762.6299999994274,0.0003310159,762.6299999994274,5.498184e-06,762.6299999994274,1.595451e-05
762.6449999994273,8.680597e-05,762.6449999994273,0.0002631796,762.6449999994273,5.48279e-06,762.6449999994273,1.460771e-05
762.6599999994273,8.624364e-05,762.6599999994273,0.0002093654,762.6599999994273,5.189773e-06,762.6599999994273,1.453229e-05
762.6749999994273,8.643796e-05,762.6749999994273,0.0001623635,762.6749999994273,4.83569e-06,762.6749999994273,1.415717e-05
762.6899999994273,8.693003e-05,762.6899999994273,0.0001232763,762.6899999994273,4.844421e-06,762.6899999994273,1.385849e-05
762.7049999994273,8.112816e-05,762.7049999994273,9.369957e-05,762.7049999994273,4.768218e-06,762.7049999994273,1.369695e-05
762.7199999994273,7.424099e-05,762.7199999994273,7.463404e-05,762.7199999994273,4.884961e-06,762.7199999994273,1.242651e-05
762.7349999994273,7.916757e-05,762.7349999994273,6.063634e-05,762.7349999994273,4.858938e-06,762.7349999994273,1.222998e-05
762.7499999994272,7.747875e-05,762.7499999994272,4.853195e-05,762.7499999994272,5.249148e-06,762.7499999994272,1.191257e-05
762.7649999994272,7.728105e-05,762.7649999994272,3.942099e-05,762.7649999994272,5.323759e-06,762.7649999994272,1.187111e-05
762.7799999994272,7.623202e-05,762.7799999994272,3.361723e-05,762.7799999994272,5.457037e-06,762.7799999994272,1.166522e-05
762.7949999994272,8.207175e-05,762.7949999994272,3.185202e-05,762.7949999994272,5.561867e-06,762.7949999994272,1.159254e-05
762.8099999994272,7.858446e-05,762.8099999994272,2.501517e-05,762.8099999994272,5.821732e-06,762.8099999994272,1.024843e-05
762.8249999994272,9.190555e-05,762.8249999994272,1.780627e-05,762.8249999994272,6.023894e-06,762.8249999994272,1.029779e-05
762.8399999994272,9.189129e-05,762.8399999994272,1.339117e-05,762.8399999994272,5.948592e-06,762.8399999994272,1.045796e-05
762.8549999994272,8.997846e-05,762.8549999994272,1.196802e-05,762.8549999994272,6.047233e-06,762.8549999994272,1.045796e-05
762.8699999994271,8.301328e-05,762.8699999994271,1.185211e-05,762.8699999994271,6.194524e-06,762.8699999994271,1.064487e-05
762.8849999994271,8.07524e-05,762.8849999994271,1.171944e-05,762.8849999994271,6.178585e-06,762.8849999994271,1.056517e-05
762.8999999994271,8.060295e-05,762.8999999994271,1.123211e-05,762.8999999994271,6.16489e-06,762.8999999994271,1.003733e-05
762.9149999994271,7.820009e-05,762.9149999994271,1.011701e-05,762.9149999994271,6.400318e-06,762.9149999994271,1.009052e-05
762.9299999994271,7.503499e-05,762.9299999994271,8.45767e-06,762.9299999994271,6.487759e-06,762.9299999994271,1.003031e-05
762.9449999994271,7.484289e-05,762.9449999994271,7.808148e-06,762.9449999994271,6.625263e-06,762.9449999994271,9.729466e-06
762.959999999427,7.435096e-05,762.959999999427,7.62745e-06,762.959999999427,8.046266e-06,762.959999999427,1.015869e-05
762.974999999427,6.59045e-05,762.974999999427,6.496438e-06,762.974999999427,8.447671e-06,762.974999999427,9.844612e-06
762.989999999427,6.459601e-05,762.989999999427,6.496438e-06,762.989999999427,8.914992e-06,762.989999999427,8.927624e-06
763.004999999427,6.418999e-05,763.004999999427,5.93674e-06,763.004999999427,9.010862e-06,763.004999999427,8.604628e-06
763.019999999427,6.417836e-05,763.019999999427,5.154366e-06,763.019999999427,9.231709e-06,763.019999999427,8.68934e-06
763.034999999427,6.027705e-05,763.034999999427,5.433755e-06,763.034999999427,9.86748e-06,763.034999999427,8.810087e-06
763.049999999427,5.534776e-05,763.049999999427,5.176183e-06,763.049999999427,1.034284e-05,763.049999999427,8.31828e-06
763.064999999427,4.141797e-05,763.064999999427,5.195198e-06,763.064999999427,1.034692e-05,763.064999999427,7.856707e-06
763.079999999427,1.313414e-05,763.079999999427,5.165286e-06,763.079999999427,1.025942e-05,763.079999999427,7.711938e-06
763.0949999994269,1.046604e-05,763.0949999994269,5.170737e-06,763.0949999994269,1.041477e-05,763.0949999994269,7.660622e-06
763.1099999994269,1.010586e-05,763.1099999994269,4.873412e-06,763.1099999994269,1.026903e-05,763.1099999994269,7.383459e-06
763.1249999994269,1.000922e-05,763.1249999994269,4.636408e-06,763.1249999994269,1.02553e-05,763.1249999994269,7.217518e-06
763.1399999994269,9.856052e-06,763.1399999994269,4.690778e-06,763.1399999994269,1.047008e-05,763.1399999994269,7.27196e-06
763.1549999994269,9.257612e-06,763.1549999994269,4.780021e-06,763.1549999994269,1.082985e-05,763.1549999994269,7.22532e-06
763.1699999994269,9.30012e-06,763.1699999994269,4.856038e-06,763.1699999994269,1.080381e-05,763.1699999994269,7.170523e-06
763.1849999994269,9.158172e-06,763.1849999994269,4.81818e-06,763.1849999994269,1.075546e-05,763.1849999994269,7.103415e-06
763.1999999994268,9.583589e-06,763.1999999994268,4.861837e-06,763.1999999994268,1.11136e-05,763.1999999994268,6.652846e-06
763.2149999994268,9.426494e-06,763.2149999994268,4.887844e-06,763.2149999994268,1.001204e-05,763.2149999994268,6.640129e-06
763.2299999994268,8.999913e-06,763.2299999994268,4.876302e-06,763.2299999994268,9.694656e-06,763.2299999994268,6.999535e-06
763.2449999994268,9.035841e-06,763.2449999994268,4.884961e-06,763.2449999994268,9.324323e-06,763.2449999994268,7.137048e-06
763.2599999994268,9.088692e-06,763.2599999994268,4.905105e-06,763.2599999994268,9.266738e-06,763.2599999994268,7.289374e-06
763.2749999994268,9.076284e-06,763.2749999994268,4.79767e-06,763.2749999994268,8.999913e-06,763.2749999994268,7.194059e-06
763.2899999994268,9.015552e-06,763.2899999994268,4.572159e-06,763.2899999994268,7.52706e-06,763.2899999994268,7.00557e-06
763.3049999994267,9.173541e-06,763.3049999994267,4.47563e-06,763.3049999994267,8.397496e-06,763.3049999994267,6.934835e-06
763.3199999994267,9.066966e-06,763.3199999994267,4.444044e-06,763.3199999994267,8.336888e-06,763.3199999994267,6.830453e-06
763.3349999994267,9.173541e-06,763.3349999994267,4.720713e-06,763.3349999994267,8.687718e-06,763.3349999994267,6.747456e-06
763.3499999994267,9.251524e-06,763.3499999994267,4.52882e-06,763.3499999994267,8.39414e-06,763.3499999994267,6.883865e-06
763.3649999994267,9.325834e-06,763.3649999994267,4.35115e-06,763.3649999994267,8.612809e-06,763.3649999994267,6.871577e-06
763.3799999994267,9.340927e-06,763.3799999994267,4.321914e-06,763.3799999994267,8.563602e-06,763.3799999994267,7.15282e-06
763.3949999994267,8.270727e-06,763.3949999994267,4.186148e-06,763.3949999994267,8.148903e-06,763.3949999994267,7.051666e-06
763.4099999994266,8.093397e-06,763.4099999994266,3.775675e-06,763.4099999994266,8.258797e-06,763.4099999994266,7.087532e-06
763.4249999994266,7.856707e-06,763.4249999994266,3.896851e-06,763.4249999994266,8.424293e-06,763.4249999994266,7.270023e-06
763.4399999994266,7.455606e-06,763.4399999994266,3.853228e-06,763.4399999994266,8.091657e-06,763.4399999994266,7.327922e-06
763.4549999994266,7.350954e-06,763.4549999994266,4.087396e-06,763.4549999994266,7.733825e-06,763.4549999994266,7.3106e-06
763.4699999994266,7.753835e-06,763.4699999994266,4.179412e-06,763.4699999994266,7.871038e-06,763.4699999994266,7.248678e-06
763.4849999994266,7.892485e-06,763.4849999994266,4.266145e-06,763.4849999994266,7.748384e-06,763.4849999994266,6.892046e-06
763.4999999994266,8.24514e-06,763.4999999994266,4.95937e-06,763.4999999994266,7.820766e-06,763.4999999994266,6.883865e-06
763.5149999994265,8.1264e-06,763.5149999994265,5.523745e-06,763.5149999994265,7.811755e-06,763.5149999994265,6.633762e-06
763.5299999994265,8.067247e-06,763.5299999994265,5.677176e-06,763.5299999994265,8.155816e-06,763.5299999994265,6.659195e-06
763.5449999994265,7.733825e-06,763.5449999994265,5.960421e-06,763.5449999994265,7.871038e-06,763.5449999994265,6.673986e-06
763.5599999994265,7.562535e-06,763.5599999994265,6.135114e-06,763.5599999994265,8.387425e-06,763.5599999994265,6.822199e-06
763.5749999994265,7.797315e-06,763.5749999994265,6.091332e-06,763.5749999994265,8.482616e-06,763.5749999994265,6.80773e-06
763.5899999994265,7.817162e-06,763.5899999994265,5.953326e-06,763.5899999994265,8.188566e-06,763.5899999994265,6.730734e-06
763.6049999994265,7.638524e-06,763.6049999994265,5.941484e-06,763.6049999994265,8.219473e-06,763.6049999994265,6.768301e-06
763.6199999994265,7.502692e-06,763.6199999994265,5.965146e-06,763.6199999994265,8.030494e-06,763.6199999994265,6.707672e-06
763.6349999994264,7.287441e-06,763.6349999994264,5.969867e-06,763.6349999994264,8.765202e-06,763.6349999994264,6.371642e-06
763.6499999994264,7.144938e-06,763.6499999994264,5.934367e-06,763.6499999994264,8.449338e-06,763.6499999994264,6.180865e-06
763.6649999994264,7.176414e-06,763.6649999994264,5.699464e-06,763.6649999994264,8.117728e-06,763.6649999994264,6.271365e-06
763.6799999994264,7.27777e-06,763.6799999994264,5.592176e-06,763.6799999994264,8.167896e-06,763.6799999994264,6.457289e-06
763.6949999994264,7.3567e-06,763.6949999994264,5.554263e-06,763.6949999994264,8.121197e-06,763.6949999994264,6.358363e-06
763.7099999994264,7.40061e-06,763.7099999994264,5.323759e-06,763.7099999994264,8.096878e-06,763.7099999994264,7.061647e-06
763.7249999994264,7.197973e-06,763.7249999994264,5.451871e-06,763.7249999994264,7.92099e-06,763.7249999994264,6.916529e-06
763.7399999994263,6.989465e-06,763.7399999994263,5.265225e-06,763.7399999994263,8.007658e-06,763.7399999994263,7.154789e-06
763.7549999994263,6.795303e-06,763.7549999994263,4.34467e-06,763.7549999994263,7.874616e-06,763.7549999994263,7.398706e-06
763.7699999994263,6.836638e-06,763.7699999994263,4.714741e-06,763.7699999994263,8.173069e-06,763.7699999994263,7.47636e-06
763.7849999994263,6.787006e-06,763.7849999994263,4.599804e-06,763.7849999994263,8.049767e-06,763.7849999994263,7.302889e-06
763.7999999994263,6.867475e-06,763.7999999994263,4.152361e-06,763.7999999994263,7.543885e-06,763.7999999994263,7.194059e-06
763.8149999994263,6.789081e-06,763.8149999994263,5.373798e-06,763.8149999994263,6.686639e-06,763.8149999994263,7.213613e-06
763.8299999994263,6.437625e-06,763.8299999994263,6.838698e-06,763.8299999994263,6.726546e-06,763.8299999994263,7.22727e-06
763.8449999994262,6.799448e-06,763.8449999994262,7.105398e-06,763.8449999994262,6.69506e-06,763.8449999994262,7.158726e-06
763.8599999994262,6.795303e-06,763.8599999994262,7.410121e-06,763.8599999994262,6.753716e-06,763.8599999994262,7.432898e-06
763.8749999994262,7.231167e-06,763.8749999994262,9.552672e-06,763.8749999994262,6.757886e-06,763.8749999994262,7.453716e-06
763.8899999994262,8.089915e-06,763.8899999994262,1.096943e-05,763.8899999994262,6.014533e-06,763.8899999994262,7.647739e-06
763.9049999994262,8.190286e-06,763.9049999994262,1.119191e-05,763.9049999994262,5.976941e-06,763.9049999994262,7.860292e-06
763.9199999994262,8.192006e-06,763.9199999994262,1.289602e-05,763.9199999994262,6.13052e-06,763.9199999994262,8.063755e-06
763.9349999994262,7.968863e-06,763.9349999994262,1.36351e-05,763.9349999994262,6.146583e-06,763.9349999994262,8.444335e-06
763.9499999994262,9.369536e-06,763.9499999994262,1.36351e-05,763.9499999994262,6.095956e-06,763.9499999994262,9.604145e-06
763.9649999994261,9.243908e-06,763.9649999994261,1.405932e-05,763.9649999994261,6.468188e-06,763.9649999994261,9.555621e-06
763.9799999994261,9.579178e-06,763.9799999994261,1.486485e-05,763.9799999994261,6.951067e-06,763.9799999994261,1.02553e-05
763.9949999994261,9.599744e-06,763.9949999994261,1.536623e-05,763.9949999994261,6.928738e-06,763.9949999994261,1.195977e-05
764.0099999994261,9.633435e-06,764.0099999994261,2.600743e-05,764.0099999994261,7.083556e-06,764.0099999994261,1.515484e-05
764.0249999994261,1.051305e-05,764.0249999994261,2.776015e-05,764.0249999994261,6.524566e-06,764.0249999994261,3.87019e-05
764.0399999994261,1.071872e-05,764.0399999994261,3.005064e-05,764.0399999994261,6.494269e-06,764.0399999994261,8.452155e-05
764.0549999994261,1.545672e-05,764.0549999994261,0.000636733,764.0549999994261,6.74119e-06,764.0549999994261,0.000108739
764.069999999426,1.615369e-05,764.069999999426,0.001452756,764.069999999426,8.060259e-06,764.069999999426,0.0001236517
764.084999999426,6.130635e-05,764.084999999426,0.001643733,764.084999999426,1.061837e-05,764.084999999426,0.0001305412
764.099999999426,0.0001153839,764.099999999426,0.00165716,764.099999999426,2.858714e-05,764.099999999426,0.0001318627
764.114999999426,0.0002170958,764.114999999426,0.001693214,764.114999999426,3.594287e-05,764.114999999426,0.0001330562
764.129999999426,0.0002883875,764.129999999426,0.001711345,764.129999999426,3.896381e-05,764.129999999426,0.0001333428
764.144999999426,0.0003566988,764.144999999426,0.001715112,764.144999999426,4.299136e-05,764.144999999426,0.0001337752
764.159999999426,0.0003679786,764.159999999426,0.001715254,764.159999999426,5.539432e-05,764.159999999426,0.0001339555
764.174999999426,0.0003911101,764.174999999426,0.001715277,764.174999999426,6.696743e-05,764.174999999426,0.0001349492
764.1899999994259,0.0004073615,764.1899999994259,0.001715394,764.1899999994259,8.569489e-05,764.1899999994259,0.0001378495
764.2049999994259,0.0004263998,764.2049999994259,0.002118912,764.2049999994259,9.298712e-05,764.2049999994259,0.0001392571
764.2199999994259,0.0004280232,764.2199999994259,0.002469831,764.2199999994259,9.419558e-05,764.2199999994259,0.0001439719
764.2349999994259,0.000436035,764.2349999994259,0.002757635,764.2349999994259,9.549162e-05,764.2349999994259,0.0001452533
764.2499999994259,0.0004427628,764.2499999994259,0.003072817,764.2499999994259,9.661776e-05,764.2499999994259,0.0001457975
764.2649999994259,0.0004500085,764.2649999994259,0.003290979,764.2649999994259,9.720399e-05,764.2649999994259,0.0001465835
764.2799999994259,0.0004511937,764.2799999994259,0.00343722,764.2799999994259,9.827196e-05,764.2799999994259,0.0001413865
764.2949999994258,0.0004598775,764.2949999994258,0.003747249,764.2949999994258,9.905722e-05,764.2949999994258,0.0001096772
764.3099999994258,0.0004615606,764.3099999994258,0.003884554,764.3099999994258,9.914862e-05,764.3099999994258,9.499466e-05
764.3249999994258,0.0004650253,764.3249999994258,0.00388898,764.3249999994258,9.921821e-05,764.3249999994258,8.304959e-05
764.3399999994258,0.0004612349,764.3399999994258,0.004078249,764.3399999994258,9.946169e-05,764.3399999994258,7.156108e-05
764.3549999994258,0.0004488674,764.3549999994258,0.004225254,764.3549999994258,9.674147e-05,764.3549999994258,7.057995e-05
764.3699999994258,0.0004144167,764.3699999994258,0.004442447,764.3699999994258,9.42778e-05,764.3699999994258,6.962325e-05
764.3849999994258,0.0003135304,764.3849999994258,0.004639448,764.3849999994258,9.307176e-05,764.3849999994258,6.907991e-05
764.3999999994257,0.0003019289,764.3999999994257,0.004706364,764.3999999994257,8.871495e-05,764.3999999994257,6.844525e-05
764.4149999994257,0.0002817728,764.4149999994257,0.004709096,764.4149999994257,8.339354e-05,764.4149999994257,6.774459e-05
764.4299999994257,0.0002608694,764.4299999994257,0.004736036,764.4299999994257,5.965571e-05,764.4299999994257,6.640214e-05
764.4449999994257,0.0002384803,764.4449999994257,0.004746631,764.4449999994257,4.704153e-05,764.4449999994257,5.99828e-05
764.4599999994257,0.0002037222,764.4599999994257,0.004602484,764.4599999994257,3.963446e-05,764.4599999994257,5.196771e-05
764.4749999994257,0.0001994876,764.4749999994257,0.004452954,764.4749999994257,3.66423e-05,764.4749999994257,4.14822e-05
764.4899999994257,0.000183628,764.4899999994257,0.004291299,764.4899999994257,3.294851e-05,764.4899999994257,3.959784e-05
764.5049999994256,0.0001604662,764.5049999994256,0.004096339,764.5049999994256,2.97865e-05,764.5049999994256,3.792799e-05
764.5199999994256,0.000150688,764.5199999994256,0.003902849,764.5199999994256,2.814116e-05,764.5199999994256,3.228776e-05
764.5349999994256,0.0001396587,764.5349999994256,0.003750038,764.5349999994256,2.37523e-05,764.5349999994256,2.935635e-05
764.5499999994256,0.0001165162,764.5499999994256,0.00348863,764.5499999994256,2.232521e-05,764.5499999994256,2.933907e-05
764.5649999994256,0.0001148204,764.5649999994256,0.003195511,764.5649999994256,2.189387e-05,764.5649999994256,2.598142e-05
764.5799999994256,9.237169e-05,764.5799999994256,0.002950637,764.5799999994256,1.881409e-05,764.5799999994256,2.509837e-05
764.5949999994256,8.887677e-05,764.5949999994256,0.002648387,764.5949999994256,1.473827e-05,764.5949999994256,2.147487e-05
764.6099999994256,8.65832e-05,764.6099999994256,0.002374442,764.6099999994256,1.190665e-05,764.6099999994256,1.945676e-05
764.6249999994255,8.544268e-05,764.6249999994255,0.001874306,764.6249999994255,9.720776e-06,764.6249999994255,1.888062e-05
764.6399999994255,8.480839e-05,764.6399999994255,0.001191381,764.6399999994255,9.020237e-06,764.6399999994255,1.880511e-05
764.6549999994255,8.479261e-05,764.6549999994255,0.0009014966,764.6549999994255,8.865873e-06,764.6549999994255,1.79096e-05
764.6699999994255,8.281587e-05,764.6699999994255,0.0009106111,764.6699999994255,8.575109e-06,764.6699999994255,1.717566e-05
764.6849999994255,8.320058e-05,764.6849999994255,0.0008857563,764.6849999994255,7.500814e-06,764.6849999994255,1.567302e-05
764.6999999994255,8.399945e-05,764.6999999994255,0.0007788301,764.6999999994255,7.413922e-06,764.6999999994255,1.347297e-05
764.7149999994255,7.762007e-05,764.7149999994255,0.0006349866,764.7149999994255,5.917727e-06,764.7149999994255,1.1896e-05
764.7299999994254,7.742727e-05,764.7299999994254,0.0004987476,764.7299999994254,5.674694e-06,764.7299999994254,1.003171e-05
764.7449999994254,7.167969e-05,764.7449999994254,0.0003940891,764.7449999994254,5.639834e-06,764.7449999994254,1.006956e-05
764.7599999994254,7.002915e-05,764.7599999994254,0.0003060368,764.7599999994254,5.310512e-06,764.7599999994254,1.004855e-05
764.7749999994254,7.247998e-05,764.7749999994254,0.0002348214,764.7749999994254,4.602866e-06,764.7749999994254,9.441426e-06
764.7899999994254,8.779799e-05,764.7899999994254,0.0001821146,764.7899999994254,4.485062e-06,764.7899999994254,9.090241e-06
764.8049999994254,8.672301e-05,764.8049999994254,0.0001410566,764.8049999994254,4.066665e-06,764.8049999994254,8.771629e-06
764.8199999994254,8.414639e-05,764.8199999994254,0.0001142173,764.8199999994254,4.223002e-06,764.8199999994254,9.196546e-06
764.8349999994253,7.661265e-05,764.8349999994253,9.147414e-05,764.8349999994253,4.402644e-06,764.8349999994253,9.31223e-06
764.8499999994253,7.566464e-05,764.8499999994253,7.195253e-05,764.8499999994253,4.488202e-06,764.8499999994253,9.342435e-06
764.8649999994253,7.551556e-05,764.8649999994253,5.573201e-05,764.8649999994253,5.657291e-06,764.8649999994253,9.410042e-06
764.8799999994253,7.578816e-05,764.8799999994253,4.355906e-05,764.8799999994253,5.687093e-06,764.8799999994253,9.091791e-06
764.8949999994253,7.61564e-05,764.8949999994253,3.496425e-05,764.8949999994253,5.664756e-06,764.8949999994253,8.43766e-06
764.9099999994253,7.672216e-05,764.9099999994253,2.802027e-05,764.9099999994253,6.496438e-06,764.9099999994253,8.313199e-06
764.9249999994253,7.063203e-05,764.9249999994253,2.221705e-05,764.9249999994253,7.40061e-06,764.9249999994253,8.053266e-06
764.9399999994253,6.702841e-05,764.9399999994253,1.709675e-05,764.9399999994253,7.429107e-06,764.9399999994253,8.11252e-06
764.9549999994252,6.667165e-05,764.9549999994252,1.281823e-05,764.9549999994252,7.556945e-06,764.9549999994252,8.26732e-06
764.9699999994252,6.632679e-05,764.9699999994252,1.032375e-05,764.9699999994252,8.167896e-06,764.9699999994252,8.167896e-06
764.9849999994252,6.551885e-05,764.9849999994252,8.619349e-06,764.9849999994252,8.185125e-06,764.9849999994252,8.068993e-06
764.9999999994252,6.541902e-05,764.9999999994252,7.682656e-06,764.9999999994252,8.752336e-06,764.9999999994252,8.046266e-06
765.0149999994252,6.368856e-05,765.0149999994252,7.295169e-06,765.0149999994252,8.761987e-06,765.0149999994252,7.660622e-06
765.0299999994252,5.928335e-05,765.0299999994252,6.869526e-06,765.0299999994252,8.821272e-06,765.0299999994252,7.651422e-06
765.0449999994252,3.447372e-05,765.0449999994252,6.518086e-06,765.0449999994252,9.30012e-06,765.0449999994252,7.721065e-06
765.0599999994251,3.37448e-05,765.0599999994251,6.382687e-06,765.0599999994251,9.643665e-06,765.0599999994251,6.985433e-06
765.0749999994251,3.371306e-05,765.0749999994251,6.302733e-06,765.0749999994251,9.640744e-06,765.0749999994251,6.953093e-06
765.0899999994251,3.361598e-05,765.0899999994251,6.219488e-06,765.0899999994251,9.976799e-06,765.0899999994251,6.983416e-06
765.1049999994251,3.340959e-05,765.1049999994251,5.619817e-06,765.1049999994251,1.011004e-05,765.1049999994251,7.27777e-06
765.1199999994251,3.340706e-05,765.1199999994251,4.087396e-06,765.1199999994251,9.612942e-06,765.1199999994251,7.432898e-06
765.1349999994251,3.186838e-05,765.1349999994251,4.05626e-06,765.1349999994251,1.059845e-05,765.1349999994251,7.673483e-06
765.1499999994251,1.946038e-05,765.1499999994251,3.972038e-06,765.1499999994251,1.041207e-05,765.1499999994251,7.782849e-06
765.164999999425,8.430979e-06,765.164999999425,4.354386e-06,765.164999999425,1.016978e-05,765.164999999425,7.942303e-06
765.179999999425,7.287441e-06,765.179999999425,4.308857e-06,765.179999999425,9.612942e-06,765.179999999425,7.829767e-06
765.194999999425,7.547619e-06,765.194999999425,4.142171e-06,765.194999999425,9.680115e-06,765.194999999425,7.85312e-06
765.209999999425,7.434793e-06,765.209999999425,4.155752e-06,765.209999999425,9.460803e-06,765.209999999425,7.732004e-06
765.224999999425,7.463159e-06,765.224999999425,4.302314e-06,765.224999999425,9.161248e-06,765.224999999425,7.799122e-06
765.239999999425,6.556871e-06,765.239999999425,4.547444e-06,765.239999999425,9.130444e-06,765.239999999425,8.174792e-06
765.254999999425,6.262374e-06,765.254999999425,4.687774e-06,765.254999999425,9.115002e-06,765.254999999425,8.032248e-06
765.269999999425,6.313899e-06,765.269999999425,5.154366e-06,765.269999999425,9.145859e-06,765.269999999425,7.956479e-06
765.2849999994249,6.148874e-06,765.2849999994249,5.865124e-06,765.2849999994249,8.859515e-06,765.2849999994249,7.931653e-06
765.2999999994249,5.731505e-06,765.2999999994249,5.993417e-06,765.2999999994249,8.771629e-06,765.2999999994249,7.777418e-06
765.3149999994249,5.850696e-06,765.3149999994249,5.972226e-06,765.3149999994249,8.856334e-06,765.3149999994249,7.728359e-06
765.3299999994249,5.701935e-06,765.3299999994249,6.457289e-06,765.3299999994249,8.490915e-06,765.3299999994249,7.553216e-06
765.3449999994249,5.664756e-06,765.3449999994249,6.589018e-06,765.3449999994249,8.429308e-06,765.3449999994249,7.081567e-06
765.3599999994249,5.869926e-06,765.3599999994249,6.701369e-06,765.3599999994249,8.474309e-06,765.3599999994249,7.071614e-06
765.3749999994249,5.995767e-06,765.3749999994249,6.842817e-06,765.3749999994249,8.397496e-06,765.3749999994249,7.017624e-06
765.3899999994248,6.176305e-06,765.3899999994248,6.865424e-06,765.3899999994248,7.446153e-06,765.3899999994248,6.556871e-06
765.4049999994248,6.226279e-06,765.4049999994248,7.017624e-06,765.4049999994248,8.724932e-06,765.4049999994248,6.652846e-06
765.4199999994248,6.107498e-06,765.4199999994248,6.926705e-06,765.4199999994248,9.210321e-06,765.4199999994248,6.282586e-06
765.4349999994248,5.706874e-06,765.4349999994248,7.924546e-06,765.4349999994248,9.325834e-06,765.4349999994248,6.417902e-06
765.4499999994248,6.522406e-06,765.4499999994248,9.380055e-06,765.4499999994248,9.291028e-06,765.4499999994248,6.304968e-06
765.4649999994248,6.541815e-06,765.4649999994248,1.005696e-05,765.4649999994248,9.43695e-06,765.4649999994248,6.483414e-06
765.4799999994248,7.133099e-06,765.4799999994248,1.033739e-05,765.4799999994248,9.761266e-06,765.4799999994248,6.543968e-06
765.4949999994247,7.306746e-06,765.4949999994247,1.155115e-05,765.4949999994247,9.976799e-06,765.4949999994247,6.772462e-06
765.5099999994247,7.748384e-06,765.5099999994247,1.279073e-05,765.5099999994247,1.093213e-05,765.5099999994247,7.252564e-06
765.5249999994247,7.956479e-06,765.5249999994247,1.270564e-05,765.5249999994247,1.152184e-05,765.5249999994247,7.129148e-06
765.5399999994247,7.97593e-06,765.5399999994247,1.262222e-05,765.5399999994247,1.159011e-05,765.5399999994247,6.999535e-06
765.5549999994247,7.963557e-06,765.5549999994247,1.311804e-05,765.5549999994247,1.162409e-05,765.5549999994247,7.219469e-06
765.5699999994247,7.977696e-06,765.5699999994247,1.383713e-05,765.5699999994247,1.127842e-05,765.5699999994247,7.440475e-06
765.5849999994247,8.046266e-06,765.5849999994247,1.425928e-05,765.5849999994247,1.120323e-05,765.5849999994247,7.913874e-06
765.5999999994247,7.984756e-06,765.5999999994247,1.441159e-05,765.5999999994247,1.108441e-05,765.5999999994247,8.200599e-06
765.6149999994246,7.804539e-06,765.6149999994246,1.485821e-05,765.6149999994246,1.086492e-05,765.6149999994246,8.103833e-06
765.6299999994246,7.759284e-06,765.6299999994246,1.555936e-05,765.6299999994246,1.092697e-05,765.6299999994246,8.705536e-06
765.6449999994246,7.568121e-06,765.6449999994246,1.585354e-05,765.6449999994246,1.089082e-05,765.6449999994246,9.001478e-06
765.6599999994246,7.521444e-06,765.6599999994246,1.574565e-05,765.6599999994246,9.983855e-06,765.6599999994246,9.024921e-06
765.6749999994246,8.634045e-06,765.6749999994246,1.570086e-05,765.6749999994246,9.887446e-06,765.6749999994246,9.292544e-06
765.6899999994246,8.634045e-06,765.6899999994246,1.504008e-05,765.6899999994246,1.013509e-05,765.6899999994246,9.233234e-06
765.7049999994246,8.200599e-06,765.7049999994246,1.40232e-05,765.7049999994246,1.014898e-05,765.7049999994246,9.259134e-06
765.7199999994245,8.115992e-06,765.7199999994245,1.349804e-05,765.7199999994245,1.079729e-05,765.7199999994245,1.327708e-05
765.7349999994245,9.331874e-06,765.7349999994245,1.381472e-05,765.7349999994245,1.229087e-05,765.7349999994245,1.478789e-05
765.7499999994245,9.53496e-06,765.7499999994245,1.420782e-05,765.7499999994245,1.233435e-05,765.7499999994245,3.415433e-05
765.7649999994245,9.68157e-06,765.7649999994245,1.309224e-05,765.7649999994245,1.126967e-05,765.7649999994245,4.212849e-05
765.7799999994245,9.601211e-06,765.7799999994245,1.323138e-05,765.7799999994245,1.070426e-05,765.7799999994245,0.0001021656
765.7949999994245,9.620266e-06,765.7949999994245,1.364853e-05,765.7949999994245,1.061439e-05,765.7949999994245,0.0001097998
765.8099999994245,1.391024e-05,765.8099999994245,1.530192e-05,765.8099999994245,1.064355e-05,765.8099999994245,0.0001322557
765.8249999994244,4.96553e-05,765.8249999994244,1.540102e-05,765.8249999994244,2.216246e-05,765.8249999994244,0.000140633
765.8399999994244,0.0001282168,765.8399999994244,1.533595e-05,765.8399999994244,6.959735e-05,765.8399999994244,0.0001412296
765.8549999994244,0.0001756608,765.8549999994244,1.599772e-05,765.8549999994244,7.402932e-05,765.8549999994244,0.0001412816
765.8699999994244,0.0002140992,765.8699999994244,1.529824e-05,765.8699999994244,8.114465e-05,765.8699999994244,0.0001412964
765.8849999994244,0.0002467895,765.8849999994244,1.459999e-05,765.8849999994244,8.281213e-05,765.8849999994244,0.0001413143
765.8999999994244,0.0003044278,765.8999999994244,1.510457e-05,765.8999999994244,9.008846e-05,765.8999999994244,0.0001413744
765.9149999994244,0.0003488459,765.9149999994244,2.700652e-05,765.9149999994244,9.830651e-05,765.9149999994244,0.0001415427
765.9299999994244,0.000361126,765.9299999994244,0.0008448431,765.9299999994244,0.0001028345,765.9299999994244,0.0001423658
765.9449999994243,0.0003679957,765.9449999994243,0.001586205,765.9449999994243,0.0001045562,765.9449999994243,0.0001456792
765.9599999994243,0.0003808544,765.9599999994243,0.002002426,765.9599999994243,0.0001074167,765.9599999994243,0.0001463386
765.9749999994243,0.0003865054,765.9749999994243,0.002257781,765.9749999994243,0.0001111818,765.9749999994243,0.0001498952
765.9899999994243,0.0003875315,765.9899999994243,0.002656941,765.9899999994243,0.0001138807,765.9899999994243,0.0001497828
766.0049999994243,0.0003881979,766.0049999994243,0.002977122,766.0049999994243,0.0001143018,766.0049999994243,0.0001472913
766.0199999994243,0.0003890065,766.0199999994243,0.003267887,766.0199999994243,0.0001145601,766.0199999994243,0.0001384578
766.0349999994243,0.0003902983,766.0349999994243,0.003516279,766.0349999994243,0.0001150435,766.0349999994243,0.0001081238
766.0499999994242,0.0003916309,766.0499999994242,0.003738055,766.0499999994242,0.0001151531,766.0499999994242,9.522986e-05
766.0649999994242,0.0003918546,766.0649999994242,0.003967272,766.0649999994242,0.0001157106,766.0649999994242,7.528577e-05
766.0799999994242,0.0003836125,766.0799999994242,0.004156861,766.0799999994242,0.0001064189,766.0799999994242,6.670439e-05
766.0949999994242,0.0003707084,766.0949999994242,0.00426811,766.0949999994242,9.313939e-05,766.0949999994242,6.72133e-05
766.1099999994242,0.0003367658,766.1099999994242,0.004316232,766.1099999994242,8.581184e-05,766.1099999994242,6.733496e-05
766.1249999994242,0.0003231267,766.1249999994242,0.004325317,766.1249999994242,8.55539e-05,766.1249999994242,6.73609e-05
766.1399999994242,0.0002774964,766.1399999994242,0.00433652,766.1399999994242,8.013532e-05,766.1399999994242,6.732387e-05
766.1549999994241,0.000224378,766.1549999994241,0.004390191,766.1549999994241,7.509673e-05,766.1549999994241,6.724997e-05
766.1699999994241,0.000173596,766.1699999994241,0.004408193,766.1699999994241,5.961272e-05,766.1699999994241,6.708764e-05
766.1849999994241,0.0001553599,766.1849999994241,0.004426273,766.1849999994241,5.814541e-05,766.1849999994241,6.035528e-05
766.1999999994241,0.0001484922,766.1999999994241,0.004492268,766.1999999994241,5.373929e-05,766.1999999994241,5.714398e-05
766.2149999994241,0.0001124416,766.2149999994241,0.004544558,766.2149999994241,4.195123e-05,766.2149999994241,4.902692e-05
766.2299999994241,9.766071e-05,766.2299999994241,0.004564968,766.2299999994241,3.677737e-05,766.2299999994241,4.315619e-05
766.2449999994241,9.468661e-05,766.2449999994241,0.004389307,766.2449999994241,2.963288e-05,766.2449999994241,4.167126e-05
766.259999999424,0.0001021244,766.259999999424,0.004351271,766.259999999424,2.856644e-05,766.259999999424,4.130626e-05
766.274999999424,9.989921e-05,766.274999999424,0.004351292,766.274999999424,2.717085e-05,766.274999999424,3.607783e-05
766.289999999424,8.969449e-05,766.289999999424,0.00438984,766.289999999424,2.574284e-05,766.289999999424,3.262542e-05
766.304999999424,8.776365e-05,766.304999999424,0.00429574,766.304999999424,2.48938e-05,766.304999999424,2.237563e-05
766.319999999424,8.718584e-05,766.319999999424,0.00429574,766.319999999424,2.123343e-05,766.319999999424,2.091997e-05
766.334999999424,7.860453e-05,766.334999999424,0.004305999,766.334999999424,1.362684e-05,766.334999999424,1.458551e-05
766.349999999424,8.375257e-05,766.349999999424,0.004337802,766.349999999424,1.312448e-05,766.349999999424,1.298528e-05
766.364999999424,8.265174e-05,766.364999999424,0.004366006,766.364999999424,1.040801e-05,766.364999999424,1.179611e-05
766.379999999424,7.353674e-05,766.379999999424,0.004564704,766.379999999424,8.826061e-06,766.379999999424,1.164104e-05
766.3949999994239,7.117006e-05,766.3949999994239,0.004743763,766.3949999994239,8.42262e-06,766.3949999994239,1.07999e-05
766.4099999994239,7.001789e-05,766.4099999994239,0.004800283,766.4099999994239,8.580036e-06,766.4099999994239,1.024431e-05
766.4249999994239,6.969181e-05,766.4249999994239,0.004727507,766.4249999994239,8.663363e-06,766.4249999994239,7.926324e-06
766.4399999994239,6.913107e-05,766.4399999994239,0.004601343,766.4399999994239,8.737838e-06,766.4399999994239,8.002378e-06
766.4549999994239,6.452794e-05,766.4549999994239,0.00451862,766.4549999994239,9.257612e-06,766.4549999994239,7.575563e-06
766.4699999994239,5.901948e-05,766.4699999994239,0.004373519,766.4699999994239,9.399558e-06,766.4699999994239,8.192006e-06
766.4849999994238,5.850624e-05,766.4849999994238,0.004213858,766.4849999994238,9.426494e-06,766.4849999994238,8.316587e-06
766.4999999994238,5.8103e-05,766.4999999994238,0.004162577,766.4999999994238,9.587998e-06,766.4999999994238,8.088174e-06
766.5149999994238,4.002914e-05,766.5149999994238,0.004026324,766.5149999994238,9.959841e-06,766.5149999994238,7.69548e-06
766.5299999994238,3.989907e-05,766.5299999994238,0.003716052,766.5299999994238,9.551197e-06,766.5299999994238,7.402513e-06
766.5449999994238,3.99259e-05,766.5449999994238,0.003496163,766.5449999994238,1.029506e-05,766.5449999994238,7.455606e-06
766.5599999994238,3.89309e-05,766.5599999994238,0.003438143,766.5599999994238,1.063031e-05,766.5599999994238,7.457495e-06
766.5749999994238,3.647391e-05,766.5749999994238,0.003390866,766.5749999994238,1.269899e-05,766.5749999994238,7.273898e-06
766.5899999994238,3.485449e-05,766.5899999994238,0.003232586,766.5899999994238,1.299179e-05,766.5899999994238,7.15282e-06
766.6049999994237,1.938423e-05,766.6049999994237,0.003063083,766.6049999994237,1.478694e-05,766.6049999994237,7.186222e-06
766.6199999994237,1.882158e-05,766.6199999994237,0.002904834,766.6199999994237,1.518827e-05,766.6199999994237,7.308674e-06
766.6349999994237,1.759858e-05,766.6349999994237,0.002627641,766.6349999994237,1.485252e-05,766.6349999994237,7.242846e-06
766.6499999994237,1.284129e-05,766.6499999994237,0.002278014,766.6499999994237,1.477836e-05,766.6499999994237,7.391086e-06
766.6649999994237,1.26278e-05,766.6649999994237,0.002120045,766.6649999994237,1.467505e-05,766.6649999994237,7.341366e-06
766.6799999994237,1.264452e-05,766.6799999994237,0.002144774,766.6799999994237,1.471053e-05,766.6799999994237,7.079578e-06
766.6949999994237,1.257526e-05,766.6949999994237,0.002229999,766.6949999994237,1.468081e-05,766.6949999994237,6.855157e-06
766.7099999994236,1.260658e-05,766.7099999994236,0.002138021,766.7099999994236,1.43381e-05,766.7099999994236,7.207752e-06
766.7249999994236,1.28391e-05,766.7249999994236,0.002086455,766.7249999994236,1.454392e-05,766.7249999994236,6.513761e-06
766.7399999994236,1.223574e-05,766.7399999994236,0.00202366,766.7399999994236,1.473636e-05,766.7399999994236,7.649581e-06
766.7549999994236,7.631143e-06,766.7549999994236,0.00192544,766.7549999994236,1.464431e-05,766.7549999994236,7.95825e-06
766.7699999994236,7.498936e-06,766.7699999994236,0.0022381,766.7699999994236,1.46568e-05,766.7699999994236,8.065501e-06
766.7849999994236,7.063642e-06,766.7849999994236,0.00259679,766.7849999994236,1.466065e-05,766.7849999994236,8.105571e-06
766.7999999994236,6.953093e-06,766.7999999994236,0.002905673,766.7999999994236,1.415916e-05,766.7999999994236,8.263912e-06
766.8149999994235,6.606099e-06,766.8149999994235,0.002950215,766.8149999994235,1.289384e-05,766.8149999994235,8.188566e-06
766.8299999994235,6.608231e-06,766.8299999994235,0.002925624,766.8299999994235,1.175903e-05,766.8299999994235,8.183403e-06
766.8449999994235,6.684531e-06,766.8449999994235,0.003078952,766.8449999994235,1.16059e-05,766.8449999994235,8.277538e-06
766.8599999994235,6.910417e-06,766.8599999994235,0.003037131,766.8599999994235,8.591521e-06,766.8599999994235,8.145445e-06
766.8749999994235,6.782854e-06,766.8749999994235,0.003050321,766.8749999994235,8.58496e-06,766.8749999994235,7.926324e-06
766.8899999994235,6.826328e-06,766.8899999994235,0.003023985,766.8899999994235,8.571823e-06,766.8899999994235,7.897837e-06
766.9049999994235,7.209706e-06,766.9049999994235,0.003010178,766.9049999994235,8.707154e-06,766.9049999994235,8.681231e-06
766.9199999994235,7.27777e-06,766.9199999994235,0.003076903,766.9199999994235,8.447671e-06,766.9199999994235,8.95598e-06
766.9349999994234,7.021637e-06,766.9349999994234,0.003041959,766.9349999994234,8.171345e-06,766.9349999994234,1.007515e-05
766.9499999994234,6.906339e-06,766.9499999994234,0.003035054,766.9499999994234,8.107309e-06,766.9499999994234,1.035373e-05
766.9649999994234,6.716067e-06,766.9649999994234,0.003052905,766.9649999994234,8.136793e-06,766.9649999994234,1.014343e-05
766.9799999994234,6.307202e-06,766.9799999994234,0.003105999,766.9799999994234,7.174451e-06,766.9799999994234,1.222076e-05
766.9949999994234,6.201342e-06,766.9949999994234,0.003138121,766.9949999994234,7.142966e-06,766.9949999994234,1.667631e-05
767.0099999994234,6.047233e-06,767.0099999994234,0.003013911,767.0099999994234,6.975343e-06,767.0099999994234,1.706128e-05
767.0249999994234,6.06584e-06,767.0249999994234,0.002772909,767.0249999994234,6.19225e-06,767.0249999994234,1.719042e-05
767.0399999994233,6.007502e-06,767.0399999994233,0.002521963,767.0399999994233,5.929618e-06,767.0399999994233,1.733567e-05
767.0549999994233,5.984008e-06,767.0549999994233,0.002179836,767.0549999994233,5.955692e-06,767.0549999994233,1.856765e-05
767.0699999994233,5.778013e-06,767.0699999994233,0.002097598,767.0699999994233,6.005157e-06,767.0699999994233,2.02166e-05
767.0849999994233,5.451871e-06,767.0849999994233,0.001981008,767.0849999994233,6.007502e-06,767.0849999994233,2.041353e-05
767.0999999994233,5.259872e-06,767.0999999994233,0.001928223,767.0999999994233,5.812045e-06,767.0999999994233,2.07428e-05
767.1149999994233,5.046655e-06,767.1149999994233,0.001930765,767.1149999994233,5.495621e-06,767.1149999994233,2.14427e-05
767.1299999994233,5.329048e-06,767.1299999994233,0.001908116,767.1299999994233,5.988714e-06,767.1299999994233,2.448068e-05
767.1449999994232,1.03101e-05,767.1449999994232,0.001887683,767.1449999994232,6.210422e-06,767.1449999994232,2.473143e-05
767.1599999994232,6.150455e-05,767.1599999994232,0.001782562,767.1599999994232,7.872827e-06,767.1599999994232,2.453873e-05
767.1749999994232,6.381164e-05,767.1749999994232,0.001744636,767.1749999994232,1.036325e-05,767.1749999994232,2.446399e-05
767.1899999994232,6.632297e-05,767.1899999994232,0.001780414,767.1899999994232,1.136799e-05,767.1899999994232,2.435955e-05
767.2049999994232,8.500383e-05,767.2049999994232,0.001702709,767.2049999994232,1.318338e-05,767.2049999994232,2.433988e-05
767.2199999994232,9.959459e-05,767.2199999994232,0.001707693,767.2199999994232,1.618331e-05,767.2199999994232,2.43555e-05
767.2349999994232,0.000104128,767.2349999994232,0.001934652,767.2349999994232,1.643809e-05,767.2349999994232,2.302412e-05
767.2499999994232,0.0001142324,767.2499999994232,0.002314189,767.2499999994232,1.828324e-05,767.2499999994232,2.014191e-05
767.2649999994231,0.0001258905,767.2649999994231,0.00249289,767.2649999994231,1.903147e-05,767.2649999994231,2.032016e-05
767.2799999994231,0.0001345748,767.2799999994231,0.002825317,767.2799999994231,2.442077e-05,767.2799999994231,2.097041e-05
767.2949999994231,0.0001356298,767.2949999994231,0.003033079,767.2949999994231,2.625862e-05,767.2949999994231,2.076655e-05
767.3099999994231,0.0001358698,767.3099999994231,0.003312361,767.3099999994231,2.730841e-05,767.3099999994231,2.133403e-05
767.3249999994231,0.000136271,767.3249999994231,0.003523322,767.3249999994231,3.026271e-05,767.3249999994231,2.066864e-05
767.3399999994231,0.0001379026,767.3399999994231,0.003699437,767.3399999994231,3.07833e-05,767.3399999994231,2.067478e-05
767.3549999994231,0.0001386398,767.3549999994231,0.003910922,767.3549999994231,3.120371e-05,767.3549999994231,2.114301e-05
767.369999999423,0.0001388799,767.369999999423,0.004064631,767.369999999423,3.606025e-05,767.369999999423,1.808882e-05
767.384999999423,0.0001390972,767.384999999423,0.004283936,767.384999999423,3.635709e-05,767.384999999423,1.763056e-05
767.399999999423,0.0001389743,767.399999999423,0.004471032,767.399999999423,3.65792e-05,767.399999999423,1.834247e-05
767.414999999423,0.0001249218,767.414999999423,0.00462436,767.414999999423,3.728823e-05,767.414999999423,1.885598e-05
767.429999999423,0.0001248308,767.429999999423,0.004773611,767.429999999423,3.72614e-05,767.429999999423,2.08221e-05
767.444999999423,0.0001213881,767.444999999423,0.00487154,767.444999999423,3.7177e-05,767.444999999423,2.074687e-05
767.459999999423,0.0001063722,767.459999999423,0.005040303,767.459999999423,3.586794e-05,767.459999999423,2.076859e-05
767.474999999423,0.0001032018,767.474999999423,0.005126688,767.474999999423,3.549089e-05,767.474999999423,2.13881e-05
767.4899999994229,9.787324e-05,767.4899999994229,0.00515641,767.4899999994229,3.466808e-05,767.4899999994229,2.163238e-05
767.5049999994229,7.493167e-05,767.5049999994229,0.005162172,767.5049999994229,3.42614e-05,767.5049999994229,2.138481e-05
767.5199999994229,6.361132e-05,767.5199999994229,0.005252183,767.5199999994229,3.318197e-05,767.5199999994229,2.065364e-05
767.5349999994229,5.171773e-05,767.5349999994229,0.005213536,767.5349999994229,2.956006e-05,767.5349999994229,2.035894e-05
767.5499999994229,4.985575e-05,767.5499999994229,0.005139003,767.5499999994229,2.867963e-05,767.5499999994229,1.95701e-05
767.5649999994229,4.891877e-05,767.5649999994229,0.005168715,767.5649999994229,2.65223e-05,767.5649999994229,1.779756e-05
767.5799999994229,4.791148e-05,767.5799999994229,0.005166192,767.5799999994229,2.433293e-05,767.5799999994229,1.749743e-05
767.5949999994228,4.325661e-05,767.5949999994228,0.005166192,767.5949999994228,2.382573e-05,767.5949999994228,1.735516e-05
767.6099999994228,4.143327e-05,767.6099999994228,0.005148928,767.6099999994228,2.156912e-05,767.6099999994228,1.67227e-05
767.6249999994228,4.06812e-05,767.6249999994228,0.005093996,767.6249999994228,1.423951e-05,767.6249999994228,1.641579e-05
767.6399999994228,3.970548e-05,767.6399999994228,0.004907732,767.6399999994228,1.399907e-05,767.6399999994228,1.470095e-05
767.6549999994228,3.962878e-05,767.6549999994228,0.004920165,767.6549999994228,1.287087e-05,767.6549999994228,1.446233e-05
767.6699999994228,3.898224e-05,767.6699999994228,0.004989665,767.6699999994228,8.692581e-06,767.6699999994228,1.227138e-05
767.6849999994228,3.552857e-05,767.6849999994228,0.004917275,767.6849999994228,8.905506e-06,767.6849999994228,9.903105e-06
767.6999999994227,2.285032e-05,767.6999999994227,0.004785809,767.6999999994227,8.29284e-06,767.6999999994227,9.712076e-06
767.7149999994227,1.894244e-05,767.7149999994227,0.004661939,767.7149999994227,8.135063e-06,767.7149999994227,9.680115e-06
767.7299999994227,1.784183e-05,767.7299999994227,0.004528547,767.7299999994227,8.065501e-06,767.7299999994227,7.350954e-06
767.7449999994227,1.638401e-05,767.7449999994227,0.004316436,767.7449999994227,8.563602e-06,767.7449999994227,7.385367e-06
767.7599999994227,1.420088e-05,767.7599999994227,0.004118761,767.7599999994227,8.710389e-06,767.7599999994227,6.999535e-06
767.7749999994227,1.401717e-05,767.7749999994227,0.003920454,767.7749999994227,8.949686e-06,767.7749999994227,6.640129e-06
767.7899999994227,1.365162e-05,767.7899999994227,0.003718898,767.7899999994227,9.310717e-06,767.7899999994227,6.606099e-06
767.8049999994226,1.275986e-05,767.8049999994226,0.003607744,767.8049999994226,8.946537e-06,767.8049999994226,6.287069e-06
767.8199999994226,1.243445e-05,767.8199999994226,0.003408826,767.8199999994226,8.884918e-06,767.8199999994226,6.284828e-06
767.8349999994226,1.24095e-05,767.8349999994226,0.003200024,767.8349999994226,9.257612e-06,767.8349999994226,6.208153e-06
767.8499999994226,9.772805e-06,767.8499999994226,0.002930971,767.8499999994226,8.98895e-06,767.8499999994226,6.755802e-06
767.8649999994226,8.102095e-06,767.8649999994226,0.002679014,767.8649999994226,9.176611e-06,767.8649999994226,6.612493e-06
767.8799999994226,7.372003e-06,767.8799999994226,0.002538656,767.8799999994226,9.204201e-06,767.8799999994226,6.402519e-06
767.8949999994226,7.00557e-06,767.8949999994226,0.002378752,767.8949999994226,8.889673e-06,767.8949999994226,6.302733e-06
767.9099999994226,6.680315e-06,767.9099999994226,0.002000279,767.9099999994226,8.637307e-06,767.9099999994226,6.487759e-06
767.9249999994225,6.4921e-06,767.9249999994225,0.001771709,767.9249999994225,8.459336e-06,767.9249999994225,6.606099e-06
767.9399999994225,6.271365e-06,767.9399999994225,0.001770028,767.9399999994225,8.03926e-06,767.9399999994225,7.077588e-06
767.9549999994225,6.21269e-06,767.9549999994225,0.001922915,767.9549999994225,8.063755e-06,767.9549999994225,7.480127e-06
767.9699999994225,6.007502e-06,767.9699999994225,0.001778261,767.9699999994225,8.270727e-06,767.9699999994225,7.213613e-06
767.9849999994225,5.946224e-06,767.9849999994225,0.001716755,767.9849999994225,8.122932e-06,767.9849999994225,7.184261e-06
767.9999999994225,5.214144e-06,767.9999999994225,0.001717183,767.9999999994225,7.373913e-06,767.9999999994225,7.229218e-06
768.0149999994225,5.273245e-06,768.0149999994225,0.001640074,768.0149999994225,7.137048e-06,768.0149999994225,7.366268e-06
768.0299999994224,5.444114e-06,768.0299999994224,0.001556659,768.0299999994224,6.716067e-06,768.0299999994224,7.463159e-06
768.0449999994224,5.505864e-06,768.0449999994224,0.001507179,768.0449999994224,6.273611e-06,768.0449999994224,7.341366e-06
768.0599999994224,5.612292e-06,768.0599999994224,0.001502653,768.0599999994224,6.393712e-06,768.0599999994224,7.349037e-06
768.0749999994224,5.344885e-06,768.0749999994224,0.001457295,768.0749999994224,6.614623e-06,768.0749999994224,7.235062e-06
768.0899999994224,5.368553e-06,768.0899999994224,0.001411634,768.0899999994224,6.548272e-06,768.0899999994224,7.491418e-06
768.1049999994224,5.428567e-06,768.1049999994224,0.001428663,768.1049999994224,6.606099e-06,768.1049999994224,7.394897e-06
768.1199999994224,5.302549e-06,768.1199999994224,0.001444433,768.1199999994224,7.099447e-06,768.1199999994224,7.375824e-06
768.1349999994223,5.321112e-06,768.1349999994223,0.001455833,768.1349999994223,7.289374e-06,768.1349999994223,7.302889e-06
768.1499999994223,5.662269e-06,768.1499999994223,0.001497827,768.1499999994223,7.285508e-06,768.1499999994223,7.308674e-06
768.1649999994223,5.891484e-06,768.1649999994223,0.001465202,768.1649999994223,7.081567e-06,768.1649999994223,7.370092e-06
768.1799999994223,6.100575e-06,768.1799999994223,0.001448007,768.1799999994223,6.79323e-06,768.1799999994223,7.370092e-06
768.1949999994223,6.077441e-06,768.1949999994223,0.00115752,768.1949999994223,6.922637e-06,768.1949999994223,7.16266e-06
768.2099999994223,6.189974e-06,768.2099999994223,0.0009008549,768.2099999994223,6.971302e-06,768.2099999994223,6.902258e-06
768.2249999994223,6.042573e-06,768.2249999994223,0.00091411,768.2249999994223,6.885912e-06,768.2249999994223,6.887957e-06
768.2399999994223,5.877121e-06,768.2399999994223,0.0009155893,768.2399999994223,6.881819e-06,768.2399999994223,6.875675e-06
768.2549999994222,5.962784e-06,768.2549999994222,0.0009144181,768.2549999994222,6.724452e-06,768.2549999994222,6.452925e-06
768.2699999994222,5.917727e-06,768.2699999994222,0.0008851326,768.2699999994222,6.873626e-06,768.2699999994222,6.574036e-06
768.2849999994222,5.652309e-06,768.2849999994222,0.0008585669,768.2849999994222,6.971302e-06,768.2849999994222,8.030494e-06
768.2999999994222,5.571988e-06,768.2999999994222,0.0008691017,768.2999999994222,7.011599e-06,768.2999999994222,8.016449e-06
768.3149999994222,5.714275e-06,768.3149999994222,0.0009359285,768.3149999994222,6.842817e-06,768.3149999994222,8.420948e-06
768.3299999994222,5.924864e-06,768.3299999994222,0.0009265724,768.3299999994222,6.411314e-06,768.3299999994222,8.209184e-06
768.3449999994222,5.877121e-06,768.3449999994222,0.0008201264,768.3449999994222,6.393712e-06,768.3449999994222,8.124666e-06
768.3599999994221,5.726587e-06,768.3599999994221,0.0007330781,768.3599999994221,5.939112e-06,768.3599999994221,8.889673e-06
768.3749999994221,6.007502e-06,768.3749999994221,0.0007662486,768.3749999994221,6.089019e-06,768.3749999994221,1.146424e-05
768.3899999994221,5.903427e-06,768.3899999994221,0.0007762235,768.3899999994221,5.838645e-06,768.3899999994221,1.223689e-05
768.4049999994221,5.627332e-06,768.4049999994221,0.0007067647,768.4049999994221,6.01219e-06,768.4049999994221,1.238109e-05
768.4199999994221,5.48022e-06,768.4199999994221,0.0007104272,768.4199999994221,6.474718e-06,768.4199999994221,1.355636e-05
768.4349999994221,5.48279e-06,768.4349999994221,0.0007037164,768.4349999994221,6.688745e-06,768.4349999994221,1.696025e-05
768.4499999994221,5.505864e-06,768.4499999994221,0.0007169815,768.4499999994221,6.633762e-06,768.4499999994221,2.837e-05
768.464999999422,5.657291e-06,768.464999999422,0.0007315365,768.464999999422,6.75163e-06,768.464999999422,3.045573e-05
768.479999999422,5.738873e-06,768.479999999422,0.0007366294,768.479999999422,6.920602e-06,768.479999999422,3.348918e-05
768.494999999422,6.57832e-06,768.494999999422,0.0008231531,768.494999999422,7.569982e-06,768.494999999422,3.875682e-05
768.509999999422,9.304663e-06,768.509999999422,0.0008363425,768.509999999422,1.119317e-05,768.509999999422,3.907284e-05
768.524999999422,4.171552e-05,768.524999999422,0.0008471669,768.524999999422,2.397014e-05,768.524999999422,3.91438e-05
768.539999999422,7.474852e-05,768.539999999422,0.0008482413,768.539999999422,3.734108e-05,768.539999999422,3.91186e-05
768.554999999422,9.583707e-05,768.554999999422,0.0008344904,768.554999999422,3.755437e-05,768.554999999422,3.911752e-05
768.569999999422,0.0001054636,768.569999999422,0.001090394,768.569999999422,3.873028e-05,768.569999999422,3.909807e-05
768.5849999994219,0.0001316866,768.5849999994219,0.001455534,768.5849999994219,3.908581e-05,768.5849999994219,3.910707e-05
768.5999999994219,0.0001510116,768.5999999994219,0.001849621,768.5999999994219,4.146318e-05,768.5999999994219,3.958467e-05
768.6149999994219,0.0001562369,768.6149999994219,0.002163317,768.6149999994219,4.855052e-05,768.6149999994219,3.986234e-05
768.6299999994219,0.0001584883,768.6299999994219,0.002472795,768.6299999994219,8.919462e-05,768.6299999994219,4.215957e-05
768.6449999994219,0.0001618446,768.6449999994219,0.002661031,768.6449999994219,9.381001e-05,768.6449999994219,4.302117e-05
768.6599999994219,0.0001622387,768.6599999994219,0.002951004,768.6599999994219,0.0001248174,768.6599999994219,4.517297e-05
768.6749999994219,0.0001624006,768.6749999994219,0.003288277,768.6749999994219,0.0001347425,768.6749999994219,4.494005e-05
768.6899999994218,0.0001632737,768.6899999994218,0.003516005,768.6899999994218,0.0001356819,768.6899999994218,4.392169e-05
768.7049999994218,0.000166287,768.7049999994218,0.00369729,768.7049999994218,0.000141326,768.7049999994218,3.946778e-05
768.7199999994218,0.0001669878,768.7199999994218,0.003967557,768.7199999994218,0.0001426636,768.7199999994218,3.954693e-05
768.7349999994218,0.0001672771,768.7349999994218,0.00419874,768.7349999994218,0.0001428353,768.7349999994218,3.735164e-05
768.7499999994218,0.0001674019,768.7499999994218,0.004373148,768.7499999994218,0.0001432225,768.7499999994218,3.533535e-05
768.7649999994218,0.0001683316,768.7649999994218,0.004478462,768.7649999994218,0.0001429108,768.7649999994218,3.643991e-05
768.7799999994218,0.0001624142,768.7799999994218,0.004715913,768.7799999994218,0.0001399315,768.7799999994218,3.943064e-05
768.7949999994217,0.000148841,768.7949999994217,0.004920434,768.7949999994217,0.0001388125,768.7949999994217,3.949846e-05
768.8099999994217,0.0001372254,768.8099999994217,0.005085938,768.8099999994217,0.0001388565,768.8099999994217,4.031213e-05
768.8249999994217,0.0001293164,768.8249999994217,0.005118919,768.8249999994217,0.0001387287,768.8249999994217,4.046281e-05
768.8399999994217,9.778886e-05,768.8399999994217,0.005141004,768.8399999994217,0.00013873,768.8399999994217,4.043251e-05
768.8549999994217,7.50425e-05,768.8549999994217,0.00508013,768.8549999994217,0.0001378935,768.8549999994217,3.980682e-05
768.8699999994217,6.742882e-05,768.8699999994217,0.004972115,768.8699999994217,0.0001224772,768.8699999994217,3.692988e-05
768.8849999994217,6.719129e-05,768.8849999994217,0.004867613,768.8849999994217,0.0001084541,768.8849999994217,3.61383e-05
768.8999999994217,5.958648e-05,768.8999999994217,0.004769788,768.8999999994217,9.78335e-05,768.8999999994217,3.373227e-05
768.9149999994216,5.929166e-05,768.9149999994216,0.004721583,768.9149999994216,6.116049e-05,768.9149999994216,3.189886e-05
768.9299999994216,5.840599e-05,768.9299999994216,0.004850012,768.9299999994216,4.865776e-05,768.9299999994216,3.173327e-05
768.9449999994216,5.481428e-05,768.9449999994216,0.004866707,768.9449999994216,4.473332e-05,768.9449999994216,2.963288e-05
768.9599999994216,4.576871e-05,768.9599999994216,0.004949011,768.9599999994216,2.619416e-05,768.9599999994216,2.710544e-05
768.9749999994216,4.44905e-05,768.9749999994216,0.004979745,768.9749999994216,2.336423e-05,768.9749999994216,2.588581e-05
768.9899999994216,4.336654e-05,768.9899999994216,0.004890828,768.9899999994216,2.052364e-05,768.9899999994216,2.245858e-05
769.0049999994216,4.278477e-05,769.0049999994216,0.004699679,769.0049999994216,2.008588e-05,769.0049999994216,2.1109e-05
769.0199999994215,3.500774e-05,769.0199999994215,0.004785883,769.0199999994215,1.98055e-05,769.0199999994215,1.62554e-05
769.0349999994215,3.245138e-05,769.0349999994215,0.004849461,769.0349999994215,1.752719e-05,769.0349999994215,1.071478e-05
769.0499999994215,3.074208e-05,769.0499999994215,0.00470949,769.0499999994215,1.693116e-05,769.0499999994215,1.072004e-05
769.0649999994215,3.055363e-05,769.0649999994215,0.004712219,769.0649999994215,1.836397e-05,769.0649999994215,7.922768e-06
769.0799999994215,3.066225e-05,769.0799999994215,0.004690195,769.0799999994215,1.721826e-05,769.0799999994215,7.66246e-06
769.0949999994215,3.048116e-05,769.0949999994215,0.004479846,769.0949999994215,1.834785e-05,769.0949999994215,7.329844e-06
769.1099999994215,2.69517e-05,769.1099999994215,0.004435362,769.1099999994215,1.898775e-05,769.1099999994215,7.27196e-06
769.1249999994214,1.805842e-05,769.1249999994214,0.004425978,769.1249999994214,1.92376e-05,769.1249999994214,7.146909e-06
769.1399999994214,1.3737e-05,769.1399999994214,0.004166055,769.1399999994214,1.85957e-05,769.1399999994214,7.051666e-06
769.1549999994214,1.315021e-05,769.1549999994214,0.003921037,769.1549999994214,1.843746e-05,769.1549999994214,6.936866e-06
769.1699999994214,1.317376e-05,769.1699999994214,0.00387184,769.1699999994214,1.83371e-05,769.1699999994214,6.934835e-06
769.1849999994214,1.31994e-05,769.1849999994214,0.003765207,769.1849999994214,1.84451e-05,769.1849999994214,7.137048e-06
769.1999999994214,1.029643e-05,769.1999999994214,0.00360163,769.1999999994214,1.845426e-05,769.1999999994214,7.273898e-06
769.2149999994214,1.030053e-05,769.2149999994214,0.003488766,769.2149999994214,1.86116e-05,769.2149999994214,7.316379e-06
769.2299999994214,1.000922e-05,769.2299999994214,0.003259757,769.2299999994214,1.846799e-05,769.2299999994214,7.312527e-06
769.2449999994213,9.756936e-06,769.2449999994213,0.00305907,769.2449999994213,1.843899e-05,769.2449999994213,7.14888e-06
769.2599999994213,8.95598e-06,769.2599999994213,0.002996659,769.2599999994213,1.909944e-05,769.2599999994213,7.174451e-06
769.2749999994213,8.862694e-06,769.2749999994213,0.002680158,769.2749999994213,1.955786e-05,769.2749999994213,7.168558e-06
769.2899999994213,8.373978e-06,769.2899999994213,0.002348538,769.2899999994213,1.953119e-05,769.2899999994213,7.21166e-06
769.3049999994213,7.402513e-06,769.3049999994213,0.002255723,769.3049999994213,1.920316e-05,769.3049999994213,6.66131e-06
769.3199999994213,7.375824e-06,769.3199999994213,0.001890181,769.3199999994213,1.776349e-05,769.3199999994213,6.635885e-06
769.3349999994213,6.047233e-06,769.3349999994213,0.001590802,769.3349999994213,1.758656e-05,769.3349999994213,6.680315e-06
769.3499999994212,5.958057e-06,769.3499999994212,0.001490673,769.3499999994212,1.619114e-05,769.3499999994212,6.483414e-06
769.3649999994212,7.252564e-06,769.3649999994212,0.001450565,769.3649999994212,1.751835e-05,769.3649999994212,6.481242e-06
769.3799999994212,7.634834e-06,769.3799999994212,0.001459696,769.3799999994212,1.717484e-05,769.3799999994212,6.395915e-06
769.3949999994212,7.133099e-06,769.3949999994212,0.001477214,769.3949999994212,1.717566e-05,769.3949999994212,6.589018e-06
769.4099999994212,7.029658e-06,769.4099999994212,0.001457434,769.4099999994212,1.761378e-05,769.4099999994212,6.730734e-06
769.4249999994212,6.999535e-06,769.4249999994212,0.00142811,769.4249999994212,1.735353e-05,769.4249999994212,6.707672e-06
769.4399999994212,7.081567e-06,769.4399999994212,0.001481013,769.4399999994212,1.71855e-05,769.4399999994212,6.435437e-06
769.4549999994211,7.069622e-06,769.4549999994211,0.001455757,769.4549999994211,1.734054e-05,769.4549999994211,6.298262e-06
769.4699999994211,6.938897e-06,769.4699999994211,0.001303931,769.4699999994211,1.696523e-05,769.4699999994211,6.442001e-06
769.4849999994211,6.965238e-06,769.4849999994211,0.001273722,769.4849999994211,1.687198e-05,769.4849999994211,6.757886e-06
769.4999999994211,6.934835e-06,769.4999999994211,0.001497791,769.4999999994211,1.685444e-05,769.4999999994211,6.832516e-06
769.5149999994211,6.80773e-06,769.5149999994211,0.001918398,769.5149999994211,1.636423e-05,769.5149999994211,7.273898e-06
769.5299999994211,6.912455e-06,769.5299999994211,0.002264539,769.5299999994211,1.612751e-05,769.5299999994211,7.72289e-06
769.5449999994211,6.857212e-06,769.5449999994211,0.002379866,769.5449999994211,1.61179e-05,769.5449999994211,7.827967e-06
769.559999999421,7.061647e-06,769.559999999421,0.002405771,769.559999999421,1.683437e-05,769.559999999421,7.753835e-06
769.574999999421,7.154789e-06,769.574999999421,0.002578728,769.574999999421,1.943865e-05,769.574999999421,7.770169e-06
769.589999999421,7.383459e-06,769.589999999421,0.002981516,769.589999999421,1.949004e-05,769.589999999421,7.673483e-06
769.604999999421,6.599699e-06,769.604999999421,0.003322382,769.604999999421,1.937696e-05,769.604999999421,7.786468e-06
769.619999999421,6.985433e-06,769.619999999421,0.003585419,769.619999999421,1.818745e-05,769.619999999421,8.594799e-06
769.634999999421,8.570179e-06,769.634999999421,0.003602003,769.634999999421,1.835553e-05,769.634999999421,8.894426e-06
769.649999999421,8.604628e-06,769.649999999421,0.003642513,769.649999999421,1.819133e-05,769.649999999421,9.70337e-06
769.664999999421,8.470984e-06,769.664999999421,0.003601504,769.664999999421,1.840764e-05,769.664999999421,9.742488e-06
769.6799999994209,8.555373e-06,769.6799999994209,0.003621326,769.6799999994209,1.791825e-05,769.6799999994209,9.911636e-06
769.6949999994209,8.952834e-06,769.6949999994209,0.003604091,769.6949999994209,1.88739e-05,769.6949999994209,1.226678e-05
769.7099999994209,9.207261e-06,769.7099999994209,0.003606208,769.7099999994209,1.863731e-05,769.7099999994209,1.311482e-05
769.7249999994209,9.295575e-06,769.7249999994209,0.003572107,769.7249999994209,1.886867e-05,769.7249999994209,1.490838e-05
769.7399999994209,9.425e-06,769.7399999994209,0.003566228,769.7399999994209,1.884776e-05,769.7399999994209,1.727951e-05
769.7549999994209,9.52757e-06,769.7549999994209,0.003462389,769.7549999994209,1.843287e-05,769.7549999994209,1.83655e-05
769.7699999994209,9.592404e-06,769.7699999994209,0.003216404,769.7699999994209,1.881035e-05,769.7699999994209,2.060789e-05
769.7849999994208,9.532005e-06,769.7849999994208,0.002877291,769.7849999994208,1.850914e-05,769.7849999994208,2.099659e-05
769.7999999994208,9.722225e-06,769.7999999994208,0.002694746,769.7999999994208,1.842294e-05,769.7999999994208,2.239388e-05
769.8149999994208,9.68157e-06,769.8149999994208,0.00281399,769.8149999994208,1.701498e-05,769.8149999994208,2.628328e-05
769.8299999994208,9.714977e-06,769.8299999994208,0.002626483,769.8299999994208,1.544031e-05,769.8299999994208,2.655044e-05
769.8449999994208,1.050366e-05,769.8449999994208,0.002311806,769.8449999994208,1.599331e-05,769.8449999994208,2.676866e-05
769.8599999994208,2.187971e-05,769.8599999994208,0.001925745,769.8599999994208,1.791668e-05,769.8599999994208,2.727795e-05
769.8749999994208,3.943421e-05,769.8749999994208,0.001582199,769.8749999994208,1.969495e-05,769.8749999994208,2.930304e-05
769.8899999994208,5.627032e-05,769.8899999994208,0.001769686,769.8899999994208,2.069248e-05,769.8899999994208,2.979076e-05
769.9049999994207,5.757645e-05,769.9049999994207,0.001891604,769.9049999994207,2.56491e-05,769.9049999994207,2.966709e-05
769.9199999994207,0.0001118515,769.9199999994207,0.001978232,769.9199999994207,2.899714e-05,769.9199999994207,2.977515e-05
769.9349999994207,0.0001143248,769.9349999994207,0.002171121,769.9349999994207,2.928572e-05,769.9349999994207,2.965996e-05
769.9499999994207,0.0001259387,769.9499999994207,0.002471811,769.9499999994207,3.114361e-05,769.9499999994207,2.92212e-05
769.9649999994207,0.000132032,769.9649999994207,0.002829118,769.9649999994207,4.247846e-05,769.9649999994207,3.005626e-05
769.9799999994207,0.0001347013,769.9799999994207,0.003073616,769.9799999994207,4.84849e-05,769.9799999994207,2.91966e-05
769.9949999994207,0.0001355942,769.9949999994207,0.003326804,769.9949999994207,5.45306e-05,769.9949999994207,2.978461e-05
770.0099999994206,0.0001360572,770.0099999994206,0.00360453,770.0099999994206,5.554846e-05,770.0099999994206,3.065628e-05
770.0249999994206,0.0001448196,770.0249999994206,0.003822491,770.0249999994206,5.77755e-05,770.0249999994206,3.109019e-05
770.0399999994206,0.0001477679,770.0399999994206,0.004040103,770.0399999994206,6.384518e-05,770.0399999994206,3.233092e-05
770.0549999994206,0.0001484316,770.0549999994206,0.004188477,770.0549999994206,6.528084e-05,770.0549999994206,3.077917e-05
770.0699999994206,0.0001488569,770.0699999994206,0.004252416,770.0699999994206,6.623072e-05,770.0699999994206,3.1215e-05
770.0849999994206,0.0001489771,770.0849999994206,0.004409564,770.0849999994206,6.640448e-05,770.0849999994206,3.221569e-05
770.0999999994206,0.0001491394,770.0999999994206,0.004663172,770.0999999994206,6.608913e-05,770.0999999994206,3.332135e-05
770.1149999994205,0.0001479294,770.1149999994205,0.004872626,770.1149999994205,6.62724e-05,770.1149999994205,3.237924e-05
770.1299999994205,0.0001412442,770.1299999994205,0.005024766,770.1299999994205,6.62271e-05,770.1299999994205,3.112642e-05
770.1449999994205,0.0001394096,770.1449999994205,0.005097186,770.1449999994205,6.702021e-05,770.1449999994205,3.120055e-05
770.1599999994205,0.0001287467,770.1599999994205,0.005215917,770.1599999994205,6.513394e-05,770.1599999994205,3.099172e-05
770.1749999994205,0.0001013857,770.1749999994205,0.005303256,770.1749999994205,6.472564e-05,770.1749999994205,3.095579e-05
770.1899999994205,0.0001005409,770.1899999994205,0.005368432,770.1899999994205,6.435087e-05,770.1899999994205,3.104394e-05
770.2049999994205,8.127249e-05,770.2049999994205,0.005369116,770.2049999994205,6.140484e-05,770.2049999994205,3.039369e-05
770.2199999994205,7.63059e-05,770.2199999994205,0.00529816,770.2199999994205,5.520607e-05,770.2199999994205,2.922023e-05
770.2349999994204,7.186751e-05,770.2349999994204,0.005242353,770.2349999994204,4.896252e-05,770.2349999994204,2.895144e-05
770.2499999994204,8.041503e-05,770.2499999994204,0.005278768,770.2499999994204,4.446864e-05,770.2499999994204,2.702268e-05
770.2649999994204,7.573387e-05,770.2649999994204,0.005302692,770.2649999994204,4.186181e-05,770.2649999994204,2.447493e-05
770.2799999994204,6.251319e-05,770.2799999994204,0.005321346,770.2799999994204,3.761808e-05,770.2799999994204,2.239199e-05
770.2949999994204,5.552614e-05,770.2949999994204,0.005243079,770.2949999994204,3.007594e-05,770.2949999994204,2.060106e-05
770.3099999994204,5.345438e-05,770.3099999994204,0.005255422,770.3099999994204,2.699974e-05,770.3099999994204,1.941255e-05
770.3249999994204,5.284933e-05,770.3249999994204,0.005257996,770.3249999994204,2.444671e-05,770.3249999994204,1.549131e-05
770.3399999994203,5.200781e-05,770.3399999994203,0.005233243,770.3399999994203,2.412771e-05,770.3399999994203,1.379329e-05
770.3549999994203,5.14397e-05,770.3549999994203,0.005065598,770.3549999994203,2.356175e-05,770.3549999994203,1.11604e-05
770.3699999994203,5.077072e-05,770.3699999994203,0.004904904,770.3699999994203,2.299228e-05,770.3699999994203,1.015869e-05
770.3849999994203,4.989416e-05,770.3849999994203,0.004787052,770.3849999994203,2.004938e-05,770.3849999994203,9.593873e-06
770.3999999994203,4.69414e-05,770.3999999994203,0.004528189,770.3999999994203,1.719124e-05,770.3999999994203,8.914992e-06
770.4149999994203,4.295137e-05,770.4149999994203,0.004513488,770.4149999994203,1.523642e-05,770.4149999994203,8.927624e-06
770.4299999994203,4.242305e-05,770.4299999994203,0.004427601,770.4299999994203,1.497531e-05,770.4299999994203,8.883333e-06
770.4449999994202,4.240179e-05,770.4449999994202,0.004318488,770.4449999994202,1.420683e-05,770.4449999994202,8.59316e-06
770.4599999994202,4.022013e-05,770.4599999994202,0.00416576,770.4599999994202,1.43489e-05,770.4599999994202,8.886504e-06
770.4749999994202,4.020576e-05,770.4749999994202,0.00401086,770.4749999994202,1.412629e-05,770.4749999994202,8.851561e-06
770.4899999994202,3.364655e-05,770.4899999994202,0.003873984,770.4899999994202,1.409734e-05,770.4899999994202,8.43432e-06
770.5049999994202,1.157186e-05,770.5049999994202,0.003648105,770.5049999994202,1.364956e-05,770.5049999994202,8.323359e-06
770.5199999994202,1.085713e-05,770.5199999994202,0.003420989,770.5199999994202,1.549313e-05,770.5199999994202,8.169621e-06
770.5349999994202,1.01767e-05,770.5349999994202,0.00318659,770.5349999994202,1.604958e-05,770.5349999994202,8.474309e-06
770.5499999994202,9.945687e-06,770.5499999994202,0.003110178,770.5499999994202,1.6521e-05,770.5499999994202,7.85312e-06
770.5649999994201,1.024431e-05,770.5649999994201,0.003041839,770.5649999994201,1.543757e-05,770.5649999994201,7.642211e-06
770.5799999994201,1.036053e-05,770.5799999994201,0.002926789,770.5799999994201,1.587662e-05,770.5799999994201,7.95825e-06
770.5949999994201,1.034284e-05,770.5949999994201,0.002679507,770.5949999994201,1.592269e-05,770.5949999994201,7.97063e-06
770.6099999994201,1.015453e-05,770.6099999994201,0.002745327,770.6099999994201,1.768322e-05,770.6099999994201,8.357139e-06
770.6249999994201,1.019054e-05,770.6249999994201,0.002834118,770.6249999994201,1.79426e-05,770.6249999994201,8.362194e-06
770.6399999994201,1.022641e-05,770.6399999994201,0.002730604,770.6399999994201,1.811217e-05,770.6399999994201,8.286042e-06
770.65499999942,1.01684e-05,770.65499999942,0.002662417,770.65499999942,1.760018e-05,770.65499999942,8.425965e-06
770.66999999942,1.028821e-05,770.66999999942,0.002607658,770.66999999942,1.754005e-05,770.66999999942,8.472646e-06
770.68499999942,1.049695e-05,770.68499999942,0.002632903,770.68499999942,1.783946e-05,770.68499999942,8.611173e-06
770.69999999942,8.749116e-06,770.69999999942,0.002641532,770.69999999942,1.785209e-05,770.69999999942,8.258797e-06
770.71499999942,7.967094e-06,770.71499999942,0.002656312,770.71499999942,1.784025e-05,770.71499999942,8.159269e-06
770.72999999942,7.782849e-06,770.72999999942,0.002668146,770.72999999942,1.808103e-05,770.72999999942,8.171345e-06
770.74499999942,7.354785e-06,770.74499999942,0.002675812,770.74499999942,1.817583e-05,770.74499999942,8.072484e-06
770.75999999942,7.12124e-06,770.75999999942,0.002662708,770.75999999942,1.818436e-05,770.75999999942,8.074229e-06
770.77499999942,6.728641e-06,770.77499999942,0.002635655,770.77499999942,1.614671e-05,770.77499999942,8.014691e-06
770.7899999994199,7.3106e-06,770.7899999994199,0.002695678,770.7899999994199,1.549222e-05,770.7899999994199,7.575563e-06
770.8049999994199,7.638524e-06,770.8049999994199,0.002544016,770.8049999994199,1.5126e-05,770.8049999994199,7.638524e-06
770.8199999994199,7.41962e-06,770.8199999994199,0.002334359,770.8199999994199,1.507469e-05,770.8199999994199,7.878193e-06
770.8349999994199,7.582997e-06,770.8349999994199,0.002206983,770.8349999994199,1.466929e-05,770.8349999994199,7.706456e-06
770.8499999994199,7.586711e-06,770.8499999994199,0.002081232,770.8499999994199,1.301887e-05,770.8499999994199,7.575563e-06
770.8649999994199,7.506446e-06,770.8649999994199,0.001805292,770.8649999994199,1.122584e-05,770.8649999994199,7.219469e-06
770.8799999994199,7.46882e-06,770.8799999994199,0.001599422,770.8799999994199,1.008912e-05,770.8799999994199,7.651422e-06
770.8949999994198,7.434793e-06,770.8949999994198,0.001700606,770.8949999994198,9.876042e-06,770.8949999994198,7.680822e-06
770.9099999994198,7.538281e-06,770.9099999994198,0.001661861,770.9099999994198,9.548246e-06,770.9099999994198,7.645896e-06
770.9249999994198,7.316379e-06,770.9249999994198,0.001674659,770.9249999994198,9.493503e-06,770.9249999994198,8.018206e-06
770.9399999994198,7.237009e-06,770.9399999994198,0.00169326,770.9399999994198,9.021799e-06,770.9399999994198,8.02874e-06
770.9549999994198,7.644054e-06,770.9549999994198,0.001640135,770.9549999994198,8.974835e-06,770.9549999994198,8.023475e-06
770.9699999994198,7.46882e-06,770.9699999994198,0.001717677,770.9699999994198,8.494233e-06,770.9699999994198,8.075974e-06
770.9849999994198,7.438582e-06,770.9849999994198,0.001694293,770.9849999994198,9.097987e-06,770.9849999994198,8.005899e-06
770.9999999994197,7.115304e-06,770.9999999994197,0.001700246,770.9999999994197,8.798887e-06,770.9999999994197,8.555373e-06
771.0149999994197,7.201887e-06,771.0149999994197,0.001707878,771.0149999994197,8.726546e-06,771.0149999994197,8.430979e-06
771.0299999994197,7.465047e-06,771.0299999994197,0.001588244,771.0299999994197,8.619349e-06,771.0299999994197,9.145859e-06
771.0449999994197,6.481242e-06,771.0449999994197,0.001458037,771.0449999994197,8.663363e-06,771.0449999994197,8.940237e-06
771.0599999994197,6.463831e-06,771.0599999994197,0.00145298,771.0599999994197,8.861105e-06,771.0599999994197,8.861105e-06
771.0749999994197,6.035575e-06,771.0749999994197,0.001454893,771.0749999994197,8.829253e-06,771.0749999994197,8.787673e-06
771.0899999994197,6.123622e-06,771.0899999994197,0.001458357,771.0899999994197,9.874615e-06,771.0899999994197,8.707154e-06
771.1049999994196,6.25337e-06,771.1049999994196,0.00154034,771.1049999994196,9.941437e-06,771.1049999994196,8.715239e-06
771.1199999994196,6.158032e-06,771.1199999994196,0.001531013,771.1199999994196,9.990908e-06,771.1199999994196,8.29284e-06
771.1349999994196,6.230803e-06,771.1349999994196,0.001541657,771.1349999994196,1.062102e-05,771.1349999994196,9.608544e-06
771.1499999994196,6.162605e-06,771.1499999994196,0.001359019,771.1499999994196,1.074628e-05,771.1499999994196,1.430859e-05
771.1649999994196,6.026232e-06,771.1649999994196,0.001335837,771.1649999994196,1.063295e-05,771.1649999994196,1.525952e-05
771.1799999994196,6.014533e-06,771.1799999994196,0.001469147,771.1799999994196,1.051037e-05,771.1799999994196,1.737382e-05
771.1949999994196,5.901041e-06,771.1949999994196,0.001823968,771.1949999994196,1.083895e-05,771.1949999994196,1.737463e-05
771.2099999994196,5.104936e-06,771.2099999994196,0.001991879,771.2099999994196,1.102835e-05,771.2099999994196,1.829403e-05
771.2249999994195,5.032679e-06,771.2249999994195,0.002215208,771.2249999994195,1.138656e-05,771.2249999994195,1.900555e-05
771.2399999994195,5.459618e-06,771.2399999994195,0.002417826,771.2399999994195,1.071346e-05,771.2399999994195,1.903073e-05
771.2549999994195,5.672212e-06,771.2549999994195,0.002469407,771.2549999994195,1.092697e-05,771.2549999994195,2.099995e-05
771.2699999994195,5.709342e-06,771.2699999994195,0.002569547,771.2699999994195,1.15194e-05,771.2699999994195,2.27589e-05
771.2849999994195,6.762054e-06,771.2849999994195,0.002583607,771.2849999994195,1.205013e-05,771.2849999994195,2.34695e-05
771.2999999994195,8.02874e-06,771.2999999994195,0.002673599,771.2999999994195,1.265343e-05,771.2999999994195,2.451691e-05
771.3149999994195,8.042764e-06,771.3149999994195,0.002829015,771.3149999994195,1.255059e-05,771.3149999994195,2.944259e-05
771.3299999994194,8.941813e-06,771.3299999994194,0.002860479,771.3299999994194,1.195035e-05,771.3299999994194,3.282901e-05
771.3449999994194,9.115002e-06,771.3449999994194,0.002890131,771.3449999994194,1.167367e-05,771.3449999994194,3.335051e-05
771.3599999994194,9.445902e-06,771.3599999994194,0.002971725,771.3599999994194,1.175664e-05,771.3599999994194,3.361681e-05
771.3749999994194,2.067205e-05,771.3749999994194,0.002926557,771.3749999994194,1.318659e-05,771.3749999994194,3.571483e-05
771.3899999994194,3.706809e-05,771.3899999994194,0.003147159,771.3899999994194,1.468465e-05,771.3899999994194,3.534811e-05
771.4049999994194,5.214955e-05,771.4049999994194,0.003445232,771.4049999994194,1.828555e-05,771.4049999994194,3.396117e-05
771.4199999994194,5.541084e-05,771.4199999994194,0.003571978,771.4199999994194,2.084509e-05,771.4199999994194,3.352282e-05
771.4349999994193,5.750398e-05,771.4349999994193,0.003570839,771.4349999994193,2.318629e-05,771.4349999994193,3.291343e-05
771.4499999994193,5.971613e-05,771.4499999994193,0.00346468,771.4499999994193,5.124132e-05,771.4499999994193,3.557375e-05
771.4649999994193,6.116695e-05,771.4649999994193,0.003707825,771.4649999994193,5.36787e-05,771.4649999994193,3.529188e-05
771.4799999994193,7.403369e-05,771.4799999994193,0.003797732,771.4799999994193,6.361198e-05,771.4799999994193,3.778323e-05
771.4949999994193,7.919479e-05,771.4949999994193,0.003891579,771.4949999994193,7.03961e-05,771.4949999994193,3.912652e-05
771.5099999994193,8.135685e-05,771.5099999994193,0.004008169,771.5099999994193,7.150121e-05,771.5099999994193,3.831488e-05
771.5249999994193,8.213147e-05,771.5249999994193,0.004188916,771.5249999994193,7.578352e-05,771.5249999994193,3.791573e-05
771.5399999994193,8.353582e-05,771.5399999994193,0.004334362,771.5399999994193,7.648494e-05,771.5399999994193,3.844261e-05
771.5549999994192,8.366557e-05,771.5549999994192,0.004350923,771.5549999994192,7.707041e-05,771.5549999994192,4.037429e-05
771.5699999994192,8.391287e-05,771.5699999994192,0.004225015,771.5699999994192,7.709197e-05,771.5699999994192,3.578969e-05
771.5849999994192,8.452705e-05,771.5849999994192,0.004312659,771.5849999994192,7.715882e-05,771.5849999994192,3.543607e-05
771.5999999994192,8.511314e-05,771.5999999994192,0.004504842,771.5999999994192,7.759593e-05,771.5999999994192,3.545793e-05
771.6149999994192,8.517932e-05,771.6149999994192,0.004530467,771.6149999994192,7.772326e-05,771.6149999994192,3.499606e-05
771.6299999994192,8.265463e-05,771.6299999994192,0.004682128,771.6299999994192,7.797081e-05,771.6299999994192,3.380902e-05
771.6449999994192,7.311641e-05,771.6449999994192,0.004755072,771.6449999994192,7.781672e-05,771.6449999994192,3.817306e-05
771.6599999994191,6.759366e-05,771.6599999994191,0.004921564,771.6599999994191,7.69581e-05,771.6599999994191,3.828251e-05
771.6749999994191,6.528235e-05,771.6749999994191,0.005046213,771.6749999994191,7.578965e-05,771.6749999994191,3.86633e-05
771.6899999994191,6.222523e-05,771.6899999994191,0.005140153,771.6899999994191,7.378287e-05,771.6899999994191,3.840448e-05
771.7049999994191,6.135366e-05,771.7049999994191,0.005200376,771.7049999994191,5.87398e-05,771.7049999994191,3.651907e-05
771.7199999994191,5.534802e-05,771.7199999994191,0.005165397,771.7199999994191,5.719351e-05,771.7199999994191,3.637684e-05
771.7349999994191,4.347652e-05,771.7349999994191,0.005092501,771.7349999994191,4.075281e-05,771.7349999994191,3.277017e-05
771.7499999994191,3.214784e-05,771.7499999994191,0.005105139,771.7499999994191,3.737653e-05,771.7499999994191,3.227466e-05
771.764999999419,2.650318e-05,771.764999999419,0.005105142,771.764999999419,3.037097e-05,771.764999999419,3.221132e-05
771.779999999419,2.338472e-05,771.779999999419,0.005042895,771.779999999419,2.575378e-05,771.779999999419,3.105483e-05
771.794999999419,2.187199e-05,771.794999999419,0.005089434,771.794999999419,2.356355e-05,771.794999999419,2.98073e-05
771.809999999419,2.074008e-05,771.809999999419,0.005156029,771.809999999419,2.271739e-05,771.809999999419,2.587057e-05
771.824999999419,1.921122e-05,771.824999999419,0.005126652,771.824999999419,3.028039e-05,771.824999999419,2.584442e-05
771.839999999419,1.583754e-05,771.839999999419,0.005009148,771.839999999419,3.043167e-05,771.839999999419,2.536912e-05
771.854999999419,1.433417e-05,771.854999999419,0.004854866,771.854999999419,2.956816e-05,771.854999999419,2.467156e-05
771.869999999419,1.498096e-05,771.869999999419,0.004683229,771.869999999419,2.864523e-05,771.869999999419,2.456226e-05
771.8849999994189,1.910903e-05,771.8849999994189,0.004573971,771.8849999994189,2.783364e-05,771.8849999994189,2.115034e-05
771.8999999994189,2.134129e-05,771.8999999994189,0.004561579,771.8999999994189,2.823562e-05,771.8999999994189,1.570355e-05
771.9149999994189,2.339496e-05,771.9149999994189,0.004499665,771.9149999994189,2.848694e-05,771.9149999994189,1.537081e-05
771.9299999994189,2.654036e-05,771.9299999994189,0.004398454,771.9299999994189,2.868798e-05,771.9299999994189,1.31277e-05
771.9449999994189,3.258178e-05,771.9449999994189,0.004506121,771.9449999994189,2.797247e-05,771.9449999994189,1.249885e-05
771.9599999994189,3.328243e-05,771.9599999994189,0.004496214,771.9599999994189,2.795484e-05,771.9599999994189,1.217225e-05
771.9749999994189,3.36771e-05,771.9749999994189,0.004452474,771.9749999994189,2.727279e-05,771.9749999994189,1.24095e-05
771.9899999994188,3.431522e-05,771.9899999994188,0.004404155,771.9899999994188,2.704353e-05,771.9899999994188,1.264452e-05
772.0049999994188,3.470017e-05,772.0049999994188,0.004264351,772.0049999994188,2.681231e-05,772.0049999994188,1.3147e-05
772.0199999994188,3.458224e-05,772.0199999994188,0.003996859,772.0199999994188,2.662885e-05,772.0199999994188,1.444381e-05
772.0349999994188,3.429879e-05,772.0349999994188,0.003935565,772.0349999994188,2.6235e-05,772.0349999994188,1.49046e-05
772.0499999994188,3.405396e-05,772.0499999994188,0.003916675,772.0499999994188,2.589887e-05,772.0499999994188,1.509057e-05
772.0649999994188,3.406843e-05,772.0649999994188,0.004035431,772.0649999994188,2.520982e-05,772.0649999994188,1.519198e-05
772.0799999994188,3.396822e-05,772.0799999994188,0.003994961,772.0799999994188,1.573581e-05,772.0799999994188,1.501102e-05
772.0949999994187,3.372726e-05,772.0949999994187,0.004141107,772.0949999994187,1.512786e-05,772.0949999994187,1.485821e-05
772.1099999994187,3.351021e-05,772.1099999994187,0.004268782,772.1099999994187,1.661453e-05,772.1099999994187,1.518734e-05
772.1249999994187,3.287146e-05,772.1249999994187,0.004346412,772.1249999994187,1.643466e-05,772.1249999994187,1.513903e-05
772.1399999994187,3.129432e-05,772.1399999994187,0.004310648,772.1399999994187,1.657548e-05,772.1399999994187,1.57179e-05
772.1549999994187,2.839035e-05,772.1549999994187,0.004242727,772.1549999994187,1.596245e-05,772.1549999994187,1.577694e-05
772.1699999994187,2.691875e-05,772.1699999994187,0.004213599,772.1699999994187,1.559463e-05,772.1699999994187,1.568829e-05
772.1849999994187,1.808726e-05,772.1849999994187,0.004256663,772.1849999994187,1.47936e-05,772.1849999994187,1.553671e-05
772.1999999994187,1.625627e-05,772.1999999994187,0.004256665,772.1999999994187,1.480788e-05,772.1999999994187,1.574476e-05
772.2149999994186,1.427311e-05,772.2149999994186,0.00434687,772.2149999994186,1.485158e-05,772.2149999994186,1.617286e-05
772.2299999994186,1.354908e-05,772.2299999994186,0.004372077,772.2299999994186,1.476596e-05,772.2299999994186,1.592092e-05
772.2449999994186,1.209447e-05,772.2449999994186,0.004251691,772.2449999994186,1.461445e-05,772.2449999994186,1.570534e-05
772.2599999994186,1.017532e-05,772.2599999994186,0.004130215,772.2599999994186,1.425336e-05,772.2599999994186,1.491121e-05
772.2749999994186,9.291028e-06,772.2749999994186,0.004217072,772.2749999994186,1.414622e-05,772.2749999994186,1.371853e-05
772.2899999994186,9.49202e-06,772.2899999994186,0.004280781,772.2899999994186,1.366091e-05,772.2899999994186,1.350117e-05
772.3049999994186,9.75838e-06,772.3049999994186,0.004412271,772.3049999994186,1.357609e-05,772.3049999994186,1.528995e-05
772.3199999994185,9.838886e-06,772.3199999994185,0.004346493,772.3199999994185,1.348969e-05,772.3199999994185,1.516414e-05
772.3349999994185,1.003031e-05,772.3349999994185,0.004495319,772.3349999994185,1.334481e-05,772.3349999994185,1.557927e-05
772.3499999994185,1.063958e-05,772.3499999994185,0.004450796,772.3499999994185,1.245821e-05,772.3499999994185,1.56181e-05
772.3649999994185,1.037683e-05,772.3649999994185,0.004522231,772.3649999994185,9.97821e-06,772.3649999994185,1.701415e-05
772.3799999994185,1.020297e-05,772.3799999994185,0.00452548,772.3799999994185,1.063825e-05,772.3799999994185,1.706128e-05
772.3949999994185,1.041342e-05,772.3949999994185,0.004608265,772.3949999994185,1.07082e-05,772.3949999994185,1.66247e-05
772.4099999994185,1.034556e-05,772.4099999994185,0.004718971,772.4099999994185,1.051974e-05,772.4099999994185,1.849772e-05
772.4249999994184,1.034692e-05,772.4249999994184,0.004823305,772.4249999994184,1.072004e-05,772.4249999994184,2.060311e-05
772.4399999994184,1.017117e-05,772.4399999994184,0.004771825,772.4399999994184,1.195035e-05,772.4399999994184,2.120554e-05
772.4549999994184,1.020297e-05,772.4549999994184,0.004694791,772.4549999994184,1.250899e-05,772.4549999994184,2.651274e-05
772.4699999994184,1.007795e-05,772.4699999994184,0.004669346,772.4699999994184,1.247629e-05,772.4699999994184,2.928332e-05
772.4849999994184,9.704822e-06,772.4849999994184,0.004615327,772.4849999994184,1.23845e-05,772.4849999994184,3.610476e-05
772.4999999994184,1.012953e-05,772.4999999994184,0.004566637,772.4999999994184,1.229775e-05,772.4999999994184,3.73441e-05
772.5149999994184,1.012258e-05,772.5149999994184,0.004635907,772.5149999994184,1.285226e-05,772.5149999994184,3.866949e-05
772.5299999994184,3.748078e-05,772.5299999994184,0.004653882,772.5299999994184,1.371031e-05,772.5299999994184,4.166686e-05
772.5449999994183,4.849914e-05,772.5449999994183,0.004630642,772.5449999994183,1.475356e-05,772.5449999994183,4.548498e-05
772.5599999994183,6.582687e-05,772.5599999994183,0.00458211,772.5599999994183,1.585087e-05,772.5599999994183,4.639263e-05
772.5749999994183,8.6937e-05,772.5749999994183,0.004635299,772.5749999994183,2.336543e-05,772.5749999994183,4.62908e-05
772.5899999994183,8.851371e-05,772.5899999994183,0.004640118,772.5899999994183,4.608738e-05,772.5899999994183,4.662796e-05
772.6049999994183,0.0001347669,772.6049999994183,0.004497788,772.6049999994183,5.085112e-05,772.6049999994183,4.867657e-05
772.6199999994183,0.0001476051,772.6199999994183,0.004411522,772.6199999994183,5.545963e-05,772.6199999994183,5.149034e-05
772.6349999994183,0.0001535583,772.6349999994183,0.004447149,772.6349999994183,5.626681e-05,772.6349999994183,5.434273e-05
772.6499999994182,0.0001626933,772.6499999994182,0.004305611,772.6499999994182,6.31497e-05,772.6499999994182,5.6231e-05
772.6649999994182,0.0001683946,772.6649999994182,0.004337539,772.6649999994182,7.122546e-05,772.6649999994182,5.62628e-05
