X[s],a: EMG RMS 1-1,X[s].1,a: EMG RMS 1-2,X[s].2,a: EMG RMS 1-3,X[s].3,a: EMG RMS 1-4
718.0049999994679,4.584466e-06,718.0049999994679,6.127969e-05,718.0049999994679,5.907196e-05,718.0049999994679,4.979213e-06
718.0199999994679,4.759348e-06,718.0199999994679,6.114622e-05,718.0199999994679,5.618664e-05,718.0199999994679,4.907976e-06
718.0349999994679,4.864733e-06,718.0349999994679,5.968711e-05,718.0349999994679,5.585674e-05,718.0349999994679,4.826943e-06
718.0499999994679,4.75046e-06,718.0499999994679,5.919203e-05,718.0499999994679,5.580274e-05,718.0499999994679,4.896482e-06
718.0649999994679,4.870521e-06,718.0649999994679,5.923057e-05,718.0649999994679,5.62563e-05,718.0649999994679,4.939447e-06
718.0799999994679,4.902232e-06,718.0799999994679,4.516424e-05,718.0799999994679,5.460701e-05,718.0799999994679,4.887844e-06
718.0949999994679,4.996159e-06,718.0949999994679,4.346939e-05,718.0949999994679,5.422933e-05,718.0949999994679,4.861837e-06
718.1099999994678,5.107694e-06,718.1099999994678,3.921786e-05,718.1099999994678,5.175666e-05,718.1099999994678,4.777073e-06
718.1249999994678,5.233022e-06,718.1249999994678,3.438002e-05,718.1249999994678,4.44414e-05,718.1249999994678,4.79767e-06
718.1399999994678,5.392116e-06,718.1399999994678,3.169374e-05,718.1399999994678,4.301364e-05,718.1399999994678,4.841512e-06
718.1549999994678,5.381656e-06,718.1549999994678,2.591736e-05,718.1549999994678,4.17948e-05,718.1549999994678,4.806471e-06
718.1699999994678,5.467352e-06,718.1699999994678,2.578003e-05,718.1699999994678,3.915063e-05,718.1699999994678,4.774123e-06
718.1849999994678,5.246463e-06,718.1849999994678,2.199145e-05,718.1849999994678,3.804813e-05,718.1849999994678,4.774123e-06
718.1999999994678,5.184341e-06,718.1999999994678,2.158413e-05,718.1999999994678,3.726971e-05,718.1999999994678,4.660651e-06
718.2149999994678,5.208738e-06,718.2149999994678,1.884477e-05,718.2149999994678,2.998353e-05,718.2149999994678,4.702775e-06
718.2299999994677,5.313164e-06,718.2299999994677,1.768003e-05,718.2299999994677,2.566338e-05,718.2299999994677,4.702775e-06
718.2449999994677,5.071714e-06,718.2449999994677,1.612314e-05,718.2449999994677,2.499207e-05,718.2449999994677,4.815255e-06
718.2599999994677,5.200618e-06,718.2599999994677,1.448083e-05,718.2599999994677,2.478662e-05,718.2599999994677,4.899358e-06
718.2749999994677,5.099414e-06,718.2749999994677,1.323031e-05,718.2749999994677,2.479514e-05,718.2749999994677,5.115961e-06
718.2899999994677,5.331691e-06,718.2899999994677,1.329722e-05,718.2899999994677,2.481389e-05,718.2899999994677,5.187057e-06
718.3049999994677,5.365928e-06,718.3049999994677,1.315021e-05,718.3049999994677,2.512978e-05,718.3049999994677,5.178904e-06
718.3199999994677,5.154366e-06,718.3199999994677,1.328662e-05,718.3199999994677,2.450024e-05,718.3199999994677,5.339611e-06
718.3349999994676,5.203327e-06,718.3349999994676,1.258086e-05,718.3349999994676,2.415455e-05,718.3349999994676,5.431162e-06
718.3499999994676,5.214144e-06,718.3499999994676,1.295922e-05,718.3499999994676,2.405696e-05,718.3499999994676,5.467352e-06
718.3649999994676,5.085583e-06,718.3649999994676,1.287197e-05,718.3649999994676,2.485246e-05,718.3649999994676,5.485359e-06
718.3799999994676,4.93374e-06,718.3799999994676,1.282922e-05,718.3799999994676,2.412771e-05,718.3799999994676,5.561867e-06
718.3949999994676,4.832776e-06,718.3949999994676,1.251575e-05,718.3949999994676,2.262667e-05,718.3949999994676,5.592176e-06
718.4099999994676,5.088352e-06,718.4099999994676,1.295379e-05,718.4099999994676,2.171557e-05,718.4099999994676,5.554263e-06
718.4249999994676,5.275916e-06,718.4249999994676,1.212239e-05,718.4249999994676,2.132478e-05,718.4249999994676,5.639834e-06
718.4399999994675,5.706874e-06,718.4399999994675,1.161439e-05,718.4399999994675,2.053394e-05,718.4399999994675,5.689569e-06
718.4549999994675,6.470365e-06,718.4549999994675,1.170741e-05,718.4549999994675,1.977204e-05,718.4549999994675,5.860319e-06
718.4699999994675,6.500773e-06,718.4699999994675,1.151328e-05,718.4699999994675,1.759697e-05,718.4699999994675,5.922486e-06
718.4849999994675,6.431058e-06,718.4849999994675,1.173145e-05,718.4849999994675,1.768322e-05,718.4849999994675,5.898653e-06
718.4999999994675,6.271365e-06,718.4999999994675,1.172064e-05,718.4999999994675,1.764733e-05,718.4999999994675,5.95096e-06
718.5149999994675,6.155743e-06,718.5149999994675,1.182593e-05,718.5149999994675,2.118694e-05,718.5149999994675,5.845879e-06
718.5299999994675,6.030905e-06,718.5299999994675,1.139646e-05,718.5299999994675,2.334734e-05,718.5299999994675,5.879517e-06
718.5449999994674,6.005157e-06,718.5449999994674,1.149001e-05,718.5449999994674,2.402591e-05,718.5449999994674,5.706874e-06
718.5599999994674,5.988714e-06,718.5599999994674,1.15743e-05,718.5599999994674,2.521652e-05,718.5599999994674,5.836232e-06
718.5749999994674,5.979298e-06,718.5749999994674,1.165314e-05,718.5749999994674,2.725212e-05,718.5749999994674,5.763367e-06
718.5899999994674,6.005157e-06,718.5899999994674,1.14421e-05,718.5899999994674,2.834466e-05,718.5899999994674,5.684616e-06
718.6049999994674,5.960421e-06,718.6049999994674,1.183545e-05,718.6049999994674,2.945408e-05,718.6049999994674,5.862722e-06
718.6199999994674,6.19225e-06,718.6199999994674,1.137914e-05,718.6199999994674,3.417577e-05,718.6199999994674,5.872325e-06
718.6349999994674,6.293787e-06,718.6349999994674,1.190784e-05,718.6349999994674,3.457735e-05,718.6349999994674,5.972226e-06
718.6499999994674,6.472542e-06,718.6499999994674,1.169296e-05,718.6499999994674,3.433861e-05,718.6499999994674,6.095956e-06
718.6649999994673,6.13052e-06,718.6649999994673,1.216183e-05,718.6649999994673,3.491829e-05,718.6649999994673,6.114414e-06
718.6799999994673,5.95096e-06,718.6799999994673,1.294835e-05,718.6799999994673,3.577513e-05,718.6799999994673,6.105191e-06
718.6949999994673,5.399948e-06,718.6949999994673,1.305669e-05,718.6949999994673,3.651444e-05,718.6949999994673,6.214957e-06
718.7099999994673,4.702775e-06,718.7099999994673,1.321753e-05,718.7099999994673,3.650325e-05,718.7099999994673,6.100575e-06
718.7249999994673,4.717728e-06,718.7249999994673,1.301887e-05,718.7249999994673,3.636639e-05,718.7249999994673,6.056544e-06
718.7399999994673,4.768218e-06,718.7399999994673,1.309439e-05,718.7399999994673,3.632802e-05,718.7399999994673,5.95096e-06
718.7549999994673,4.765263e-06,718.7549999994673,1.349178e-05,718.7549999994673,3.562084e-05,718.7549999994673,5.95096e-06
718.7699999994672,4.759348e-06,718.7699999994672,1.342689e-05,718.7699999994672,3.374605e-05,718.7699999994672,5.874723e-06
718.7849999994672,5.007424e-06,718.7849999994672,1.337117e-05,718.7849999994672,3.254631e-05,718.7849999994672,5.836232e-06
718.7999999994672,5.184341e-06,718.7999999994672,1.285992e-05,718.7999999994672,3.217543e-05,718.7999999994672,5.787757e-06
718.8149999994672,5.464775e-06,718.8149999994672,1.270343e-05,718.8149999994672,3.110061e-05,718.8149999994672,5.741327e-06
718.8299999994672,5.475077e-06,718.8299999994672,1.246047e-05,718.8299999994672,2.872479e-05,718.8299999994672,5.986361e-06
718.8449999994672,5.472503e-06,718.8449999994672,1.22966e-05,718.8449999994672,2.786045e-05,718.8449999994672,6.061194e-06
718.8599999994672,5.365928e-06,718.8599999994672,1.2518e-05,718.8599999994672,2.423024e-05,718.8599999994672,6.077441e-06
718.8749999994671,5.477649e-06,718.8749999994671,1.239132e-05,718.8749999994671,1.708686e-05,718.8749999994671,6.000464e-06
718.8899999994671,5.667242e-06,718.8899999994671,1.251462e-05,718.8899999994671,1.674123e-05,718.8899999994671,6.162605e-06
718.9049999994671,5.814468e-06,718.9049999994671,1.292875e-05,718.9049999994671,1.658908e-05,718.9049999994671,6.102884e-06
718.9199999994671,6.360578e-06,718.9199999994671,1.251012e-05,718.9199999994671,1.499036e-05,718.9199999994671,6.185421e-06
718.9349999994671,6.463831e-06,718.9349999994671,1.198213e-05,718.9349999994671,1.336379e-05,718.9349999994671,6.089019e-06
718.9499999994671,6.548272e-06,718.9499999994671,1.162773e-05,718.9499999994671,1.037819e-05,718.9499999994671,6.019215e-06
718.9649999994671,7.584854e-06,718.9649999994671,1.170139e-05,718.9649999994671,1.036189e-05,718.9649999994671,6.06584e-06
718.979999999467,7.972397e-06,718.979999999467,1.279183e-05,718.979999999467,9.752604e-06,718.979999999467,6.208153e-06
718.994999999467,8.093397e-06,718.994999999467,1.338065e-05,718.994999999467,1.025118e-05,718.994999999467,6.233063e-06
719.009999999467,8.171345e-06,719.009999999467,1.291785e-05,719.009999999467,1.095273e-05,719.009999999467,6.322817e-06
719.024999999467,8.217759e-06,719.024999999467,1.368769e-05,719.024999999467,1.100021e-05,719.024999999467,6.404719e-06
719.039999999467,9.965496e-06,719.039999999467,1.420782e-05,719.039999999467,1.197155e-05,719.039999999467,6.479067e-06
719.054999999467,1.014482e-05,719.054999999467,1.443211e-05,719.054999999467,1.395876e-05,719.054999999467,6.470365e-06
719.069999999467,1.094758e-05,719.069999999467,1.470478e-05,719.069999999467,1.442527e-05,719.069999999467,6.470365e-06
719.084999999467,1.141251e-05,719.084999999467,1.695277e-05,719.084999999467,1.476787e-05,719.084999999467,6.298262e-06
719.099999999467,1.161318e-05,719.099999999467,1.77936e-05,719.099999999467,1.487148e-05,719.099999999467,6.248863e-06
719.1149999994669,1.375033e-05,719.1149999994669,1.803423e-05,719.1149999994669,1.560818e-05,719.1149999994669,6.393712e-06
719.1299999994669,1.377285e-05,719.1299999994669,1.882457e-05,719.1299999994669,1.573939e-05,719.1299999994669,6.298262e-06
719.1449999994669,1.371237e-05,719.1449999994669,1.927637e-05,719.1449999994669,1.568021e-05,719.1449999994669,6.178585e-06
719.1599999994669,1.411232e-05,719.1599999994669,2.097578e-05,719.1599999994669,1.676897e-05,719.1599999994669,6.304968e-06
719.1749999994669,1.403926e-05,719.1749999994669,2.708881e-05,719.1749999994669,1.694114e-05,719.1749999994669,6.08439e-06
719.1899999994669,1.408734e-05,719.1899999994669,2.772715e-05,719.1899999994669,1.696108e-05,719.1899999994669,6.382687e-06
719.2049999994668,1.428495e-05,719.2049999994668,2.837049e-05,719.2049999994668,2.037969e-05,719.2049999994668,6.333946e-06
719.2199999994668,1.404327e-05,719.2199999994668,2.852153e-05,719.2199999994668,2.251433e-05,719.2199999994668,6.262374e-06
719.2349999994668,1.394463e-05,719.2349999994668,2.825756e-05,719.2349999994668,2.493677e-05,719.2349999994668,6.349495e-06
719.2499999994668,1.445844e-05,719.2499999994668,2.862063e-05,719.2499999994668,6.998851e-05,719.2499999994668,6.384893e-06
719.2649999994668,1.470574e-05,719.2649999994668,3.004783e-05,719.2649999994668,0.0001840857,719.2649999994668,6.411314e-06
719.2799999994668,1.47067e-05,719.2799999994668,3.049964e-05,719.2799999994668,0.0001953593,719.2799999994668,6.642251e-06
719.2949999994668,1.399907e-05,719.2949999994668,3.911319e-05,719.2949999994668,0.0002038008,719.2949999994668,6.734918e-06
719.3099999994668,1.476692e-05,719.3099999994668,5.050059e-05,719.3099999994668,0.0002795617,719.3099999994668,6.867475e-06
719.3249999994667,1.403224e-05,719.3249999994667,5.16133e-05,719.3249999994667,0.0003844364,719.3249999994667,6.932803e-06
719.3399999994667,1.430564e-05,719.3399999994667,5.177244e-05,719.3399999994667,0.0004056627,719.3399999994667,7.28164e-06
719.3549999994667,1.362477e-05,719.3549999994667,5.230598e-05,719.3549999994667,0.0004155543,719.3549999994667,7.349037e-06
719.3699999994667,1.31994e-05,719.3699999994667,5.308814e-05,719.3699999994667,0.0004353669,719.3699999994667,7.331766e-06
719.3849999994667,1.425138e-05,719.3849999994667,5.740616e-05,719.3849999994667,0.0004412173,719.3849999994667,7.354785e-06
719.3999999994667,1.440182e-05,719.3999999994667,5.765005e-05,719.3999999994667,0.0004423631,719.3999999994667,7.291306e-06
719.4149999994667,1.423753e-05,719.4149999994667,5.873812e-05,719.4149999994667,0.000443846,719.4149999994667,7.362442e-06
719.4299999994666,1.424446e-05,719.4299999994666,5.698303e-05,719.4299999994666,0.0004448762,719.4299999994666,7.350954e-06
719.4449999994666,1.396986e-05,719.4449999994666,5.67993e-05,719.4449999994666,0.0004449652,719.4449999994666,7.412022e-06
719.4599999994666,1.440475e-05,719.4599999994666,5.673478e-05,719.4599999994666,0.000444872,719.4599999994666,7.474476e-06
719.4749999994666,1.481169e-05,719.4749999994666,5.692564e-05,719.4749999994666,0.0004449381,719.4749999994666,7.396802e-06
719.4899999994666,1.474401e-05,719.4899999994666,5.682856e-05,719.4899999994666,0.0004448403,719.4899999994666,7.47636e-06
719.5049999994666,1.426324e-05,719.5049999994666,5.850142e-05,719.5049999994666,0.0004280501,719.5049999994666,7.21166e-06
719.5199999994666,1.418103e-05,719.5199999994666,5.808675e-05,719.5199999994666,0.0003917471,719.5199999994666,7.166593e-06
719.5349999994665,1.388388e-05,719.5349999994665,5.453447e-05,719.5349999994665,0.0003878148,719.5349999994665,6.861319e-06
719.5499999994665,1.490082e-05,719.5499999994665,5.071214e-05,719.5499999994665,0.0003812623,719.5499999994665,6.753716e-06
719.5649999994665,1.417606e-05,719.5649999994665,4.263569e-05,719.5649999994665,0.0003097481,719.5649999994665,6.642251e-06
719.5799999994665,1.393553e-05,719.5799999994665,4.171721e-05,719.5799999994665,0.0001774683,719.5799999994665,6.402519e-06
719.5949999994665,1.372777e-05,719.5949999994665,4.165367e-05,719.5949999994665,0.0001505721,719.5949999994665,6.384893e-06
719.6099999994665,1.381064e-05,719.6099999994665,4.054454e-05,719.6099999994665,0.0001218264,719.6099999994665,6.19907e-06
719.6249999994665,1.294944e-05,719.6249999994665,3.793356e-05,719.6249999994665,7.089043e-05,719.6249999994665,6.302733e-06
719.6399999994665,1.17026e-05,719.6399999994665,3.318749e-05,719.6399999994665,5.761949e-05,719.6399999994665,6.395915e-06
719.6549999994664,1.153773e-05,719.6549999994664,3.05928e-05,719.6549999994664,5.010405e-05,719.6549999994664,6.224016e-06
719.6699999994664,1.168211e-05,719.6699999994664,2.896555e-05,719.6699999994664,3.351315e-05,719.6699999994664,6.424483e-06
719.6849999994664,1.163136e-05,719.6849999994664,2.866588e-05,719.6849999994664,1.962903e-05,719.6849999994664,6.205884e-06
719.6999999994664,1.146915e-05,719.6999999994664,2.889543e-05,719.6999999994664,1.747568e-05,719.6999999994664,6.196798e-06
719.7149999994664,1.044044e-05,719.7149999994664,2.873312e-05,719.7149999994664,1.744663e-05,719.7149999994664,6.160319e-06
719.7299999994664,1.09347e-05,719.7299999994664,2.815718e-05,719.7299999994664,1.702326e-05,719.7299999994664,6.269119e-06
719.7449999994664,1.122835e-05,719.7449999994664,2.823961e-05,719.7449999994664,1.631249e-05,719.7449999994664,6.400318e-06
719.7599999994663,1.131334e-05,719.7599999994663,2.365603e-05,719.7599999994663,1.551585e-05,719.7599999994663,6.654963e-06
719.7749999994663,1.099765e-05,719.7749999994663,2.293646e-05,719.7749999994663,1.532032e-05,719.7749999994663,6.780777e-06
719.7899999994663,1.109457e-05,719.7899999994663,2.02166e-05,719.7899999994663,1.518549e-05,719.7899999994663,6.772462e-06
719.8049999994663,9.193482e-06,719.8049999994663,2.059422e-05,719.8049999994663,1.454876e-05,719.8049999994663,6.680315e-06
719.8199999994663,1.045527e-05,719.8199999994663,2.035964e-05,719.8199999994663,1.186992e-05,719.8199999994663,6.916529e-06
719.8349999994663,1.103473e-05,719.8349999994663,1.953552e-05,719.8349999994663,1.108186e-05,719.8349999994663,6.894089e-06
719.8499999994663,1.109711e-05,719.8499999994663,2.012932e-05,719.8499999994663,1.036461e-05,719.8499999994663,6.965238e-06
719.8649999994662,1.100277e-05,719.8649999994662,2.000366e-05,719.8649999994662,8.736227e-06,719.8649999994662,7.067629e-06
719.8799999994662,1.088564e-05,719.8799999994662,1.976064e-05,719.8799999994662,8.095138e-06,719.8799999994662,7.041671e-06
719.8949999994662,1.043099e-05,719.8949999994662,1.977774e-05,719.8949999994662,8.122932e-06,719.8949999994662,6.999535e-06
719.9099999994662,1.030053e-05,719.9099999994662,1.953335e-05,719.9099999994662,7.29903e-06,719.9099999994662,7.168558e-06
719.9249999994662,1.056917e-05,719.9249999994662,1.929536e-05,719.9249999994662,7.41962e-06,719.9249999994662,6.959168e-06
719.9399999994662,1.065413e-05,719.9399999994662,1.907952e-05,719.9399999994662,7.350954e-06,719.9399999994662,7.111343e-06
719.9549999994662,1.067262e-05,719.9549999994662,1.916497e-05,719.9549999994662,7.14888e-06,719.9549999994662,7.115304e-06
719.9699999994662,1.078162e-05,719.9699999994662,1.893723e-05,719.9699999994662,6.844875e-06,719.9699999994662,7.035667e-06
719.9849999994661,1.017255e-05,719.9849999994661,1.983251e-05,719.9849999994661,7.083556e-06,719.9849999994661,6.985433e-06
719.9999999994661,9.954182e-06,719.9999999994661,1.951604e-05,719.9999999994661,7.442368e-06,719.9999999994661,6.718165e-06
720.0149999994661,1.014621e-05,720.0149999994661,1.841529e-05,720.0149999994661,7.733825e-06,720.0149999994661,6.633762e-06
720.0299999994661,1.088823e-05,720.0299999994661,1.826166e-05,720.0299999994661,8.635676e-06,720.0299999994661,6.787006e-06
720.0449999994661,1.102451e-05,720.0449999994661,1.866903e-05,720.0449999994661,8.66011e-06,720.0449999994661,6.749543e-06
720.0599999994661,1.108822e-05,720.0599999994661,1.817893e-05,720.0599999994661,8.648716e-06,720.0599999994661,6.75163e-06
720.0749999994661,9.537914e-06,720.0749999994661,1.791904e-05,720.0749999994661,9.051417e-06,720.0749999994661,6.543968e-06
720.089999999466,9.93435e-06,720.089999999466,1.766568e-05,720.089999999466,8.800488e-06,720.089999999466,6.48993e-06
720.104999999466,1.016285e-05,720.104999999466,1.673365e-05,720.104999999466,9.001478e-06,720.104999999466,6.380479e-06
720.119999999466,1.079337e-05,720.119999999466,1.671765e-05,720.119999999466,9.281926e-06,720.119999999466,6.16489e-06
720.134999999466,1.094501e-05,720.134999999466,1.70588e-05,720.134999999466,9.494987e-06,720.134999999466,6.148874e-06
720.149999999466,1.08714e-05,720.149999999466,1.672944e-05,720.149999999466,9.742488e-06,720.149999999466,5.967507e-06
720.164999999466,1.086881e-05,720.164999999466,1.700339e-05,720.164999999466,1.006816e-05,720.164999999466,6.070483e-06
720.179999999466,1.041071e-05,720.179999999466,1.679667e-05,720.179999999466,9.814517e-06,720.179999999466,5.995767e-06
720.194999999466,1.065942e-05,720.194999999466,1.651589e-05,720.194999999466,9.722225e-06,720.194999999466,5.984008e-06
720.2099999994659,1.076069e-05,720.2099999994659,1.652953e-05,720.2099999994659,9.838886e-06,720.2099999994659,5.972226e-06
720.2249999994659,1.044583e-05,720.2249999994659,1.617809e-05,720.2249999994659,1.028547e-05,720.2249999994659,5.934367e-06
720.2399999994659,1.044179e-05,720.2399999994659,1.615195e-05,720.2399999994659,1.005696e-05,720.2399999994659,6.021555e-06
720.2549999994659,1.013648e-05,720.2549999994659,1.627013e-05,720.2549999994659,1.003592e-05,720.2549999994659,6.287069e-06
720.2699999994659,1.033603e-05,720.2699999994659,1.677317e-05,720.2699999994659,9.298606e-06,720.2699999994659,6.284828e-06
720.2849999994659,9.339419e-06,720.2849999994659,1.636939e-05,720.2849999994659,1.010586e-05,720.2849999994659,6.178585e-06
720.2999999994659,9.38606e-06,720.2999999994659,1.559192e-05,720.2999999994659,1.354284e-05,720.2999999994659,6.233063e-06
720.3149999994658,9.164322e-06,720.3149999994658,1.622417e-05,720.3149999994658,1.417308e-05,720.3149999994658,6.205884e-06
720.3299999994658,8.806888e-06,720.3299999994658,1.639003e-05,720.3299999994658,1.518085e-05,720.3299999994658,6.174023e-06
720.3449999994658,7.872827e-06,720.3449999994658,1.670416e-05,720.3449999994658,1.598274e-05,720.3449999994658,6.174023e-06
720.3599999994658,7.242846e-06,720.3599999994658,1.702988e-05,720.3599999994658,1.59651e-05,720.3599999994658,6.11211e-06
720.3749999994658,6.435437e-06,720.3749999994658,3.394707e-05,720.3749999994658,1.62233e-05,720.3749999994658,6.217223e-06
720.3899999994658,6.353931e-06,720.3899999994658,3.554919e-05,720.3899999994658,1.595009e-05,720.3899999994658,6.415707e-06
720.4049999994658,6.42229e-06,720.4049999994658,3.698706e-05,720.4049999994658,1.591384e-05,720.4049999994658,6.439814e-06
720.4199999994657,6.848989e-06,720.4199999994657,3.669378e-05,720.4199999994657,1.642008e-05,720.4199999994657,6.496438e-06
720.4349999994657,6.762054e-06,720.4349999994657,3.686804e-05,720.4349999994657,1.893723e-05,720.4349999994657,6.446372e-06
720.4499999994657,6.16489e-06,720.4499999994657,3.728029e-05,720.4499999994657,1.979056e-05,720.4499999994657,6.349495e-06
720.4649999994657,6.141998e-06,720.4649999994657,3.740026e-05,720.4649999994657,2.160305e-05,720.4649999994657,6.280343e-06
720.4799999994657,6.100575e-06,720.4799999994657,4.299759e-05,720.4799999994657,2.559027e-05,720.4799999994657,6.132817e-06
720.4949999994657,5.920107e-06,720.4949999994657,4.484214e-05,720.4949999994657,3.11992e-05,720.4949999994657,6.322817e-06
720.5099999994657,5.819312e-06,720.5099999994657,5.092365e-05,720.5099999994657,3.368546e-05,720.5099999994657,6.028569e-06
720.5249999994656,5.706874e-06,720.5249999994656,5.160921e-05,720.5249999994656,4.039103e-05,720.5249999994656,6.19225e-06
720.5399999994656,6.08439e-06,720.5399999994656,5.247e-05,720.5399999994656,4.763962e-05,720.5399999994656,6.026232e-06
720.5549999994656,5.962784e-06,720.5549999994656,5.252582e-05,720.5549999994656,8.666841e-05,720.5549999994656,6.08439e-06
720.5699999994656,6.021555e-06,720.5699999994656,5.228767e-05,720.5699999994656,0.0001327354,720.5699999994656,6.098266e-06
720.5849999994656,6.158032e-06,720.5849999994656,5.227904e-05,720.5849999994656,0.0001349617,720.5849999994656,6.093644e-06
720.5999999994656,6.257873e-06,720.5999999994656,5.207954e-05,720.5999999994656,0.000158491,720.5999999994656,6.042573e-06
720.6149999994656,6.271365e-06,720.6149999994656,4.484183e-05,720.6149999994656,0.0001853944,720.6149999994656,6.05887e-06
720.6299999994656,6.302733e-06,720.6299999994656,5.33457e-05,720.6299999994656,0.0001922642,720.6299999994656,6.044903e-06
720.6449999994655,6.311667e-06,720.6449999994655,5.277918e-05,720.6449999994655,0.0001925395,720.6449999994655,5.969867e-06
720.6599999994655,6.539662e-06,720.6599999994655,5.846601e-05,720.6599999994655,0.0001944678,720.6599999994655,5.838645e-06
720.6749999994655,6.093644e-06,720.6749999994655,6.013455e-05,720.6749999994655,0.0001976207,720.6749999994655,5.833818e-06
720.6899999994655,6.098266e-06,720.6899999994655,6.422246e-05,720.6899999994655,0.0001980802,720.6899999994655,5.862722e-06
720.7049999994655,6.121322e-06,720.7049999994655,6.456438e-05,720.7049999994655,0.0001980341,720.7049999994655,5.955692e-06
720.7199999994655,6.047233e-06,720.7199999994655,6.278908e-05,720.7199999994655,0.0001978994,720.7199999994655,5.879517e-06
720.7349999994655,5.908198e-06,720.7349999994655,6.184715e-05,720.7349999994655,0.0001972319,720.7349999994655,5.814468e-06
720.7499999994654,5.910582e-06,720.7499999994654,5.734232e-05,720.7499999994654,0.0001967046,720.7499999994654,5.627332e-06
720.7649999994654,5.790191e-06,720.7649999994654,5.59462e-05,720.7649999994654,0.0001962382,720.7649999994654,5.48022e-06
720.7799999994654,5.363302e-06,720.7799999994654,5.56331e-05,720.7799999994654,0.0001937621,720.7799999994654,5.299891e-06
720.7949999994654,5.222243e-06,720.7949999994654,5.527773e-05,720.7949999994654,0.0001927384,720.7949999994654,5.405162e-06
720.8099999994654,5.176183e-06,720.8099999994654,5.533096e-05,720.8099999994654,0.0001654332,720.8099999994654,5.381656e-06
720.8249999994654,5.007424e-06,720.8249999994654,5.536736e-05,720.8249999994654,0.0001387853,720.8249999994654,5.358047e-06
720.8399999994654,4.956529e-06,720.8399999994654,5.546979e-05,720.8399999994654,0.0001367544,720.8399999994654,5.313164e-06
720.8549999994653,4.66971e-06,720.8549999994653,5.54736e-05,720.8549999994653,0.0001064867,720.8549999994653,5.376418e-06
720.8699999994653,4.52882e-06,720.8699999994653,5.579088e-05,720.8699999994653,6.047024e-05,720.8699999994653,5.197909e-06
720.8849999994653,4.497608e-06,720.8849999994653,4.494443e-05,720.8849999994653,5.137668e-05,720.8849999994653,5.206033e-06
720.8999999994653,4.155752e-06,720.8999999994653,4.310459e-05,720.8999999994653,5.10499e-05,720.8999999994653,5.052234e-06
720.9149999994653,3.893234e-06,720.9149999994653,3.542057e-05,720.9149999994653,4.393516e-05,720.9149999994653,4.982041e-06
720.9299999994653,4.083948e-06,720.9299999994653,3.316711e-05,720.9299999994653,4.098685e-05,720.9299999994653,5.162558e-06
720.9449999994653,4.045829e-06,720.9449999994653,2.350669e-05,720.9449999994653,4.219531e-05,720.9449999994653,5.143422e-06
720.9599999994653,4.035369e-06,720.9599999994653,2.11763e-05,720.9599999994653,4.222101e-05,720.9599999994653,5.024275e-06
720.9749999994652,4.148967e-06,720.9749999994652,1.828093e-05,720.9749999994652,4.29799e-05,720.9749999994652,4.956529e-06
720.9899999994652,4.354386e-06,720.9899999994652,1.810984e-05,720.9899999994652,4.404052e-05,720.9899999994652,4.893604e-06
721.0049999994652,4.305587e-06,721.0049999994652,1.807012e-05,721.0049999994652,4.421099e-05,721.0049999994652,4.976383e-06
721.0199999994652,4.282623e-06,721.0199999994652,1.699427e-05,721.0199999994652,4.407633e-05,721.0199999994652,5.029879e-06
721.0349999994652,4.428167e-06,721.0349999994652,1.518085e-05,721.0349999994652,4.389089e-05,721.0349999994652,5.041069e-06
721.0499999994652,4.762306e-06,721.0499999994652,1.510457e-05,721.0499999994652,4.252188e-05,721.0499999994652,4.984868e-06
721.0649999994652,5.032679e-06,721.0649999994652,1.50831e-05,721.0649999994652,4.185508e-05,721.0649999994652,4.939447e-06
721.0799999994651,5.168013e-06,721.0799999994651,1.45478e-05,721.0799999994651,4.095556e-05,721.0799999994651,4.950841e-06
721.0949999994651,5.181623e-06,721.0949999994651,1.42098e-05,721.0949999994651,4.025268e-05,721.0949999994651,4.910845e-06
721.1099999994651,5.241091e-06,721.1099999994651,1.416711e-05,721.1099999994651,4.05501e-05,721.1099999994651,4.83569e-06
721.1249999994651,5.428567e-06,721.1249999994651,1.241517e-05,721.1249999994651,3.86837e-05,721.1249999994651,4.882076e-06
721.1399999994651,5.459618e-06,721.1399999994651,1.180447e-05,721.1399999994651,3.684702e-05,721.1399999994651,4.81818e-06
721.1549999994651,5.733962e-06,721.1549999994651,1.163015e-05,721.1549999994651,3.664307e-05,721.1549999994651,4.844421e-06
721.1699999994651,5.594695e-06,721.1699999994651,1.156577e-05,721.1699999994651,3.210136e-05,721.1699999994651,4.821102e-06
721.184999999465,5.523745e-06,721.184999999465,1.152551e-05,721.184999999465,2.154886e-05,721.184999999465,4.386617e-06
721.199999999465,5.597212e-06,721.199999999465,1.171342e-05,721.199999999465,1.832788e-05,721.199999999465,4.347911e-06
721.214999999465,5.431162e-06,721.214999999465,1.136799e-05,721.214999999465,1.852131e-05,721.214999999465,4.373753e-06
721.229999999465,5.318464e-06,721.229999999465,1.0462e-05,721.229999999465,1.744179e-05,721.229999999465,4.485062e-06
721.244999999465,5.475077e-06,721.244999999465,1.073186e-05,721.244999999465,1.661114e-05,721.244999999465,4.602866e-06
721.259999999465,5.454455e-06,721.259999999465,1.093213e-05,721.259999999465,1.638831e-05,721.259999999465,4.547444e-06
721.274999999465,5.48279e-06,721.274999999465,1.000781e-05,721.274999999465,1.632113e-05,721.274999999465,4.578317e-06
721.289999999465,5.281253e-06,721.289999999465,9.924419e-06,721.289999999465,1.684691e-05,721.289999999465,4.415424e-06
721.3049999994649,4.936594e-06,721.3049999994649,9.420515e-06,721.3049999994649,1.89e-05,721.3049999994649,4.547444e-06
721.3199999994649,4.73561e-06,721.3199999994649,9.552672e-06,721.3199999994649,1.942633e-05,721.3199999994649,4.513241e-06
721.3349999994649,4.690778e-06,721.3349999994649,9.533483e-06,721.3349999994649,1.95888e-05,721.3349999994649,4.466178e-06
721.3499999994649,4.720713e-06,721.3499999994649,9.539391e-06,721.3499999994649,1.925224e-05,721.3499999994649,4.636408e-06
721.3649999994649,4.896482e-06,721.3649999994649,9.592404e-06,721.3649999994649,1.818745e-05,721.3649999994649,4.696781e-06
721.3799999994649,4.687774e-06,721.3799999994649,9.68448e-06,721.3799999994649,1.775159e-05,721.3799999994649,4.882076e-06
721.3949999994649,4.639445e-06,721.3949999994649,9.623194e-06,721.3949999994649,1.761538e-05,721.3949999994649,4.847328e-06
721.4099999994648,4.506994e-06,721.4099999994648,9.484596e-06,721.4099999994648,1.761777e-05,721.4099999994648,4.83569e-06
721.4249999994648,4.48192e-06,721.4249999994648,1.141622e-05,721.4249999994648,1.854032e-05,721.4249999994648,4.984868e-06
721.4399999994648,4.596741e-06,721.4399999994648,1.230805e-05,721.4399999994648,1.831481e-05,721.4399999994648,4.982041e-06
721.4549999994648,4.753424e-06,721.4549999994648,1.348029e-05,721.4549999994648,1.825317e-05,721.4549999994648,4.93374e-06
721.4699999994648,4.882076e-06,721.4699999994648,1.400611e-05,721.4699999994648,1.799435e-05,721.4699999994648,4.910845e-06
721.4849999994648,4.639445e-06,721.4849999994648,1.387272e-05,721.4849999994648,1.852207e-05,721.4849999994648,4.714741e-06
721.4999999994648,5.780451e-06,721.4999999994648,1.437734e-05,721.4999999994648,1.80436e-05,721.4999999994648,4.639445e-06
721.5149999994647,6.13052e-06,721.5149999994647,1.462891e-05,721.5149999994647,1.713954e-05,721.5149999994647,4.612038e-06
721.5299999994647,6.776621e-06,721.5299999994647,1.458165e-05,721.5299999994647,1.705467e-05,721.5299999994647,4.544346e-06
721.5449999994647,7.194059e-06,721.5449999994647,1.467889e-05,721.5449999994647,1.621549e-05,721.5449999994647,4.488202e-06
721.5599999994647,7.413922e-06,721.5599999994647,1.472106e-05,721.5599999994647,1.394968e-05,721.5599999994647,4.4218e-06
721.5749999994647,8.485937e-06,721.5749999994647,1.494235e-05,721.5749999994647,1.269788e-05,721.5749999994647,4.393035e-06
721.5899999994647,8.561957e-06,721.5899999994647,1.489703e-05,721.5899999994647,1.280064e-05,721.5899999994647,4.559819e-06
721.6049999994647,8.51411e-06,721.6049999994647,1.483069e-05,721.6049999994647,1.332156e-05,721.6049999994647,4.31539e-06
721.6199999994647,8.519072e-06,721.6199999994647,1.485158e-05,721.6199999994647,1.350743e-05,721.6199999994647,4.223002e-06
721.6349999994646,9.004607e-06,721.6349999994646,1.505506e-05,721.6349999994646,1.361753e-05,721.6349999994646,3.982663e-06
721.6499999994646,9.599744e-06,721.6499999994646,1.497625e-05,721.6499999994646,1.366297e-05,721.6499999994646,3.8751e-06
721.6649999994646,9.803028e-06,721.6649999994646,1.493953e-05,721.6649999994646,1.35574e-05,721.6649999994646,3.885991e-06
721.6799999994646,9.91874e-06,721.6799999994646,1.295487e-05,721.6799999994646,1.42662e-05,721.6799999994646,3.856882e-06
721.6949999994646,9.88887e-06,721.6949999994646,1.171944e-05,721.6949999994646,1.44282e-05,721.6949999994646,3.939991e-06
721.7099999994646,9.754049e-06,721.7099999994646,1.046739e-05,721.7099999994646,1.491971e-05,721.7099999994646,4.11145e-06
721.7249999994646,9.901682e-06,721.7249999994646,1.076855e-05,721.7249999994646,1.475928e-05,721.7249999994646,4.162526e-06
721.7399999994645,9.838886e-06,721.7399999994645,1.104621e-05,721.7399999994645,1.417606e-05,721.7399999994645,4.216325e-06
721.7549999994645,9.380055e-06,721.7549999994645,1.05251e-05,721.7549999994645,1.395876e-05,721.7549999994645,4.186148e-06
721.7699999994645,9.224075e-06,721.7699999994645,1.070952e-05,721.7699999994645,1.381268e-05,721.7699999994645,4.256228e-06
721.7849999994645,8.575109e-06,721.7849999994645,1.069767e-05,721.7849999994645,1.474401e-05,721.7849999994645,4.229668e-06
721.7999999994645,8.68934e-06,721.7999999994645,1.327814e-05,721.7999999994645,1.525859e-05,721.7999999994645,4.370531e-06
721.8149999994645,9.059196e-06,721.8149999994645,1.49866e-05,721.8149999994645,1.683939e-05,721.8149999994645,4.4377e-06
721.8299999994645,8.819675e-06,721.8299999994645,1.479265e-05,721.8299999994645,2.275828e-05,721.8299999994645,4.334932e-06
721.8449999994644,9.156633e-06,721.8449999994644,1.534146e-05,721.8449999994644,2.339977e-05,721.8449999994644,4.249604e-06
721.8599999994644,9.280408e-06,721.8599999994644,1.730069e-05,721.8599999994644,3.204119e-05,721.8599999994644,4.252917e-06
721.8749999994644,1.001626e-05,721.8749999994644,1.772777e-05,721.8749999994644,5.488157e-05,721.8749999994644,4.219664e-06
721.8899999994644,1.009471e-05,721.8899999994644,1.953119e-05,721.8899999994644,7.324884e-05,721.8899999994644,4.370531e-06
721.9049999994644,9.649507e-06,721.9049999994644,2.004587e-05,721.9049999994644,8.13217e-05,721.9049999994644,4.605925e-06
721.9199999994644,1.005416e-05,721.9199999994644,2.000999e-05,721.9199999994644,8.078537e-05,721.9199999994644,4.485062e-06
721.9349999994644,1.02553e-05,721.9349999994644,2.041836e-05,721.9349999994644,0.0001348958,721.9349999994644,4.497608e-06
721.9499999994644,1.047546e-05,721.9499999994644,2.028477e-05,721.9499999994644,0.0002012915,721.9499999994644,4.463023e-06
721.9649999994643,1.068054e-05,721.9649999994643,2.092333e-05,721.9649999994643,0.0002052859,721.9649999994643,4.472482e-06
721.9799999994643,1.075415e-05,721.9799999994643,2.196069e-05,721.9799999994643,0.0002142846,721.9799999994643,4.370531e-06
721.9949999994643,1.086103e-05,721.9949999994643,2.248553e-05,721.9949999994643,0.000216928,721.9949999994643,4.318654e-06
722.0099999994643,1.127217e-05,722.0099999994643,4.172025e-05,722.0099999994643,0.0002172001,722.0099999994643,4.31539e-06
722.0249999994643,1.152796e-05,722.0249999994643,4.962181e-05,722.0249999994643,0.0002175384,722.0249999994643,4.17604e-06
722.0399999994643,1.160104e-05,722.0399999994643,5.047492e-05,722.0399999994643,0.0002198674,722.0399999994643,4.114875e-06
722.0549999994643,1.149982e-05,722.0549999994643,5.574263e-05,722.0549999994643,0.0002219057,722.0549999994643,4.0632e-06
722.0699999994642,1.090633e-05,722.0699999994642,5.576158e-05,722.0699999994642,0.0002218591,722.0699999994642,3.986198e-06
722.0849999994642,1.040124e-05,722.0849999994642,5.627107e-05,722.0849999994642,0.0002213513,722.0849999994642,3.900464e-06
722.0999999994642,1.011422e-05,722.0999999994642,5.641408e-05,722.0999999994642,0.0002216945,722.0999999994642,3.986198e-06
722.1149999994642,1.007934e-05,722.1149999994642,5.562246e-05,722.1149999994642,0.0002198698,722.1149999994642,4.01437e-06
722.1299999994642,8.78607e-06,722.1299999994642,5.574566e-05,722.1299999994642,0.0002137151,722.1299999994642,4.20294e-06
722.1449999994642,8.634045e-06,722.1449999994642,5.521602e-05,722.1449999994642,0.0002073772,722.1449999994642,4.000309e-06
722.1599999994642,8.314893e-06,722.1599999994642,5.523847e-05,722.1599999994642,0.0002033425,722.1599999994642,3.867824e-06
722.1749999994641,7.795508e-06,722.1749999994641,5.515221e-05,722.1749999994641,0.0002026558,722.1749999994641,3.91848e-06
722.1899999994641,7.555081e-06,722.1899999994641,5.511822e-05,722.1899999994641,0.0001468385,722.1899999994641,4.135364e-06
722.2049999994641,7.333686e-06,722.2049999994641,5.500899e-05,722.2049999994641,8.203519e-05,722.2049999994641,4.031877e-06
722.2199999994641,6.918566e-06,722.2199999994641,5.484639e-05,722.2199999994641,7.621926e-05,722.2199999994641,4.128545e-06
722.2349999994641,6.716067e-06,722.2349999994641,5.431758e-05,722.2349999994641,5.641008e-05,722.2349999994641,3.996786e-06
722.2499999994641,6.614623e-06,722.2499999994641,4.237687e-05,722.2499999994641,5.403912e-05,722.2499999994641,4.077044e-06
722.2649999994641,5.704405e-06,722.2649999994641,4.172632e-05,722.2649999994641,5.277384e-05,722.2649999994641,4.142171e-06
722.279999999464,5.487926e-06,722.279999999464,3.353962e-05,722.279999999464,5.159583e-05,722.279999999464,4.131956e-06
722.294999999464,5.948592e-06,722.294999999464,3.557454e-05,722.294999999464,4.007416e-05,722.294999999464,4.101159e-06
722.309999999464,7.037669e-06,722.309999999464,2.677445e-05,722.309999999464,3.009654e-05,722.309999999464,4.131956e-06
722.324999999464,7.00959e-06,722.324999999464,2.657749e-05,722.324999999464,3.01578e-05,722.324999999464,4.236323e-06
722.339999999464,7.172487e-06,722.339999999464,2.563976e-05,722.339999999464,3.015966e-05,722.339999999464,4.289197e-06
722.354999999464,7.1823e-06,722.354999999464,2.550425e-05,722.354999999464,2.819518e-05,722.354999999464,4.242968e-06
722.369999999464,6.999535e-06,722.369999999464,2.549983e-05,722.369999999464,2.783212e-05,722.369999999464,4.045829e-06
722.384999999464,7.349037e-06,722.384999999464,2.542514e-05,722.384999999464,2.708933e-05,722.384999999464,4.01437e-06
722.399999999464,7.59599e-06,722.399999999464,2.531131e-05,722.399999999464,2.588037e-05,722.399999999464,3.932833e-06
722.4149999994639,7.885342e-06,722.4149999994639,2.544619e-05,722.4149999994639,2.581061e-05,722.4149999994639,3.871464e-06
722.4299999994639,7.913874e-06,722.4299999994639,2.590431e-05,722.4299999994639,2.411661e-05,722.4299999994639,3.707911e-06
722.4449999994639,8.107309e-06,722.4449999994639,2.583134e-05,722.4449999994639,2.083631e-05,722.4449999994639,3.584279e-06
722.4599999994639,8.082948e-06,722.4599999994639,2.587928e-05,722.4599999994639,2.051884e-05,722.4599999994639,3.398688e-06
722.4749999994639,8.1264e-06,722.4749999994639,2.597165e-05,722.4749999994639,1.976206e-05,722.4749999994639,3.319004e-06
722.4899999994639,7.993573e-06,722.4899999994639,2.592986e-05,722.4899999994639,1.856461e-05,722.4899999994639,3.327482e-06
722.5049999994638,7.938755e-06,722.5049999994638,2.61947e-05,722.5049999994638,1.819442e-05,722.5049999994638,3.40283e-06
722.5199999994638,7.997096e-06,722.5199999994638,2.051197e-05,722.5199999994638,1.643295e-05,722.5199999994638,3.331712e-06
722.5349999994638,8.016449e-06,722.5349999994638,1.889106e-05,722.5349999994638,1.458165e-05,722.5349999994638,3.394541e-06
722.5499999994638,6.569749e-06,722.5499999994638,1.486864e-05,722.5499999994638,1.393351e-05,722.5499999994638,3.377901e-06
722.5649999994638,6.426676e-06,722.5649999994638,1.459806e-05,722.5649999994638,1.294182e-05,722.5649999994638,3.373728e-06
722.5799999994638,6.505105e-06,722.5799999994638,1.43793e-05,722.5799999994638,1.072792e-05,722.5799999994638,3.373728e-06
722.5949999994638,6.737009e-06,722.5949999994638,1.345414e-05,722.5949999994638,9.049861e-06,722.5949999994638,3.24605e-06
722.6099999994638,6.778699e-06,722.6099999994638,1.349909e-05,722.6099999994638,8.979542e-06,722.6099999994638,3.233005e-06
722.6249999994637,6.869526e-06,722.6249999994637,1.335536e-05,722.6249999994637,8.930779e-06,722.6249999994637,3.323245e-06
722.6399999994637,6.755802e-06,722.6399999994637,1.314379e-05,722.6399999994637,8.927624e-06,722.6399999994637,3.356985e-06
722.6549999994637,6.500773e-06,722.6549999994637,1.324308e-05,722.6549999994637,8.741063e-06,722.6549999994637,3.319004e-06
722.6699999994637,6.360578e-06,722.6699999994637,1.237995e-05,722.6699999994637,7.691819e-06,722.6699999994637,3.254718e-06
722.6849999994637,5.991066e-06,722.6849999994637,1.18806e-05,722.6849999994637,6.612493e-06,722.6849999994637,3.348582e-06
722.6999999994637,5.93674e-06,722.6999999994637,1.183188e-05,722.6999999994637,6.428867e-06,722.6999999994637,3.344373e-06
722.7149999994637,5.901041e-06,722.7149999994637,1.160104e-05,722.7149999994637,6.494269e-06,722.7149999994637,3.327482e-06
722.7299999994636,6.228541e-06,722.7299999994636,1.142978e-05,722.7299999994636,6.713969e-06,722.7299999994636,3.323245e-06
722.7449999994636,6.618881e-06,722.7449999994636,1.029916e-05,722.7449999994636,6.291548e-06,722.7449999994636,3.241707e-06
722.7599999994636,6.448557e-06,722.7599999994636,1.022779e-05,722.7599999994636,6.446372e-06,722.7599999994636,3.158065e-06
722.7749999994636,6.158032e-06,722.7749999994636,8.705536e-06,722.7749999994636,6.214957e-06,722.7749999994636,3.197958e-06
722.7899999994636,6.028569e-06,722.7899999994636,8.957552e-06,722.7899999994636,6.743279e-06,722.7899999994636,3.237359e-06
722.8049999994636,6.079758e-06,722.8049999994636,2.724592e-05,722.8049999994636,6.755802e-06,722.8049999994636,3.171418e-06
722.8199999994636,5.874723e-06,722.8199999994636,3.084912e-05,722.8199999994636,6.778699e-06,722.8199999994636,3.11314e-06
722.8349999994635,5.824151e-06,722.8349999994635,3.380694e-05,722.8349999994635,6.603967e-06,722.8349999994635,2.979029e-06
722.8499999994635,5.644828e-06,722.8499999994635,3.40105e-05,722.8499999994635,6.415707e-06,722.8499999994635,3.002579e-06
722.8649999994635,5.694519e-06,722.8649999994635,3.447617e-05,722.8649999994635,6.652846e-06,722.8649999994635,3.044509e-06
722.8799999994635,5.329048e-06,722.8799999994635,3.466727e-05,722.8799999994635,7.594135e-06,722.8799999994635,3.011947e-06
722.8949999994635,5.135199e-06,722.8949999994635,3.725383e-05,722.8949999994635,8.451005e-06,722.8949999994635,3.094987e-06
722.9099999994635,5.299891e-06,722.9099999994635,4.315946e-05,722.9099999994635,9.481625e-06,722.9099999994635,3.131187e-06
722.9249999994635,5.321112e-06,722.9249999994635,4.669348e-05,722.9249999994635,1.124214e-05,722.9249999994635,3.140172e-06
722.9399999994635,5.238403e-06,722.9399999994635,5.325267e-05,722.9399999994635,1.344576e-05,722.9399999994635,3.122176e-06
722.9549999994634,5.230329e-06,722.9549999994634,5.480374e-05,722.9549999994634,1.834554e-05,722.9549999994634,3.250386e-06
722.9699999994634,5.297233e-06,722.9699999994634,5.596784e-05,722.9699999994634,1.957658e-05,722.9699999994634,3.237359e-06
722.9849999994634,4.645514e-06,722.9849999994634,5.598017e-05,722.9849999994634,1.977489e-05,722.9849999994634,3.267676e-06
722.9999999994634,4.581393e-06,722.9999999994634,5.603903e-05,722.9999999994634,2.027922e-05,722.9999999994634,3.468433e-06
723.0149999994634,4.741556e-06,723.0149999994634,6.924e-05,723.0149999994634,2.373213e-05,723.0149999994634,3.504795e-06
723.0299999994634,4.771172e-06,723.0299999994634,7.216776e-05,723.0299999994634,2.715114e-05,723.0299999994634,3.356985e-06
723.0449999994634,4.720713e-06,723.0449999994634,7.106785e-05,723.0449999994634,4.511774e-05,723.0449999994634,3.377901e-06
723.0599999994633,4.605925e-06,723.0599999994633,6.991198e-05,723.0599999994633,9.077416e-05,723.0599999994633,3.427579e-06
723.0749999994633,4.538142e-06,723.0749999994633,6.895969e-05,723.0749999994633,0.0001454365,723.0749999994633,3.688867e-06
723.0899999994633,4.497608e-06,723.0899999994633,6.894927e-05,723.0899999994633,0.0001495196,723.0899999994633,3.654337e-06
723.1049999994633,4.666692e-06,723.1049999994633,6.926603e-05,723.1049999994633,0.0001589297,723.1049999994633,3.685046e-06
723.1199999994633,4.741556e-06,723.1199999994633,6.919848e-05,723.1199999994633,0.0001914767,723.1199999994633,3.749468e-06
723.1349999994633,4.687774e-06,723.1349999994633,6.924061e-05,723.1349999994633,0.0002177362,723.1349999994633,3.67356e-06
723.1499999994633,4.550541e-06,723.1499999994633,6.574571e-05,723.1499999994633,0.0002235843,723.1499999994633,3.730636e-06
723.1649999994632,4.412233e-06,723.1649999994632,6.499169e-05,723.1649999994632,0.0002239241,723.1649999994632,3.749468e-06
723.1799999994632,4.48192e-06,723.1799999994632,6.166741e-05,723.1799999994632,0.0002256388,723.1799999994632,3.638885e-06
723.1949999994632,4.459865e-06,723.1949999994632,5.951906e-05,723.1949999994632,0.0002292223,723.1949999994632,3.658189e-06
723.2099999994632,4.73561e-06,723.2099999994632,5.804235e-05,723.2099999994632,0.0002300744,723.2099999994632,3.662038e-06
723.2249999994632,4.744526e-06,723.2249999994632,5.778623e-05,723.2249999994632,0.0002300712,723.2249999994632,3.719291e-06
723.2399999994632,4.651575e-06,723.2399999994632,5.798457e-05,723.2399999994632,0.0002300291,723.2399999994632,3.599965e-06
723.2549999994632,4.699779e-06,723.2549999994632,4.809986e-05,723.2549999994632,0.000229983,723.2549999994632,3.516832e-06
723.2699999994632,4.714741e-06,723.2699999994632,3.693561e-05,723.2699999994632,0.0002290283,723.2699999994632,3.677393e-06
723.2849999994631,4.800605e-06,723.2849999994631,3.608525e-05,723.2849999994631,0.0002288803,723.2849999994631,3.588207e-06
723.2999999994631,4.861837e-06,723.2999999994631,3.100989e-05,723.2999999994631,0.0002244736,723.2999999994631,3.619477e-06
723.3149999994631,4.856038e-06,723.3149999994631,2.919998e-05,723.3149999994631,0.0002003775,723.3149999994631,3.427579e-06
723.3299999994631,4.902232e-06,723.3299999994631,2.807652e-05,723.3299999994631,0.0001657142,723.3299999994631,3.377901e-06
723.3449999994631,4.803539e-06,723.3449999994631,2.563921e-05,723.3449999994631,0.0001632729,723.3449999994631,3.348582e-06
723.3599999994631,4.853136e-06,723.3599999994631,2.537579e-05,723.3599999994631,0.0001544035,723.3599999994631,3.184716e-06
723.3749999994631,4.896482e-06,723.3749999994631,2.520535e-05,723.3749999994631,0.0001130166,723.3749999994631,3.263362e-06
723.389999999463,4.861837e-06,723.389999999463,2.501911e-05,723.389999999463,7.006856e-05,723.389999999463,3.135683e-06
723.404999999463,4.945147e-06,723.404999999463,2.085793e-05,723.404999999463,5.284773e-05,723.404999999463,3.171418e-06
723.419999999463,4.996159e-06,723.419999999463,2.059969e-05,723.419999999463,5.183553e-05,723.419999999463,3.171418e-06
723.434999999463,5.307859e-06,723.434999999463,1.715761e-05,723.434999999463,4.446263e-05,723.434999999463,3.241707e-06
723.449999999463,6.476893e-06,723.449999999463,1.365369e-05,723.449999999463,3.30582e-05,723.449999999463,3.149131e-06
723.464999999463,6.457289e-06,723.464999999463,1.303509e-05,723.464999999463,2.982337e-05,723.464999999463,3.394541e-06
723.479999999463,6.543968e-06,723.479999999463,1.191493e-05,723.479999999463,3.007126e-05,723.479999999463,3.382069e-06
723.494999999463,6.75163e-06,723.494999999463,1.2134e-05,723.494999999463,3.083496e-05,723.494999999463,3.57641e-06
723.5099999994629,7.029658e-06,723.5099999994629,1.224379e-05,723.5099999994629,3.237794e-05,723.5099999994629,4.059732e-06
723.5249999994629,6.938897e-06,723.5249999994629,1.213168e-05,723.5249999994629,3.124206e-05,723.5249999994629,3.92925e-06
723.5399999994629,6.936866e-06,723.5399999994629,1.011283e-05,723.5399999994629,2.912414e-05,723.5399999994629,3.932833e-06
723.5549999994629,7.089519e-06,723.5549999994629,1.012118e-05,723.5549999994629,2.796542e-05,723.5549999994629,4.01437e-06
723.5699999994629,7.680822e-06,723.5699999994629,1.001766e-05,723.5699999994629,2.750373e-05,723.5699999994629,4.010859e-06
723.5849999994629,7.90675e-06,723.5849999994629,1.111233e-05,723.5849999994629,2.766561e-05,723.5849999994629,4.003829e-06
723.5999999994629,7.896054e-06,723.5999999994629,1.143841e-05,723.5999999994629,2.649201e-05,723.5999999994629,4.045829e-06
723.6149999994628,7.851327e-06,723.6149999994628,1.232407e-05,723.6149999994628,2.513987e-05,723.6149999994628,4.024883e-06
723.6299999994628,7.856707e-06,723.6299999994628,1.250111e-05,723.6299999994628,2.452265e-05,723.6299999994628,4.077044e-06
723.6449999994628,7.887128e-06,723.6449999994628,1.277861e-05,723.6449999994628,2.52154e-05,723.6449999994628,4.121716e-06
723.6599999994628,7.915653e-06,723.6599999994628,1.276648e-05,723.6599999994628,2.474795e-05,723.6599999994628,4.125132e-06
723.6749999994628,7.954708e-06,723.6749999994628,1.286212e-05,723.6749999994628,2.439422e-05,723.6749999994628,4.125132e-06
723.6899999994628,7.061647e-06,723.6899999994628,1.277751e-05,723.6899999994628,2.480764e-05,723.6899999994628,4.094283e-06
723.7049999994628,6.834577e-06,723.7049999994628,1.262668e-05,723.7049999994628,2.414172e-05,723.7049999994628,4.073587e-06
723.7199999994627,6.608231e-06,723.7199999994627,1.261664e-05,723.7199999994627,2.41096e-05,723.7199999994627,3.996786e-06
723.7349999994627,6.459471e-06,723.7349999994627,1.274328e-05,723.7349999994627,2.427381e-05,723.7349999994627,4.052786e-06
723.7499999994627,6.148874e-06,723.7499999994627,1.210727e-05,723.7499999994627,2.520367e-05,723.7499999994627,3.786851e-06
723.7649999994627,5.833818e-06,723.7649999994627,1.186755e-05,723.7649999994627,2.799613e-05,723.7649999994627,3.488681e-06
723.7799999994627,5.901041e-06,723.7799999994627,1.191611e-05,723.7799999994627,3.5703e-05,723.7799999994627,3.500774e-06
723.7949999994627,5.931993e-06,723.7949999994627,1.189837e-05,723.7949999994627,3.985916e-05,723.7949999994627,3.540784e-06
723.8099999994627,5.836232e-06,723.8099999994627,1.162045e-05,723.8099999994627,4.053585e-05,723.8099999994627,3.532818e-06
723.8249999994626,4.82986e-06,723.8249999994626,1.160468e-05,723.8249999994626,4.33555e-05,723.8249999994626,3.556662e-06
723.8399999994626,4.68176e-06,723.8399999994626,1.044179e-05,723.8399999994626,4.318556e-05,723.8399999994626,3.484641e-06
723.8549999994626,4.965048e-06,723.8549999994626,9.847473e-06,723.8549999994626,4.303197e-05,723.8549999994626,3.452149e-06
723.8699999994626,5.102175e-06,723.8699999994626,8.91973e-06,723.8699999994626,4.452152e-05,723.8699999994626,3.419349e-06
723.8849999994626,5.154366e-06,723.8849999994626,9.040516e-06,723.8849999994626,5.570598e-05,723.8849999994626,3.435788e-06
723.8999999994626,5.371176e-06,723.8999999994626,8.686096e-06,723.8999999994626,6.675738e-05,723.8999999994626,3.340158e-06
723.9149999994626,5.738873e-06,723.9149999994626,8.637307e-06,723.9149999994626,7.199813e-05,723.9149999994626,3.520835e-06
723.9299999994626,6.054217e-06,723.9299999994626,8.55208e-06,723.9299999994626,7.24339e-05,723.9299999994626,3.520835e-06
723.9449999994625,6.026232e-06,723.9449999994625,8.568535e-06,723.9449999994625,7.435892e-05,723.9449999994625,3.57641e-06
723.9599999994625,6.079758e-06,723.9599999994625,8.286042e-06,723.9599999994625,8.694299e-05,723.9599999994625,3.635012e-06
723.9749999994625,6.260124e-06,723.9749999994625,8.415928e-06,723.9749999994625,0.0001054231,723.9749999994625,3.564574e-06
723.9899999994625,6.437625e-06,723.9899999994625,8.372296e-06,723.9899999994625,0.000112378,723.9899999994625,3.524834e-06
724.0049999994625,7.279705e-06,724.0049999994625,7.854914e-06,724.0049999994625,0.0001128806,724.0049999994625,3.484641e-06
724.0199999994625,7.434793e-06,724.0199999994625,7.845942e-06,724.0199999994625,0.0001146006,724.0199999994625,3.631134e-06
724.0349999994625,7.337527e-06,724.0349999994625,7.762914e-06,724.0349999994625,0.0001170972,724.0349999994625,3.749468e-06
724.0499999994624,7.379642e-06,724.0499999994624,7.96002e-06,724.0499999994624,0.0001171233,724.0499999994624,3.764466e-06
724.0649999994624,7.391086e-06,724.0649999994624,8.016449e-06,724.0649999994624,0.0001169025,724.0649999994624,3.756974e-06
724.0799999994624,7.474476e-06,724.0799999994624,7.793701e-06,724.0799999994624,0.0001162574,724.0799999994624,3.753223e-06
724.0949999994624,8.03926e-06,724.0949999994624,7.897837e-06,724.0949999994624,0.0001162837,724.0949999994624,3.809105e-06
724.1099999994624,8.663363e-06,724.1099999994624,7.878193e-06,724.1099999994624,0.0001161064,724.1099999994624,3.83123e-06
724.1249999994624,8.957552e-06,724.1249999994624,7.741108e-06,724.1249999994624,0.0001155601,724.1249999994624,3.775675e-06
724.1399999994624,8.973265e-06,724.1399999994624,8.794083e-06,724.1399999994624,0.0001098982,724.1399999994624,3.753223e-06
724.1549999994623,8.995216e-06,724.1549999994623,1.03333e-05,724.1549999994623,0.0001025913,724.1549999994623,3.615583e-06
724.1699999994623,9.105725e-06,724.1699999994623,1.186399e-05,724.1699999994623,9.82486e-05,724.1699999994623,3.572469e-06
724.1849999994623,9.456335e-06,724.1849999994623,1.270786e-05,724.1849999994623,9.788576e-05,724.1849999994623,3.572469e-06
724.1999999994623,9.881745e-06,724.1999999994623,1.352203e-05,724.1999999994623,9.669719e-05,724.1999999994623,3.468433e-06
724.2149999994623,9.992318e-06,724.2149999994623,1.448083e-05,724.2149999994623,8.314571e-05,724.2149999994623,3.4111e-06
724.2299999994623,9.990908e-06,724.2299999994623,1.466353e-05,724.2299999994623,6.059334e-05,724.2299999994623,3.314757e-06
724.2449999994623,9.790087e-06,724.2449999994623,1.489325e-05,724.2449999994623,4.760679e-05,724.2449999994623,3.373728e-06
724.2599999994623,1.118309e-05,724.2599999994623,1.490649e-05,724.2599999994623,4.702985e-05,724.2599999994623,3.390388e-06
724.2749999994622,1.147775e-05,724.2749999994622,1.506815e-05,724.2749999994622,4.265353e-05,724.2749999994622,3.058359e-06
724.2899999994622,1.151695e-05,724.2899999994622,1.513066e-05,724.2899999994622,3.121996e-05,724.2899999994622,2.988471e-06
724.3049999994622,1.151328e-05,724.3049999994622,1.651162e-05,724.3049999994622,2.980163e-05,724.3049999994622,3.044509e-06
724.3199999994622,1.184021e-05,724.3199999994622,1.698349e-05,724.3199999994622,3.144072e-05,724.3199999994622,3.053749e-06
724.3349999994622,1.192084e-05,724.3349999994622,1.980052e-05,724.3349999994622,3.677891e-05,724.3349999994622,3.085871e-06
724.3499999994622,1.18806e-05,724.3499999994622,1.992958e-05,724.3499999994622,3.794061e-05,724.3499999994622,3.099535e-06
724.3649999994622,1.309762e-05,724.3649999994622,1.994865e-05,724.3649999994622,3.749393e-05,724.3649999994622,3.171418e-06
724.3799999994621,1.29766e-05,724.3799999994621,2.127849e-05,724.3799999994621,3.417989e-05,724.3799999994621,3.224279e-06
724.3949999994621,1.290476e-05,724.3949999994621,2.171427e-05,724.3949999994621,3.29468e-05,724.3949999994621,3.215529e-06
724.4099999994621,1.287963e-05,724.4099999994621,2.299902e-05,724.4099999994621,3.547937e-05,724.4099999994621,3.197958e-06
724.4249999994621,1.303617e-05,724.4249999994621,2.272111e-05,724.4249999994621,3.687683e-05,724.4249999994621,3.175857e-06
724.4399999994621,1.308471e-05,724.4399999994621,2.29837e-05,724.4399999994621,3.627835e-05,724.4399999994621,3.153601e-06
724.4549999994621,1.333319e-05,724.4549999994621,2.260301e-05,724.4549999994621,3.90923e-05,724.4549999994621,3.171418e-06
724.4699999994621,1.355324e-05,724.4699999994621,2.261111e-05,724.4699999994621,4.592755e-05,724.4699999994621,3.171418e-06
724.484999999462,1.376466e-05,724.484999999462,6.046581e-05,724.484999999462,4.70571e-05,724.484999999462,3.039879e-06
724.499999999462,1.343947e-05,724.499999999462,6.982831e-05,724.499999999462,7.80091e-05,724.499999999462,2.955291e-06
724.514999999462,1.249998e-05,724.514999999462,7.986432e-05,724.514999999462,0.0001147179,724.514999999462,3.021286e-06
724.529999999462,1.265677e-05,724.529999999462,8.877368e-05,724.529999999462,0.0001183979,724.529999999462,2.997883e-06
724.544999999462,1.440768e-05,724.544999999462,9.212278e-05,724.544999999462,0.0001330745,724.544999999462,2.988471e-06
724.559999999462,1.477645e-05,724.559999999462,9.282321e-05,724.559999999462,0.0001439683,724.559999999462,2.878015e-06
724.574999999462,1.469136e-05,724.574999999462,9.285204e-05,724.574999999462,0.0001440191,724.574999999462,2.788521e-06
724.589999999462,1.441746e-05,724.589999999462,9.253853e-05,724.589999999462,0.0001432799,724.589999999462,2.838588e-06
724.6049999994619,1.361753e-05,724.6049999994619,9.279923e-05,724.6049999994619,0.0001433953,724.6049999994619,2.773325e-06
724.6199999994619,1.326009e-05,724.6199999994619,9.290452e-05,724.6199999994619,0.0001435023,724.6199999994619,2.680338e-06
724.6349999994619,1.409034e-05,724.6349999994619,9.248554e-05,724.6349999994619,0.000143383,724.6349999994619,2.74781e-06
724.6499999994619,1.421476e-05,724.6499999994619,9.228305e-05,724.6499999994619,0.0001432858,724.6499999994619,2.773325e-06
724.6649999994619,1.406332e-05,724.6649999994619,9.603427e-05,724.6649999994619,0.0001428601,724.6649999994619,2.833621e-06
724.6799999994619,1.350013e-05,724.6799999994619,9.775615e-05,724.6799999994619,0.0001428624,724.6799999994619,2.916909e-06
724.6949999994619,1.322499e-05,724.6949999994619,9.833244e-05,724.6949999994619,0.0001421508,724.6949999994619,3.044509e-06
724.7099999994618,1.273554e-05,724.7099999994618,9.834218e-05,724.7099999994618,0.0001405212,724.7099999994618,3.11314e-06
724.7249999994618,1.300155e-05,724.7249999994618,9.285886e-05,724.7249999994618,0.0001378662,724.7249999994618,3.197958e-06
724.7399999994618,1.299613e-05,724.7399999994618,7.847827e-05,724.7399999994618,0.0001375721,724.7399999994618,3.202359e-06
724.7549999994618,1.280174e-05,724.7549999994618,6.849894e-05,724.7549999994618,0.0001123016,724.7549999994618,3.237359e-06
724.7699999994618,1.274992e-05,724.7699999994618,5.947242e-05,724.7699999994618,8.05491e-05,724.7699999994618,3.419349e-06
724.7849999994618,1.287963e-05,724.7849999994618,4.181468e-05,724.7849999994618,7.756179e-05,724.7849999994618,3.439886e-06
724.7999999994618,1.063958e-05,724.7999999994618,4.041125e-05,724.7999999994618,5.068241e-05,724.7999999994618,3.54476e-06
724.8149999994617,1.076724e-05,724.8149999994617,3.832443e-05,724.8149999994617,2.763504e-05,724.8149999994617,3.564574e-06
724.8299999994617,1.118435e-05,724.8299999994617,3.821585e-05,724.8299999994617,2.687266e-05,724.8299999994617,3.642754e-06
724.8449999994617,1.122082e-05,724.8449999994617,3.744016e-05,724.8449999994617,2.609556e-05,724.8449999994617,3.700305e-06
724.8599999994617,1.109203e-05,724.8599999994617,4.527078e-05,724.8599999994617,2.556714e-05,724.8599999994617,3.73818e-06
724.8749999994617,1.012397e-05,724.8749999994617,4.830006e-05,724.8749999994617,2.437573e-05,724.8749999994617,3.726858e-06
724.8899999994617,9.322813e-06,724.8899999994617,5.11742e-05,724.8899999994617,2.382099e-05,724.8899999994617,3.726858e-06
724.9049999994617,9.820256e-06,724.9049999994617,4.572221e-05,724.9049999994617,2.359999e-05,724.9049999994617,3.723076e-06
724.9199999994617,1.02553e-05,724.9199999994617,4.188066e-05,724.9199999994617,2.314068e-05,724.9199999994617,3.654337e-06
724.9349999994616,1.061837e-05,724.9349999994616,3.897465e-05,724.9349999994616,2.321726e-05,724.9349999994616,3.642754e-06
724.9499999994616,1.040395e-05,724.9499999994616,3.828288e-05,724.9499999994616,2.387593e-05,724.9499999994616,3.540784e-06
724.9649999994616,1.044853e-05,724.9649999994616,3.828508e-05,724.9649999994616,2.419534e-05,724.9649999994616,3.512824e-06
724.9799999994616,9.891719e-06,724.9799999994616,3.840448e-05,724.9799999994616,2.293953e-05,724.9799999994616,3.516832e-06
724.9949999994616,9.854623e-06,724.9949999994616,3.847594e-05,724.9949999994616,1.954489e-05,724.9949999994616,3.500774e-06
725.0099999994616,9.92016e-06,725.0099999994616,3.846825e-05,725.0099999994616,1.844357e-05,725.0099999994616,3.472492e-06
725.0249999994616,9.825992e-06,725.0249999994616,3.827147e-05,725.0249999994616,1.78513e-05,725.0249999994616,3.250386e-06
725.0399999994615,9.995137e-06,725.0399999994615,3.834281e-05,725.0399999994615,1.581706e-05,725.0399999994615,3.276286e-06
725.0549999994615,9.955596e-06,725.0549999994615,3.841108e-05,725.0549999994615,1.394362e-05,725.0549999994615,3.166973e-06
725.0699999994615,8.903924e-06,725.0699999994615,3.833362e-05,725.0699999994615,1.337117e-05,725.0699999994615,3.166973e-06
725.0849999994615,8.528988e-06,725.0849999994615,3.829391e-05,725.0849999994615,1.307609e-05,725.0849999994615,3.184716e-06
725.0999999994615,8.580036e-06,725.0999999994615,3.190107e-05,725.0999999994615,1.258981e-05,725.0999999994615,2.988471e-06
725.1149999994615,8.845193e-06,725.1149999994615,2.664683e-05,725.1149999994615,1.274218e-05,725.1149999994615,3.044509e-06
725.1299999994615,8.859515e-06,725.1299999994615,2.033263e-05,725.1299999994615,1.249885e-05,725.1299999994615,3.044509e-06
725.1449999994614,8.694202e-06,725.1449999994614,1.314379e-05,725.1449999994614,1.237198e-05,725.1449999994614,2.936162e-06
725.1599999994614,8.005899e-06,725.1599999994614,1.291894e-05,725.1599999994614,1.23092e-05,725.1599999994614,2.902385e-06
725.1749999994614,7.48201e-06,725.1749999994614,1.213981e-05,725.1749999994614,1.225184e-05,725.1749999994614,2.858369e-06
725.1899999994614,7.160693e-06,725.1899999994614,1.116671e-05,725.1899999994614,1.189718e-05,725.1899999994614,2.863294e-06
725.2049999994614,7.22727e-06,725.2049999994614,1.183783e-05,725.2049999994614,9.576237e-06,725.2049999994614,2.863294e-06
725.2199999994614,7.1921e-06,725.2199999994614,1.320687e-05,725.2199999994614,1.000641e-05,725.2199999994614,2.912075e-06
725.2349999994614,6.944984e-06,725.2349999994614,1.327389e-05,725.2349999994614,1.015453e-05,725.2349999994614,2.803635e-06
725.2499999994614,6.947012e-06,725.2499999994614,1.314914e-05,725.2499999994614,9.642205e-06,725.2499999994614,2.778399e-06
725.2649999994613,6.697164e-06,725.2649999994613,1.322286e-05,725.2649999994613,9.459313e-06,725.2649999994613,2.863294e-06
725.2799999994613,6.327271e-06,725.2799999994613,1.298203e-05,725.2799999994613,1.007655e-05,725.2799999994613,2.768241e-06
725.2949999994613,6.682424e-06,725.2949999994613,1.279844e-05,725.2949999994613,9.985267e-06,725.2949999994613,2.752932e-06
725.3099999994613,6.787006e-06,725.3099999994613,1.255059e-05,725.3099999994613,1.041883e-05,725.3099999994613,2.768241e-06
725.3249999994613,6.942956e-06,725.3249999994613,1.271008e-05,725.3249999994613,1.102451e-05,725.3249999994613,2.716877e-06
725.3399999994613,7.081567e-06,725.3399999994613,1.270343e-05,725.3399999994613,1.088176e-05,725.3399999994613,2.648616e-06
725.3549999994613,6.951067e-06,725.3549999994613,1.2465e-05,725.3549999994613,1.064222e-05,725.3549999994613,2.696058e-06
725.3699999994612,6.608231e-06,725.3699999994612,1.257862e-05,725.3699999994612,1.079729e-05,725.3699999994612,2.690828e-06
725.3849999994612,6.707672e-06,725.3849999994612,1.256181e-05,725.3849999994612,1.084025e-05,725.3849999994612,2.675077e-06
725.3999999994612,6.877724e-06,725.3999999994612,1.264675e-05,725.3999999994612,1.071083e-05,725.3999999994612,2.711688e-06
725.4149999994612,6.981399e-06,725.4149999994612,1.284348e-05,725.4149999994612,1.064222e-05,725.4149999994612,2.706488e-06
725.4299999994612,6.875675e-06,725.4299999994612,1.275102e-05,725.4299999994612,1.050634e-05,725.4299999994612,2.706488e-06
725.4449999994612,6.912455e-06,725.4449999994612,1.133573e-05,725.4449999994612,1.025393e-05,725.4449999994612,2.711688e-06
725.4599999994612,6.830453e-06,725.4599999994612,1.110345e-05,725.4599999994612,9.94427e-06,725.4599999994612,2.605721e-06
725.4749999994611,6.766219e-06,725.4749999994611,1.009889e-05,725.4749999994611,9.468245e-06,725.4749999994611,2.648616e-06
725.4899999994611,6.985433e-06,725.4899999994611,1.098355e-05,725.4899999994611,8.647087e-06,725.4899999994611,2.643292e-06
725.5049999994611,6.999535e-06,725.5049999994611,1.328874e-05,725.5049999994611,9.497953e-06,725.5049999994611,2.589452e-06
725.5199999994611,7.075597e-06,725.5199999994611,2.825656e-05,725.5199999994611,9.599744e-06,725.5199999994611,2.783465e-06
725.5349999994611,7.137048e-06,725.5349999994611,2.976095e-05,725.5349999994611,9.876042e-06,725.5349999994611,2.783465e-06
725.5499999994611,6.221753e-06,725.5499999994611,3.129297e-05,725.5499999994611,1.305345e-05,725.5499999994611,2.788521e-06
725.5649999994611,6.262374e-06,725.5649999994611,3.261635e-05,725.5649999994611,1.631767e-05,725.5649999994611,2.940956e-06
725.579999999461,6.371642e-06,725.579999999461,3.30467e-05,725.579999999461,1.865695e-05,725.579999999461,3.011947e-06
725.594999999461,6.380479e-06,725.594999999461,3.305096e-05,725.594999999461,1.886867e-05,725.594999999461,3.171418e-06
725.609999999461,6.574036e-06,725.609999999461,3.319725e-05,725.609999999461,1.970925e-05,725.609999999461,3.215529e-06
725.624999999461,6.614623e-06,725.624999999461,3.314119e-05,725.624999999461,2.042319e-05,725.624999999461,3.175857e-06
725.639999999461,6.472542e-06,725.639999999461,3.314289e-05,725.639999999461,2.205222e-05,725.639999999461,3.184716e-06
725.654999999461,6.146583e-06,725.654999999461,3.313014e-05,725.654999999461,2.234413e-05,725.654999999461,3.197958e-06
725.669999999461,6.105191e-06,725.669999999461,3.316541e-05,725.669999999461,2.38204e-05,725.669999999461,3.202359e-06
725.684999999461,6.075122e-06,725.684999999461,3.316456e-05,725.684999999461,2.58526e-05,725.684999999461,3.206755e-06
725.6999999994609,5.927241e-06,725.6999999994609,3.316711e-05,725.6999999994609,2.586839e-05,725.6999999994609,3.284874e-06
725.7149999994609,5.824151e-06,725.7149999994609,3.32422e-05,725.7149999994609,2.621889e-05,725.7149999994609,3.280583e-06
725.7299999994609,5.877121e-06,725.7299999994609,5.351417e-05,725.7299999994609,2.775102e-05,725.7299999994609,3.280583e-06
725.7449999994609,5.729046e-06,725.7449999994609,5.68293e-05,725.7449999994609,2.772055e-05,725.7449999994609,3.382069e-06
725.7599999994609,5.637336e-06,725.7599999994609,6.018934e-05,725.7599999994609,2.860833e-05,725.7599999994609,3.267676e-06
725.7749999994609,5.559333e-06,725.7749999994609,5.568498e-05,725.7749999994609,3.652062e-05,725.7749999994609,3.202359e-06
725.7899999994609,5.472503e-06,725.7899999994609,5.502845e-05,725.7899999994609,4.771674e-05,725.7899999994609,3.263362e-06
725.8049999994608,5.444114e-06,725.8049999994608,5.473147e-05,725.8049999994608,8.024054e-05,725.8049999994608,3.24605e-06
725.8199999994608,5.219545e-06,725.8199999994608,5.415889e-05,725.8199999994608,0.0001838751,725.8199999994608,3.044509e-06
725.8349999994608,5.001795e-06,725.8349999994608,5.48428e-05,725.8349999994608,0.0002037505,725.8349999994608,2.974296e-06
725.8499999994608,5.249148e-06,725.8499999994608,5.645801e-05,725.8499999994608,0.0002184157,725.8499999994608,2.798606e-06
725.8649999994608,5.099414e-06,725.8649999994608,5.788877e-05,725.8649999994608,0.0002503911,725.8649999994608,2.873116e-06
725.8799999994608,5.071714e-06,725.8799999994608,6.005931e-05,725.8799999994608,0.00026901,725.8799999994608,2.878015e-06
725.8949999994608,5.102175e-06,725.8949999994608,6.049097e-05,725.8949999994608,0.0002706302,725.8949999994608,2.848496e-06
725.9099999994608,5.137942e-06,725.9099999994608,6.129095e-05,725.9099999994608,0.0002713015,725.9099999994608,2.873116e-06
725.9249999994607,5.243778e-06,725.9249999994607,6.179292e-05,725.9249999994607,0.0002724931,725.9249999994607,2.892662e-06
725.9399999994607,5.402556e-06,725.9399999994607,6.654857e-05,725.9399999994607,0.0002739311,725.9399999994607,2.993181e-06
725.9549999994607,5.763367e-06,725.9549999994607,6.687144e-05,725.9549999994607,0.0002748353,725.9549999994607,2.940956e-06
725.9699999994607,5.850696e-06,725.9699999994607,6.797646e-05,725.9699999994607,0.0002851614,725.9699999994607,2.969556e-06
725.9849999994607,5.433755e-06,725.9849999994607,5.173243e-05,725.9849999994607,0.000295417,725.9849999994607,2.892662e-06
725.9999999994607,5.451871e-06,725.9999999994607,4.672454e-05,725.9999999994607,0.0002964483,725.9999999994607,2.921734e-06
726.0149999994607,5.910582e-06,726.0149999994607,4.652029e-05,726.0149999994607,0.0003057128,726.0149999994607,2.988471e-06
726.0299999994606,5.967507e-06,726.0299999994606,4.666299e-05,726.0299999994606,0.0003146936,726.0299999994606,3.01662e-06
726.0449999994606,6.19907e-06,726.0449999994606,4.603784e-05,726.0449999994606,0.000315905,726.0449999994606,2.993181e-06
726.0599999994606,6.287069e-06,726.0599999994606,4.560622e-05,726.0599999994606,0.0003005724,726.0599999994606,3.062961e-06
726.0749999994606,6.077441e-06,726.0749999994606,4.559324e-05,726.0749999994606,0.0002449985,726.0749999994606,3.184716e-06
726.0899999994606,5.976941e-06,726.0899999994606,4.403924e-05,726.0899999994606,0.0002374275,726.0899999994606,3.149131e-06
726.1049999994606,5.841057e-06,726.1049999994606,4.16814e-05,726.1049999994606,0.000222622,726.1049999994606,3.094987e-06
726.1199999994606,6.100575e-06,726.1199999994606,4.062957e-05,726.1199999994606,0.0001913634,726.1199999994606,3.090432e-06
726.1349999994605,6.228541e-06,726.1349999994605,3.629233e-05,726.1349999994605,0.0001743779,726.1349999994605,3.062961e-06
726.1499999994605,6.137409e-06,726.1499999994605,3.605087e-05,726.1499999994605,0.0001735576,726.1499999994605,3.039879e-06
726.1649999994605,6.030905e-06,726.1649999994605,3.34117e-05,726.1649999994605,0.0001728295,726.1649999994605,3.067557e-06
726.1799999994605,6.06584e-06,726.1799999994605,3.138466e-05,726.1799999994605,0.0001710752,726.1799999994605,3.126685e-06
726.1949999994605,5.969867e-06,726.1949999994605,2.438267e-05,726.1949999994605,0.0001696966,726.1949999994605,3.067557e-06
726.2099999994605,6.920602e-06,726.2099999994605,2.175381e-05,726.2099999994605,0.0001676003,726.2099999994605,3.039879e-06
726.2249999994605,6.957143e-06,726.2249999994605,1.726727e-05,726.2249999994605,0.0001379335,726.2249999994605,3.030597e-06
726.2399999994605,7.410121e-06,726.2399999994605,1.557294e-05,726.2399999994605,0.0001235389,726.2399999994605,2.979029e-06
726.2549999994604,7.887128e-06,726.2549999994604,1.546856e-05,726.2549999994604,0.0001223978,726.2549999994604,3.021286e-06
726.2699999994604,7.56626e-06,726.2699999994604,9.365025e-06,726.2699999994604,9.464494e-05,726.2699999994604,3.025945e-06
726.2849999994604,8.277538e-06,726.2849999994604,9.263696e-06,726.2849999994604,5.965311e-05,726.2849999994604,3.053749e-06
726.2999999994604,9.362016e-06,726.2999999994604,9.655344e-06,726.2999999994604,5.857193e-05,726.2999999994604,3.058359e-06
726.3149999994604,9.465269e-06,726.3149999994604,1.078684e-05,726.3149999994604,5.940298e-05,726.3149999994604,3.062961e-06
726.3299999994604,9.529049e-06,726.3299999994604,1.09938e-05,726.3299999994604,5.755345e-05,726.3299999994604,2.95052e-06
726.3449999994604,9.723673e-06,726.3449999994604,1.103856e-05,726.3449999994604,6.505691e-05,726.3449999994604,3.044509e-06
726.3599999994603,9.800154e-06,726.3599999994603,1.171944e-05,726.3599999994603,7.823143e-05,726.3599999994603,3.564574e-06
726.3749999994603,1.096301e-05,726.3749999994603,1.174225e-05,726.3749999994603,7.959524e-05,726.3749999994603,3.662038e-06
726.3899999994603,1.106915e-05,726.3899999994603,1.179133e-05,726.3899999994603,8.768737e-05,726.3899999994603,3.665883e-06
726.4049999994603,1.120449e-05,726.4049999994603,1.159983e-05,726.4049999994603,9.35458e-05,726.4049999994603,3.885991e-06
726.4199999994603,1.149124e-05,726.4199999994603,1.144948e-05,726.4199999994603,9.357547e-05,726.4199999994603,3.885991e-06
726.4349999994603,1.198801e-05,726.4349999994603,1.115282e-05,726.4349999994603,9.349851e-05,726.4349999994603,3.86418e-06
726.4499999994603,1.199858e-05,726.4499999994603,1.080642e-05,726.4499999994603,9.202625e-05,726.4499999994603,3.922073e-06
726.4649999994602,1.164346e-05,726.4649999994602,1.091407e-05,726.4649999994602,9.185648e-05,726.4649999994602,3.932833e-06
726.4799999994602,1.151818e-05,726.4799999994602,1.12158e-05,726.4799999994602,9.097893e-05,726.4799999994602,4.003829e-06
726.4949999994602,1.170861e-05,726.4949999994602,1.144825e-05,726.4949999994602,9.049923e-05,726.4949999994602,4.097722e-06
726.5099999994602,1.168573e-05,726.5099999994602,1.117805e-05,726.5099999994602,8.860024e-05,726.5099999994602,4.087396e-06
726.5249999994602,1.185686e-05,726.5249999994602,1.114271e-05,726.5249999994602,8.847041e-05,726.5249999994602,4.104592e-06
726.5399999994602,1.066074e-05,726.5399999994602,1.05585e-05,726.5399999994602,8.628611e-05,726.5399999994602,4.138769e-06
726.5549999994602,1.034284e-05,726.5549999994602,1.034147e-05,726.5549999994602,8.47863e-05,726.5549999994602,4.131956e-06
726.5699999994602,1.053446e-05,726.5699999994602,9.841749e-06,726.5699999994602,8.550943e-05,726.5699999994602,4.125132e-06
726.5849999994601,1.116544e-05,726.5849999994601,9.23781e-06,726.5849999994601,8.504029e-05,726.5849999994601,4.118297e-06
726.5999999994601,1.131458e-05,726.5999999994601,8.757163e-06,726.5999999994601,7.708923e-05,726.5999999994601,3.982663e-06
726.6149999994601,1.004013e-05,726.6149999994601,8.550433e-06,726.6149999994601,6.396179e-05,726.6149999994601,3.631134e-06
726.6299999994601,1.108059e-05,726.6299999994601,9.227129e-06,726.6299999994601,6.286083e-05,726.6299999994601,3.568524e-06
726.6449999994601,1.158646e-05,726.6449999994601,1.424347e-05,726.6449999994601,5.208495e-05,726.6449999994601,3.492716e-06
726.6599999994601,1.155481e-05,726.6599999994601,1.524012e-05,726.6599999994601,4.691289e-05,726.6599999994601,3.4111e-06
726.67499999946,1.127092e-05,726.67499999946,1.742159e-05,726.67499999946,4.726677e-05,726.67499999946,3.452149e-06
726.68999999946,1.063031e-05,726.68999999946,1.77936e-05,726.68999999946,4.8048e-05,726.68999999946,3.439886e-06
726.70499999946,1.075415e-05,726.70499999946,1.811217e-05,726.70499999946,4.681098e-05,726.70499999946,3.460301e-06
726.71999999946,1.113892e-05,726.71999999946,1.844891e-05,726.71999999946,4.984444e-05,726.71999999946,3.472492e-06
726.73499999946,1.138533e-05,726.73499999946,1.866299e-05,726.73499999946,5.893803e-05,726.73499999946,3.394541e-06
726.74999999946,1.244011e-05,726.74999999946,1.840457e-05,726.74999999946,5.652708e-05,726.74999999946,3.323245e-06
726.76499999946,1.423951e-05,726.76499999946,1.879387e-05,726.76499999946,5.782254e-05,726.76499999946,3.301983e-06
726.77999999946,1.446136e-05,726.77999999946,1.888957e-05,726.77999999946,6.541277e-05,726.77999999946,3.297714e-06
726.79499999946,1.479836e-05,726.79499999946,1.906549e-05,726.79499999946,6.521478e-05,726.79499999946,3.211145e-06
726.8099999994599,1.490082e-05,726.8099999994599,1.899813e-05,726.8099999994599,6.399944e-05,726.8099999994599,3.280583e-06
726.8249999994599,1.470861e-05,726.8249999994599,2.271491e-05,726.8249999994599,6.383525e-05,726.8249999994599,3.335938e-06
726.8399999994599,1.502696e-05,726.8399999994599,5.406075e-05,726.8399999994599,6.255172e-05,726.8399999994599,3.306247e-06
726.8549999994599,1.506441e-05,726.8549999994599,6.771692e-05,726.8549999994599,6.108283e-05,726.8549999994599,3.398688e-06
726.8699999994599,1.535247e-05,726.8699999994599,8.034212e-05,726.8699999994599,6.090846e-05,726.8699999994599,3.588207e-06
726.8849999994599,1.468561e-05,726.8849999994599,8.879494e-05,726.8849999994599,6.101891e-05,726.8849999994599,3.696496e-06
726.8999999994599,1.45061e-05,726.8999999994599,8.882365e-05,726.8999999994599,6.122518e-05,726.8999999994599,3.730636e-06
726.9149999994598,1.447402e-05,726.9149999994598,8.979072e-05,726.9149999994598,6.351979e-05,726.9149999994598,3.707911e-06
726.9299999994598,1.482689e-05,726.9299999994598,8.975886e-05,726.9299999994598,6.357078e-05,726.9299999994598,3.669723e-06
726.9449999994598,1.485063e-05,726.9449999994598,9.030352e-05,726.9449999994598,6.364431e-05,726.9449999994598,3.65048e-06
726.9599999994598,1.453908e-05,726.9599999994598,9.092194e-05,726.9599999994598,6.703051e-05,726.9599999994598,3.568524e-06
726.9749999994598,1.44711e-05,726.9749999994598,9.086475e-05,726.9749999994598,6.491058e-05,726.9749999994598,3.662038e-06
726.9899999994598,1.422863e-05,726.9899999994598,9.087699e-05,726.9899999994598,5.860367e-05,726.9899999994598,3.611685e-06
727.0049999994598,1.206998e-05,727.0049999994598,9.105493e-05,727.0049999994598,6.013151e-05,727.0049999994598,3.658189e-06
727.0199999994597,1.186399e-05,727.0199999994597,9.117011e-05,727.0199999994597,5.559637e-05,727.0199999994597,3.685046e-06
727.0349999994597,1.156334e-05,727.0349999994597,9.129178e-05,727.0349999994597,5.191754e-05,727.0349999994597,3.662038e-06
727.0499999994597,1.120574e-05,727.0499999994597,9.126231e-05,727.0499999994597,5.661e-05,727.0499999994597,3.677393e-06
727.0649999994597,1.111613e-05,727.0649999994597,9.135857e-05,727.0649999994597,6.047047e-05,727.0649999994597,3.57641e-06
727.0799999994597,1.107932e-05,727.0799999994597,8.095834e-05,727.0799999994597,6.290205e-05,727.0799999994597,3.580347e-06
727.0949999994597,1.096301e-05,727.0949999994597,7.364509e-05,727.0949999994597,6.401507e-05,727.0949999994597,3.592131e-06
727.1099999994597,1.078423e-05,727.1099999994597,5.697882e-05,727.1099999994597,6.460561e-05,727.1099999994597,3.340158e-06
727.1249999994596,1.047008e-05,727.1249999994596,5.394623e-05,727.1249999994596,6.593228e-05,727.1249999994596,3.415227e-06
727.1399999994596,1.027725e-05,727.1399999994596,4.382376e-05,727.1399999994596,6.528883e-05,727.1399999994596,3.259043e-06
727.1549999994596,1.071346e-05,727.1549999994596,4.491402e-05,727.1549999994596,6.483958e-05,727.1549999994596,3.241707e-06
727.1699999994596,1.214329e-05,727.1699999994596,4.348105e-05,727.1699999994596,6.194046e-05,727.1699999994596,3.254718e-06
727.1849999994596,1.196566e-05,727.1849999994596,4.35458e-05,727.1849999994596,6.292936e-05,727.1849999994596,3.233005e-06
727.1999999994596,1.194681e-05,727.1999999994596,4.322827e-05,727.1999999994596,6.243496e-05,727.1999999994596,3.241707e-06
727.2149999994596,1.18152e-05,727.2149999994596,5.450063e-05,727.2149999994596,6.215704e-05,727.2149999994596,3.099535e-06
727.2299999994596,1.191966e-05,727.2299999994596,5.859381e-05,727.2299999994596,6.312225e-05,727.2299999994596,3.184716e-06
727.2449999994595,1.181282e-05,727.2449999994595,6.439901e-05,727.2449999994595,6.301102e-05,727.2449999994595,3.344373e-06
727.2599999994595,1.248871e-05,727.2599999994595,7.911951e-05,727.2599999994595,6.638178e-05,727.2599999994595,3.314757e-06
727.2749999994595,1.260882e-05,727.2749999994595,8.026213e-05,727.2749999994595,7.010193e-05,727.2749999994595,3.427579e-06
727.2899999994595,1.24095e-05,727.2899999994595,8.458753e-05,727.2899999994595,6.986885e-05,727.2899999994595,3.427579e-06
727.3049999994595,1.242311e-05,727.3049999994595,9.475621e-05,727.3049999994595,6.683288e-05,727.3049999994595,3.394541e-06
727.3199999994595,1.240496e-05,727.3199999994595,0.0001006008,727.3199999994595,6.375599e-05,727.3199999994595,3.443979e-06
727.3349999994595,1.20933e-05,727.3349999994595,0.000112758,727.3349999994595,6.132518e-05,727.3349999994595,3.4111e-06
727.3499999994594,1.160104e-05,727.3499999994594,0.0001166207,727.3499999994594,6.080615e-05,727.3499999994594,3.476546e-06
727.3649999994594,1.208864e-05,727.3649999994594,0.0001415614,727.3649999994594,6.073545e-05,727.3649999994594,3.572469e-06
727.3799999994594,1.195388e-05,727.3799999994594,0.0001403842,727.3799999994594,6.078692e-05,727.3799999994594,3.480596e-06
727.3949999994594,1.196684e-05,727.3949999994594,0.0001407876,727.3949999994594,6.094153e-05,727.3949999994594,3.448066e-06
727.4099999994594,1.10933e-05,727.4099999994594,0.0001410638,727.4099999994594,6.191021e-05,727.4099999994594,3.476546e-06
727.4249999994594,9.833158e-06,727.4249999994594,0.0001750977,727.4249999994594,6.387695e-05,727.4249999994594,3.528828e-06
727.4399999994594,9.78289e-06,727.4399999994594,0.0001941218,727.4399999994594,6.326247e-05,727.4399999994594,3.556662e-06
727.4549999994593,1.03904e-05,727.4549999994593,0.0002576952,727.4549999994593,6.157208e-05,727.4549999994593,3.556662e-06
727.4699999994593,1.082205e-05,727.4699999994593,0.0003766305,727.4699999994593,5.663687e-05,727.4699999994593,3.753223e-06
727.4849999994593,1.074366e-05,727.4849999994593,0.0004213098,727.4849999994593,5.585573e-05,727.4849999994593,3.572469e-06
727.4999999994593,1.054649e-05,727.4999999994593,0.0004470501,727.4999999994593,5.437979e-05,727.4999999994593,3.516832e-06
727.5149999994593,9.407047e-06,727.5149999994593,0.000546946,727.5149999994593,4.69759e-05,727.5149999994593,3.390388e-06
727.5299999994593,9.105725e-06,727.5299999994593,0.0005897757,727.5299999994593,4.068778e-05,727.5299999994593,3.319004e-06
727.5449999994593,9.590935e-06,727.5449999994593,0.0005891209,727.5449999994593,3.775787e-05,727.5449999994593,3.361178e-06
727.5599999994593,9.532005e-06,727.5599999994593,0.0005909934,727.5599999994593,3.756787e-05,727.5599999994593,3.331712e-06
727.5749999994592,9.539391e-06,727.5749999994592,0.0005925045,727.5749999994592,3.68214e-05,727.5749999994592,3.259043e-06
727.5899999994592,9.599744e-06,727.5899999994592,0.0005934802,727.5899999994592,3.590012e-05,727.5899999994592,3.171418e-06
727.6049999994592,1.00975e-05,727.6049999994592,0.0005923469,727.6049999994592,3.499123e-05,727.6049999994592,3.104077e-06
727.6199999994592,9.349971e-06,727.6199999994592,0.0005877636,727.6199999994592,3.216011e-05,727.6199999994592,2.964809e-06
727.6349999994592,9.243908e-06,727.6349999994592,0.0005873506,727.6349999994592,3.067006e-05,727.6349999994592,2.878015e-06
727.6499999994592,9.29406e-06,727.6499999994592,0.0005873652,727.6499999994592,3.066087e-05,727.6499999994592,2.979029e-06
727.6649999994592,9.404052e-06,727.6649999994592,0.0005870536,727.6649999994592,2.826852e-05,727.6649999994592,2.993181e-06
727.6799999994591,9.75838e-06,727.6799999994591,0.0005758873,727.6799999994591,2.332863e-05,727.6799999994591,2.936162e-06
727.6949999994591,9.555621e-06,727.6949999994591,0.0005650044,727.6949999994591,2.021172e-05,727.6949999994591,2.868209e-06
727.7099999994591,8.819675e-06,727.7099999994591,0.0005422236,727.7099999994591,1.963119e-05,727.7099999994591,2.833621e-06
727.7249999994591,8.819675e-06,727.7249999994591,0.0004541842,727.7249999994591,1.701995e-05,727.7249999994591,2.648616e-06
727.7399999994591,8.782863e-06,727.7399999994591,0.0004172767,727.7399999994591,1.473158e-05,727.7399999994591,2.878015e-06
727.7549999994591,8.540542e-06,727.7549999994591,0.0003752685,727.7549999994591,1.429185e-05,727.7549999994591,2.916909e-06
727.7699999994591,8.524032e-06,727.7699999994591,0.000217302,727.7699999994591,1.467697e-05,727.7699999994591,2.868209e-06
727.784999999459,8.480955e-06,727.784999999459,0.0001463141,727.784999999459,1.501665e-05,727.784999999459,2.882905e-06
727.799999999459,7.97063e-06,727.799999999459,0.0001740203,727.799999999459,1.518549e-05,727.799999999459,2.882905e-06
727.814999999459,7.981227e-06,727.814999999459,0.0002867576,727.814999999459,1.516692e-05,727.814999999459,2.926552e-06
727.829999999459,7.95825e-06,727.829999999459,0.0003456754,727.829999999459,1.446623e-05,727.829999999459,2.969556e-06
727.844999999459,7.15282e-06,727.844999999459,0.0004331309,727.844999999459,1.366503e-05,727.844999999459,2.964809e-06
727.859999999459,6.836638e-06,727.859999999459,0.0004705368,727.859999999459,1.385646e-05,727.859999999459,2.993181e-06
727.874999999459,6.879772e-06,727.874999999459,0.0004988508,727.874999999459,1.396582e-05,727.874999999459,2.955291e-06
727.889999999459,6.885912e-06,727.889999999459,0.0005055614,727.889999999459,1.379124e-05,727.889999999459,3.025945e-06
727.9049999994589,6.961192e-06,727.9049999994589,0.0005060954,727.9049999994589,1.37575e-05,727.9049999994589,2.931361e-06
727.9199999994589,6.709772e-06,727.9199999994589,0.0005140885,727.9199999994589,1.404829e-05,727.9199999994589,3.049133e-06
727.9349999994589,6.296025e-06,727.9349999994589,0.0005278407,727.9349999994589,1.372469e-05,727.9349999994589,3.035241e-06
727.9499999994589,6.155743e-06,727.9499999994589,0.0005337629,727.9499999994589,1.371442e-05,727.9499999994589,3.175857e-06
727.9649999994589,6.437625e-06,727.9649999994589,0.0005363309,727.9649999994589,1.318445e-05,727.9649999994589,3.189136e-06
727.9799999994589,6.688745e-06,727.9799999994589,0.0005639333,727.9799999994589,1.279623e-05,727.9799999994589,3.144655e-06
727.9949999994589,7.013608e-06,727.9949999994589,0.0005666112,727.9949999994589,1.474401e-05,727.9949999994589,2.983753e-06
728.0099999994588,6.914493e-06,728.0099999994588,0.0005773719,728.0099999994588,1.454295e-05,728.0099999994588,3.094987e-06
728.0249999994588,7.105398e-06,728.0249999994588,0.0005835982,728.0249999994588,1.514089e-05,728.0249999994588,3.081303e-06
728.0399999994588,7.201887e-06,728.0399999994588,0.0005837996,728.0399999994588,1.453423e-05,728.0399999994588,3.030597e-06
728.0549999994588,7.109361e-06,728.0549999994588,0.0005464294,728.0549999994588,1.431155e-05,728.0549999994588,3.044509e-06
728.0699999994588,7.156758e-06,728.0699999994588,0.0005204295,728.0699999994588,1.413326e-05,728.0699999994588,3.126685e-06
728.0849999994588,7.091506e-06,728.0849999994588,0.0004622475,728.0849999994588,1.419195e-05,728.0849999994588,3.149131e-06
728.0999999994588,7.19993e-06,728.0999999994588,0.0003852243,728.0999999994588,1.436264e-05,728.0999999994588,3.162522e-06
728.1149999994587,7.283574e-06,728.1149999994587,0.0003527811,728.1149999994587,1.74652e-05,728.1149999994587,3.254718e-06
728.1299999994587,7.741108e-06,728.1299999994587,0.00032657,728.1299999994587,2.515332e-05,728.1299999994587,3.215529e-06
728.1449999994587,7.8907e-06,728.1449999994587,0.000325617,728.1449999994587,2.654301e-05,728.1449999994587,3.224279e-06
728.1599999994587,7.817162e-06,728.1599999994587,0.0003228172,728.1599999994587,2.675972e-05,728.1599999994587,3.206755e-06
728.1749999994587,7.977696e-06,728.1749999994587,0.0003074846,728.1749999994587,2.661932e-05,728.1749999994587,3.076727e-06
728.1899999994587,7.860292e-06,728.1899999994587,0.0002858995,728.1899999994587,2.693549e-05,728.1899999994587,3.035241e-06
728.2049999994587,7.513949e-06,728.2049999994587,0.0002791497,728.2049999994587,2.899617e-05,728.2049999994587,2.931361e-06
728.2199999994587,7.530803e-06,728.2199999994587,0.0002330026,728.2199999994587,4.498266e-05,728.2199999994587,2.868209e-06
728.2349999994586,7.22337e-06,728.2349999994586,0.0001838211,728.2349999994586,0.0001098358,728.2349999994586,2.902385e-06
728.2499999994586,6.846933e-06,728.2499999994586,0.0001720137,728.2499999994586,0.0001589877,728.2499999994586,2.778399e-06
728.2649999994586,6.789081e-06,728.2649999994586,0.0001191546,728.2649999994586,0.0001620837,728.2649999994586,2.716877e-06
728.2799999994586,6.799448e-06,728.2799999994586,0.0001079336,728.2799999994586,0.000188821,728.2799999994586,2.722057e-06
728.2949999994586,6.652846e-06,728.2949999994586,0.0001136395,728.2949999994586,0.0002348348,728.2949999994586,2.727227e-06
728.3099999994586,6.789081e-06,728.3099999994586,0.0001094915,728.3099999994586,0.0002503718,728.3099999994586,2.637958e-06
728.3249999994586,6.848989e-06,728.3249999994586,0.0001089457,728.3249999994586,0.0002510894,728.3249999994586,2.643292e-06
728.3399999994585,6.873626e-06,728.3399999994585,0.0001113744,728.3399999994585,0.000251378,728.3399999994585,2.594886e-06
728.3549999994585,6.7391e-06,728.3549999994585,0.0001111761,728.3549999994585,0.0002518823,728.3549999994585,2.489606e-06
728.3699999994585,6.640129e-06,728.3699999994585,0.0001108859,728.3699999994585,0.0002533487,728.3699999994585,2.483942e-06
728.3849999994585,6.373853e-06,728.3849999994585,0.0001104517,728.3849999994585,0.0002533082,728.3849999994585,2.57308e-06
728.3999999994585,6.524566e-06,728.3999999994585,0.0001119699,728.3999999994585,0.0002543373,728.3999999994585,2.517739e-06
728.4149999994585,6.411314e-06,728.4149999994585,0.000109521,728.4149999994585,0.0002544318,728.4149999994585,2.551088e-06
728.4299999994585,6.349495e-06,728.4299999994585,0.0001107969,728.4299999994585,0.0002553486,728.4299999994585,2.616511e-06
728.4449999994584,6.280343e-06,728.4449999994584,0.0001124213,728.4449999994584,0.0002577291,728.4449999994584,2.589452e-06
728.4599999994584,6.210422e-06,728.4599999994584,0.0001110305,728.4599999994584,0.0002587519,728.4599999994584,2.696058e-06
728.4749999994584,5.998116e-06,728.4749999994584,0.0001104766,728.4749999994584,0.0002546727,728.4749999994584,2.716877e-06
728.4899999994584,5.729046e-06,728.4899999994584,0.0001100699,728.4899999994584,0.0002224858,728.4899999994584,2.701278e-06
728.5049999994584,6.109804e-06,728.5049999994584,0.0001098567,728.5049999994584,0.0001943958,728.5049999994584,2.74781e-06
728.5199999994584,5.903427e-06,728.5199999994584,0.000109224,728.5199999994584,0.0001917474,728.5199999994584,2.798606e-06
728.5349999994584,6.309435e-06,728.5349999994584,8.250008e-05,728.5349999994584,0.0001609028,728.5349999994584,2.902385e-06
728.5499999994584,6.424483e-06,728.5499999994584,7.937246e-05,728.5499999994584,0.0001038314,728.5499999994584,2.921734e-06
728.5649999994583,6.378271e-06,728.5649999994583,7.427817e-05,728.5649999994583,8.126695e-05,728.5649999994583,2.863294e-06
728.5799999994583,6.329497e-06,728.5799999994583,6.416958e-05,728.5799999994583,8.179289e-05,728.5799999994583,2.974296e-06
728.5949999994583,6.342836e-06,728.5949999994583,6.16754e-05,728.5949999994583,8.173379e-05,728.5949999994583,2.983753e-06
728.6099999994583,6.483414e-06,728.6099999994583,6.150959e-05,728.6099999994583,7.990329e-05,728.6099999994583,3.021286e-06
728.6249999994583,6.19225e-06,728.6249999994583,6.04714e-05,728.6249999994583,7.777291e-05,728.6249999994583,2.983753e-06
728.6399999994583,6.007502e-06,728.6399999994583,5.254539e-05,728.6399999994583,7.309868e-05,728.6399999994583,2.912075e-06
728.6549999994583,5.984008e-06,728.6549999994583,4.476826e-05,728.6549999994583,6.970393e-05,728.6549999994583,2.964809e-06
728.6699999994582,5.865124e-06,728.6699999994582,4.171788e-05,728.6699999994582,6.934551e-05,728.6699999994582,2.997883e-06
728.6849999994582,5.998116e-06,728.6849999994582,3.424906e-05,728.6849999994582,6.452641e-05,728.6849999994582,2.988471e-06
728.6999999994582,6.009847e-06,728.6999999994582,2.756563e-05,728.6999999994582,5.561081e-05,728.6999999994582,3.025945e-06
728.7149999994582,7.329844e-06,728.7149999994582,2.684853e-05,728.7149999994582,4.989359e-05,728.7149999994582,2.940956e-06
728.7299999994582,8.169621e-06,728.7299999994582,2.687213e-05,728.7299999994582,4.530593e-05,728.7299999994582,3.140172e-06
728.7449999994582,8.540542e-06,728.7449999994582,2.486663e-05,728.7449999994582,4.462549e-05,728.7449999994582,3.306247e-06
728.7599999994582,8.656856e-06,728.7599999994582,2.176869e-05,728.7599999994582,4.10054e-05,728.7599999994582,3.280583e-06
728.7749999994581,8.666614e-06,728.7749999994581,1.726727e-05,728.7749999994581,3.554998e-05,728.7749999994581,3.219907e-06
728.7899999994581,8.729774e-06,728.7899999994581,1.433515e-05,728.7899999994581,4.255996e-05,728.7899999994581,3.348582e-06
728.8049999994581,8.571823e-06,728.8049999994581,1.469232e-05,728.8049999994581,4.781318e-05,728.8049999994581,3.373728e-06
728.8199999994581,8.907087e-06,728.8199999994581,1.467793e-05,728.8199999994581,4.930741e-05,728.8199999994581,3.365367e-06
728.8349999994581,9.316767e-06,728.8349999994581,1.465873e-05,728.8349999994581,5.218897e-05,728.8349999994581,3.348582e-06
728.8499999994581,9.493503e-06,728.8499999994581,1.464623e-05,728.8499999994581,6.067071e-05,728.8499999994581,3.646619e-06
728.8649999994581,9.39506e-06,728.8649999994581,1.452066e-05,728.8649999994581,6.074009e-05,728.8649999994581,3.779404e-06
728.879999999458,9.493503e-06,728.879999999458,1.449444e-05,728.879999999458,6.017179e-05,728.879999999458,4.094283e-06
728.894999999458,9.574765e-06,728.894999999458,1.429283e-05,728.894999999458,6.016851e-05,728.894999999458,4.169289e-06
728.909999999458,9.834591e-06,728.909999999458,1.423457e-05,728.909999999458,5.979322e-05,728.909999999458,4.209638e-06
728.924999999458,1.000641e-05,728.924999999458,1.396885e-05,728.924999999458,5.984785e-05,728.924999999458,4.179412e-06
728.939999999458,1.020987e-05,728.939999999458,1.416612e-05,728.939999999458,5.985561e-05,728.939999999458,4.17604e-06
728.954999999458,1.047546e-05,728.954999999458,1.572238e-05,728.954999999458,5.96583e-05,728.954999999458,4.108022e-06
728.969999999458,9.593873e-06,728.969999999458,2.245293e-05,728.969999999458,5.974419e-05,728.969999999458,4.125132e-06
728.984999999458,9.185817e-06,728.984999999458,2.371015e-05,728.984999999458,6.125969e-05,728.984999999458,4.094283e-06
728.9999999994579,9.073179e-06,728.9999999994579,2.583461e-05,728.9999999994579,6.197162e-05,728.9999999994579,3.932833e-06
729.0149999994579,8.957552e-06,729.0149999994579,2.69611e-05,729.0149999994579,6.203545e-05,729.0149999994579,3.925663e-06
729.0299999994579,9.136613e-06,729.0299999994579,2.700756e-05,729.0299999994579,6.124198e-05,729.0299999994579,3.914884e-06
729.0449999994579,9.952766e-06,729.0449999994579,2.713453e-05,729.0449999994579,5.635662e-05,729.0449999994579,3.805405e-06
729.0599999994579,1.004294e-05,729.0599999994579,2.811112e-05,729.0599999994579,5.14271e-05,729.0599999994579,3.99326e-06
729.0749999994579,9.357501e-06,729.0749999994579,2.86649e-05,729.0749999994579,4.959739e-05,729.0749999994579,4.101159e-06
729.0899999994579,9.306177e-06,729.0899999994579,2.90481e-05,729.0899999994579,4.397266e-05,729.0899999994579,4.080498e-06
729.1049999994578,9.25609e-06,729.1049999994578,2.894365e-05,729.1049999994578,3.519595e-05,729.1049999994578,3.911283e-06
729.1199999994578,9.325834e-06,729.1199999994578,2.891834e-05,729.1199999994578,3.475128e-05,729.1199999994578,3.692683e-06
729.1349999994578,9.540868e-06,729.1349999994578,2.892272e-05,729.1349999994578,3.476263e-05,729.1349999994578,3.580347e-06
729.1499999994578,9.542344e-06,729.1499999994578,2.904325e-05,729.1499999994578,3.483468e-05,729.1499999994578,3.460301e-06
729.1649999994578,9.465269e-06,729.1649999994578,6.730943e-05,729.1649999994578,3.501055e-05,729.1649999994578,3.468433e-06
729.1799999994578,9.864624e-06,729.1799999994578,9.020518e-05,729.1799999994578,3.627525e-05,729.1799999994578,3.677393e-06
729.1949999994578,1.149859e-05,729.1949999994578,0.0001284973,729.1949999994578,4.303623e-05,729.1949999994578,3.696496e-06
729.2099999994578,1.164588e-05,729.2099999994578,0.0001427107,729.2099999994578,4.437193e-05,729.2099999994578,3.741947e-06
729.2249999994577,1.167126e-05,729.2249999994577,0.0001430838,729.2249999994577,5.586027e-05,729.2249999994577,3.853228e-06
729.2399999994577,1.158525e-05,729.2399999994577,0.0001449655,729.2399999994577,6.848989e-05,729.2399999994577,3.669723e-06
729.2549999994577,1.226908e-05,729.2549999994577,0.0001458086,729.2549999994577,6.818254e-05,729.2549999994577,3.70411e-06
729.2699999994577,1.271008e-05,729.2699999994577,0.0001710715,729.2699999994577,7.06737e-05,729.2699999994577,3.760722e-06
729.2849999994577,1.324734e-05,729.2849999994577,0.0001835701,729.2849999994577,7.12215e-05,729.2849999994577,3.726858e-06
729.2999999994577,1.388185e-05,729.2999999994577,0.0001845271,729.2999999994577,7.010695e-05,729.2999999994577,3.889614e-06
729.3149999994577,1.436754e-05,729.3149999994577,0.0001900463,729.3149999994577,6.94472e-05,729.3149999994577,3.771943e-06
729.3299999994576,1.44282e-05,729.3299999994576,0.0001951631,729.3299999994576,7.264693e-05,729.3299999994576,3.794284e-06
729.3449999994576,1.448277e-05,729.3449999994576,0.0001969514,729.3449999994576,7.76384e-05,729.3449999994576,3.853228e-06
729.3599999994576,1.481644e-05,729.3599999994576,0.0001984163,729.3599999994576,7.766452e-05,729.3599999994576,3.797995e-06
729.3749999994576,1.527705e-05,729.3749999994576,0.0002123171,729.3749999994576,7.90119e-05,729.3749999994576,3.856882e-06
729.3899999994576,1.592092e-05,729.3899999994576,0.0002162083,729.3899999994576,8.011527e-05,729.3899999994576,3.827552e-06
729.4049999994576,1.582686e-05,729.4049999994576,0.0002238598,729.4049999994576,8.092962e-05,729.4049999994576,3.943564e-06
729.4199999994576,1.585176e-05,729.4199999994576,0.0002233795,729.4199999994576,8.339608e-05,729.4199999994576,3.82387e-06
729.4349999994575,1.466161e-05,729.4349999994575,0.0002377406,729.4349999994575,8.285175e-05,729.4349999994575,3.860533e-06
729.4499999994575,1.482119e-05,729.4499999994575,0.0002420881,729.4499999994575,7.933927e-05,729.4499999994575,3.827552e-06
729.4649999994575,1.483924e-05,729.4649999994575,0.0002380509,729.4649999994575,7.963576e-05,729.4649999994575,3.753223e-06
729.4799999994575,1.479741e-05,729.4799999994575,0.0002427878,729.4799999994575,7.372519e-05,729.4799999994575,3.745709e-06
729.4949999994575,1.455167e-05,729.4949999994575,0.0002445093,729.4949999994575,6.466837e-05,729.4949999994575,3.801702e-06
729.5099999994575,1.522347e-05,729.5099999994575,0.0002503543,729.5099999994575,6.410105e-05,729.5099999994575,3.809105e-06
729.5249999994575,1.515484e-05,729.5249999994575,0.0002369056,729.5249999994575,6.260079e-05,729.5249999994575,3.812802e-06
729.5399999994575,1.437636e-05,729.5399999994575,0.0002423739,729.5399999994575,6.305795e-05,729.5399999994575,3.809105e-06
729.5549999994574,1.353868e-05,729.5549999994574,0.0002526701,729.5549999994574,6.285769e-05,729.5549999994574,3.70411e-06
729.5699999994574,1.346147e-05,729.5699999994574,0.0002662753,729.5699999994574,6.25044e-05,729.5699999994574,3.760722e-06
729.5849999994574,1.344786e-05,729.5849999994574,0.0002777884,729.5849999994574,5.802876e-05,729.5849999994574,3.692683e-06
729.5999999994574,1.341219e-05,729.5999999994574,0.0002855015,729.5999999994574,5.281413e-05,729.5999999994574,3.520835e-06
729.6149999994574,1.431155e-05,729.6149999994574,0.0002889897,729.6149999994574,5.517315e-05,729.6149999994574,3.448066e-06
729.6299999994574,1.391226e-05,729.6299999994574,0.000275985,729.6299999994574,5.524561e-05,729.6299999994574,3.427579e-06
729.6449999994574,1.367018e-05,729.6449999994574,0.0002765506,729.6449999994574,5.56027e-05,729.6449999994574,3.427579e-06
729.6599999994573,1.370518e-05,729.6599999994573,0.0002703801,729.6599999994573,5.386261e-05,729.6599999994573,3.284874e-06
729.6749999994573,1.361443e-05,729.6749999994573,0.0002631332,729.6749999994573,5.21698e-05,729.6749999994573,3.215529e-06
729.6899999994573,1.351473e-05,729.6899999994573,0.0002400343,729.6899999994573,5.098446e-05,729.6899999994573,3.162522e-06
729.7049999994573,1.316841e-05,729.7049999994573,0.0002259858,729.7049999994573,5.05881e-05,729.7049999994573,3.135683e-06
729.7199999994573,1.320473e-05,729.7199999994573,0.0002251977,729.7199999994573,4.753691e-05,729.7199999994573,3.104077e-06
729.7349999994573,1.316734e-05,729.7349999994573,0.0002205513,729.7349999994573,4.19425e-05,729.7349999994573,2.960054e-06
729.7499999994573,1.270121e-05,729.7499999994573,0.0002150643,729.7499999994573,4.305259e-05,729.7499999994573,2.955291e-06
729.7649999994572,1.209214e-05,729.7649999994572,0.0002054851,729.7649999994572,4.368339e-05,729.7649999994572,3.002579e-06
729.7799999994572,1.18628e-05,729.7799999994572,0.0002003139,729.7799999994572,4.549581e-05,729.7799999994572,2.940956e-06
729.7949999994572,1.200797e-05,729.7949999994572,0.0001829109,729.7949999994572,4.735848e-05,729.7949999994572,2.907234e-06
729.8099999994572,1.209214e-05,729.8099999994572,0.0001713719,729.8099999994572,4.857749e-05,729.8099999994572,2.808655e-06
729.8249999994572,1.224379e-05,729.8249999994572,0.0001367856,729.8249999994572,4.820196e-05,729.8249999994572,2.711688e-06
729.8399999994572,1.231149e-05,729.8399999994572,0.000105281,729.8399999994572,4.672092e-05,729.8399999994572,2.659232e-06
729.8549999994572,1.24095e-05,729.8549999994572,9.923227e-05,729.8549999994572,4.788736e-05,729.8549999994572,2.637958e-06
729.8699999994571,1.029095e-05,729.8699999994571,9.807094e-05,729.8699999994571,4.755765e-05,729.8699999994571,2.605721e-06
729.8849999994571,1.071741e-05,729.8849999994571,9.582325e-05,729.8849999994571,4.52686e-05,729.8849999994571,2.589452e-06
729.8999999994571,1.085194e-05,729.8999999994571,8.785316e-05,729.8999999994571,4.329502e-05,729.8999999994571,2.523327e-06
729.9149999994571,1.066999e-05,729.9149999994571,7.600494e-05,729.9149999994571,4.321425e-05,729.9149999994571,2.517739e-06
729.9299999994571,1.038904e-05,729.9299999994571,7.547171e-05,729.9299999994571,4.129228e-05,729.9299999994571,2.461153e-06
729.9449999994571,1.040259e-05,729.9449999994571,7.731749e-05,729.9449999994571,4.111998e-05,729.9449999994571,2.495258e-06
729.9599999994571,1.026628e-05,729.9599999994571,7.706876e-05,729.9599999994571,4.108982e-05,729.9599999994571,2.611121e-06
729.974999999457,1.074104e-05,729.974999999457,8.214673e-05,729.974999999457,3.962309e-05,729.974999999457,2.669806e-06
729.989999999457,1.109711e-05,729.989999999457,8.235328e-05,729.989999999457,3.792873e-05,729.989999999457,2.742679e-06
730.004999999457,1.01684e-05,730.004999999457,8.340875e-05,730.004999999457,3.489932e-05,730.004999999457,2.716877e-06
730.019999999457,1.011701e-05,730.019999999457,8.568075e-05,730.019999999457,3.482012e-05,730.019999999457,2.600309e-06
730.034999999457,9.999364e-06,730.034999999457,8.681149e-05,730.034999999457,3.18644e-05,730.034999999457,2.589452e-06
730.049999999457,9.582119e-06,730.049999999457,9.14324e-05,730.049999999457,2.674287e-05,730.049999999457,2.512137e-06
730.064999999457,9.333384e-06,730.064999999457,9.297742e-05,730.064999999457,2.607126e-05,730.064999999457,2.584006e-06
730.079999999457,9.328855e-06,730.079999999457,9.231098e-05,730.079999999457,2.538689e-05,730.079999999457,2.643292e-06
730.094999999457,8.954407e-06,730.094999999457,8.732469e-05,730.094999999457,2.510174e-05,730.094999999457,2.653929e-06
730.1099999994569,8.857925e-06,730.1099999994569,0.0001127901,730.1099999994569,2.230059e-05,730.1099999994569,2.696058e-06
730.1249999994569,8.490915e-06,730.1249999994569,0.0001181997,730.1249999994569,1.712556e-05,730.1249999994569,2.742679e-06
730.1399999994569,7.711938e-06,730.1399999994569,0.0001361009,730.1399999994569,1.722562e-05,730.1399999994569,2.722057e-06
730.1549999994569,8.041013e-06,730.1549999994569,0.0001381516,730.1549999994569,2.046866e-05,730.1549999994569,2.813666e-06
730.1699999994569,8.263912e-06,730.1699999994569,0.0001383482,730.1699999994569,2.224937e-05,730.1699999994569,2.858369e-06
730.1849999994569,9.598277e-06,730.1849999994569,0.000154098,730.1849999994569,2.917102e-05,730.1849999994569,2.863294e-06
730.1999999994568,9.231709e-06,730.1999999994568,0.0003186566,730.1999999994568,2.962384e-05,730.1999999994568,2.873116e-06
730.2149999994568,9.558568e-06,730.2149999994568,0.0003497117,730.2149999994568,3.326508e-05,730.2149999994568,2.818668e-06
730.2299999994568,9.691749e-06,730.2299999994568,0.0003843374,730.2299999994568,3.387396e-05,730.2299999994568,2.783465e-06
730.2449999994568,9.518695e-06,730.2449999994568,0.0003883237,730.2449999994568,3.428113e-05,730.2449999994568,2.882905e-06
730.2599999994568,9.598277e-06,730.2599999994568,0.0004568762,730.2599999994568,3.411224e-05,730.2599999994568,3.085871e-06
730.2749999994568,9.63051e-06,730.2749999994568,0.0004734107,730.2749999994568,3.416052e-05,730.2749999994568,3.058359e-06
730.2899999994568,9.633435e-06,730.2899999994568,0.0004999394,730.2899999994568,3.401919e-05,730.2899999994568,3.062961e-06
730.3049999994568,9.580649e-06,730.3049999994568,0.0005954004,730.3049999994568,3.393545e-05,730.3049999994568,3.030597e-06
730.3199999994567,9.459313e-06,730.3199999994567,0.0006444895,730.3199999994567,3.307397e-05,730.3199999994567,2.997883e-06
730.3349999994567,9.551197e-06,730.3349999994567,0.0006713374,730.3349999994567,3.314417e-05,730.3349999994567,2.926552e-06
730.3499999994567,9.570351e-06,730.3499999994567,0.0006967331,730.3499999994567,3.31981e-05,730.3499999994567,2.940956e-06
730.3649999994567,9.631973e-06,730.3649999994567,0.0006942938,730.3649999994567,3.318622e-05,730.3649999994567,2.878015e-06
730.3799999994567,9.551197e-06,730.3799999994567,0.0006959854,730.3799999994567,3.307908e-05,730.3799999994567,2.912075e-06
730.3949999994567,9.392062e-06,730.3949999994567,0.0006995622,730.3949999994567,3.204426e-05,730.3949999994567,3.044509e-06
730.4099999994567,9.307691e-06,730.4099999994567,0.00069958,730.4099999994567,2.993604e-05,730.4099999994567,3.171418e-06
730.4249999994566,8.570179e-06,730.4249999994566,0.0007011576,730.4249999994566,2.633147e-05,730.4249999994566,3.166973e-06
730.4399999994566,7.797315e-06,730.4399999994566,0.0006945091,730.4399999994566,2.143876e-05,730.4399999994566,3.224279e-06
730.4549999994566,7.649581e-06,730.4549999994566,0.0006335737,730.4549999994566,2.116565e-05,730.4549999994566,3.171418e-06
730.4699999994566,6.246608e-06,730.4699999994566,0.0006168296,730.4699999994566,1.501477e-05,730.4699999994566,3.301983e-06
730.4849999994566,6.105191e-06,730.4849999994566,0.0006046502,730.4849999994566,1.54804e-05,730.4849999994566,3.211145e-06
730.4999999994566,5.896265e-06,730.4999999994566,0.0005996897,730.4999999994566,1.96699e-05,730.4999999994566,3.108612e-06
730.5149999994566,5.881913e-06,730.5149999994566,0.0005322681,730.5149999994566,2.362504e-05,730.5149999994566,3.11314e-06
730.5299999994565,6.068162e-06,730.5299999994565,0.0005230988,730.5299999994565,2.672284e-05,730.5299999994565,3.122176e-06
730.5449999994565,6.026232e-06,730.5449999994565,0.0004841908,730.5449999994565,3.171996e-05,730.5449999994565,3.126685e-06
730.5599999994565,5.850696e-06,730.5599999994565,0.0003694133,730.5599999994565,3.383817e-05,730.5599999994565,3.250386e-06
730.5749999994565,5.692045e-06,730.5749999994565,0.0003191449,730.5749999994565,3.407753e-05,730.5749999994565,3.297714e-06
730.5899999994565,5.819312e-06,730.5899999994565,0.0002296701,730.5899999994565,3.466808e-05,730.5899999994565,3.310505e-06
730.6049999994565,5.8867e-06,730.6049999994565,0.0002019127,730.6049999994565,3.686995e-05,730.6049999994565,3.301983e-06
730.6199999994565,6.082075e-06,730.6199999994565,0.0001873867,730.6199999994565,4.18433e-05,730.6199999994565,3.297714e-06
730.6349999994565,6.219488e-06,730.6349999994565,0.0001702481,730.6349999994565,5.033463e-05,730.6349999994565,3.135683e-06
730.6499999994564,6.169459e-06,730.6499999994564,0.0001528989,730.6499999994564,0.0001112733,730.6499999994564,3.021286e-06
730.6649999994564,5.706874e-06,730.6649999994564,0.0001529832,730.6649999994564,0.0001457313,730.6649999994564,3.044509e-06
730.6799999994564,5.896265e-06,730.6799999994564,0.0001491404,730.6799999994564,0.0001530619,730.6799999994564,3.189136e-06
730.6949999994564,5.877121e-06,730.6949999994564,0.0001454518,730.6949999994564,0.0001581364,730.6949999994564,3.175857e-06
730.7099999994564,5.993417e-06,730.7099999994564,0.0001369946,730.7099999994564,0.0001796683,730.7099999994564,3.122176e-06
730.7249999994564,5.955692e-06,730.7249999994564,0.0001314347,730.7249999994564,0.0002058856,730.7249999994564,3.460301e-06
730.7399999994564,6.098266e-06,730.7399999994564,0.0001308316,730.7399999994564,0.0002121729,730.7399999994564,3.889614e-06
730.7549999994563,6.479067e-06,730.7549999994563,0.0001257985,730.7549999994563,0.0002123849,730.7549999994563,5.289249e-06
730.7699999994563,6.559019e-06,730.7699999994563,0.0001227989,730.7699999994563,0.0002149976,730.7699999994563,5.60727e-06
730.7849999994563,6.371642e-06,730.7849999994563,0.000116943,730.7849999994563,0.000231706,730.7849999994563,5.838645e-06
730.7999999994563,6.688745e-06,730.7999999994563,0.0001027861,730.7999999994563,0.0002375632,730.7999999994563,6.098266e-06
730.8149999994563,6.654963e-06,730.8149999994563,7.11168e-05,730.8149999994563,0.0002371957,730.8149999994563,6.063518e-06
730.8299999994563,6.255622e-06,730.8299999994563,6.933901e-05,730.8299999994563,0.0002379419,730.8299999994563,6.072803e-06
730.8449999994563,6.260124e-06,730.8449999994563,6.636904e-05,730.8449999994563,0.0002393425,730.8449999994563,6.075122e-06
730.8599999994562,6.11902e-06,730.8599999994562,6.55195e-05,730.8599999994562,0.0002382924,730.8599999994562,6.070483e-06
730.8749999994562,5.792623e-06,730.8749999994562,6.108398e-05,730.8749999994562,0.0002373111,730.8749999994562,6.08439e-06
730.8899999994562,5.684616e-06,730.8899999994562,5.470624e-05,730.8899999994562,0.0002330883,730.8899999994562,6.11211e-06
730.9049999994562,5.714275e-06,730.9049999994562,5.299918e-05,730.9049999994562,0.0002041695,730.9049999994562,6.070483e-06
730.9199999994562,5.684616e-06,730.9199999994562,4.801662e-05,730.9199999994562,0.0001830954,730.9199999994562,6.016875e-06
730.9349999994562,5.741327e-06,730.9349999994562,4.575362e-05,730.9349999994562,0.0001757209,730.9349999994562,6.01219e-06
730.9499999994562,6.035575e-06,730.9499999994562,4.575085e-05,730.9499999994562,0.0001717728,730.9499999994562,6.093644e-06
730.9649999994562,5.804769e-06,730.9649999994562,4.570248e-05,730.9649999994562,0.0001523946,730.9649999994562,6.082075e-06
730.9799999994561,5.753582e-06,730.9799999994561,4.598395e-05,730.9799999994561,0.000125654,730.9799999994561,5.699464e-06
730.9949999994561,5.622323e-06,730.9949999994561,4.647242e-05,730.9949999994561,0.0001210607,730.9949999994561,5.265225e-06
731.0099999994561,5.192486e-06,731.0099999994561,4.656841e-05,731.0099999994561,0.0001143524,731.0099999994561,4.142171e-06
731.0249999994561,5.035477e-06,731.0249999994561,4.363854e-05,731.0249999994561,0.0001067227,731.0249999994561,3.827552e-06
731.0399999994561,4.791795e-06,731.0399999994561,3.299508e-05,731.0399999994561,6.759262e-05,731.0399999994561,3.215529e-06
731.0549999994561,4.913713e-06,731.0549999994561,3.031945e-05,731.0549999994561,5.543194e-05,731.0549999994561,2.997883e-06
731.0699999994561,5.195198e-06,731.0699999994561,2.799713e-05,731.0699999994561,5.473456e-05,731.0699999994561,3.11314e-06
731.084999999456,5.238403e-06,731.084999999456,2.80082e-05,731.084999999456,5.150374e-05,731.084999999456,3.144655e-06
731.099999999456,5.219545e-06,731.099999999456,2.844388e-05,731.099999999456,4.756298e-05,731.099999999456,3.306247e-06
731.114999999456,5.173461e-06,731.114999999456,2.836553e-05,731.114999999456,4.745357e-05,731.114999999456,3.348582e-06
731.129999999456,5.238403e-06,731.129999999456,2.80087e-05,731.129999999456,4.661709e-05,731.129999999456,3.323245e-06
731.144999999456,5.216845e-06,731.144999999456,2.794072e-05,731.144999999456,4.673087e-05,731.144999999456,3.603876e-06
731.159999999456,5.881913e-06,731.159999999456,2.858813e-05,731.159999999456,4.51686e-05,731.159999999456,4.024883e-06
731.174999999456,5.843468e-06,731.174999999456,2.857137e-05,731.174999999456,4.161036e-05,731.174999999456,4.252917e-06
731.189999999456,5.799914e-06,731.189999999456,2.835212e-05,731.189999999456,3.848545e-05,731.189999999456,4.389827e-06
731.2049999994559,5.721665e-06,731.2049999994559,2.875714e-05,731.2049999994559,3.648627e-05,731.2049999994559,4.412233e-06
731.2199999994559,5.706874e-06,731.2199999994559,2.876399e-05,731.2199999994559,3.539112e-05,731.2199999994559,4.450379e-06
731.2349999994559,5.48279e-06,731.2349999994559,2.716359e-05,731.2349999994559,2.933907e-05,731.2349999994559,4.463023e-06
731.2499999994559,5.881913e-06,731.2499999994559,2.557044e-05,731.2499999994559,2.036517e-05,731.2499999994559,4.491339e-06
731.2649999994559,6.851046e-06,731.2649999994559,2.519752e-05,731.2649999994559,1.60645e-05,731.2649999994559,4.675739e-06
731.2799999994559,6.906339e-06,731.2799999994559,2.335398e-05,731.2799999994559,1.866601e-05,731.2799999994559,4.73561e-06
731.2949999994559,6.816002e-06,731.2949999994559,1.830249e-05,731.2949999994559,2.037347e-05,731.2949999994559,4.956529e-06
731.3099999994558,6.776621e-06,731.3099999994558,1.854411e-05,731.3099999994558,2.04356e-05,731.3099999994558,5.013047e-06
731.3249999994558,6.665538e-06,731.3249999994558,1.747326e-05,731.3249999994558,2.051815e-05,731.3249999994558,5.001795e-06
731.3399999994558,6.629514e-06,731.3399999994558,1.667378e-05,731.3399999994558,2.055177e-05,731.3399999994558,4.970719e-06
731.3549999994558,6.747456e-06,731.3549999994558,1.621375e-05,731.3549999994558,2.052639e-05,731.3549999994558,4.870521e-06
731.3699999994558,6.896133e-06,731.3699999994558,1.702905e-05,731.3699999994558,1.984316e-05,731.3699999994558,4.887844e-06
731.3849999994558,7.463159e-06,731.3849999994558,1.72583e-05,731.3849999994558,2.010551e-05,731.3849999994558,4.982041e-06
731.3999999994558,7.605257e-06,731.3999999994558,1.657633e-05,731.3999999994558,1.994018e-05,731.3999999994558,4.732634e-06
731.4149999994557,7.404416e-06,731.4149999994557,1.562171e-05,731.4149999994557,2.1105e-05,731.4149999994557,4.376973e-06
731.4299999994557,7.341366e-06,731.4299999994557,1.567931e-05,731.4299999994557,2.114501e-05,731.4299999994557,4.232997e-06
731.4449999994557,7.237009e-06,731.4449999994557,1.556027e-05,731.4449999994557,2.139403e-05,731.4449999994557,3.975583e-06
731.4599999994557,7.746566e-06,731.4599999994557,1.433024e-05,731.4599999994557,2.194528e-05,731.4599999994557,4.003829e-06
731.4749999994557,7.928101e-06,731.4749999994557,1.478979e-05,731.4749999994557,2.231133e-05,731.4749999994557,4.066665e-06
731.4899999994557,7.942303e-06,731.4899999994557,1.47421e-05,731.4899999994557,3.009139e-05,731.4899999994557,4.059732e-06
731.5049999994557,7.500814e-06,731.5049999994557,1.514369e-05,731.5049999994557,3.9703e-05,731.5049999994557,3.989731e-06
731.5199999994556,7.383459e-06,731.5199999994556,1.497437e-05,731.5199999994556,7.352237e-05,731.5199999994556,3.688867e-06
731.5349999994556,7.341366e-06,731.5349999994556,1.494612e-05,731.5349999994556,8.159027e-05,731.5349999994556,3.70411e-06
731.5499999994556,7.260328e-06,731.5499999994556,1.342584e-05,731.5499999994556,0.0001248314,731.5499999994556,3.504795e-06
731.5649999994556,7.777418e-06,731.5649999994556,1.242651e-05,731.5649999994556,0.0001809217,731.5649999994556,3.460301e-06
731.5799999994556,7.90675e-06,731.5799999994556,1.217225e-05,731.5799999994556,0.0001925039,731.5799999994556,4.541245e-06
731.5949999994556,7.908532e-06,731.5949999994556,1.178894e-05,731.5949999994556,0.0001975029,731.5949999994556,5.423375e-06
731.6099999994556,7.956479e-06,731.6099999994556,1.10933e-05,731.6099999994556,0.000204899,731.6099999994556,5.477649e-06
731.6249999994556,7.777418e-06,731.6249999994556,1.036325e-05,731.6249999994556,0.0002086121,731.6249999994556,5.865124e-06
731.6399999994555,8.616079e-06,731.6399999994555,1.016424e-05,731.6399999994555,0.0002089333,731.6399999994555,6.257873e-06
731.6549999994555,8.379024e-06,731.6549999994555,1.012118e-05,731.6549999994555,0.0002108893,731.6549999994555,6.302733e-06
731.6699999994555,8.240013e-06,731.6699999994555,1.014621e-05,731.6699999994555,0.0002114036,731.6699999994555,6.400318e-06
731.6849999994555,9.23781e-06,731.6849999994555,9.853194e-06,731.6849999994555,0.0002197987,731.6849999994555,6.539662e-06
731.6999999994555,9.506848e-06,731.6999999994555,1.010447e-05,731.6999999994555,0.0002306349,731.6999999994555,6.537507e-06
731.7149999994555,9.662636e-06,731.7149999994555,9.968323e-06,731.7149999994555,0.0002333281,731.7149999994555,6.745368e-06
731.7299999994555,1.020159e-05,731.7299999994555,8.750726e-06,731.7299999994555,0.0002330457,731.7299999994555,6.7391e-06
731.7449999994554,1.016978e-05,731.7449999994554,9.176611e-06,731.7449999994554,0.0002341799,731.7449999994554,6.80152e-06
731.7599999994554,1.381064e-05,731.7599999994554,9.141237e-06,731.7599999994554,0.0002325413,731.7599999994554,6.883865e-06
731.7749999994554,1.388997e-05,731.7749999994554,9.46378e-06,731.7749999994554,0.0002222477,731.7749999994554,6.902258e-06
731.7899999994554,1.420584e-05,731.7899999994554,1.013092e-05,731.7899999994554,0.000219782,731.7899999994554,6.922637e-06
731.8049999994554,1.555846e-05,731.8049999994554,1.26278e-05,731.8049999994554,0.00018668,731.8049999994554,6.961192e-06
731.8199999994554,1.562171e-05,731.8199999994554,1.318124e-05,731.8199999994554,0.0001416053,731.8199999994554,7.03967e-06
731.8349999994554,1.615892e-05,731.8349999994554,0.000101937,731.8349999994554,0.000135125,731.8349999994554,5.812045e-06
731.8499999994553,1.62502e-05,731.8499999994553,0.0001179688,731.8499999994553,0.0001300043,731.8499999994553,5.664756e-06
731.8649999994553,1.704641e-05,731.8649999994553,0.0001275575,731.8649999994553,0.000122039,731.8649999994553,5.487926e-06
731.8799999994553,1.671006e-05,731.8799999994553,0.0001285125,731.8799999994553,0.0001192515,731.8799999994553,5.093886e-06
731.8949999994553,1.660266e-05,731.8949999994553,0.0001548638,731.8949999994553,0.0001180614,731.8949999994553,4.708762e-06
731.9099999994553,1.693532e-05,731.9099999994553,0.0001651843,731.9099999994553,0.000112228,731.9099999994553,4.744526e-06
731.9249999994553,1.702739e-05,731.9249999994553,0.000182452,731.9249999994553,0.0001115955,731.9249999994553,4.699779e-06
731.9399999994553,1.675552e-05,731.9399999994553,0.0001853658,731.9399999994553,9.05495e-05,731.9399999994553,4.559819e-06
731.9549999994553,1.869618e-05,731.9549999994553,0.000185615,731.9549999994553,6.743488e-05,731.9549999994553,4.69378e-06
731.9699999994552,2.013211e-05,731.9699999994552,0.00018632,731.9699999994552,6.685248e-05,731.9699999994552,4.569077e-06
731.9849999994552,2.01468e-05,731.9849999994552,0.0001888103,731.9849999994552,6.738243e-05,731.9849999994552,4.642481e-06
731.9999999994552,2.042733e-05,731.9999999994552,0.0003932915,731.9999999994552,6.573779e-05,731.9999999994552,4.657627e-06
732.0149999994552,1.83632e-05,732.0149999994552,0.0005041901,732.0149999994552,6.658878e-05,732.0149999994552,4.675739e-06
732.0299999994552,1.968922e-05,732.0299999994552,0.0006154581,732.0299999994552,6.56799e-05,732.0299999994552,4.690778e-06
732.0449999994552,1.92866e-05,732.0449999994552,0.0006753944,732.0449999994552,6.682466e-05,732.0449999994552,4.687774e-06
732.0599999994552,1.868412e-05,732.0599999994552,0.0006795501,732.0599999994552,6.626963e-05,732.0599999994552,4.684768e-06
732.0749999994551,1.910977e-05,732.0749999994551,0.0006845733,732.0749999994551,6.364896e-05,732.0749999994551,4.624239e-06
732.0899999994551,1.906032e-05,732.0899999994551,0.0006778765,732.0899999994551,6.314545e-05,732.0899999994551,4.690778e-06
732.1049999994551,1.93675e-05,732.1049999994551,0.0006771854,732.1049999994551,6.228338e-05,732.1049999994551,4.832776e-06
732.1199999994551,1.909649e-05,732.1199999994551,0.0006792189,732.1199999994551,6.098381e-05,732.1199999994551,4.771172e-06
732.1349999994551,1.919288e-05,732.1349999994551,0.0006813877,732.1349999994551,6.360091e-05,732.1349999994551,4.95937e-06
732.1499999994551,1.928295e-05,732.1499999994551,0.0006759103,732.1499999994551,6.701201e-05,732.1499999994551,4.993339e-06
732.1649999994551,1.998746e-05,732.1649999994551,0.0007156702,732.1649999994551,6.735358e-05,732.1649999994551,5.060592e-06
732.179999999455,2.080586e-05,732.179999999455,0.0007272701,732.179999999455,6.493249e-05,732.179999999455,5.093886e-06
732.194999999455,2.111234e-05,732.194999999455,0.0007301754,732.194999999455,6.472281e-05,732.194999999455,4.850233e-06
732.209999999455,1.821764e-05,732.209999999455,0.0007420657,732.209999999455,6.114875e-05,732.209999999455,4.844421e-06
732.224999999455,1.81859e-05,732.224999999455,0.0007470493,732.224999999455,5.239881e-05,732.224999999455,4.663672e-06
732.239999999455,1.837547e-05,732.239999999455,0.0007418677,732.239999999455,5.056387e-05,732.239999999455,4.702775e-06
732.254999999455,1.801704e-05,732.254999999455,0.0005982456,732.254999999455,4.810455e-05,732.254999999455,4.666692e-06
732.269999999455,2.193758e-05,732.269999999455,0.0005495738,732.269999999455,4.578994e-05,732.269999999455,4.67875e-06
732.284999999455,2.099324e-05,732.284999999455,0.0004275862,732.284999999455,4.468984e-05,732.284999999455,4.660651e-06
732.2999999994549,2.115833e-05,732.2999999994549,0.0003894468,732.2999999994549,4.131138e-05,732.2999999994549,4.590608e-06
732.3149999994549,2.113968e-05,732.3149999994549,0.0003803521,732.3149999994549,4.053585e-05,732.3149999994549,4.687774e-06
732.3299999994549,2.059148e-05,732.3299999994549,0.0003661649,732.3299999994549,4.048926e-05,732.3299999994549,4.68176e-06
732.3449999994549,2.029588e-05,732.3449999994549,0.0003685268,732.3449999994549,4.032541e-05,732.3449999994549,4.615091e-06
732.3599999994549,2.064409e-05,732.3599999994549,0.0003691601,732.3599999994549,3.991425e-05,732.3599999994549,4.578317e-06
732.3749999994549,2.049892e-05,732.3749999994549,0.0003695247,732.3749999994549,3.873828e-05,732.3749999994549,4.447213e-06
732.3899999994549,2.064341e-05,732.3899999994549,0.0003694151,732.3899999994549,3.150741e-05,732.3899999994549,4.466178e-06
732.4049999994548,2.376712e-05,732.4049999994548,0.0003547691,732.4049999994548,2.492152e-05,732.4049999994548,4.360851e-06
732.4199999994548,2.307851e-05,732.4199999994548,0.0002389739,732.4199999994548,2.401476e-05,732.4199999994548,4.232997e-06
732.4349999994548,2.239325e-05,732.4349999994548,0.0002306826,732.4349999994548,2.288605e-05,732.4349999994548,4.152361e-06
732.4499999994548,2.218342e-05,732.4499999994548,0.0002288792,732.4499999994548,1.533687e-05,732.4499999994548,4.189512e-06
732.4649999994548,2.21262e-05,732.4649999994548,0.0002137382,732.4649999994548,1.47067e-05,732.4649999994548,4.118297e-06
732.4799999994548,2.230122e-05,732.4799999994548,0.0002061757,732.4799999994548,1.555212e-05,732.4799999994548,4.162526e-06
732.4949999994548,2.304919e-05,732.4949999994548,0.0002035903,732.4949999994548,1.521236e-05,732.4949999994548,4.182782e-06
732.5099999994547,2.339436e-05,732.5099999994547,0.0001867593,732.5099999994547,1.483924e-05,732.5099999994547,4.128545e-06
732.5249999994547,2.001351e-05,732.5249999994547,0.0001940193,732.5249999994547,1.434497e-05,732.5249999994547,4.094283e-06
732.5399999994547,2.006062e-05,732.5399999994547,0.0001956049,732.5399999994547,1.466353e-05,732.5399999994547,4.169289e-06
732.5549999994547,2.855559e-05,732.5549999994547,0.0002104728,732.5549999994547,1.487527e-05,732.5549999994547,3.986198e-06
732.5699999994547,2.866342e-05,732.5699999994547,0.0002163578,732.5699999994547,1.486011e-05,732.5699999994547,4.024883e-06
732.5849999994547,2.855658e-05,732.5849999994547,0.0002393467,732.5849999994547,1.497343e-05,732.5849999994547,4.101159e-06
