X[s],a: EMG RMS 1-1,X[s].1,a: EMG RMS 1-2,X[s].2,a: EMG RMS 1-3,X[s].3,a: EMG RMS 1-4
598.0049999995771,3.437961e-05,598.0049999995771,0.0001463249,598.0049999995771,1.611527e-05,598.0049999995771,6.749543e-06
598.0199999995771,3.609969e-05,598.0199999995771,0.0001463756,598.0199999995771,1.484019e-05,598.0199999995771,6.778699e-06
598.034999999577,3.625893e-05,598.034999999577,0.0001465046,598.034999999577,1.563613e-05,598.034999999577,6.676097e-06
598.049999999577,3.192711e-05,598.049999999577,0.0001428747,598.049999999577,1.536073e-05,598.049999999577,6.709772e-06
598.064999999577,3.202711e-05,598.064999999577,0.0001456922,598.064999999577,1.56874e-05,598.064999999577,6.99148e-06
598.079999999577,3.178074e-05,598.079999999577,0.0001481238,598.079999999577,1.746358e-05,598.079999999577,7.146909e-06
598.094999999577,3.202447e-05,598.094999999577,0.0001416758,598.094999999577,1.732835e-05,598.094999999577,7.170523e-06
598.109999999577,3.258092e-05,598.109999999577,0.0001270466,598.109999999577,1.674627e-05,598.109999999577,7.972397e-06
598.124999999577,3.275642e-05,598.124999999577,0.000126562,598.124999999577,1.694529e-05,598.124999999577,8.019962e-06
598.139999999577,3.188296e-05,598.139999999577,0.0001137468,598.139999999577,1.780073e-05,598.139999999577,8.176516e-06
598.154999999577,2.921975e-05,598.154999999577,0.0001067713,598.154999999577,1.793161e-05,598.154999999577,8.489256e-06
598.1699999995769,2.604153e-05,598.1699999995769,0.0001078074,598.1699999995769,1.942995e-05,598.1699999995769,8.414254e-06
598.1849999995769,2.718381e-05,598.1849999995769,0.0001092622,598.1849999995769,1.940456e-05,598.1849999995769,9.045189e-06
598.1999999995769,2.830139e-05,598.1999999995769,9.829275e-05,598.1999999995769,2.039075e-05,598.1999999995769,9.489051e-06
598.2149999995769,3.146983e-05,598.2149999995769,9.572558e-05,598.2149999995769,2.024028e-05,598.2149999995769,9.383058e-06
598.2299999995769,3.201963e-05,598.2299999995769,9.224213e-05,598.2299999995769,2.104283e-05,598.2299999995769,9.301635e-06
598.2449999995769,3.326677e-05,598.2449999995769,9.219035e-05,598.2449999995769,2.211219e-05,598.2449999995769,9.262176e-06
598.2599999995768,3.301002e-05,598.2599999995768,8.687426e-05,598.2599999995768,2.332803e-05,598.2599999995768,9.557095e-06
598.2749999995768,3.129072e-05,598.2749999995768,8.878575e-05,598.2749999995768,2.315346e-05,598.2749999995768,9.645126e-06
598.2899999995768,3.14743e-05,598.2899999995768,9.083296e-05,598.2899999995768,2.256933e-05,598.2899999995768,1.006256e-05
598.3049999995768,3.086236e-05,598.3049999995768,0.0001040323,598.3049999995768,2.355039e-05,598.3049999995768,1.035917e-05
598.3199999995768,3.096898e-05,598.3199999995768,0.0001243344,598.3199999995768,2.291004e-05,598.3199999995768,1.115535e-05
598.3349999995768,3.076407e-05,598.3349999995768,0.0001349576,598.3349999995768,2.247238e-05,598.3349999995768,1.158768e-05
598.3499999995768,3.120732e-05,598.3499999995768,0.0001628036,598.3499999995768,2.302473e-05,598.3499999995768,1.135187e-05
598.3649999995768,3.042103e-05,598.3649999995768,0.0001630957,598.3649999995768,2.251809e-05,598.3649999995768,1.121831e-05
598.3799999995767,3.017834e-05,598.3799999995767,0.0001692621,598.3799999995767,2.172659e-05,598.3799999995767,1.218613e-05
598.3949999995767,3.026131e-05,598.3949999995767,0.0001786805,598.3949999995767,2.112301e-05,598.3949999995767,1.213052e-05
598.4099999995767,3.126369e-05,598.4099999995767,0.0001917529,598.4099999995767,2.128114e-05,598.4099999995767,1.233321e-05
598.4249999995767,3.128397e-05,598.4249999995767,0.0003036446,598.4249999995767,2.138679e-05,598.4249999995767,1.346774e-05
598.4399999995767,3.115537e-05,598.4399999995767,0.001123579,598.4399999995767,2.154429e-05,598.4399999995767,1.367018e-05
598.4549999995767,2.845874e-05,598.4549999995767,0.001700261,598.4549999995767,2.170908e-05,598.4549999995767,1.391429e-05
598.4699999995767,2.663784e-05,598.4699999995767,0.002137421,598.4699999995767,2.21758e-05,598.4699999995767,1.531573e-05
598.4849999995766,2.516787e-05,598.4849999995766,0.002447885,598.4849999995766,2.223987e-05,598.4849999995766,1.558198e-05
598.4999999995766,2.511352e-05,598.4999999995766,0.002810668,598.4999999995766,2.248052e-05,598.4999999995766,1.631595e-05
598.5149999995766,2.647978e-05,598.5149999995766,0.003096921,598.5149999995766,2.28423e-05,598.5149999995766,1.659332e-05
598.5299999995766,2.596135e-05,598.5299999995766,0.003278973,598.5299999995766,2.330869e-05,598.5299999995766,1.683939e-05
598.5449999995766,2.704092e-05,598.5449999995766,0.003395714,598.5449999995766,2.45892e-05,598.5449999995766,1.684942e-05
598.5599999995766,2.987811e-05,598.5599999995766,0.003683518,598.5599999995766,2.560293e-05,598.5599999995766,1.711239e-05
598.5749999995766,3.369048e-05,598.5749999995766,0.003916216,598.5749999995766,3.386023e-05,598.5749999995766,1.70398e-05
598.5899999995765,3.295236e-05,598.5899999995765,0.004167621,598.5899999995765,3.444019e-05,598.5899999995765,1.774921e-05
598.6049999995765,3.368797e-05,598.6049999995765,0.004340082,598.6049999995765,3.751271e-05,598.6049999995765,1.795359e-05
598.6199999995765,3.544044e-05,598.6199999995765,0.004467052,598.6199999995765,3.948063e-05,598.6199999995765,1.845807e-05
598.6349999995765,4.066596e-05,598.6349999995765,0.004636058,598.6349999995765,4.858938e-05,598.6349999995765,1.93595e-05
598.6499999995765,4.072308e-05,598.6499999995765,0.004848435,598.6499999995765,5.179965e-05,598.6499999995765,1.933839e-05
598.6649999995765,4.077459e-05,598.6649999995765,0.005008245,598.6649999995765,5.201242e-05,598.6649999995765,1.9176e-05
598.6799999995765,4.41839e-05,598.6799999995765,0.00502003,598.6799999995765,5.694e-05,598.6799999995765,2.034233e-05
598.6949999995765,4.865776e-05,598.6949999995765,0.004927364,598.6949999995765,5.802755e-05,598.6949999995765,2.008237e-05
598.7099999995764,5.685483e-05,598.7099999995764,0.004783287,598.7099999995764,6.060682e-05,598.7099999995764,2.083563e-05
598.7249999995764,5.803362e-05,598.7249999995764,0.004592554,598.7249999995764,6.214934e-05,598.7249999995764,2.027505e-05
598.7399999995764,6.019566e-05,598.7399999995764,0.00455134,598.7399999995764,6.169527e-05,598.7399999995764,2.002548e-05
598.7549999995764,6.031115e-05,598.7549999995764,0.004494406,598.7549999995764,6.201547e-05,598.7549999995764,1.955426e-05
598.7699999995764,6.362527e-05,598.7699999995764,0.004446166,598.7699999995764,6.587308e-05,598.7699999995764,1.946038e-05
598.7849999995764,6.554464e-05,598.7849999995764,0.004275237,598.7849999995764,6.617902e-05,598.7849999995764,1.915394e-05
598.7999999995764,6.509673e-05,598.7999999995764,0.004229966,598.7999999995764,6.66389e-05,598.7999999995764,1.909871e-05
598.8149999995763,6.568076e-05,598.8149999995763,0.004114861,598.8149999995763,6.588591e-05,598.8149999995763,1.88096e-05
598.8299999995763,6.489582e-05,598.8299999995763,0.003948318,598.8299999995763,6.180409e-05,598.8299999995763,1.825008e-05
598.8449999995763,6.489192e-05,598.8449999995763,0.003718841,598.8449999995763,6.174617e-05,598.8449999995763,1.72958e-05
598.8599999995763,6.680063e-05,598.8599999995763,0.003576522,598.8599999995763,5.991066e-05,598.8599999995763,1.700753e-05
598.8749999995763,6.893661e-05,598.8749999995763,0.003247474,598.8749999995763,5.976093e-05,598.8749999995763,1.74789e-05
598.8899999995763,6.645304e-05,598.8899999995763,0.003010828,598.8899999995763,5.226287e-05,598.8899999995763,1.684273e-05
598.9049999995763,6.586965e-05,598.9049999995763,0.002759205,598.9049999995763,5.28408e-05,598.9049999995763,1.822769e-05
598.9199999995762,7.159611e-05,598.9199999995762,0.00259318,598.9199999995762,5.263486e-05,598.9199999995762,1.814946e-05
598.9349999995762,7.193354e-05,598.9349999995762,0.002473175,598.9349999995762,4.734301e-05,598.9349999995762,1.705219e-05
598.9499999995762,7.181634e-05,598.9499999995762,0.002310712,598.9499999995762,4.638048e-05,598.9499999995762,1.738354e-05
598.9649999995762,6.517826e-05,598.9649999995762,0.002258533,598.9649999995762,4.391303e-05,598.9649999995762,1.61981e-05
598.9799999995762,6.609702e-05,598.9799999995762,0.002660634,598.9799999995762,4.199956e-05,598.9799999995762,1.882158e-05
598.9949999995762,6.51108e-05,598.9949999995762,0.002640106,598.9949999995762,4.458633e-05,598.9949999995762,1.960893e-05
599.0099999995762,6.493684e-05,599.0099999995762,0.002733299,599.0099999995762,4.934197e-05,599.0099999995762,2.015869e-05
599.0249999995762,6.803239e-05,599.0249999995762,0.00269235,599.0249999995762,4.520134e-05,599.0249999995762,2.094285e-05
599.0399999995761,6.714871e-05,599.0399999995761,0.002847732,599.0399999995761,4.441825e-05,599.0399999995761,2.159327e-05
599.0549999995761,6.707798e-05,599.0549999995761,0.002891939,599.0549999995761,4.503336e-05,599.0549999995761,2.291434e-05
599.0699999995761,6.595044e-05,599.0699999995761,0.002895301,599.0699999995761,4.642905e-05,599.0699999995761,2.297083e-05
599.0849999995761,6.718688e-05,599.0849999995761,0.002921355,599.0849999995761,4.69828e-05,599.0849999995761,2.304063e-05
599.0999999995761,6.730796e-05,599.0999999995761,0.002995511,599.0999999995761,4.66192e-05,599.0999999995761,2.345749e-05
599.1149999995761,6.605779e-05,599.1149999995761,0.003070488,599.1149999995761,4.561548e-05,599.1149999995761,2.32603e-05
599.1299999995761,6.335214e-05,599.1299999995761,0.003126576,599.1299999995761,4.387099e-05,599.1299999995761,2.225696e-05
599.144999999576,6.396113e-05,599.144999999576,0.003164108,599.144999999576,4.449715e-05,599.144999999576,2.191831e-05
599.159999999576,6.44246e-05,599.159999999576,0.003187917,599.159999999576,4.131411e-05,599.159999999576,2.034649e-05
599.174999999576,5.545709e-05,599.174999999576,0.003347629,599.174999999576,4.24091e-05,599.174999999576,2.024237e-05
599.189999999576,5.064126e-05,599.189999999576,0.003509036,599.189999999576,4.244263e-05,599.189999999576,1.988358e-05
599.204999999576,5.299679e-05,599.204999999576,0.003806634,599.204999999576,4.188267e-05,599.204999999576,1.958017e-05
599.219999999576,5.335785e-05,599.219999999576,0.00399519,599.219999999576,4.21452e-05,599.219999999576,1.8935e-05
599.234999999576,5.28376e-05,599.234999999576,0.003995186,599.234999999576,3.966537e-05,599.234999999576,1.560095e-05
599.249999999576,5.417476e-05,599.249999999576,0.004024638,599.249999999576,3.574795e-05,599.249999999576,1.535431e-05
599.2649999995759,5.178142e-05,599.2649999995759,0.003809984,599.2649999995759,2.861916e-05,599.2649999995759,1.418798e-05
599.2799999995759,4.939162e-05,599.2799999995759,0.003543774,599.2799999995759,2.846121e-05,599.2799999995759,1.248532e-05
599.2949999995759,4.93882e-05,599.2949999995759,0.003485899,599.2949999995759,2.83004e-05,599.2949999995759,1.166522e-05
599.3099999995759,5.04174e-05,599.3099999995759,0.003505986,599.3099999995759,2.735891e-05,599.3099999995759,9.21185e-06
599.3249999995759,5.413001e-05,599.3249999995759,0.003541904,599.3249999995759,2.520926e-05,599.3249999995759,8.918151e-06
599.3399999995759,5.681096e-05,599.3399999995759,0.003712827,599.3399999995759,2.433293e-05,599.3399999995759,8.098617e-06
599.3549999995759,5.64837e-05,599.3549999995759,0.004077442,599.3549999995759,2.462869e-05,599.3549999995759,7.404416e-06
599.3699999995758,5.728628e-05,599.3699999995758,0.004366543,599.3699999995758,2.453758e-05,599.3699999995758,7.017624e-06
599.3849999995758,5.667143e-05,599.3849999995758,0.004599665,599.3849999995758,2.302596e-05,599.3849999995758,7.135074e-06
599.3999999995758,5.601564e-05,599.3999999995758,0.004778582,599.3999999995758,2.326332e-05,599.3999999995758,7.085544e-06
599.4149999995758,5.581334e-05,599.4149999995758,0.004813459,599.4149999995758,2.257993e-05,599.4149999995758,7.023643e-06
599.4299999995758,5.636687e-05,599.4299999995758,0.004704634,599.4299999995758,1.976349e-05,599.4299999995758,6.428867e-06
599.4449999995758,5.404407e-05,599.4449999995758,0.004578575,599.4449999995758,2.017475e-05,599.4449999995758,6.251117e-06
599.4599999995758,5.49457e-05,599.4599999995758,0.004435365,599.4599999995758,2.022636e-05,599.4599999995758,6.068162e-06
599.4749999995757,5.533962e-05,599.4749999995757,0.004227085,599.4749999995757,1.928733e-05,599.4749999995757,6.063518e-06
599.4899999995757,5.428152e-05,599.4899999995757,0.003952909,599.4899999995757,2.211282e-05,599.4899999995757,6.205884e-06
599.5049999995757,5.184368e-05,599.5049999995757,0.003685981,599.5049999995757,2.20273e-05,599.5049999995757,6.266871e-06
599.5199999995757,4.828606e-05,599.5199999995757,0.00374669,599.5199999995757,2.173243e-05,599.5199999995757,5.706874e-06
599.5349999995757,4.841629e-05,599.5349999995757,0.003901581,599.5349999995757,2.186297e-05,599.5349999995757,5.412975e-06
599.5499999995757,4.777221e-05,599.5499999995757,0.003866736,599.5499999995757,2.20145e-05,599.5499999995757,5.381656e-06
599.5649999995757,4.548126e-05,599.5649999995757,0.003637917,599.5649999995757,2.313094e-05,599.5649999995757,5.305204e-06
599.5799999995756,3.659652e-05,599.5799999995756,0.00342541,599.5799999995756,2.448299e-05,599.5799999995756,5.433755e-06
599.5949999995756,3.662269e-05,599.5949999995756,0.003292885,599.5949999995756,2.474908e-05,599.5949999995756,5.696992e-06
599.6099999995756,3.486823e-05,599.6099999995756,0.003158019,599.6099999995756,2.495541e-05,599.6099999995756,5.751133e-06
599.6249999995756,3.527191e-05,599.6249999995756,0.003047573,599.6249999995756,2.58237e-05,599.6249999995756,5.604757e-06
599.6399999995756,3.562123e-05,599.6399999995756,0.002767438,599.6399999995756,2.707789e-05,599.6399999995756,5.503306e-06
599.6549999995756,3.520995e-05,599.6549999995756,0.002488155,599.6549999995756,2.619847e-05,599.6549999995756,5.405162e-06
599.6699999995756,3.537878e-05,599.6699999995756,0.002384849,599.6699999995756,2.82745e-05,599.6699999995756,5.503306e-06
599.6849999995756,3.545038e-05,599.6849999995756,0.002424711,599.6849999995756,3.038349e-05,599.6849999995756,5.472503e-06
599.6999999995755,3.291943e-05,599.6999999995755,0.002456543,599.6999999995755,3.319471e-05,599.6999999995755,5.428567e-06
599.7149999995755,3.154539e-05,599.7149999995755,0.002439693,599.7149999995755,5.501129e-05,599.7149999995755,5.464775e-06
599.7299999995755,3.145909e-05,599.7299999995755,0.002482133,599.7299999995755,7.691122e-05,599.7299999995755,5.326404e-06
599.7449999995755,3.210838e-05,599.7449999995755,0.00256009,599.7449999995755,8.187086e-05,599.7449999995755,5.238403e-06
599.7599999995755,3.202095e-05,599.7599999995755,0.002573941,599.7599999995755,8.576932e-05,599.7599999995755,5.060592e-06
599.7749999995755,3.105029e-05,599.7749999995755,0.002432065,599.7749999995755,9.463215e-05,599.7749999995755,5.187057e-06
599.7899999995755,3.062455e-05,599.7899999995755,0.002245115,599.7899999995755,9.753673e-05,599.7899999995755,5.010237e-06
599.8049999995754,3.205174e-05,599.8049999995754,0.002173244,599.8049999995754,9.864267e-05,599.8049999995754,5.049445e-06
599.8199999995754,3.024641e-05,599.8199999995754,0.002178444,599.8199999995754,0.0001094232,599.8199999995754,4.996159e-06
599.8349999995754,3.396325e-05,599.8349999995754,0.002135478,599.8349999995754,0.0001161449,599.8349999995754,4.867628e-06
599.8499999995754,3.559354e-05,599.8499999995754,0.002015914,599.8499999995754,0.0001214282,599.8499999995754,4.587538e-06
599.8649999995754,3.45321e-05,599.8649999995754,0.001748487,599.8649999995754,0.0001513673,599.8649999995754,4.593675e-06
599.8799999995754,3.43751e-05,599.8799999995754,0.001627291,599.8799999995754,0.0001981563,599.8799999995754,4.605925e-06
599.8949999995754,3.408414e-05,599.8949999995754,0.001532436,599.8949999995754,0.0002111916,599.8949999995754,4.52882e-06
599.9099999995753,3.423836e-05,599.9099999995753,0.001502537,599.9099999995753,0.0002145331,599.9099999995753,4.466178e-06
599.9249999995753,3.397113e-05,599.9249999995753,0.001460648,599.9249999995753,0.0002449437,599.9249999995753,4.547444e-06
599.9399999995753,3.40891e-05,599.9399999995753,0.001428318,599.9399999995753,0.0002664078,599.9399999995753,4.590608e-06
599.9549999995753,3.422396e-05,599.9549999995753,0.001147178,599.9549999995753,0.0002685205,599.9549999995753,4.723696e-06
599.9699999995753,3.421367e-05,599.9699999995753,0.001105517,599.9699999995753,0.0002706722,599.9699999995753,4.535037e-06
599.9849999995753,3.420132e-05,599.9849999995753,0.0008951424,599.9849999995753,0.0002706263,599.9849999995753,4.575239e-06
599.9999999995753,3.325873e-05,599.9999999995753,0.0006326833,599.9999999995753,0.0002786617,599.9999999995753,4.584466e-06
600.0149999995753,3.256967e-05,600.0149999995753,0.0005178828,600.0149999995753,0.0003087135,600.0149999995753,4.354386e-06
600.0299999995752,3.26388e-05,600.0299999995752,0.0005125768,600.0299999995752,0.0003249708,600.0299999995752,4.341427e-06
600.0449999995752,3.327016e-05,600.0449999995752,0.0005070543,600.0449999995752,0.0003353986,600.0449999995752,4.38019e-06
600.0599999995752,3.38186e-05,600.0599999995752,0.0004751386,600.0599999995752,0.0003398641,600.0599999995752,4.478776e-06
600.0749999995752,3.178694e-05,600.0749999995752,0.0003789111,600.0749999995752,0.0003491734,600.0749999995752,4.565993e-06
600.0899999995752,3.008718e-05,600.0899999995752,0.0002961401,600.0899999995752,0.0003729018,600.0899999995752,4.463023e-06
600.1049999995752,2.818268e-05,600.1049999995752,0.0002914196,600.1049999995752,0.0003832195,600.1049999995752,4.383405e-06
600.1199999995752,2.936307e-05,600.1199999995752,0.0002843623,600.1199999995752,0.0003700622,600.1199999995752,4.308857e-06
600.1349999995751,3.079611e-05,600.1349999995751,0.0002797512,600.1349999995751,0.0003473836,600.1349999995751,4.302314e-06
600.1499999995751,3.156592e-05,600.1499999995751,0.0002773933,600.1499999995751,0.0003405479,600.1499999995751,4.279333e-06
600.1649999995751,3.244878e-05,600.1649999995751,0.0002716933,600.1649999995751,0.0003372583,600.1649999995751,4.506994e-06
600.1799999995751,3.260253e-05,600.1799999995751,0.0002684586,600.1799999995751,0.0003176503,600.1799999995751,4.318654e-06
600.1949999995751,3.208775e-05,600.1949999995751,0.0002618258,600.1949999995751,0.0003091182,600.1949999995751,4.399444e-06
600.2099999995751,3.196151e-05,600.2099999995751,0.0002596984,600.2099999995751,0.0003078082,600.2099999995751,4.312125e-06
600.2249999995751,3.292285e-05,600.2249999995751,0.0002046959,600.2249999995751,0.0002994161,600.2249999995751,4.266145e-06
600.239999999575,3.343361e-05,600.239999999575,0.0001671317,600.239999999575,0.0002967354,600.239999999575,4.252917e-06
600.254999999575,3.394914e-05,600.254999999575,0.0001037767,600.254999999575,0.0002825921,600.254999999575,4.239647e-06
600.269999999575,3.419308e-05,600.269999999575,8.059403e-05,600.269999999575,0.0002427227,600.269999999575,4.182782e-06
600.284999999575,3.334291e-05,600.284999999575,8.443885e-05,600.284999999575,0.0002240634,600.284999999575,4.118297e-06
600.299999999575,3.594796e-05,600.299999999575,8.686988e-05,600.299999999575,0.0001941773,600.299999999575,4.104592e-06
600.314999999575,3.377234e-05,600.314999999575,8.522395e-05,600.314999999575,0.0001875798,600.314999999575,4.007346e-06
600.329999999575,3.680609e-05,600.329999999575,7.860991e-05,600.329999999575,0.0001597144,600.329999999575,4.128545e-06
600.344999999575,3.69962e-05,600.344999999575,7.99426e-05,600.344999999575,0.0001179133,600.344999999575,4.27604e-06
600.3599999995749,3.731429e-05,600.3599999995749,7.673024e-05,600.3599999995749,8.168707e-05,600.3599999995749,4.179412e-06
600.3749999995749,3.592758e-05,600.3749999995749,6.762658e-05,600.3749999995749,7.141921e-05,600.3749999995749,4.29248e-06
600.3899999995749,3.575071e-05,600.3899999995749,6.865342e-05,600.3899999995749,6.469538e-05,600.3899999995749,4.189512e-06
600.4049999995749,3.538913e-05,600.4049999995749,6.63253e-05,600.4049999995749,6.422663e-05,600.4049999995749,4.266145e-06
600.4199999995749,3.538714e-05,600.4199999995749,6.625369e-05,600.4199999995749,6.272353e-05,600.4199999995749,4.565993e-06
600.4349999995749,3.903605e-05,600.4349999995749,8.495212e-05,600.4349999995749,5.902425e-05,600.4349999995749,4.38019e-06
600.4499999995749,4.037533e-05,600.4499999995749,8.732436e-05,600.4499999995749,5.350654e-05,600.4499999995749,4.35762e-06
600.4649999995748,3.969413e-05,600.4649999995748,8.911151e-05,600.4649999995748,5.063403e-05,600.4649999995748,4.334932e-06
600.4799999995748,3.877499e-05,600.4799999995748,9.20616e-05,600.4799999995748,5.167222e-05,600.4799999995748,4.418613e-06
600.4949999995748,3.817528e-05,600.4949999995748,9.847488e-05,600.4949999995748,5.439325e-05,600.4949999995748,4.373753e-06
600.5099999995748,3.705441e-05,600.5099999995748,9.739567e-05,600.5099999995748,5.440827e-05,600.5099999995748,4.444044e-06
600.5249999995748,3.762819e-05,600.5249999995748,9.765523e-05,600.5249999995748,5.253467e-05,600.5249999995748,4.428167e-06
600.5399999995748,3.843235e-05,600.5399999995748,9.859468e-05,600.5399999995748,5.281626e-05,600.5399999995748,4.418613e-06
600.5549999995748,3.517914e-05,600.5549999995748,9.693043e-05,600.5549999995748,4.841512e-05,600.5549999995748,4.418613e-06
600.5699999995747,3.52771e-05,600.5699999995747,9.388716e-05,600.5699999995747,4.566826e-05,600.5699999995747,4.38019e-06
600.5849999995747,3.160784e-05,600.5849999995747,9.47629e-05,600.5849999995747,4.456389e-05,600.5849999995747,4.125132e-06
600.5999999995747,3.183698e-05,600.5999999995747,9.468944e-05,600.5999999995747,4.461665e-05,600.5999999995747,4.38019e-06
600.6149999995747,3.301898e-05,600.6149999995747,9.507456e-05,600.6149999995747,4.79053e-05,600.6149999995747,4.550541e-06
600.6299999995747,3.345004e-05,600.6299999995747,9.716456e-05,600.6299999995747,4.891704e-05,600.6299999995747,4.500739e-06
600.6449999995747,3.187589e-05,600.6449999995747,9.679896e-05,600.6449999995747,4.872025e-05,600.6449999995747,4.639445e-06
600.6599999995747,3.116305e-05,600.6599999995747,9.771349e-05,600.6599999995747,5.680004e-05,600.6599999995747,4.27604e-06
600.6749999995747,2.811963e-05,600.6749999995747,8.804745e-05,600.6749999995747,6.856595e-05,600.6749999995747,4.070128e-06
600.6899999995746,2.567929e-05,600.6899999995746,8.27301e-05,600.6899999995746,6.979562e-05,600.6899999995746,4.299038e-06
600.7049999995746,2.404993e-05,600.7049999995746,7.998382e-05,600.7049999995746,6.896112e-05,600.7049999995746,4.516361e-06
600.7199999995746,2.509332e-05,600.7199999995746,8.100495e-05,600.7199999995746,6.916367e-05,600.7199999995746,4.556728e-06
600.7349999995746,2.521708e-05,600.7349999995746,7.747983e-05,600.7349999995746,6.943463e-05,600.7349999995746,4.531929e-06
600.7499999995746,2.542403e-05,600.7499999995746,6.678797e-05,600.7499999995746,8.387039e-05,600.7499999995746,4.469331e-06
600.7649999995746,2.765899e-05,600.7649999995746,6.647126e-05,600.7649999995746,0.0001120025,600.7649999995746,4.657627e-06
600.7799999995746,2.864818e-05,600.7799999995746,6.341748e-05,600.7799999995746,0.0001131975,600.7799999995746,4.642481e-06
600.7949999995745,2.884859e-05,600.7949999995745,6.160067e-05,600.7949999995745,0.0001160983,600.7949999995745,4.608983e-06
600.8099999995745,2.841068e-05,600.8099999995745,6.154073e-05,600.8099999995745,0.0001166875,600.8099999995745,4.741556e-06
600.8249999995745,2.900977e-05,600.8249999995745,5.796561e-05,600.8249999995745,0.0001168701,600.8249999995745,4.832776e-06
600.8399999995745,2.898208e-05,600.8399999995745,5.365928e-05,600.8399999995745,0.0001193388,600.8399999995745,4.821102e-06
600.8549999995745,2.711895e-05,600.8549999995745,5.387333e-05,600.8549999995745,0.0001192982,600.8549999995745,4.916579e-06
600.8699999995745,2.792812e-05,600.8699999995745,5.313244e-05,600.8699999995745,0.0001183137,600.8699999995745,4.771172e-06
600.8849999995745,2.674761e-05,600.8849999995745,5.290873e-05,600.8849999995745,0.0001180652,600.8849999995745,4.844421e-06
600.8999999995744,2.822214e-05,600.8999999995744,5.307408e-05,600.8999999995744,0.0001187044,600.8999999995744,5.013047e-06
600.9149999995744,2.888568e-05,600.9149999995744,5.511107e-05,600.9149999995744,0.0001154196,600.9149999995744,5.208738e-06
600.9299999995744,3.192667e-05,600.9299999995744,5.511695e-05,600.9299999995744,0.0001113475,600.9299999995744,5.135199e-06
600.9449999995744,3.364027e-05,600.9449999995744,4.996779e-05,600.9449999995744,0.0001121779,600.9449999995744,5.02147e-06
600.9599999995744,3.251687e-05,600.9599999995744,5.477109e-05,600.9599999995744,0.0001118139,600.9599999995744,5.336972e-06
600.9749999995744,3.30241e-05,600.9749999995744,5.294333e-05,600.9749999995744,0.0001118612,600.9749999995744,5.358047e-06
600.9899999995744,3.265347e-05,600.9899999995744,6.321123e-05,600.9899999995744,0.0001111339,600.9899999995744,5.867525e-06
601.0049999995744,3.309441e-05,601.0049999995744,7.17178e-05,601.0049999995744,8.886948e-05,601.0049999995744,5.833818e-06
601.0199999995743,3.161765e-05,601.0199999995743,9.666383e-05,601.0199999995743,0.0001055187,601.0199999995743,6.056544e-06
601.0349999995743,3.050195e-05,601.0349999995743,0.0001016013,601.0349999995743,0.0002028235,601.0349999995743,6.273611e-06
601.0499999995743,3.012835e-05,601.0499999995743,0.0001015681,601.0499999995743,0.0003790719,601.0499999995743,6.331722e-06
601.0649999995743,3.214696e-05,601.0649999995743,0.0001036371,601.0649999995743,0.0004922902,601.0649999995743,6.360578e-06
601.0799999995743,3.241229e-05,601.0799999995743,0.0001053403,601.0799999995743,0.0006684153,601.0799999995743,6.42229e-06
601.0949999995743,3.328836e-05,601.0949999995743,0.0001069615,601.0949999995743,0.00144503,601.0949999995743,6.518086e-06
601.1099999995743,3.354634e-05,601.1099999995743,0.000106452,601.1099999995743,0.001553484,601.1099999995743,6.426676e-06
601.1249999995742,3.373394e-05,601.1249999995742,0.0001104368,601.1249999995742,0.00185888,601.1249999995742,6.496438e-06
601.1399999995742,3.416423e-05,601.1399999995742,0.0001102308,601.1399999995742,0.001948509,601.1399999995742,6.431058e-06
601.1549999995742,3.228295e-05,601.1549999995742,0.0001099934,601.1549999995742,0.002017002,601.1549999995742,6.219488e-06
601.1699999995742,3.193638e-05,601.1699999995742,0.000110152,601.1699999995742,0.002057423,601.1699999995742,6.155743e-06
601.1849999995742,2.921397e-05,601.1849999995742,0.0001100635,601.1849999995742,0.002094234,601.1849999995742,6.079758e-06
601.1999999995742,2.851511e-05,601.1999999995742,0.0001098868,601.1999999995742,0.002095398,601.1999999995742,6.137409e-06
601.2149999995742,2.821266e-05,601.2149999995742,0.0001091782,601.2149999995742,0.00210158,601.2149999995742,5.828986e-06
601.2299999995741,2.848348e-05,601.2299999995741,0.0001096021,601.2299999995741,0.002105,601.2299999995741,5.780451e-06
601.2449999995741,2.861029e-05,601.2449999995741,0.0001011947,601.2449999995741,0.002105787,601.2449999995741,5.493057e-06
601.2599999995741,2.90122e-05,601.2599999995741,0.0001039868,601.2599999995741,0.002104315,601.2599999995741,5.384273e-06
601.2749999995741,2.840176e-05,601.2749999995741,8.250128e-05,601.2749999995741,0.002102704,601.2749999995741,5.329048e-06
601.2899999995741,2.90675e-05,601.2899999995741,8.857909e-05,601.2899999995741,0.002092347,601.2899999995741,5.216845e-06
601.3049999995741,2.762484e-05,601.3049999995741,9.527851e-05,601.3049999995741,0.002055937,601.3049999995741,5.339611e-06
601.3199999995741,2.676498e-05,601.3199999995741,0.0001002452,601.3199999995741,0.00203675,601.3199999995741,5.099414e-06
601.334999999574,2.605883e-05,601.334999999574,0.0001048123,601.334999999574,0.001836852,601.334999999574,5.060592e-06
601.349999999574,2.524053e-05,601.349999999574,0.000103531,601.349999999574,0.001492565,601.349999999574,4.873412e-06
601.364999999574,2.714958e-05,601.364999999574,0.0001003612,601.364999999574,0.001311812,601.364999999574,5.289249e-06
601.379999999574,2.720142e-05,601.379999999574,0.0002276244,601.379999999574,0.001008898,601.379999999574,5.278585e-06
601.394999999574,2.894219e-05,601.394999999574,0.0002487188,601.394999999574,0.0007492616,601.394999999574,5.381656e-06
601.409999999574,2.845973e-05,601.409999999574,0.0002754055,601.409999999574,0.0006731652,601.409999999574,5.475077e-06
601.424999999574,2.935203e-05,601.424999999574,0.0003002955,601.424999999574,0.0004940049,601.424999999574,5.592176e-06
601.439999999574,3.022685e-05,601.439999999574,0.0003064624,601.439999999574,0.0004056721,601.439999999574,5.472503e-06
601.4549999995739,3.078696e-05,601.4549999995739,0.000307002,601.4549999995739,0.0004118672,601.4549999995739,5.469929e-06
601.4699999995739,3.157262e-05,601.4699999995739,0.0003092035,601.4699999995739,0.000395325,601.4699999995739,5.329048e-06
601.4849999995739,3.189489e-05,601.4849999995739,0.0003106136,601.4849999995739,0.0003936634,601.4849999995739,5.360675e-06
601.4999999995739,3.167818e-05,601.4999999995739,0.0003134603,601.4999999995739,0.0003979243,601.4999999995739,5.355417e-06
601.5149999995739,3.071366e-05,601.5149999995739,0.0003091683,601.5149999995739,0.0003994015,601.5149999995739,5.376418e-06
601.5299999995739,3.007032e-05,601.5299999995739,0.0003089222,601.5299999995739,0.0003996342,601.5299999995739,5.157098e-06
601.5449999995739,2.983092e-05,601.5449999995739,0.0003074038,601.5449999995739,0.0004008969,601.5449999995739,4.910845e-06
601.5599999995738,3.080205e-05,601.5599999995738,0.0003055455,601.5599999995738,0.0004039903,601.5599999995738,4.910845e-06
601.5749999995738,3.168441e-05,601.5749999995738,0.0003038344,601.5749999995738,0.0004066337,601.5749999995738,4.887844e-06
601.5899999995738,3.130197e-05,601.5899999995738,0.000301675,601.5899999995738,0.0004067802,601.5899999995738,4.896482e-06
601.6049999995738,3.035752e-05,601.6049999995738,0.0003019742,601.6049999995738,0.0003165842,601.6049999995738,4.696781e-06
601.6199999995738,2.888519e-05,601.6199999995738,0.000300652,601.6199999995738,0.0002984446,601.6199999995738,4.373753e-06
601.6349999995738,3.039925e-05,601.6349999995738,0.0001963761,601.6349999995738,0.0002674776,601.6349999995738,4.289197e-06
601.6499999995738,2.826653e-05,601.6499999995738,0.0001868401,601.6499999995738,0.0002207637,601.6499999995738,4.010859e-06
601.6649999995738,2.77992e-05,601.6649999995738,0.000137285,601.6649999995738,0.0002020599,601.6649999995738,4.302314e-06
601.6799999995737,2.827948e-05,601.6799999995737,8.735339e-05,601.6799999995737,0.0002033941,601.6799999995737,4.272744e-06
601.6949999995737,2.917247e-05,601.6949999995737,7.631365e-05,601.6949999995737,0.0001848419,601.6949999995737,4.556728e-06
601.7099999995737,2.912317e-05,601.7099999995737,7.41924e-05,601.7099999995737,0.0001499273,601.7099999995737,4.522595e-06
601.7249999995737,2.831831e-05,601.7249999995737,6.958035e-05,601.7249999995737,0.0001463947,601.7249999995737,4.466178e-06
601.7399999995737,2.905489e-05,601.7399999995737,6.735483e-05,601.7399999995737,0.0001316089,601.7399999995737,4.584466e-06
601.7549999995737,3.351357e-05,601.7549999995737,5.919607e-05,601.7549999995737,0.0001178856,601.7549999995737,4.605925e-06
601.7699999995737,3.410067e-05,601.7699999995737,5.840719e-05,601.7699999995737,0.0001100025,601.7699999995737,4.965048e-06
601.7849999995736,3.394499e-05,601.7849999995736,5.57732e-05,601.7849999995736,0.0001097162,601.7849999995736,5.00461e-06
601.7999999995736,3.398854e-05,601.7999999995736,5.694099e-05,601.7999999995736,0.0001052167,601.7999999995736,5.157098e-06
601.8149999995736,3.431357e-05,601.8149999995736,5.934984e-05,601.8149999995736,9.376976e-05,601.8149999995736,5.265225e-06
601.8299999995736,3.860241e-05,601.8299999995736,5.777575e-05,601.8299999995736,8.269859e-05,601.8299999995736,5.559333e-06
601.8449999995736,4.057614e-05,601.8449999995736,6.081241e-05,601.8449999995736,8.120105e-05,601.8449999995736,5.577042e-06
601.8599999995736,4.06098e-05,601.8599999995736,7.906536e-05,601.8599999995736,7.499217e-05,601.8599999995736,5.804769e-06
601.8749999995736,4.257551e-05,601.8749999995736,9.01427e-05,601.8749999995736,7.557523e-05,601.8749999995736,5.802342e-06
601.8899999995735,4.380319e-05,601.8899999995735,0.0001096473,601.8899999995735,8.358252e-05,601.8899999995735,5.797484e-06
601.9049999995735,4.408847e-05,601.9049999995735,0.0001225526,601.9049999995735,9.448347e-05,601.9049999995735,5.924864e-06
601.9199999995735,4.583729e-05,601.9199999995735,0.0001233344,601.9199999995735,9.527082e-05,601.9199999995735,5.812045e-06
601.9349999995735,4.574531e-05,601.9349999995735,0.000129678,601.9349999995735,9.309007e-05,601.9349999995735,5.841057e-06
601.9499999995735,4.393067e-05,601.9499999995735,0.0001382758,601.9499999995735,9.293393e-05,601.9499999995735,6.289309e-06
601.9649999995735,4.549272e-05,601.9649999995735,0.0001501128,601.9649999995735,9.873788e-05,601.9649999995735,6.378271e-06
601.9799999995735,5.093416e-05,601.9799999995735,0.0001545966,601.9799999995735,0.0001008923,601.9799999995735,7.091506e-06
601.9949999995735,6.447989e-05,601.9949999995735,0.0001581564,601.9949999995735,9.931144e-05,601.9949999995735,7.139021e-06
602.0099999995734,6.901054e-05,602.0099999995734,0.000158772,602.0099999995734,9.7899e-05,602.0099999995734,7.233115e-06
602.0249999995734,7.055061e-05,602.0249999995734,0.0001588212,602.0249999995734,9.780859e-05,602.0249999995734,7.160693e-06
602.0399999995734,7.088904e-05,602.0399999995734,0.0001613691,602.0399999995734,9.777949e-05,602.0399999995734,7.170523e-06
602.0549999995734,7.431192e-05,602.0549999995734,0.0001618076,602.0549999995734,9.685309e-05,602.0549999995734,7.174451e-06
602.0699999995734,7.351509e-05,602.0699999995734,0.0001709592,602.0699999995734,9.507441e-05,602.0699999995734,7.235062e-06
602.0849999995734,7.651275e-05,602.0849999995734,0.000176004,602.0849999995734,9.439442e-05,602.0849999995734,7.12124e-06
602.0999999995734,0.0001061913,602.0999999995734,0.0001737146,602.0999999995734,9.418272e-05,602.0999999995734,7.071614e-06
602.1149999995733,0.0001088987,602.1149999995733,0.0001672627,602.1149999995733,9.401401e-05,602.1149999995733,7.041671e-06
602.1299999995733,0.0001089766,602.1299999995733,0.0001669067,602.1299999995733,9.087343e-05,602.1299999995733,7.125195e-06
602.1449999995733,0.0001095657,602.1449999995733,0.0001548697,602.1449999995733,7.029677e-05,602.1449999995733,7.069622e-06
602.1599999995733,0.0001126626,602.1599999995733,0.0001529316,602.1599999995733,5.373273e-05,602.1599999995733,7.023643e-06
602.1749999995733,0.0001246894,602.1749999995733,0.0001474777,602.1749999995733,5.198343e-05,602.1749999995733,7.003558e-06
602.1899999995733,0.0001262395,602.1899999995733,0.0001452163,602.1899999995733,4.798874e-05,602.1899999995733,6.818068e-06
602.2049999995733,0.0001301678,602.2049999995733,0.0001387126,602.2049999995733,4.029396e-05,602.2049999995733,6.770382e-06
602.2199999995732,0.0001316647,602.2199999995732,0.0001240778,602.2199999995732,2.646488e-05,602.2199999995732,6.371642e-06
602.2349999995732,0.0001291587,602.2349999995732,0.0001212885,602.2349999995732,2.223987e-05,602.2349999995732,6.342836e-06
602.2499999995732,0.0001217064,602.2499999995732,0.0001192102,602.2499999995732,2.209562e-05,602.2499999995732,6.196798e-06
602.2649999995732,0.0001231852,602.2649999995732,0.0001179059,602.2649999995732,2.296715e-05,602.2649999995732,6.224016e-06
602.2799999995732,0.000123878,602.2799999995732,0.0001186232,602.2799999995732,2.476672e-05,602.2799999995732,6.051891e-06
602.2949999995732,0.000124657,602.2949999995732,0.0001214288,602.2949999995732,2.667641e-05,602.2949999995732,6.148874e-06
602.3099999995732,0.0001241616,602.3099999995732,0.0001219,602.3099999995732,2.687842e-05,602.3099999995732,6.224016e-06
602.3249999995732,0.0001241345,602.3249999995732,0.0001512756,602.3249999995732,2.701695e-05,602.3249999995732,6.05887e-06
602.3399999995731,0.0001240846,602.3399999995731,0.000213529,602.3399999995731,2.702842e-05,602.3399999995731,6.151165e-06
602.3549999995731,0.0001107084,602.3549999995731,0.0002286769,602.3549999995731,2.608261e-05,602.3549999995731,6.08439e-06
602.3699999995731,0.0001103499,602.3699999995731,0.0002523017,602.3699999995731,2.565898e-05,602.3699999995731,6.030905e-06
602.3849999995731,0.0001114746,602.3849999995731,0.000925856,602.3849999995731,2.688471e-05,602.3849999995731,6.248863e-06
602.3999999995731,0.0001101953,602.3999999995731,0.001543092,602.3999999995731,2.643559e-05,602.3999999995731,6.226279e-06
602.4149999995731,0.0001084705,602.4149999995731,0.00191976,602.4149999995731,2.477241e-05,602.4149999995731,6.4921e-06
602.429999999573,9.508878e-05,602.429999999573,0.002273452,602.429999999573,2.525169e-05,602.429999999573,6.567604e-06
602.444999999573,9.344109e-05,602.444999999573,0.002615944,602.444999999573,2.580788e-05,602.444999999573,6.690851e-06
602.459999999573,8.930684e-05,602.459999999573,0.002839343,602.459999999573,2.562437e-05,602.459999999573,6.035575e-06
602.474999999573,8.953195e-05,602.474999999573,0.003173686,602.474999999573,2.551474e-05,602.474999999573,6.302733e-06
602.489999999573,8.83399e-05,602.489999999573,0.003451711,602.489999999573,2.565185e-05,602.489999999573,6.522406e-06
602.504999999573,8.73163e-05,602.504999999573,0.003669935,602.504999999573,2.719831e-05,602.504999999573,6.196798e-06
602.519999999573,8.361942e-05,602.519999999573,0.003786481,602.519999999573,2.667694e-05,602.519999999573,6.174023e-06
602.534999999573,8.256613e-05,602.534999999573,0.003840524,602.534999999573,2.53769e-05,602.534999999573,6.072803e-06
602.549999999573,8.042799e-05,602.549999999573,0.003861682,602.549999999573,2.427613e-05,602.549999999573,6.093644e-06
602.5649999995729,7.953539e-05,602.5649999995729,0.004089617,602.5649999995729,2.503375e-05,602.5649999995729,5.960421e-06
602.5799999995729,7.844847e-05,602.5799999995729,0.004353771,602.5799999995729,2.515612e-05,602.5799999995729,6.079758e-06
602.5949999995729,6.57365e-05,602.5949999995729,0.004580828,602.5949999995729,2.498869e-05,602.5949999995729,6.863372e-06
602.6099999995729,5.090898e-05,602.6099999995729,0.004682068,602.6099999995729,2.506355e-05,602.6099999995729,6.989465e-06
602.6249999995729,4.890638e-05,602.6249999995729,0.004751122,602.6249999995729,2.484339e-05,602.6249999995729,7.073606e-06
602.6399999995729,4.76479e-05,602.6399999995729,0.004626855,602.6399999995729,2.342565e-05,602.6399999995729,7.423416e-06
602.6549999995729,4.488171e-05,602.6549999995729,0.004520249,602.6549999995729,2.389008e-05,602.6549999995729,7.38918e-06
602.6699999995728,4.255632e-05,602.6699999995728,0.004435934,602.6699999995728,2.401887e-05,602.6699999995728,7.717415e-06
602.6849999995728,4.020331e-05,602.6849999995728,0.004202227,602.6849999995728,2.334794e-05,602.6849999995728,7.818965e-06
602.6999999995728,3.3326e-05,602.6999999995728,0.003940979,602.6999999995728,2.432077e-05,602.6999999995728,8.308113e-06
602.7149999995728,3.230476e-05,602.7149999995728,0.003738466,602.7149999995728,2.483772e-05,602.7149999995728,1.001204e-05
602.7299999995728,3.366748e-05,602.7299999995728,0.00360735,602.7299999995728,2.483091e-05,602.7299999995728,1.129465e-05
602.7449999995728,3.706733e-05,602.7449999995728,0.00349053,602.7449999995728,2.917005e-05,602.7449999995728,1.173025e-05
602.7599999995728,3.988566e-05,602.7599999995728,0.003362596,602.7599999995728,2.866293e-05,602.7599999995728,1.198918e-05
602.7749999995727,4.413541e-05,602.7749999995727,0.003411058,602.7749999995727,2.880412e-05,602.7749999995727,1.257302e-05
602.7899999995727,4.59343e-05,602.7899999995727,0.003544865,602.7899999995727,2.952239e-05,602.7899999995727,1.293964e-05
602.8049999995727,4.700168e-05,602.8049999995727,0.003555324,602.8049999995727,3.017274e-05,602.8049999995727,1.318552e-05
602.8199999995727,6.694134e-05,602.8199999995727,0.003445903,602.8199999995727,3.002719e-05,602.8199999995727,1.362787e-05
602.8349999995727,7.345298e-05,602.8349999995727,0.003321623,602.8349999995727,3.001265e-05,602.8349999995727,1.364337e-05
602.8499999995727,8.421601e-05,602.8499999995727,0.00299315,602.8499999995727,3.046591e-05,602.8499999995727,1.422863e-05
602.8649999995727,8.690215e-05,602.8649999995727,0.003182494,602.8649999995727,3.148057e-05,602.8649999995727,1.515484e-05
602.8799999995726,8.903512e-05,602.8799999995726,0.00351262,602.8799999995726,3.223973e-05,602.8799999995726,1.754567e-05
602.8949999995726,9.116717e-05,602.8949999995726,0.003658975,602.8949999995726,3.35946e-05,602.8949999995726,1.825626e-05
602.9099999995726,9.554117e-05,602.9099999995726,0.003775751,602.9099999995726,3.551351e-05,602.9099999995726,2.698095e-05
602.9249999995726,0.0001137161,602.9249999995726,0.004014516,602.9249999995726,3.712808e-05,602.9249999995726,2.708829e-05
602.9399999995726,0.0001167737,602.9399999995726,0.004276599,602.9399999995726,3.715577e-05,602.9399999995726,2.818668e-05
602.9549999995726,0.0001172189,602.9549999995726,0.004471254,602.9549999995726,3.608525e-05,602.9549999995726,2.921879e-05
602.9699999995726,0.0001214619,602.9699999995726,0.004620842,602.9699999995726,3.673177e-05,602.9699999995726,2.850671e-05
602.9849999995726,0.0001281067,602.9849999995726,0.0047568,602.9849999995726,4.060217e-05,602.9849999995726,2.871547e-05
602.9999999995725,0.0001390291,602.9999999995725,0.004874952,602.9999999995725,3.87281e-05,602.9999999995725,2.920625e-05
603.0149999995725,0.0001389087,603.0149999995725,0.005021307,603.0149999995725,4.254904e-05,603.0149999995725,2.948706e-05
603.0299999995725,0.0001390044,603.0299999995725,0.005104748,603.0299999995725,4.425271e-05,603.0299999995725,2.940621e-05
603.0449999995725,0.0001397835,603.0449999995725,0.005136881,603.0449999995725,4.521349e-05,603.0449999995725,2.990591e-05
603.0599999995725,0.0001383428,603.0599999995725,0.005224086,603.0599999995725,4.57373e-05,603.0599999995725,3.081714e-05
603.0749999995725,0.000135762,603.0749999995725,0.005226134,603.0749999995725,4.61802e-05,603.0749999995725,3.185733e-05
603.0899999995725,0.0001353243,603.0899999995725,0.005243173,603.0899999995725,4.649697e-05,603.0899999995725,3.256146e-05
603.1049999995724,0.0001349122,603.1049999995724,0.005318627,603.1049999995724,4.624513e-05,603.1049999995724,3.239099e-05
603.1199999995724,0.0001337898,603.1199999995724,0.005312851,603.1199999995724,4.641752e-05,603.1199999995724,3.2354e-05
603.1349999995724,0.0001357855,603.1349999995724,0.005285756,603.1349999995724,4.561487e-05,603.1349999995724,3.141473e-05
603.1499999995724,0.0001359424,603.1499999995724,0.005149983,603.1499999995724,4.47267e-05,603.1499999995724,3.096307e-05
603.1649999995724,0.0001309021,603.1649999995724,0.005061749,603.1649999995724,4.187124e-05,603.1649999995724,2.369232e-05
603.1799999995724,0.0001205839,603.1799999995724,0.005062106,603.1799999995724,4.113368e-05,603.1799999995724,2.410493e-05
603.1949999995724,0.0001191516,603.1949999995724,0.005033765,603.1949999995724,4.095177e-05,603.1949999995724,2.353004e-05
603.2099999995723,0.00012098,603.2099999995723,0.005026815,603.2099999995723,4.109805e-05,603.2099999995723,2.253872e-05
603.2249999995723,0.000116528,603.2249999995723,0.005026815,603.2249999995723,3.954052e-05,603.2249999995723,2.260737e-05
603.2399999995723,0.0001085733,603.2399999995723,0.005026723,603.2399999995723,3.427291e-05,603.2399999995723,2.204392e-05
603.2549999995723,9.49825e-05,603.2549999995723,0.004931879,603.2549999995723,3.198794e-05,603.2549999995723,2.098116e-05
603.2699999995723,9.376706e-05,603.2699999995723,0.004938799,603.2699999995723,2.872184e-05,603.2699999995723,2.079435e-05
603.2849999995723,9.647463e-05,603.2849999995723,0.004918349,603.2849999995723,2.714128e-05,603.2849999995723,2.078893e-05
603.2999999995723,9.439561e-05,603.2999999995723,0.004965293,603.2999999995723,2.370837e-05,603.2999999995723,1.831865e-05
603.3149999995723,9.317326e-05,603.3149999995723,0.004940218,603.3149999995723,2.29978e-05,603.3149999995723,1.809116e-05
603.3299999995722,8.584845e-05,603.3299999995722,0.004817826,603.3299999995722,2.055931e-05,603.3299999995722,1.561539e-05
603.3449999995722,8.048279e-05,603.3449999995722,0.004770224,603.3449999995722,2.038591e-05,603.3449999995722,1.458841e-05
603.3599999995722,7.756978e-05,603.3599999995722,0.004690687,603.3599999995722,2.055862e-05,603.3599999995722,1.323776e-05
603.3749999995722,7.928137e-05,603.3749999995722,0.00456476,603.3749999995722,2.071017e-05,603.3749999995722,1.29766e-05
603.3899999995722,7.337028e-05,603.3899999995722,0.004466659,603.3899999995722,2.272111e-05,603.3899999995722,1.314914e-05
603.4049999995722,7.162542e-05,603.4049999995722,0.004469085,603.4049999995722,2.309071e-05,603.4049999995722,1.284019e-05
603.4199999995722,6.94119e-05,603.4199999995722,0.004303553,603.4199999995722,2.301555e-05,603.4199999995722,1.245708e-05
603.4349999995721,6.658793e-05,603.4349999995721,0.00402957,603.4349999995721,2.337026e-05,603.4349999995721,1.068977e-05
603.4499999995721,6.143557e-05,603.4499999995721,0.0038357,603.4499999995721,2.311815e-05,603.4499999995721,9.844612e-06
603.4649999995721,6.057963e-05,603.4649999995721,0.003678162,603.4649999995721,2.522936e-05,603.4649999995721,9.496471e-06
603.4799999995721,6.135596e-05,603.4799999995721,0.003490613,603.4799999995721,3.006329e-05,603.4799999995721,8.973265e-06
603.4949999995721,6.49197e-05,603.4949999995721,0.003334503,603.4949999995721,3.052227e-05,603.4949999995721,8.479295e-06
603.5099999995721,6.621307e-05,603.5099999995721,0.003124367,603.5099999995721,3.240186e-05,603.5099999995721,8.482616e-06
603.5249999995721,6.374338e-05,603.5249999995721,0.002875901,603.5249999995721,3.354928e-05,603.5249999995721,8.209184e-06
603.539999999572,6.052565e-05,603.539999999572,0.002483031,603.539999999572,3.324941e-05,603.539999999572,8.004139e-06
603.554999999572,5.908866e-05,603.554999999572,0.001958514,603.554999999572,3.18414e-05,603.554999999572,7.207752e-06
603.569999999572,5.724668e-05,603.569999999572,0.001754885,603.569999999572,3.254717e-05,603.569999999572,6.799448e-06
603.584999999572,5.737523e-05,603.584999999572,0.00162327,603.584999999572,3.322058e-05,603.584999999572,6.563313e-06
603.599999999572,5.643705e-05,603.599999999572,0.001281606,603.599999999572,3.372224e-05,603.599999999572,6.747456e-06
603.614999999572,5.599426e-05,603.614999999572,0.001053442,603.614999999572,3.411636e-05,603.614999999572,6.910417e-06
603.629999999572,5.110369e-05,603.629999999572,0.0009043694,603.629999999572,3.291643e-05,603.629999999572,7.362442e-06
603.644999999572,5.096512e-05,603.644999999572,0.0007630289,603.644999999572,3.325364e-05,603.644999999572,7.584854e-06
603.6599999995719,5.39094e-05,603.6599999995719,0.0006765653,603.6599999995719,3.338766e-05,603.6599999995719,7.339447e-06
603.6749999995719,5.59331e-05,603.6749999995719,0.0005219963,603.6749999995719,3.312078e-05,603.6749999995719,7.415822e-06
603.6899999995719,5.714669e-05,603.6899999995719,0.0002865144,603.6899999995719,3.363608e-05,603.6899999995719,6.809799e-06
603.7049999995719,5.729858e-05,603.7049999995719,0.0001698035,603.7049999995719,3.353416e-05,603.7049999995719,6.774542e-06
603.7199999995719,5.997763e-05,603.7199999995719,0.0001621206,603.7199999995719,3.145685e-05,603.7199999995719,6.686639e-06
603.7349999995719,5.949468e-05,603.7349999995719,0.0001395946,603.7349999995719,2.845379e-05,603.7349999995719,6.803591e-06
603.7499999995719,5.491493e-05,603.7499999995719,0.0001142956,603.7499999995719,2.803183e-05,603.7499999995719,6.844875e-06
603.7649999995718,5.619617e-05,603.7649999995718,0.0001119392,603.7649999995718,2.481786e-05,603.7649999995718,6.730734e-06
603.7799999995718,5.369156e-05,603.7799999995718,0.000106502,603.7799999995718,2.35976e-05,603.7799999995718,6.470365e-06
603.7949999995718,5.493596e-05,603.7949999995718,9.943959e-05,603.7949999995718,2.259677e-05,603.7949999995718,6.413511e-06
603.8099999995718,5.562018e-05,603.8099999995718,9.326499e-05,603.8099999995718,2.251871e-05,603.8099999995718,6.413511e-06
603.8249999995718,5.399478e-05,603.8249999995718,9.258586e-05,603.8249999995718,2.253372e-05,603.8249999995718,6.603967e-06
603.8399999995718,7.674878e-05,603.8399999995718,9.274639e-05,603.8399999995718,2.299045e-05,603.8399999995718,6.705572e-06
603.8549999995718,7.771057e-05,603.8549999995718,9.193528e-05,603.8549999995718,2.158674e-05,603.8549999995718,6.48993e-06
603.8699999995717,7.862694e-05,603.8699999995717,9.168749e-05,603.8699999995717,2.095563e-05,603.8699999995717,7.279705e-06
603.8849999995717,7.739561e-05,603.8849999995717,8.977832e-05,603.8849999995717,1.992463e-05,603.8849999995717,7.113323e-06
603.8999999995717,7.549802e-05,603.8999999995717,8.738064e-05,603.8999999995717,1.759697e-05,603.8999999995717,6.863372e-06
603.9149999995717,7.519814e-05,603.9149999995717,8.001921e-05,603.9149999995717,1.978059e-05,603.9149999995717,6.924671e-06
603.9299999995717,7.385576e-05,603.9299999995717,7.113739e-05,603.9299999995717,2.031323e-05,603.9299999995717,6.838698e-06
603.9449999995717,7.239188e-05,603.9449999995717,6.707756e-05,603.9449999995717,2.031808e-05,603.9449999995717,6.959168e-06
603.9599999995717,7.260969e-05,603.9599999995717,5.369313e-05,603.9599999995717,2.297635e-05,603.9599999995717,7.013608e-06
603.9749999995717,7.080274e-05,603.9749999995717,4.264032e-05,603.9749999995717,7.102463e-05,603.9749999995717,7.065636e-06
603.9899999995716,6.872909e-05,603.9899999995716,3.947848e-05,603.9899999995716,0.0003862882,603.9899999995716,7.308674e-06
604.0049999995716,6.634824e-05,604.0049999995716,3.856991e-05,604.0049999995716,0.0005533682,604.0049999995716,7.302889e-06
604.0199999995716,6.740668e-05,604.0199999995716,3.937415e-05,604.0199999995716,0.001398433,604.0199999995716,7.498936e-06
604.0349999995716,6.883436e-05,604.0349999995716,4.365597e-05,604.0349999995716,0.001541143,604.0349999995716,7.673483e-06
604.0499999995716,6.807275e-05,604.0499999995716,4.87055e-05,604.0499999995716,0.002038664,604.0499999995716,7.802733e-06
604.0649999995716,6.926868e-05,604.0649999995716,5.785469e-05,604.0649999995716,0.002197808,604.0649999995716,7.820766e-06
604.0799999995716,6.199184e-05,604.0799999995716,7.823575e-05,604.0799999995716,0.002277607,604.0799999995716,7.741108e-06
604.0949999995715,4.404564e-05,604.0949999995715,8.809223e-05,604.0949999995715,0.002492439,604.0949999995715,7.733825e-06
604.1099999995715,4.532613e-05,604.1099999995715,8.82298e-05,604.1099999995715,0.002571094,604.1099999995715,7.762914e-06
604.1249999995715,4.861054e-05,604.1249999995715,9.049238e-05,604.1249999995715,0.002577687,604.1249999995715,6.887957e-06
604.1399999995715,4.951126e-05,604.1399999995715,9.163708e-05,604.1399999995715,0.002609922,604.1399999995715,6.932803e-06
604.1549999995715,4.857924e-05,604.1549999995715,9.207767e-05,604.1549999995715,0.002634558,604.1549999995715,6.957143e-06
604.1699999995715,4.829073e-05,604.1699999995715,9.282336e-05,604.1699999995715,0.002638056,604.1699999995715,7.111343e-06
604.1849999995715,5.008746e-05,604.1849999995715,9.308175e-05,604.1849999995715,0.002638703,604.1849999995715,7.095478e-06
604.1999999995714,5.172916e-05,604.1999999995714,9.400157e-05,604.1999999995714,0.002645256,604.1999999995714,7.12124e-06
604.2149999995714,5.264288e-05,604.2149999995714,9.421906e-05,604.2149999995714,0.00268672,604.2149999995714,7.308674e-06
604.2299999995714,5.225613e-05,604.2299999995714,9.556991e-05,604.2299999995714,0.002866359,604.2299999995714,7.201887e-06
604.2449999995714,5.246732e-05,604.2449999995714,9.759766e-05,604.2449999995714,0.003032965,604.2449999995714,7.095478e-06
604.2599999995714,5.139833e-05,604.2599999995714,9.712962e-05,604.2599999995714,0.003063007,604.2599999995714,7.444261e-06
604.2749999995714,4.957893e-05,604.2749999995714,9.534236e-05,604.2749999995714,0.002859855,604.2749999995714,7.551351e-06
604.2899999995714,4.811128e-05,604.2899999995714,9.550666e-05,604.2899999995714,0.002989745,604.2899999995714,7.629297e-06
604.3049999995714,4.890754e-05,604.3049999995714,9.403902e-05,604.3049999995714,0.002922015,604.3049999995714,7.702799e-06
604.3199999995713,5.011867e-05,604.3199999995713,8.673097e-05,604.3199999995713,0.003080614,604.3199999995713,8.21433e-06
604.3349999995713,5.009309e-05,604.3349999995713,6.793085e-05,604.3349999995713,0.003195465,604.3349999995713,8.181682e-06
604.3499999995713,4.868062e-05,604.3499999995713,6.821807e-05,604.3499999995713,0.00317248,604.3499999995713,8.11252e-06
604.3649999995713,5.021078e-05,604.3649999995713,0.0001537743,604.3649999995713,0.003291326,604.3649999995713,8.42262e-06
604.3799999995713,4.981108e-05,604.3799999995713,0.0001715041,604.3799999995713,0.003349946,604.3799999995713,8.561957e-06
604.3949999995713,5.122868e-05,604.3949999995713,0.0002027067,604.3949999995713,0.003335648,604.3949999995713,8.417602e-06
604.4099999995713,5.775453e-05,604.4099999995713,0.0002094356,604.4099999995713,0.003326703,604.4099999995713,9.558568e-06
604.4249999995712,5.788828e-05,604.4249999995712,0.0002099159,604.4249999995712,0.003328595,604.4249999995712,1.014898e-05
604.4399999995712,5.628033e-05,604.4399999995712,0.0002103778,604.4399999995712,0.003329597,604.4399999995712,1.134567e-05
604.4549999995712,5.750153e-05,604.4549999995712,0.0002136294,604.4549999995712,0.003322591,604.4549999995712,1.188889e-05
604.4699999995712,5.666547e-05,604.4699999995712,0.0002150159,604.4699999995712,0.003230347,604.4699999995712,1.205246e-05
604.4849999995712,5.804866e-05,604.4849999995712,0.0002140603,604.4849999995712,0.003087173,604.4849999995712,1.281054e-05
604.4999999995712,5.801662e-05,604.4999999995712,0.0002138505,604.4999999995712,0.002856284,604.4999999995712,1.383611e-05
604.5149999995712,5.930378e-05,604.5149999995712,0.0002174312,604.5149999995712,0.002791177,604.5149999995712,1.376568e-05
604.5299999995711,6.123898e-05,604.5299999995711,0.0002206818,604.5299999995711,0.002603249,604.5299999995711,1.386053e-05
604.5449999995711,6.210694e-05,604.5449999995711,0.0002201632,604.5449999995711,0.002339326,604.5449999995711,1.36475e-05
604.5599999995711,6.064377e-05,604.5599999995711,0.0002198639,604.5599999995711,0.002183114,604.5599999995711,1.380145e-05
604.5749999995711,5.824635e-05,604.5749999995711,0.0002195156,604.5749999995711,0.001892664,604.5749999995711,1.345728e-05
604.5899999995711,5.880044e-05,604.5899999995711,0.0002197038,604.5899999995711,0.001807761,604.5899999995711,1.356986e-05
604.6049999995711,5.611163e-05,604.6049999995711,0.0001948786,604.6049999995711,0.001883152,604.6049999995711,1.325265e-05
604.6199999995711,5.380792e-05,604.6199999995711,0.0001605765,604.6199999995711,0.002098865,604.6199999995711,1.287634e-05
604.634999999571,5.325161e-05,604.634999999571,0.0001307387,604.634999999571,0.002103396,604.634999999571,1.257526e-05
604.649999999571,4.987552e-05,604.649999999571,9.183609e-05,604.649999999571,0.002137536,604.649999999571,1.256517e-05
604.664999999571,4.542424e-05,604.664999999571,8.134681e-05,604.664999999571,0.002135346,604.664999999571,1.193855e-05
604.679999999571,4.451614e-05,604.679999999571,7.978509e-05,604.679999999571,0.002140007,604.679999999571,1.134815e-05
604.694999999571,4.380158e-05,604.694999999571,7.790049e-05,604.694999999571,0.002139241,604.694999999571,9.596809e-06
604.709999999571,4.98467e-05,604.709999999571,6.966916e-05,604.709999999571,0.00213924,604.709999999571,9.195013e-06
604.724999999571,5.429605e-05,604.724999999571,6.73588e-05,604.724999999571,0.002155242,604.724999999571,9.402554e-06
604.739999999571,5.40498e-05,604.739999999571,6.716843e-05,604.739999999571,0.002180259,604.739999999571,8.08469e-06
604.7549999995709,5.388039e-05,604.7549999995709,6.016219e-05,604.7549999995709,0.002236951,604.7549999995709,7.22337e-06
604.7699999995709,5.022116e-05,604.7699999995709,4.855313e-05,604.7699999995709,0.002513876,604.7699999995709,6.638008e-06
604.7849999995709,4.859112e-05,604.7849999995709,3.47022e-05,604.7849999995709,0.002601211,604.7849999995709,6.589018e-06
604.7999999995709,5.539889e-05,604.7999999995709,3.322016e-05,604.7999999995709,0.002810652,604.7999999995709,6.603967e-06
604.8149999995709,5.594921e-05,604.8149999995709,3.319386e-05,604.8149999995709,0.002795023,604.8149999995709,6.476893e-06
604.8299999995709,5.703738e-05,604.8299999995709,2.871007e-05,604.8299999995709,0.002629827,604.8299999995709,6.280343e-06
604.8449999995709,5.79131e-05,604.8449999995709,2.831284e-05,604.8449999995709,0.002521903,604.8449999995709,6.189974e-06
604.8599999995708,5.744492e-05,604.8599999995708,2.91517e-05,604.8599999995708,0.002255268,604.8599999995708,6.275856e-06
604.8749999995708,5.777965e-05,604.8749999995708,3.121409e-05,604.8749999995708,0.002025606,604.8749999995708,6.257873e-06
604.8899999995708,5.734404e-05,604.8899999995708,3.060247e-05,604.8899999995708,0.00192854,604.8899999995708,6.340615e-06
604.9049999995708,5.716665e-05,604.9049999995708,3.050472e-05,604.9049999995708,0.001911531,604.9049999995708,6.037908e-06
604.9199999995708,5.640658e-05,604.9199999995708,3.027016e-05,604.9199999995708,0.00190847,604.9199999995708,5.819312e-06
604.9349999995708,5.627457e-05,604.9349999995708,3.021613e-05,604.9349999995708,0.001900354,604.9349999995708,5.392116e-06
604.9499999995708,5.405058e-05,604.9499999995708,2.911301e-05,604.9499999995708,0.001899814,604.9499999995708,5.446701e-06
604.9649999995708,4.274293e-05,604.9649999995708,2.907476e-05,604.9649999995708,0.001889111,604.9649999995708,5.010237e-06
604.9799999995707,4.172565e-05,604.9799999995707,2.877525e-05,604.9799999995707,0.001867022,604.9799999995707,5.192486e-06
604.9949999995707,4.169931e-05,604.9949999995707,2.836106e-05,604.9949999995707,0.001838675,604.9949999995707,5.394728e-06
605.0099999995707,4.174894e-05,605.0099999995707,2.810159e-05,605.0099999995707,0.001614743,605.0099999995707,5.315815e-06
605.0249999995707,4.102464e-05,605.0249999995707,2.665793e-05,605.0249999995707,0.001283621,605.0249999995707,5.334332e-06
605.0399999995707,4.086741e-05,605.0399999995707,2.765338e-05,605.0399999995707,0.0009353065,605.0399999995707,5.208738e-06
605.0549999995707,3.003845e-05,605.0549999995707,2.773629e-05,605.0549999995707,0.0003686295,605.0549999995707,5.007424e-06
605.0699999995707,2.615757e-05,605.0699999995707,2.898013e-05,605.0699999995707,0.000315908,605.0699999995707,5.060592e-06
605.0849999995706,2.488078e-05,605.0849999995706,3.437879e-05,605.0849999995706,0.0002486829,605.0849999995706,5.178904e-06
605.0999999995706,2.304736e-05,605.0999999995706,4.935795e-05,605.0999999995706,0.0001485152,605.0999999995706,5.259872e-06
605.1149999995706,2.344127e-05,605.1149999995706,0.000125087,605.1149999995706,0.0001119458,605.1149999995706,5.251831e-06
605.1299999995706,2.600201e-05,605.1299999995706,0.0001735677,605.1299999995706,0.0001105655,605.1299999995706,5.405162e-06
605.1449999995706,2.592442e-05,605.1449999995706,0.0002342718,605.1449999995706,0.0001056555,605.1449999995706,5.299891e-06
605.1599999995706,2.650371e-05,605.1599999995706,0.0002437052,605.1599999995706,0.0001031738,605.1599999995706,5.487926e-06
605.1749999995706,2.905538e-05,605.1749999995706,0.0002528348,605.1749999995706,0.0001028075,605.1749999995706,5.528843e-06
605.1899999995705,2.997648e-05,605.1899999995705,0.0007039584,605.1899999995705,0.0001006742,605.1899999995705,5.495621e-06
605.2049999995705,3.118294e-05,605.2049999995705,0.0009755023,605.2049999995705,0.0001005486,605.2049999995705,5.582091e-06
605.2199999995705,3.150875e-05,605.2199999995705,0.001403497,605.2199999995705,0.0001004458,605.2199999995705,5.516089e-06
605.2349999995705,3.099444e-05,605.2349999995705,0.001901226,605.2349999995705,9.418077e-05,605.2349999995705,5.259872e-06
605.2499999995705,3.071274e-05,605.2499999995705,0.001953173,605.2499999995705,8.236986e-05,605.2499999995705,5.334332e-06
605.2649999995705,3.12646e-05,605.2649999995705,0.00212854,605.2649999995705,7.449633e-05,605.2649999995705,5.200618e-06
605.2799999995705,3.154226e-05,605.2799999995705,0.002198973,605.2799999995705,7.395107e-05,605.2799999995705,5.235713e-06
605.2949999995705,3.155477e-05,605.2949999995705,0.002208208,605.2949999995705,7.029618e-05,605.2949999995705,5.254512e-06
605.3099999995704,3.314544e-05,605.3099999995704,0.002218602,605.3099999995704,5.567309e-05,605.3099999995704,5.546649e-06
605.3249999995704,3.3235e-05,605.3249999995704,0.002219633,605.3249999995704,5.240446e-05,605.3249999995704,5.407768e-06
605.3399999995704,3.268581e-05,605.3399999995704,0.00222211,605.3399999995704,4.748354e-05,605.3399999995704,5.313164e-06
605.3549999995704,3.288732e-05,605.3549999995704,0.002225006,605.3549999995704,3.958645e-05,605.3549999995704,5.485359e-06
605.3699999995704,3.20592e-05,605.3699999995704,0.002222828,605.3699999995704,4.332072e-05,605.3699999995704,5.444114e-06
605.3849999995704,3.140979e-05,605.3849999995704,0.002218282,605.3849999995704,5.985773e-05,605.3849999995704,5.495621e-06
605.3999999995704,3.475412e-05,605.3999999995704,0.002217734,605.3999999995704,0.0001103284,605.3999999995704,5.219545e-06
605.4149999995703,3.291771e-05,605.4149999995703,0.002220754,605.4149999995703,0.0001579712,605.4149999995703,5.219545e-06
605.4299999995703,3.305906e-05,605.4299999995703,0.002214259,605.4299999995703,0.0002196859,605.4299999995703,5.360675e-06
605.4449999995703,3.246267e-05,605.4449999995703,0.002085221,605.4449999995703,0.0002373881,605.4449999995703,5.469929e-06
605.4599999995703,3.183698e-05,605.4599999995703,0.001941576,605.4599999995703,0.000237588,605.4599999995703,5.454455e-06
605.4749999995703,3.156325e-05,605.4749999995703,0.00159053,605.4749999995703,0.0002385368,605.4749999995703,5.365928e-06
605.4899999995703,3.190107e-05,605.4899999995703,0.001057924,605.4899999995703,0.0002400355,605.4899999995703,5.597212e-06
605.5049999995703,3.225895e-05,605.5049999995703,0.0009470248,605.5049999995703,0.0002412251,605.5049999995703,5.477649e-06
605.5199999995702,3.179137e-05,605.5199999995702,0.0006150489,605.5199999995702,0.0002429485,605.5199999995702,5.799914e-06
605.5349999995702,3.131367e-05,605.5349999995702,0.0003728012,605.5349999995702,0.0002438083,605.5349999995702,6.086705e-06
605.5499999995702,3.139454e-05,605.5499999995702,0.0003415968,605.5499999995702,0.0002440424,605.5499999995702,6.291548e-06
605.5649999995702,3.337837e-05,605.5649999995702,0.0002954211,605.5649999995702,0.0002441816,605.5649999995702,6.340615e-06
605.5799999995702,3.388311e-05,605.5799999995702,0.0002737351,605.5799999995702,0.0002441766,605.5799999995702,6.307202e-06
605.5949999995702,3.306502e-05,605.5949999995702,0.000256324,605.5949999995702,0.0002438702,605.5949999995702,6.275856e-06
605.6099999995702,3.370595e-05,605.6099999995702,0.0002507391,605.6099999995702,0.0002438382,605.6099999995702,6.309435e-06
605.6249999995702,3.462213e-05,605.6249999995702,0.0002530049,605.6249999995702,0.0002417927,605.6249999995702,6.413511e-06
605.6399999995701,3.616908e-05,605.6399999995701,0.0002453615,605.6399999995701,0.0002388277,605.6399999995701,6.494269e-06
605.6549999995701,3.343024e-05,605.6549999995701,0.0002235583,605.6549999995701,0.0001974613,605.6549999995701,6.981399e-06
605.6699999995701,3.331416e-05,605.6699999995701,0.0001965153,605.6699999995701,0.0001740662,605.6699999995701,7.396802e-06
605.6849999995701,3.408125e-05,605.6849999995701,0.0001880959,605.6849999995701,7.943438e-05,605.6849999995701,7.818965e-06
605.6999999995701,3.383401e-05,605.6999999995701,0.0001859531,605.6999999995701,5.447969e-05,605.6999999995701,7.931653e-06
605.7149999995701,3.355096e-05,605.7149999995701,0.0001841179,605.7149999995701,5.416851e-05,605.7149999995701,8.074229e-06
605.72999999957,3.558721e-05,605.72999999957,0.0001626716,605.72999999957,5.145941e-05,605.72999999957,8.747506e-06
605.74499999957,4.062507e-05,605.74499999957,0.0001578548,605.74499999957,4.860127e-05,605.74499999957,8.938661e-06
605.75999999957,4.023308e-05,605.75999999957,0.0001578623,605.75999999957,4.321197e-05,605.75999999957,9.863196e-06
605.77499999957,4.043739e-05,605.77499999957,0.0001427696,605.77499999957,3.503589e-05,605.77499999957,9.825992e-06
605.78999999957,4.062749e-05,605.78999999957,0.0001414665,605.78999999957,3.298953e-05,605.78999999957,9.921579e-06
605.80499999957,4.685941e-05,605.80499999957,0.0001213175,605.80499999957,3.246744e-05,605.80499999957,1.006956e-05
605.81999999957,5.23652e-05,605.81999999957,0.0001542919,605.81999999957,3.170885e-05,605.81999999957,1.016285e-05
605.83499999957,5.459102e-05,605.83499999957,0.000513671,605.83499999957,3.156726e-05,605.83499999957,1.037955e-05
605.84999999957,5.567739e-05,605.84999999957,0.001252987,605.84999999957,3.159224e-05,605.84999999957,1.071478e-05
605.8649999995699,5.923414e-05,605.8649999995699,0.001519535,605.8649999995699,3.131952e-05,605.8649999995699,1.073842e-05
605.8799999995699,6.361376e-05,605.8799999995699,0.001596842,605.8799999995699,3.004501e-05,605.8799999995699,1.0762e-05
605.8949999995699,6.18533e-05,605.8949999995699,0.002028618,605.8949999995699,2.927803e-05,605.8949999995699,1.068186e-05
605.9099999995699,6.188745e-05,605.9099999995699,0.002067269,605.9099999995699,2.906071e-05,605.9099999995699,1.02333e-05
605.9249999995699,6.251027e-05,605.9249999995699,0.002081783,605.9249999995699,2.89563e-05,605.9249999995699,9.94002e-06
605.9399999995699,6.321903e-05,605.9399999995699,0.002122173,605.9399999995699,2.93856e-05,605.9399999995699,9.914478e-06
605.9549999995698,6.423628e-05,605.9549999995698,0.002132876,605.9549999995698,2.80469e-05,605.9549999995698,1.174225e-05
605.9699999995698,6.369165e-05,605.9699999995698,0.002400689,605.9699999995698,2.732645e-05,605.9699999995698,1.315664e-05
605.9849999995698,6.028733e-05,605.9849999995698,0.002624055,605.9849999995698,2.65446e-05,605.9849999995698,1.328132e-05
605.9999999995698,6.012846e-05,605.9999999995698,0.002914317,605.9999999995698,2.566392e-05,605.9999999995698,1.307717e-05
606.0149999995698,6.07394e-05,606.0149999995698,0.003201493,606.0149999995698,2.548325e-05,606.0149999995698,1.267901e-05
606.0299999995698,6.494833e-05,606.0299999995698,0.003437249,606.0299999995698,2.718691e-05,606.0299999995698,1.259429e-05
606.0449999995698,6.575814e-05,606.0449999995698,0.003667839,606.0449999995698,2.494298e-05,606.0449999995698,1.357816e-05
606.0599999995698,5.855052e-05,606.0599999995698,0.00386608,606.0599999995698,2.34833e-05,606.0599999995698,1.410833e-05
606.0749999995697,5.232672e-05,606.0749999995697,0.004037965,606.0749999995697,2.416446e-05,606.0749999995697,1.446623e-05
606.0899999995697,5.214657e-05,606.0899999995697,0.004047034,606.0899999995697,2.437862e-05,606.0899999995697,1.447207e-05
606.1049999995697,5.082563e-05,606.1049999995697,0.003903789,606.1049999995697,2.37434e-05,606.1049999995697,1.495931e-05
606.1199999995697,5.28032e-05,606.1199999995697,0.00388664,606.1199999995697,2.34911e-05,606.1199999995697,1.497531e-05
606.1349999995697,5.316186e-05,606.1349999995697,0.003981024,606.1349999995697,2.391248e-05,606.1349999995697,1.513717e-05
606.1499999995697,5.367083e-05,606.1499999995697,0.004051458,606.1499999995697,2.22557e-05,606.1499999995697,1.52964e-05
606.1649999995697,5.362645e-05,606.1649999995697,0.004280782,606.1649999995697,2.21141e-05,606.1649999995697,1.550586e-05
606.1799999995696,6.358873e-05,606.1799999995696,0.004418968,606.1799999995696,2.219104e-05,606.1799999995696,1.575996e-05
606.1949999995696,8.442566e-05,606.1949999995696,0.004508303,606.1949999995696,2.181847e-05,606.1949999995696,1.537906e-05
606.2099999995696,9.277676e-05,606.2099999995696,0.004615858,606.2099999995696,2.189066e-05,606.2099999995696,1.497437e-05
606.2249999995696,9.341697e-05,606.2249999995696,0.004812557,606.2249999995696,2.171816e-05,606.2249999995696,1.443504e-05
606.2399999995696,9.447453e-05,606.2399999995696,0.004880728,606.2399999995696,2.161413e-05,606.2399999995696,1.437244e-05
606.2549999995696,9.55991e-05,606.2549999995696,0.004881103,606.2549999995696,2.300025e-05,606.2549999995696,1.456134e-05
606.2699999995696,9.305511e-05,606.2699999995696,0.004852836,606.2699999995696,2.241777e-05,606.2699999995696,1.487811e-05
606.2849999995695,9.55991e-05,606.2849999995695,0.004774479,606.2849999995695,2.118627e-05,606.2849999995695,1.507656e-05
606.2999999995695,9.619387e-05,606.2999999995695,0.004638216,606.2999999995695,2.187714e-05,606.2999999995695,1.415219e-05
606.3149999995695,9.675792e-05,606.3149999995695,0.004515451,606.3149999995695,2.188679e-05,606.3149999995695,1.365369e-05
606.3299999995695,9.680871e-05,606.3299999995695,0.004514615,606.3299999995695,2.083766e-05,606.3299999995695,1.356467e-05
606.3449999995695,9.862225e-05,606.3449999995695,0.004489515,606.3449999995695,2.058054e-05,606.3449999995695,1.333636e-05
606.3599999995695,9.95994e-05,606.3599999995695,0.004718071,606.3599999995695,2.062224e-05,606.3599999995695,1.333108e-05
606.3749999995695,9.432724e-05,606.3749999995695,0.004770579,606.3749999995695,2.089167e-05,606.3749999995695,1.453811e-05
606.3899999995695,9.47574e-05,606.3899999995695,0.004632304,606.3899999995695,2.05908e-05,606.3899999995695,1.901073e-05
606.4049999995694,9.490609e-05,606.4049999995694,0.00447335,606.4049999995694,2.038729e-05,606.4049999995694,1.949799e-05
606.4199999995694,9.47632e-05,606.4199999995694,0.004472803,606.4199999995694,2.027991e-05,606.4199999995694,2.101135e-05
606.4349999995694,8.517766e-05,606.4349999995694,0.00418245,606.4349999995694,2.032155e-05,606.4349999995694,2.141509e-05
606.4499999995694,6.686386e-05,606.4499999995694,0.003905244,606.4499999995694,2.026323e-05,606.4499999995694,2.877574e-05
606.4649999995694,5.702677e-05,606.4649999995694,0.00407725,606.4649999995694,2.033263e-05,606.4649999995694,3.024315e-05
606.4799999995694,5.525785e-05,606.4799999995694,0.004353679,606.4799999995694,2.04721e-05,606.4799999995694,3.084455e-05
606.4949999995694,5.47186e-05,606.4949999995694,0.004400761,606.4949999995694,2.016009e-05,606.4949999995694,3.128171e-05
606.5099999995693,5.44295e-05,606.5099999995693,0.004350684,606.5099999995693,2.692555e-05,606.5099999995693,3.120236e-05
606.5249999995693,5.460237e-05,606.5249999995693,0.00439656,606.5249999995693,2.90515e-05,606.5249999995693,3.121725e-05
606.5399999995693,4.711364e-05,606.5399999995693,0.004447504,606.5399999995693,2.804439e-05,606.5399999995693,3.121815e-05
606.5549999995693,5.27231e-05,606.5549999995693,0.004667243,606.5549999995693,2.871351e-05,606.5549999995693,3.133525e-05
606.5699999995693,6.461477e-05,606.5699999995693,0.004869975,606.5699999995693,3.32511e-05,606.5699999995693,3.197209e-05
606.5849999995693,6.486238e-05,606.5849999995693,0.004843807,606.5849999995693,3.703425e-05,606.5849999995693,3.200907e-05
606.5999999995693,6.315036e-05,606.5999999995693,0.00482223,606.5999999995693,3.706315e-05,606.5999999995693,3.199807e-05
606.6149999995692,6.582173e-05,606.6149999995692,0.004647354,606.6149999995692,3.907968e-05,606.6149999995692,3.205174e-05
606.6299999995692,7.713599e-05,606.6299999995692,0.004710186,606.6299999995692,4.342173e-05,606.6299999995692,3.150204e-05
606.6449999995692,8.093206e-05,606.6449999995692,0.004889467,606.6449999995692,4.407121e-05,606.6449999995692,2.961814e-05
606.6599999995692,8.080926e-05,606.6599999995692,0.004939415,606.6599999995692,4.526984e-05,606.6599999995692,2.90219e-05
606.6749999995692,8.185297e-05,606.6749999995692,0.00501088,606.6749999995692,4.688886e-05,606.6749999995692,2.84993e-05
606.6899999995692,8.380957e-05,606.6899999995692,0.005077105,606.6899999995692,4.716563e-05,606.6899999995692,2.689781e-05
606.7049999995692,8.76157e-05,606.7049999995692,0.005090372,606.7049999995692,4.755883e-05,606.7049999995692,1.787496e-05
606.7199999995692,8.899825e-05,606.7199999995692,0.005172969,606.7199999995692,4.913828e-05,606.7199999995692,1.862597e-05
606.7349999995691,9.015208e-05,606.7349999995691,0.005172988,606.7349999995691,5.011333e-05,606.7349999995691,1.82099e-05
606.7499999995691,9.087544e-05,606.7499999995691,0.005331093,606.7499999995691,5.092724e-05,606.7499999995691,1.877362e-05
606.7649999995691,9.788317e-05,606.7649999995691,0.005350424,606.7649999995691,4.744614e-05,606.7649999995691,1.876987e-05
606.7799999995691,0.0001006888,606.7799999995691,0.005250954,606.7799999995691,4.791647e-05,606.7799999995691,1.862975e-05
606.7949999995691,0.00010169,606.7949999995691,0.005294157,606.7949999995691,4.765914e-05,606.7949999995691,1.842676e-05
606.8099999995691,0.0001012687,606.8099999995691,0.005282252,606.8099999995691,4.673057e-05,606.8099999995691,1.825857e-05
606.8249999995691,9.468348e-05,606.8249999995691,0.005314755,606.8249999995691,4.264791e-05,606.8249999995691,1.730802e-05
606.839999999569,9.584353e-05,606.839999999569,0.005333494,606.839999999569,4.09029e-05,606.839999999569,1.729173e-05
606.854999999569,9.666149e-05,606.854999999569,0.005334901,606.854999999569,4.088705e-05,606.854999999569,1.726809e-05
606.869999999569,9.038319e-05,606.869999999569,0.005304658,606.869999999569,3.716335e-05,606.869999999569,1.663233e-05
606.884999999569,8.526411e-05,606.884999999569,0.005302453,606.884999999569,3.442874e-05,606.884999999569,1.646976e-05
606.899999999569,8.149059e-05,606.899999999569,0.005334995,606.899999999569,3.275512e-05,606.899999999569,1.599331e-05
606.914999999569,8.377914e-05,606.914999999569,0.00535471,606.914999999569,3.104939e-05,606.914999999569,1.603641e-05
606.929999999569,8.594717e-05,606.929999999569,0.00535471,606.929999999569,2.885689e-05,606.929999999569,1.628051e-05
606.944999999569,8.857129e-05,606.944999999569,0.005315002,606.944999999569,2.910624e-05,606.944999999569,1.644751e-05
606.9599999995689,8.796597e-05,606.9599999995689,0.005290448,606.9599999995689,2.819518e-05,606.9599999995689,1.592446e-05
606.9749999995689,8.7491e-05,606.9749999995689,0.00529044,606.9749999995689,2.303513e-05,606.9749999995689,1.515484e-05
606.9899999995689,8.752626e-05,606.9899999995689,0.005282307,606.9899999995689,2.188422e-05,606.9899999995689,1.25831e-05
607.0049999995689,8.401739e-05,607.0049999995689,0.005230603,607.0049999995689,1.866903e-05,607.0049999995689,1.254048e-05
607.0199999995689,7.62867e-05,607.0199999995689,0.005166098,607.0199999995689,1.927856e-05,607.0199999995689,1.27278e-05
607.0349999995689,7.480937e-05,607.0349999995689,0.005185343,607.0349999995689,1.982327e-05,607.0349999995689,1.224034e-05
607.0499999995689,8.397664e-05,607.0499999995689,0.005207368,607.0499999995689,1.988075e-05,607.0499999995689,1.206531e-05
607.0649999995688,8.41971e-05,607.0649999995688,0.005233425,607.0649999995688,2.133601e-05,607.0649999995688,1.277861e-05
607.0799999995688,8.451138e-05,607.0799999995688,0.005169255,607.0799999995688,2.265032e-05,607.0799999995688,1.272669e-05
607.0949999995688,8.213353e-05,607.0949999995688,0.005169255,607.0949999995688,2.322575e-05,607.0949999995688,1.313521e-05
607.1099999995688,8.054473e-05,607.1099999995688,0.005205801,607.1099999995688,2.532077e-05,607.1099999995688,1.326859e-05
607.1249999995688,8.023668e-05,607.1249999995688,0.005181222,607.1249999995688,2.61096e-05,607.1249999995688,1.333636e-05
607.1399999995688,8.200239e-05,607.1399999995688,0.005076763,607.1399999995688,2.635714e-05,607.1399999995688,1.326434e-05
607.1549999995688,8.221273e-05,607.1549999995688,0.004976293,607.1549999995688,2.619631e-05,607.1549999995688,1.336063e-05
607.1699999995687,7.972927e-05,607.1699999995687,0.004829608,607.1699999995687,2.637264e-05,607.1699999995687,1.308363e-05
607.1849999995687,7.833562e-05,607.1849999995687,0.004675223,607.1849999995687,2.724127e-05,607.1849999995687,1.236856e-05
607.1999999995687,7.186202e-05,607.1999999995687,0.004512979,607.1999999995687,3.189886e-05,607.1999999995687,1.27731e-05
607.2149999995687,7.098912e-05,607.2149999995687,0.004306138,607.2149999995687,3.647778e-05,607.2149999995687,1.279073e-05
607.2299999995687,7.035206e-05,607.2299999995687,0.004000937,607.2299999995687,3.642522e-05,607.2299999995687,1.186873e-05
607.2449999995687,7.28135e-05,607.2449999995687,0.003674146,607.2449999995687,3.706505e-05,607.2449999995687,1.194445e-05
607.2599999995687,7.302098e-05,607.2599999995687,0.003680565,607.2599999995687,3.779591e-05,607.2599999995687,1.203024e-05
607.2749999995686,7.309039e-05,607.2749999995686,0.003927392,607.2749999995686,3.628573e-05,607.2749999995686,1.187348e-05
607.2899999995686,5.94845e-05,607.2899999995686,0.004055411,607.2899999995686,3.634353e-05,607.2899999995686,1.191493e-05
607.3049999995686,5.724348e-05,607.3049999995686,0.003997847,607.3049999995686,3.656687e-05,607.3049999995686,1.151818e-05
607.3199999995686,5.987303e-05,607.3199999995686,0.003789552,607.3199999995686,3.507407e-05,607.3199999995686,1.073579e-05
607.3349999995686,7.314704e-05,607.3349999995686,0.003786555,607.3349999995686,3.444592e-05,607.3349999995686,1.009889e-05
607.3499999995686,7.379833e-05,607.3499999995686,0.003956444,607.3499999995686,3.406802e-05,607.3499999995686,9.433964e-06
607.3649999995686,7.346852e-05,607.3649999995686,0.004012594,607.3649999995686,3.320319e-05,607.3649999995686,9.048304e-06
607.3799999995686,7.20306e-05,607.3799999995686,0.003998972,607.3799999995686,3.288817e-05,607.3799999995686,8.676361e-06
607.3949999995685,7.153982e-05,607.3949999995685,0.00395896,607.3949999995685,3.293226e-05,607.3949999995685,8.462665e-06
607.4099999995685,7.098158e-05,607.4099999995685,0.00402969,607.4099999995685,3.285132e-05,607.4099999995685,8.262207e-06
607.4249999995685,6.994783e-05,607.4249999995685,0.004325045,607.4249999995685,3.253765e-05,607.4249999995685,8.011176e-06
607.4399999995685,6.735671e-05,607.4399999995685,0.004565386,607.4399999995685,3.136536e-05,607.4399999995685,7.98652e-06
607.4549999995685,6.371178e-05,607.4549999995685,0.004686038,607.4549999995685,2.53191e-05,607.4549999995685,7.017624e-06
607.4699999995685,6.375311e-05,607.4699999995685,0.004774955,607.4699999995685,1.9464e-05,607.4699999995685,7.061647e-06
607.4849999995685,6.350205e-05,607.4849999995685,0.004781117,607.4849999995685,1.92866e-05,607.4849999995685,7.013608e-06
607.4999999995684,6.027167e-05,607.4999999995684,0.004755979,607.4999999995684,1.860327e-05,607.4999999995684,6.623136e-06
607.5149999995684,5.989537e-05,607.5149999995684,0.004574041,607.5149999995684,1.800061e-05,607.5149999995684,5.939112e-06
607.5299999995684,5.845421e-05,607.5299999995684,0.004354383,607.5299999995684,1.679919e-05,607.5299999995684,6.091332e-06
607.5449999995684,5.823014e-05,607.5449999995684,0.004238597,607.5449999995684,1.60645e-05,607.5449999995684,6.479067e-06
607.5599999995684,5.803968e-05,607.5599999995684,0.004142984,607.5599999995684,1.696357e-05,607.5599999995684,6.463831e-06
607.5749999995684,3.484641e-05,607.5749999995684,0.004028419,607.5749999995684,1.704228e-05,607.5749999995684,6.369431e-06
607.5899999995684,2.871007e-05,607.5899999995684,0.003810296,607.5899999995684,1.747165e-05,607.5899999995684,6.548272e-06
607.6049999995683,2.723144e-05,607.6049999995683,0.003549611,607.6049999995683,1.66086e-05,607.6049999995683,6.446372e-06
607.6199999995683,2.750731e-05,607.6199999995683,0.003241186,607.6199999995683,1.653209e-05,607.6199999995683,6.896133e-06
607.6349999995683,2.701539e-05,607.6349999995683,0.00285665,607.6349999995683,1.569099e-05,607.6349999995683,7.073606e-06
607.6499999995683,2.64212e-05,607.6499999995683,0.002519126,607.6499999995683,1.516228e-05,607.6499999995683,7.410121e-06
607.6649999995683,2.539132e-05,607.6649999995683,0.002420301,607.6649999995683,1.549313e-05,607.6649999995683,7.888914e-06
607.6799999995683,2.34803e-05,607.6799999995683,0.002147712,607.6799999995683,1.537997e-05,607.6799999995683,7.737468e-06
607.6949999995683,2.224937e-05,607.6949999995683,0.001781933,607.6949999995683,1.527797e-05,607.6949999995683,8.115992e-06
607.7099999995683,2.26963e-05,607.7099999995683,0.00123857,607.7099999995683,1.537631e-05,607.7099999995683,7.952937e-06
607.7249999995682,2.391955e-05,607.7249999995682,0.0006801248,607.7249999995682,1.610128e-05,607.7249999995682,8.032248e-06
607.7399999995682,2.403001e-05,607.7399999995682,0.0004180411,607.7399999995682,1.759377e-05,607.7399999995682,8.02874e-06
607.7549999995682,2.395015e-05,607.7549999995682,0.0003771112,607.7549999995682,1.764095e-05,607.7549999995682,8.056763e-06
607.7699999995682,2.387298e-05,607.7699999995682,0.0003774159,607.7699999995682,1.906697e-05,607.7699999995682,8.102095e-06
607.7849999995682,2.392661e-05,607.7849999995682,0.0003827747,607.7849999995682,1.892384e-05,607.7849999995682,7.768356e-06
607.7999999995682,2.375941e-05,607.7999999995682,0.0003724925,607.7999999995682,1.877887e-05,607.7999999995682,7.530803e-06
607.8149999995682,2.36322e-05,607.8149999995682,0.0003386614,607.8149999995682,1.764654e-05,607.8149999995682,8.042764e-06
607.8299999995681,2.432656e-05,607.8299999995681,0.00033055,607.8299999995681,1.886345e-05,607.8299999995681,8.176516e-06
607.8449999995681,2.40634e-05,607.8449999995681,0.0003477574,607.8449999995681,2.556879e-05,607.8449999995681,8.28094e-06
607.8599999995681,2.362206e-05,607.8599999995681,0.000330147,607.8599999995681,3.567971e-05,607.8599999995681,8.309809e-06
607.8749999995681,2.211792e-05,607.8749999995681,0.000318223,607.8749999995681,4.099063e-05,607.8749999995681,8.012934e-06
607.8899999995681,2.21262e-05,607.8899999995681,0.0003225247,607.8899999995681,5.443778e-05,607.8899999995681,7.797315e-06
607.9049999995681,2.303452e-05,607.9049999995681,0.0003233958,607.9049999995681,9.687476e-05,607.9049999995681,7.797315e-06
607.9199999995681,2.297819e-05,607.9199999995681,0.0003298104,607.9199999995681,0.0001105887,607.9199999995681,7.645896e-06
607.934999999568,2.287127e-05,607.934999999568,0.0003270598,607.934999999568,0.0001121156,607.934999999568,7.66246e-06
607.949999999568,2.390777e-05,607.949999999568,0.0003221061,607.949999999568,0.0001185998,607.949999999568,7.813558e-06
607.964999999568,2.37523e-05,607.964999999568,0.0003277436,607.964999999568,0.0001255992,607.964999999568,8.525684e-06
607.979999999568,2.297144e-05,607.979999999568,0.0003328409,607.979999999568,0.0001279969,607.979999999568,8.822869e-06
607.994999999568,2.392779e-05,607.994999999568,0.0003419208,607.994999999568,0.0001278704,607.994999999568,1.137419e-05
608.009999999568,4.010859e-05,608.009999999568,0.0003530231,608.009999999568,0.0001281665,608.009999999568,1.183188e-05
608.024999999568,4.289525e-05,608.024999999568,0.0003593046,608.024999999568,0.0001284354,608.024999999568,1.198213e-05
608.039999999568,4.575208e-05,608.039999999568,0.0004205993,608.039999999568,0.0001284131,608.039999999568,1.266678e-05
608.0549999995679,4.744258e-05,608.0549999995679,0.0004492202,608.0549999995679,0.0001289687,608.0549999995679,1.310837e-05
608.0699999995679,5.915775e-05,608.0699999995679,0.0006670217,608.0699999995679,0.0001292666,608.0699999995679,1.338696e-05
608.0849999995679,6.087631e-05,608.0849999995679,0.001163484,608.0849999995679,0.0001287974,608.0849999995679,1.340379e-05
608.0999999995679,6.275879e-05,608.0999999995679,0.001715675,608.0999999995679,0.0001269382,608.0999999995679,1.376875e-05
608.1149999995679,6.365692e-05,608.1149999995679,0.002161521,608.1149999995679,0.0001233128,608.1149999995679,1.425336e-05
608.1299999995679,6.400979e-05,608.1299999995679,0.00250438,608.1299999995679,0.0001223087,608.1299999995679,1.43744e-05
608.1449999995679,6.424834e-05,608.1449999995679,0.002842932,608.1449999995679,0.000111327,608.1449999995679,1.456521e-05
608.1599999995678,6.447793e-05,608.1599999995678,0.003112974,608.1599999995678,7.436877e-05,608.1599999995678,1.490932e-05
608.1749999995678,6.692451e-05,608.1749999995678,0.003319077,608.1749999995678,6.235887e-05,608.1749999995678,1.58979e-05
608.1899999995678,7.030399e-05,608.1899999995678,0.003342772,608.1899999995678,6.096187e-05,608.1899999995678,1.633148e-05
608.2049999995678,7.025067e-05,608.2049999995678,0.003386846,608.2049999995678,5.042717e-05,608.2049999995678,1.582775e-05
608.2199999995678,7.093115e-05,608.2199999995678,0.003520474,608.2199999995678,3.581291e-05,608.2199999995678,1.597392e-05
608.2349999995678,7.091268e-05,608.2349999995678,0.003661575,608.2349999995678,2.91372e-05,608.2349999995678,1.648601e-05
608.2499999995678,6.873893e-05,608.2499999995678,0.003769727,608.2499999995678,2.944738e-05,608.2499999995678,1.585531e-05
608.2649999995677,6.29325e-05,608.2649999995677,0.003837311,608.2649999995677,2.950425e-05,608.2649999995677,1.59845e-05
608.2799999995677,5.932182e-05,608.2799999995677,0.003872871,608.2799999995677,2.862408e-05,608.2799999995677,1.549404e-05
608.2949999995677,5.849034e-05,608.2949999995677,0.003888413,608.2949999995677,2.853338e-05,608.2949999995677,1.654316e-05
608.3099999995677,5.774746e-05,608.3099999995677,0.003883498,608.3099999995677,2.481048e-05,608.3099999995677,1.76601e-05
608.3249999995677,4.509494e-05,608.3249999995677,0.003831083,608.3249999995677,2.372738e-05,608.3249999995677,1.748454e-05
608.3399999995677,4.282327e-05,608.3399999995677,0.003639463,608.3399999995677,2.415222e-05,608.3399999995677,1.796065e-05
608.3549999995677,4.075938e-05,608.3549999995677,0.003447904,608.3549999995677,2.403411e-05,608.3549999995677,1.759697e-05
608.3699999995677,3.986446e-05,608.3699999995677,0.003207977,608.3699999995677,2.252434e-05,608.3699999995677,1.777063e-05
608.3849999995676,3.977142e-05,608.3849999995676,0.002918726,608.3849999995676,2.18591e-05,608.3849999995676,1.875335e-05
608.3999999995676,3.884831e-05,608.3999999995676,0.002512706,608.3999999995676,2.125067e-05,608.3999999995676,1.893203e-05
608.4149999995676,3.881457e-05,608.4149999995676,0.001966503,608.4149999995676,2.099928e-05,608.4149999995676,1.874659e-05
608.4299999995676,2.873705e-05,608.4299999995676,0.001279188,608.4299999995676,1.922955e-05,608.4299999995676,1.859873e-05
608.4449999995676,2.588364e-05,608.4449999995676,0.001155285,608.4449999995676,1.873456e-05,608.4449999995676,1.847028e-05
608.4599999995676,2.334674e-05,608.4599999995676,0.00117548,608.4599999995676,1.757855e-05,608.4599999995676,1.995501e-05
608.4749999995676,2.22069e-05,608.4749999995676,0.00108068,608.4749999995676,1.696606e-05,608.4749999995676,2.111234e-05
608.4899999995675,2.15554e-05,608.4899999995675,0.0009158247,608.4899999995675,1.653975e-05,608.4899999995675,2.094621e-05
608.5049999995675,2.100665e-05,608.5049999995675,0.0007392301,608.5049999995675,1.622417e-05,608.5049999995675,2.02166e-05
608.5199999995675,2.16024e-05,608.5199999995675,0.0005865811,608.5199999995675,1.52281e-05,608.5199999995675,2.175186e-05
608.5349999995675,2.177581e-05,608.5349999995675,0.0004695537,608.5349999995675,1.52549e-05,608.5349999995675,2.21739e-05
608.5499999995675,2.194015e-05,608.5499999995675,0.0003733202,608.5499999995675,1.522532e-05,608.5499999995675,2.229554e-05
608.5649999995675,2.031739e-05,608.5649999995675,0.0002924407,608.5649999995675,1.543939e-05,608.5649999995675,2.208159e-05
608.5799999995675,1.916938e-05,608.5799999995675,0.0002308419,608.5799999995675,1.539279e-05,608.5799999995675,2.275704e-05
608.5949999995674,1.873381e-05,608.5949999995674,0.0001878304,608.5949999995674,1.443308e-05,608.5949999995674,2.304797e-05
608.6099999995674,1.857902e-05,608.6099999995674,0.0001626851,608.6099999995674,1.409634e-05,608.6099999995674,2.342925e-05
608.6249999995674,1.837163e-05,608.6249999995674,0.0001393466,608.6249999995674,1.425039e-05,608.6249999995674,2.333286e-05
608.6399999995674,1.645779e-05,608.6399999995674,0.0001035082,608.6399999995674,1.367534e-05,608.6399999995674,2.413413e-05
608.6549999995674,1.6245e-05,608.6549999995674,7.493411e-05,608.6549999995674,1.350013e-05,608.6549999995674,2.41901e-05
608.6699999995674,1.605748e-05,608.6699999995674,5.782717e-05,608.6699999995674,1.337328e-05,608.6699999995674,2.405579e-05
608.6849999995674,1.832557e-05,608.6849999995674,4.265386e-05,608.6849999995674,1.549131e-05,608.6849999995674,2.375586e-05
608.6999999995674,1.868789e-05,608.6999999995674,4.00492e-05,608.6999999995674,1.617286e-05,608.6999999995674,2.365543e-05
608.7149999995673,1.875936e-05,608.7149999995673,3.836778e-05,608.7149999995673,1.640463e-05,608.7149999995673,2.207967e-05
608.7299999995673,2.134261e-05,608.7299999995673,3.440828e-05,608.7299999995673,1.644494e-05,608.7299999995673,2.12957e-05
608.7449999995673,2.306019e-05,608.7449999995673,2.544951e-05,608.7449999995673,1.654231e-05,608.7449999995673,2.110166e-05
608.7599999995673,2.613979e-05,608.7599999995673,1.862673e-05,608.7599999995673,1.673534e-05,608.7599999995673,2.01929e-05
608.7749999995673,2.529906e-05,608.7749999995673,1.62606e-05,608.7749999995673,1.657124e-05,608.7749999995673,1.940819e-05
608.7899999995673,2.608207e-05,608.7899999995673,1.541383e-05,608.7899999995673,1.646378e-05,608.7899999995673,1.869693e-05
608.8049999995673,3.126054e-05,608.8049999995673,1.367328e-05,608.8049999995673,1.83371e-05,608.8049999995673,1.660944e-05
608.8199999995672,3.669838e-05,608.8199999995672,9.94427e-06,608.8199999995672,1.835553e-05,608.8199999995672,1.624673e-05
608.8349999995672,3.744167e-05,608.8349999995672,8.093397e-06,608.8349999995672,1.889553e-05,608.8349999995672,1.518734e-05
608.8499999995672,3.781603e-05,608.8499999995672,0.001221881,608.8499999995672,1.955065e-05,608.8499999995672,1.47631e-05
608.8649999995672,3.93054e-05,608.8649999995672,0.001759009,608.8649999995672,1.960031e-05,608.8649999995672,1.372777e-05
608.8799999995672,4.921047e-05,608.8799999995672,0.002252243,608.8799999995672,1.913702e-05,608.8799999995672,1.208515e-05
608.8949999995672,4.94771e-05,608.8949999995672,0.002614663,608.8949999995672,1.928952e-05,608.8949999995672,1.04983e-05
608.9099999995672,5.104549e-05,608.9099999995672,0.002948783,608.9099999995672,2.057985e-05,608.9099999995672,1.068713e-05
608.9249999995671,5.204247e-05,608.9249999995671,0.003203949,608.9249999995671,2.04783e-05,608.9249999995671,1.090891e-05
608.9399999995671,5.314278e-05,608.9399999995671,0.003390988,608.9399999995671,1.827862e-05,608.9399999995671,1.099509e-05
608.9549999995671,5.636087e-05,608.9549999995671,0.003633389,608.9549999995671,1.987083e-05,608.9549999995671,1.069504e-05
608.9699999995671,5.704035e-05,608.9699999995671,0.00389148,608.9699999995671,1.99211e-05,608.9699999995671,1.037683e-05
608.9849999995671,5.763856e-05,608.9849999995671,0.004068055,608.9849999995671,1.967061e-05,608.9849999995671,1.048084e-05
608.9999999995671,6.052123e-05,608.9999999995671,0.004253278,608.9999999995671,2.342023e-05,608.9999999995671,1.027863e-05
609.0149999995671,5.991277e-05,609.0149999995671,0.004428922,609.0149999995671,2.550811e-05,609.0149999995671,1.008214e-05
609.029999999567,6.188518e-05,609.029999999567,0.004663537,609.029999999567,2.622319e-05,609.029999999567,1.052644e-05
609.044999999567,6.46908e-05,609.044999999567,0.004814121,609.044999999567,2.731614e-05,609.044999999567,1.027451e-05
609.059999999567,6.284671e-05,609.059999999567,0.004935618,609.059999999567,2.692764e-05,609.059999999567,1.053312e-05
609.074999999567,6.460648e-05,609.074999999567,0.005146298,609.074999999567,2.705655e-05,609.074999999567,1.027999e-05
609.089999999567,6.444252e-05,609.089999999567,0.005291558,609.089999999567,2.813816e-05,609.089999999567,1.007795e-05
609.104999999567,6.556312e-05,609.104999999567,0.005241171,609.104999999567,2.768088e-05,609.104999999567,1.001344e-05
609.119999999567,6.423957e-05,609.119999999567,0.005235788,609.119999999567,2.780021e-05,609.119999999567,1.007934e-05
609.134999999567,6.006775e-05,609.134999999567,0.005157282,609.134999999567,2.782756e-05,609.134999999567,1.004575e-05
609.149999999567,6.005133e-05,609.149999999567,0.005175959,609.149999999567,2.759576e-05,609.149999999567,1.308471e-05
609.1649999995669,6.058823e-05,609.1649999995669,0.005205062,609.1649999995669,2.705342e-05,609.1649999995669,1.366194e-05
609.1799999995669,6.441432e-05,609.1799999995669,0.005225303,609.1799999995669,2.681441e-05,609.1799999995669,1.475069e-05
609.1949999995669,6.306375e-05,609.1949999995669,0.00523837,609.1949999995669,2.7633e-05,609.1949999995669,1.477836e-05
609.2099999995669,6.286016e-05,609.2099999995669,0.005135864,609.2099999995669,2.705134e-05,609.2099999995669,2.071086e-05
609.2249999995669,6.254969e-05,609.2249999995669,0.004993023,609.2249999995669,2.808103e-05,609.2249999995669,2.189966e-05
609.2399999995669,5.834083e-05,609.2399999995669,0.00507575,609.2399999995669,2.917488e-05,609.2399999995669,2.603774e-05
609.2549999995668,6.171902e-05,609.2549999995668,0.005073193,609.2549999995668,2.801273e-05,609.2549999995668,2.693235e-05
609.2699999995668,6.191772e-05,609.2699999995668,0.005016471,609.2699999995668,2.788268e-05,609.2699999995668,2.695222e-05
609.2849999995668,5.651985e-05,609.2849999995668,0.004996906,609.2849999995668,2.767528e-05,609.2849999995668,2.67834e-05
609.2999999995668,5.560372e-05,609.2999999995668,0.004861579,609.2999999995668,3.245225e-05,609.2999999995668,2.702164e-05
609.3149999995668,5.538491e-05,609.3149999995668,0.004913915,609.3149999995668,3.809993e-05,609.3149999995668,2.705394e-05
609.3299999995668,5.108632e-05,609.3299999995668,0.004838298,609.3299999995668,4.009419e-05,609.3299999995668,2.714906e-05
609.3449999995668,5.055412e-05,609.3449999995668,0.004690075,609.3449999995668,3.902341e-05,609.3449999995668,2.708881e-05
609.3599999995668,4.92674e-05,609.3599999995668,0.004513246,609.3599999995668,4.031003e-05,609.3599999995668,2.710025e-05
609.3749999995667,5.321536e-05,609.3749999995667,0.004299413,609.3749999995667,4.243467e-05,609.3749999995667,2.690304e-05
609.3899999995667,5.356048e-05,609.3899999995667,0.004157612,609.3899999995667,4.416285e-05,609.3899999995667,2.676761e-05
609.4049999995667,5.181949e-05,609.4049999995667,0.003999328,609.4049999995667,4.554594e-05,609.4049999995667,2.487229e-05
609.4199999995667,4.544408e-05,609.4199999995667,0.003826427,609.4199999995667,4.571974e-05,609.4199999995667,2.483829e-05
609.4349999995667,4.275941e-05,609.4349999995667,0.003677636,609.4349999995667,4.695641e-05,609.4349999995667,2.428831e-05
609.4499999995667,4.561209e-05,609.4499999995667,0.003488586,609.4499999995667,4.730342e-05,609.4499999995667,2.413413e-05
609.4649999995667,4.844712e-05,609.4649999995667,0.003343798,609.4649999995667,4.714353e-05,609.4649999995667,1.839309e-05
609.4799999995666,4.976242e-05,609.4799999995666,0.003221937,609.4799999995666,4.641085e-05,609.4799999995666,1.61807e-05
609.4949999995666,5.177789e-05,609.4949999995666,0.002936913,609.4949999995666,4.564018e-05,609.4949999995666,1.070689e-05
609.5099999995666,5.019141e-05,609.5099999995666,0.002667892,609.5099999995666,4.384818e-05,609.5099999995666,1.018777e-05
609.5249999995666,5.162313e-05,609.5249999995666,0.002409181,609.5249999995666,4.410636e-05,609.5249999995666,1.031283e-05
609.5399999995666,5.277865e-05,609.5399999995666,0.002192892,609.5399999995666,4.355291e-05,609.5399999995666,1.192557e-05
609.5549999995666,5.442432e-05,609.5549999995666,0.001962701,609.5549999995666,4.121647e-05,609.5549999995666,1.421377e-05
609.5699999995666,5.525249e-05,609.5699999995666,0.001476539,609.5699999995666,4.343794e-05,609.5699999995666,1.453811e-05
609.5849999995665,5.770524e-05,609.5849999995665,0.001045584,609.5849999995665,4.362175e-05,609.5849999995665,1.510084e-05
609.5999999995665,6.191385e-05,609.5999999995665,0.001034989,609.5999999995665,4.766268e-05,609.5999999995665,1.522717e-05
609.6149999995665,6.30651e-05,609.6149999995665,0.001563832,609.6149999995665,6.460626e-05,609.6149999995665,1.517992e-05
609.6299999995665,6.14358e-05,609.6299999995665,0.001727625,609.6299999995665,6.740479e-05,609.6299999995665,1.527797e-05
609.6449999995665,6.740145e-05,609.6449999995665,0.002207236,609.6449999995665,7.274943e-05,609.6449999995665,1.556027e-05
609.6599999995665,7.214511e-05,609.6599999995665,0.002534089,609.6599999995665,7.303873e-05,609.6599999995665,1.536623e-05
609.6749999995665,7.303005e-05,609.6749999995665,0.002796149,609.6749999995665,7.423549e-05,609.6749999995665,1.557203e-05
609.6899999995665,7.384298e-05,609.6899999995665,0.002921064,609.6899999995665,7.449803e-05,609.6899999995665,1.533411e-05
609.7049999995664,7.166022e-05,609.7049999995664,0.003244756,609.7049999995664,7.447401e-05,609.7049999995664,1.552038e-05
609.7199999995664,7.095041e-05,609.7199999995664,0.003511189,609.7199999995664,7.635628e-05,609.7199999995664,1.546674e-05
609.7349999995664,7.068546e-05,609.7349999995664,0.003719253,609.7349999995664,8.036947e-05,609.7349999995664,1.507936e-05
609.7499999995664,6.930995e-05,609.7499999995664,0.003829317,609.7499999995664,8.271205e-05,609.7499999995664,1.477645e-05
609.7649999995664,6.798785e-05,609.7649999995664,0.003853835,609.7649999995664,8.274031e-05,609.7649999995664,1.39234e-05
609.7799999995664,6.726902e-05,609.7799999995664,0.003863269,609.7799999995664,8.231324e-05,609.7799999995664,1.369181e-05
609.7949999995664,6.603113e-05,609.7949999995664,0.003894085,609.7949999995664,8.315452e-05,609.7949999995664,1.235033e-05
609.8099999995663,6.445083e-05,609.8099999995663,0.003902405,609.8099999995663,8.101713e-05,609.8099999995663,9.515735e-06
609.8249999995663,6.277404e-05,609.8249999995663,0.003988961,609.8249999995663,7.709033e-05,609.8249999995663,8.58824e-06
609.8399999995663,6.185057e-05,609.8399999995663,0.004288155,609.8399999995663,7.66189e-05,609.8399999995663,7.762914e-06
609.8549999995663,5.391907e-05,609.8549999995663,0.004472085,609.8549999995663,7.163427e-05,609.8549999995663,8.207468e-06
609.8699999995663,5.277384e-05,609.8699999995663,0.004613725,609.8699999995663,5.656968e-05,609.8699999995663,7.984756e-06
609.8849999995663,5.171909e-05,609.8849999995663,0.004692465,609.8849999995663,5.421479e-05,609.8849999995663,7.831566e-06
609.8999999995663,4.318817e-05,609.8999999995663,0.004648485,609.8999999995663,4.739446e-05,609.8999999995663,7.577422e-06
609.9149999995662,3.642754e-05,609.9149999995662,0.00452084,609.9149999995662,4.602621e-05,609.9149999995662,7.586711e-06
609.9299999995662,3.44361e-05,609.9299999995662,0.004351026,609.9299999995662,4.303852e-05,609.9299999995662,7.530803e-06
609.9449999995662,3.18834e-05,609.9449999995662,0.004323127,609.9449999995662,4.225302e-05,609.9449999995662,7.324076e-06
609.9599999995662,3.136356e-05,609.9599999995662,0.004167635,609.9599999995662,4.206089e-05,609.9599999995662,7.077588e-06
609.9749999995662,2.558476e-05,609.9749999995662,0.003935969,609.9749999995662,3.867386e-05,609.9749999995662,7.207752e-06
609.9899999995662,2.485133e-05,609.9899999995662,0.003802321,609.9899999995662,2.816218e-05,609.9899999995662,7.50457e-06
610.0049999995662,2.164279e-05,610.0049999995662,0.003779815,610.0049999995662,2.341001e-05,610.0049999995662,7.71011e-06
610.0199999995662,2.008869e-05,610.0199999995662,0.003792042,610.0199999995662,2.345089e-05,610.0199999995662,7.689987e-06
610.0349999995661,1.90714e-05,610.0349999995661,0.003746846,610.0349999995661,2.290081e-05,610.0349999995661,8.226325e-06
610.0499999995661,1.88739e-05,610.0499999995661,0.003705482,610.0499999995661,2.145912e-05,610.0499999995661,8.60299e-06
610.0649999995661,1.874659e-05,610.0649999995661,0.003739984,610.0649999995661,2.144927e-05,610.0649999995661,8.456004e-06
610.0799999995661,1.605572e-05,610.0799999995661,0.003718275,610.0799999995661,2.147618e-05,610.0799999995661,8.640569e-06
610.0949999995661,1.58784e-05,610.0949999995661,0.003831328,610.0949999995661,2.112435e-05,610.0949999995661,8.697441e-06
610.1099999995661,1.539645e-05,610.1099999995661,0.003988256,610.1099999995661,2.117031e-05,610.1099999995661,8.645458e-06
610.1249999995661,1.544213e-05,610.1249999995661,0.004033007,610.1249999995661,2.001703e-05,610.1249999995661,8.829253e-06
610.139999999566,1.527705e-05,610.139999999566,0.003979866,610.139999999566,1.841988e-05,610.139999999566,8.95126e-06
610.154999999566,1.369798e-05,610.154999999566,0.003880185,610.154999999566,1.795595e-05,610.154999999566,8.977973e-06
610.169999999566,1.084285e-05,610.169999999566,0.003802965,610.169999999566,2.01936e-05,610.169999999566,9.12427e-06
610.184999999566,1.075022e-05,610.184999999566,0.003810296,610.184999999566,1.935077e-05,610.184999999566,9.506848e-06
610.199999999566,1.078423e-05,610.199999999566,0.003753211,610.199999999566,1.872253e-05,610.199999999566,9.426494e-06
610.214999999566,1.113006e-05,610.214999999566,0.003811703,610.214999999566,1.795752e-05,610.214999999566,9.502402e-06
610.229999999566,1.117301e-05,610.229999999566,0.003863288,610.229999999566,1.726238e-05,610.229999999566,9.245431e-06
610.244999999566,1.091665e-05,610.244999999566,0.003826389,610.244999999566,1.725503e-05,610.244999999566,9.049861e-06
610.2599999995659,1.11604e-05,610.2599999995659,0.003783002,610.2599999995659,1.670248e-05,610.2599999995659,8.91183e-06
610.2749999995659,1.056117e-05,610.2749999995659,0.003882476,610.2749999995659,1.658058e-05,610.2749999995659,8.707154e-06
610.2899999995659,9.596809e-06,610.2899999995659,0.003920992,610.2899999995659,1.658483e-05,610.2899999995659,8.537242e-06
610.3049999995659,9.70337e-06,610.3049999995659,0.003704088,610.3049999995659,1.610303e-05,610.3049999995659,8.014691e-06
610.3199999995659,9.558568e-06,610.3199999995659,0.003292575,610.3199999995659,1.628138e-05,610.3199999995659,7.977696e-06
610.3349999995659,9.339419e-06,610.3349999995659,0.002980963,610.3349999995659,1.624586e-05,610.3349999995659,7.719241e-06
610.3499999995659,8.959125e-06,610.3499999995659,0.003327908,610.3499999995659,1.612576e-05,610.3499999995659,7.453716e-06
610.3649999995658,8.966984e-06,610.3649999995658,0.003554475,610.3649999995658,1.592711e-05,610.3649999995658,7.349037e-06
610.3799999995658,8.591521e-06,610.3799999995658,0.003650428,610.3799999995658,1.565773e-05,610.3799999995658,6.885912e-06
610.3949999995658,7.913874e-06,610.3949999995658,0.003627355,610.3949999995658,1.447207e-05,610.3949999995658,6.863372e-06
610.4099999995658,7.287441e-06,610.4099999995658,0.003558144,610.4099999995658,1.316627e-05,610.4099999995658,6.938897e-06
610.4249999995658,6.975343e-06,610.4249999995658,0.003452479,610.4249999995658,1.110726e-05,610.4249999995658,6.709772e-06
610.4399999995658,6.900217e-06,610.4399999995658,0.0034779,610.4399999995658,1.147529e-05,610.4399999995658,7.027653e-06
610.4549999995658,6.468188e-06,610.4549999995658,0.003517458,610.4549999995658,1.156334e-05,610.4549999995658,7.358615e-06
610.4699999995657,6.362793e-06,610.4699999995657,0.003908445,610.4699999995657,1.165556e-05,610.4699999995657,7.314453e-06
610.4849999995657,6.307202e-06,610.4849999995657,0.004223611,610.4849999995657,1.166643e-05,610.4849999995657,7.370092e-06
610.4999999995657,6.593293e-06,610.4999999995657,0.004480894,610.4999999995657,1.165435e-05,610.4999999995657,7.316379e-06
610.5149999995657,6.246608e-06,610.5149999995657,0.004692837,610.5149999995657,1.339117e-05,610.5149999995657,7.381551e-06
610.5299999995657,6.435437e-06,610.5299999995657,0.004727215,610.5299999995657,1.361029e-05,610.5299999995657,7.295169e-06
610.5449999995657,6.320588e-06,610.5449999995657,0.004734961,610.5449999995657,1.575192e-05,610.5449999995657,7.385367e-06
610.5599999995657,6.369431e-06,610.5599999995657,0.004693946,610.5599999995657,1.715432e-05,610.5599999995657,7.605257e-06
610.5749999995656,6.58688e-06,610.5749999995656,0.004733288,610.5749999995656,1.771505e-05,610.5749999995656,7.461272e-06
610.5899999995656,6.526725e-06,610.5899999995656,0.004777239,610.5899999995656,1.949148e-05,610.5899999995656,7.434793e-06
610.6049999995656,6.716067e-06,610.6049999995656,0.004769876,610.6049999995656,1.998534e-05,610.6049999995656,7.40061e-06
610.6199999995656,6.795303e-06,610.6199999995656,0.004653342,610.6199999995656,2.060311e-05,610.6199999995656,7.432898e-06
610.6349999995656,7.446153e-06,610.6349999995656,0.004662514,610.6349999995656,2.095294e-05,610.6349999995656,7.242846e-06
610.6499999995656,7.335607e-06,610.6499999995656,0.004606362,610.6499999995656,2.160175e-05,610.6499999995656,7.12124e-06
610.6649999995656,7.201887e-06,610.6649999995656,0.004460561,610.6649999995656,2.141706e-05,610.6649999995656,7.023643e-06
610.6799999995656,7.105398e-06,610.6799999995656,0.004317686,610.6799999995656,2.153251e-05,610.6799999995656,6.435437e-06
610.6949999995655,7.125195e-06,610.6949999995655,0.004257286,610.6949999995655,2.158609e-05,610.6949999995655,6.325044e-06
610.7099999995655,6.983416e-06,610.7099999995655,0.004356726,610.7099999995655,2.175122e-05,610.7099999995655,6.102884e-06
610.7249999995655,7.025649e-06,610.7249999995655,0.004293837,610.7249999995655,2.187521e-05,610.7249999995655,6.141998e-06
610.7399999995655,7.170523e-06,610.7399999995655,0.004214841,610.7399999995655,2.197351e-05,610.7399999995655,6.264623e-06
610.7549999995655,6.885912e-06,610.7549999995655,0.004040212,610.7549999995655,2.151157e-05,610.7549999995655,6.174023e-06
610.7699999995655,6.728641e-06,610.7699999995655,0.00380549,610.7699999995655,2.086603e-05,610.7699999995655,6.06584e-06
610.7849999995655,6.606099e-06,610.7849999995655,0.003573358,610.7849999995655,2.046316e-05,610.7849999995655,6.100575e-06
610.7999999995654,6.726546e-06,610.7999999995654,0.003597903,610.7999999995654,1.911345e-05,610.7999999995654,6.128222e-06
610.8149999995654,6.496438e-06,610.8149999995654,0.0037289,610.8149999995654,1.733729e-05,610.8149999995654,6.146583e-06
610.8299999995654,6.228541e-06,610.8299999995654,0.003617339,610.8299999995654,1.710663e-05,610.8299999995654,6.221753e-06
610.8449999995654,6.230803e-06,610.8449999995654,0.003325029,610.8449999995654,1.600564e-05,610.8449999995654,6.309435e-06
610.8599999995654,6.070483e-06,610.8599999995654,0.003127611,610.8599999995654,1.550676e-05,610.8599999995654,6.444187e-06
610.8749999995654,5.654801e-06,610.8749999995654,0.003109733,610.8749999995654,1.647832e-05,610.8749999995654,6.347276e-06
610.8899999995654,4.768218e-06,610.8899999995654,0.002991538,610.8899999995654,1.610741e-05,610.8899999995654,6.431058e-06
610.9049999995653,4.826943e-06,610.9049999995653,0.002937304,610.9049999995653,1.622244e-05,610.9049999995653,6.511599e-06
610.9199999995653,4.777073e-06,610.9199999995653,0.002865588,610.9199999995653,1.6258e-05,610.9199999995653,6.452925e-06
610.9349999995653,4.660651e-06,610.9349999995653,0.002931651,610.9349999995653,1.746923e-05,610.9349999995653,6.629514e-06
610.9499999995653,4.513241e-06,610.9499999995653,0.002875517,610.9499999995653,1.754727e-05,610.9499999995653,6.507271e-06
610.9649999995653,4.354386e-06,610.9649999995653,0.002885058,610.9649999995653,1.816188e-05,610.9649999995653,6.543968e-06
610.9799999995653,3.885991e-06,610.9799999995653,0.003063931,610.9799999995653,1.808726e-05,610.9799999995653,6.539662e-06
610.9949999995653,3.90768e-06,610.9949999995653,0.003318617,610.9949999995653,1.893575e-05,610.9949999995653,6.494269e-06
611.0099999995653,3.964939e-06,611.0099999995653,0.003508336,611.0099999995653,1.9081e-05,611.0099999995653,6.554722e-06
611.0249999995652,3.925663e-06,611.0249999995652,0.003635415,611.0249999995652,1.981759e-05,611.0249999995652,6.74119e-06
611.0399999995652,3.642754e-06,611.0399999995652,0.003639366,611.0399999995652,2.126922e-05,611.0399999995652,6.644371e-06
611.0549999995652,3.492716e-06,611.0549999995652,0.003558362,611.0549999995652,2.191895e-05,611.0549999995652,6.703471e-06
611.0699999995652,3.635012e-06,611.0699999995652,0.003474726,611.0699999995652,2.20388e-05,611.0699999995652,6.64861e-06
611.0849999995652,3.665883e-06,611.0849999995652,0.003403276,611.0849999995652,2.839531e-05,611.0849999995652,6.556871e-06
611.0999999995652,3.715501e-06,611.0999999995652,0.003435608,611.0999999995652,2.964143e-05,611.0999999995652,6.338393e-06
611.1149999995652,3.665883e-06,611.1149999995652,0.003649014,611.1149999995652,3.058819e-05,611.1149999995652,6.457289e-06
611.1299999995651,3.435788e-06,611.1299999995651,0.003851225,611.1299999995651,4.25083e-05,611.1299999995651,6.376062e-06
611.1449999995651,3.556662e-06,611.1449999995651,0.003979209,611.1449999995651,5.010574e-05,611.1449999995651,6.269119e-06
611.1599999995651,3.599965e-06,611.1599999995651,0.003963668,611.1599999995651,5.046013e-05,611.1599999995651,6.151165e-06
611.1749999995651,3.615583e-06,611.1749999995651,0.003849061,611.1749999995651,5.295956e-05,611.1749999995651,6.116717e-06
611.1899999995651,3.638885e-06,611.1899999995651,0.003765617,611.1899999995651,5.421271e-05,611.1899999995651,6.035575e-06
611.2049999995651,3.665883e-06,611.2049999995651,0.003844366,611.2049999995651,5.443183e-05,611.2049999995651,6.075122e-06
611.2199999995651,3.723076e-06,611.2199999995651,0.003942103,611.2199999995651,5.548351e-05,611.2199999995651,5.778013e-06
611.234999999565,4.017877e-06,611.234999999565,0.003952504,611.234999999565,5.578052e-05,611.234999999565,6.054217e-06
611.249999999565,3.961384e-06,611.249999999565,0.003858586,611.249999999565,5.553198e-05,611.249999999565,5.855509e-06
611.264999999565,3.989731e-06,611.264999999565,0.003705234,611.264999999565,5.548833e-05,611.264999999565,6.293787e-06
611.279999999565,4.135364e-06,611.279999999565,0.003639495,611.279999999565,5.506453e-05,611.279999999565,6.13052e-06
611.294999999565,4.114875e-06,611.294999999565,0.003649945,611.294999999565,5.45275e-05,611.294999999565,6.06584e-06
611.309999999565,4.094283e-06,611.309999999565,0.00366275,611.309999999565,5.448382e-05,611.309999999565,5.819312e-06
611.324999999565,4.038859e-06,611.324999999565,0.003658629,611.324999999565,5.38783e-05,611.324999999565,5.696992e-06
611.339999999565,4.090841e-06,611.339999999565,0.003656387,611.339999999565,5.277064e-05,611.339999999565,5.721665e-06
611.3549999995649,4.11145e-06,611.3549999995649,0.003588118,611.3549999995649,5.343119e-05,611.3549999995649,6.026232e-06
611.3699999995649,5.121465e-06,611.3699999995649,0.003319028,611.3699999995649,5.967011e-05,611.3699999995649,6.026232e-06
611.3849999995649,5.302549e-06,611.3849999995649,0.003024998,611.3849999995649,8.165671e-05,611.3849999995649,6.13052e-06
611.3999999995649,5.389503e-06,611.3999999995649,0.002780347,611.3999999995649,0.0001491157,611.3999999995649,6.237581e-06
611.4149999995649,5.392116e-06,611.4149999995649,0.002543218,611.4149999995649,0.0001822328,611.4149999995649,6.511599e-06
611.4299999995649,5.622323e-06,611.4299999995649,0.00253921,611.4299999995649,0.0003264625,611.4299999995649,6.42229e-06
611.4449999995649,5.831403e-06,611.4449999995649,0.002520878,611.4449999995649,0.0003777632,611.4449999995649,6.603967e-06
611.4599999995648,5.857914e-06,611.4599999995648,0.002376375,611.4599999995648,0.000486213,611.4599999995648,6.920602e-06
611.4749999995648,5.910582e-06,611.4749999995648,0.002170288,611.4749999995648,0.0004973774,611.4749999995648,6.861319e-06
611.4899999995648,5.848288e-06,611.4899999995648,0.001849488,611.4899999995648,0.0005625862,611.4899999995648,6.930771e-06
611.5049999995648,6.180865e-06,611.5049999995648,0.001630033,611.5049999995648,0.0006676657,611.5049999995648,6.665538e-06
611.5199999995648,6.33617e-06,611.5199999995648,0.001529784,611.5199999995648,0.0007644079,611.5199999995648,6.772462e-06
611.5349999995648,6.500773e-06,611.5349999995648,0.001390147,611.5349999995648,0.0008669971,611.5349999995648,6.673986e-06
611.5499999995648,7.00557e-06,611.5499999995648,0.001365767,611.5499999995648,0.0008871224,611.5499999995648,7.377733e-06
611.5649999995647,7.974164e-06,611.5649999995647,0.001343101,611.5649999995647,0.0008897473,611.5649999995647,7.489538e-06
611.5799999995647,8.294538e-06,611.5799999995647,0.001359312,611.5799999995647,0.000895984,611.5799999995647,7.658783e-06
611.5949999995647,8.594799e-06,611.5949999995647,0.001361135,611.5949999995647,0.0008986603,611.5949999995647,7.761099e-06
611.6099999995647,8.36893e-06,611.6099999995647,0.001423033,611.6099999995647,0.0008988662,611.6099999995647,7.732004e-06
611.6249999995647,8.861105e-06,611.6249999995647,0.001442283,611.6249999995647,0.0008979801,611.6249999995647,7.70097e-06
611.6399999995647,8.918151e-06,611.6399999995647,0.001354712,611.6399999995647,0.0008927813,611.6399999995647,7.645896e-06
611.6549999995647,8.867461e-06,611.6549999995647,0.001160191,611.6549999995647,0.0008839717,611.6549999995647,7.461272e-06
611.6699999995647,9.343943e-06,611.6699999995647,0.001143842,611.6699999995647,0.0008697207,611.6699999995647,7.362442e-06
611.6849999995646,9.274335e-06,611.6849999995646,0.001181428,611.6849999995646,0.0008349215,611.6849999995646,7.34712e-06
611.6999999995646,9.205732e-06,611.6999999995646,0.001270617,611.6999999995646,0.0007792647,611.6999999995646,7.268085e-06
611.7149999995646,9.269777e-06,611.7149999995646,0.001351027,611.7149999995646,0.0007458461,611.7149999995646,7.003558e-06
611.7299999995646,9.37104e-06,611.7299999995646,0.001285704,611.7299999995646,0.0007351317,611.7299999995646,6.97938e-06
611.7449999995646,9.21338e-06,611.7449999995646,0.001317166,611.7449999995646,0.0006770285,611.7449999995646,6.795303e-06
611.7599999995646,8.926046e-06,611.7599999995646,0.001651676,611.7599999995646,0.0004912253,611.7599999995646,6.711871e-06
611.7749999995646,8.977973e-06,611.7749999995646,0.00207038,611.7749999995646,0.0003927205,611.7749999995646,6.66131e-06
611.7899999995645,8.903924e-06,611.7899999995645,0.002291891,611.7899999995645,0.00017666,611.7899999995645,6.753716e-06
611.8049999995645,7.771981e-06,611.8049999995645,0.002360557,611.8049999995645,0.0001318141,611.8049999995645,5.998116e-06
611.8199999995645,7.666136e-06,611.8199999995645,0.002351058,611.8199999995645,0.0001091789,611.8199999995645,6.042573e-06
611.8349999995645,7.316379e-06,611.8349999995645,0.002355122,611.8349999995645,6.238417e-05,611.8349999995645,5.826569e-06
611.8499999995645,6.955118e-06,611.8499999995645,0.0023961,611.8499999995645,3.091617e-05,611.8499999995645,5.674694e-06
611.8649999995645,6.325044e-06,611.8649999995645,0.002414116,611.8649999995645,2.680285e-05,611.8649999995645,5.56693e-06
611.8799999995645,5.719203e-06,611.8799999995645,0.002440102,611.8799999995645,2.705759e-05,611.8799999995645,5.554263e-06
611.8949999995644,6.135114e-06,611.8949999995644,0.002446229,611.8949999995644,2.825457e-05,611.8949999995644,5.706874e-06
611.9099999995644,7.689987e-06,611.9099999995644,0.002457864,611.9099999995644,2.931841e-05,611.9099999995644,5.729046e-06
611.9249999995644,7.00758e-06,611.9249999995644,0.002478464,611.9249999995644,3.072467e-05,611.9249999995644,5.677176e-06
611.9399999995644,7.556945e-06,611.9399999995644,0.002451085,611.9399999995644,3.01676e-05,611.9399999995644,5.802342e-06
611.9549999995644,7.869248e-06,611.9549999995644,0.002418733,611.9549999995644,2.88608e-05,611.9549999995644,5.912964e-06
611.9699999995644,1.173625e-05,611.9699999995644,0.002395968,611.9699999995644,3.166395e-05,611.9699999995644,5.8867e-06
611.9849999995644,1.996842e-05,611.9849999995644,0.00234486,611.9849999995644,5.906243e-05,611.9849999995644,6.201342e-06
611.9999999995644,2.043491e-05,611.9999999995644,0.002440394,611.9999999995644,9.622418e-05,611.9999999995644,6.228541e-06
612.0149999995643,2.097713e-05,612.0149999995643,0.002351019,612.0149999995643,0.000103966,612.0149999995643,6.351713e-06
612.0299999995643,2.11743e-05,612.0299999995643,0.001983493,612.0299999995643,0.0001086376,612.0299999995643,6.520246e-06
612.0449999995643,2.144861e-05,612.0449999995643,0.001861935,612.0449999995643,0.0001406257,612.0449999995643,6.770382e-06
612.0599999995643,2.647286e-05,612.0599999995643,0.001981964,612.0599999995643,0.0001561491,612.0599999995643,6.834577e-06
612.0749999995643,2.827151e-05,612.0749999995643,0.002064537,612.0749999995643,0.0001874187,612.0749999995643,6.799448e-06
612.0899999995643,3.989378e-05,612.0899999995643,0.00212151,612.0899999995643,0.0002320844,612.0899999995643,7.27196e-06
612.1049999995643,4.172869e-05,612.1049999995643,0.002116104,612.1049999995643,0.0002517872,612.1049999995643,7.779228e-06
612.1199999995642,4.247747e-05,612.1199999995642,0.002379295,612.1199999995642,0.0003479815,612.1199999995642,7.799122e-06
612.1349999995642,4.26423e-05,612.1349999995642,0.002445439,612.1349999995642,0.0003569272,612.1349999995642,7.952937e-06
612.1499999995642,4.26773e-05,612.1499999995642,0.002457906,612.1499999995642,0.0003844377,612.1499999995642,7.982992e-06
612.1649999995642,4.325791e-05,612.1649999995642,0.002452449,612.1649999995642,0.0004006882,612.1649999995642,8.072484e-06
612.1799999995642,4.605956e-05,612.1799999995642,0.002558471,612.1799999995642,0.0004013095,612.1799999995642,9.811646e-06
612.1949999995642,4.639111e-05,612.1949999995642,0.002745528,612.1949999995642,0.000401567,612.1949999995642,9.94002e-06
612.2099999995642,4.675347e-05,612.2099999995642,0.002723803,612.2099999995642,0.0004021505,612.2099999995642,1.045258e-05
612.2249999995641,4.385557e-05,612.2249999995641,0.002897072,612.2249999995641,0.0004029382,612.2249999995641,1.08012e-05
612.2399999995641,4.317022e-05,612.2399999995641,0.003147546,612.2399999995641,0.000396794,612.2399999995641,1.152062e-05
612.2549999995641,5.102451e-05,612.2549999995641,0.003222172,612.2549999995641,0.0003904432,612.2549999995641,1.231721e-05
612.2699999995641,5.159529e-05,612.2699999995641,0.003314731,612.2699999995641,0.0003900356,612.2699999995641,1.272116e-05
612.2849999995641,5.269664e-05,612.2849999995641,0.003518944,612.2849999995641,0.0003884411,612.2849999995641,1.261775e-05
612.2999999995641,5.295078e-05,612.2999999995641,0.003657103,612.2999999995641,0.0003769037,612.2999999995641,1.2669e-05
612.3149999995641,5.287438e-05,612.3149999995641,0.00366441,612.3149999995641,0.0003728287,612.3149999995641,1.35989e-05
612.329999999564,5.198668e-05,612.329999999564,0.003673621,612.329999999564,0.0003449995,612.329999999564,1.339012e-05
612.344999999564,4.808287e-05,612.344999999564,0.003821293,612.344999999564,0.0003280887,612.344999999564,1.446915e-05
612.359999999564,4.79814e-05,612.359999999564,0.003983567,612.359999999564,0.0002825315,612.359999999564,1.555936e-05
612.374999999564,4.858938e-05,612.374999999564,0.00406454,612.374999999564,0.0001837787,612.374999999564,1.557655e-05
612.389999999564,5.001203e-05,612.389999999564,0.004251634,612.389999999564,0.0001713093,612.389999999564,1.583665e-05
612.404999999564,5.447038e-05,612.404999999564,0.004295046,612.404999999564,9.809679e-05,612.404999999564,1.63004e-05
612.419999999564,5.733643e-05,612.419999999564,0.004354337,612.419999999564,5.088573e-05,612.419999999564,1.848019e-05
612.434999999564,5.86971e-05,612.434999999564,0.004350313,612.434999999564,4.976468e-05,612.434999999564,1.84512e-05
612.4499999995639,6.325712e-05,612.4499999995639,0.004319698,612.4499999995639,4.769459e-05,612.4499999995639,1.929901e-05
612.4649999995639,6.530263e-05,612.4649999995639,0.00447235,612.4649999995639,4.117099e-05,612.4649999995639,2.424419e-05
612.4799999995639,6.971949e-05,612.4799999995639,0.004556737,612.4799999995639,2.726091e-05,612.4799999995639,2.490738e-05
612.4949999995639,7.176217e-05,612.4949999995639,0.004589527,612.4949999995639,2.278488e-05,612.4949999995639,2.47781e-05
612.5099999995639,7.223253e-05,612.5099999995639,0.004639237,612.5099999995639,2.096638e-05,612.5099999995639,2.557815e-05
612.5249999995639,7.91245e-05,612.5249999995639,0.004612422,612.5249999995639,1.700339e-05,612.5249999995639,2.669172e-05
612.5399999995639,7.919959e-05,612.5399999995639,0.00451621,612.5399999995639,1.414323e-05,612.5399999995639,2.702581e-05
612.5549999995638,8.589011e-05,612.5549999995638,0.004508761,612.5549999995638,1.263337e-05,612.5549999995638,2.733419e-05
612.5699999995638,8.778804e-05,612.5699999995638,0.004547129,612.5699999995638,1.254498e-05,612.5699999995638,2.718225e-05
612.5849999995638,0.000103733,612.5849999995638,0.00469327,612.5849999995638,1.188771e-05,612.5849999995638,2.75068e-05
612.5999999995638,0.0001059368,612.5999999995638,0.004890495,612.5999999995638,1.284568e-05,612.5999999995638,2.740521e-05
612.6149999995638,0.0001122918,612.6149999995638,0.004976968,612.6149999995638,1.297117e-05,612.6149999995638,2.72795e-05
612.6299999995638,0.000118779,612.6299999995638,0.004975478,612.6299999995638,1.333213e-05,612.6299999995638,2.757789e-05
612.6449999995638,0.0001198013,612.6449999995638,0.004907429,612.6449999995638,1.385036e-05,612.6449999995638,2.7718e-05
612.6599999995638,0.0001231151,612.6599999995638,0.005072546,612.6599999995638,1.390315e-05,612.6599999995638,2.73213e-05
612.6749999995637,0.0001267291,612.6749999995637,0.005177458,612.6749999995637,1.504663e-05,612.6749999995637,2.565624e-05
612.6899999995637,0.0001266811,612.6899999995637,0.005171839,612.6899999995637,1.88918e-05,612.6899999995637,2.568697e-05
