X[s],a: EMG RMS 1-1,X[s].1,a: EMG RMS 1-2,X[s].2,a: EMG RMS 1-3,X[s].3,a: EMG RMS 1-4
352.00499999980076,6.787256e-05,352.00499999980076,0.002097309,352.00499999980076,2.753649e-05,352.00499999980076,8.527336e-06
352.01999999980075,6.705887e-05,352.01999999980075,0.002091434,352.01999999980075,2.726504e-05,352.01999999980075,8.712006e-06
352.03499999980073,6.691567e-05,352.03499999980073,0.002055982,352.03499999980073,2.716514e-05,352.03499999980073,8.671489e-06
352.0499999998007,6.344368e-05,352.0499999998007,0.002046515,352.0499999998007,2.612254e-05,352.0499999998007,8.387425e-06
352.0649999998007,6.33977e-05,352.0649999998007,0.002045074,352.0649999998007,2.465213e-05,352.0649999998007,8.308113e-06
352.0799999998007,6.239907e-05,352.0799999998007,0.001831649,352.0799999998007,2.476957e-05,352.0799999998007,8.246849e-06
352.0949999998007,6.037418e-05,352.0949999998007,0.00160422,352.0949999998007,2.559577e-05,352.0949999998007,8.390783e-06
352.10999999980066,6.068534e-05,352.10999999980066,0.001021159,352.10999999980066,2.539576e-05,352.10999999980066,8.502521e-06
352.12499999980065,5.900826e-05,352.12499999980065,0.000578472,352.12499999980065,2.395603e-05,352.12499999980065,8.415928e-06
352.13999999980064,6.035481e-05,352.13999999980064,0.0005400329,352.13999999980064,2.36947e-05,352.13999999980064,8.439329e-06
352.1549999998006,6.173932e-05,352.1549999998006,0.0005178484,352.1549999998006,2.265529e-05,352.1549999998006,8.336888e-06
352.1699999998006,6.227093e-05,352.1699999998006,0.0005329712,352.1699999998006,2.264286e-05,352.1699999998006,8.440998e-06
352.1849999998006,6.410105e-05,352.1849999998006,0.0004352901,352.1849999998006,2.351447e-05,352.1849999998006,8.274134e-06
352.1999999998006,6.377542e-05,352.1999999998006,0.0003459241,352.1999999998006,2.292418e-05,352.1999999998006,8.063755e-06
352.21499999980057,6.330476e-05,352.21499999980057,0.000389341,352.21499999980057,2.789077e-05,352.21499999980057,8.162721e-06
352.22999999980055,6.375355e-05,352.22999999980055,0.0003984409,352.22999999980055,3.067327e-05,352.22999999980055,8.54384e-06
352.24499999980054,6.507011e-05,352.24499999980054,0.000400491,352.24499999980054,3.003376e-05,352.24499999980054,8.509145e-06
352.2599999998005,6.238891e-05,352.2599999998005,0.0003999365,352.2599999998005,2.845082e-05,352.2599999998005,8.135063e-06
352.2749999998005,6.25382e-05,352.2749999998005,0.0003914081,352.2749999998005,2.870516e-05,352.2749999998005,8.527336e-06
352.2899999998005,6.180933e-05,352.2899999998005,0.0003841037,352.2899999998005,2.873165e-05,352.2899999998005,8.784466e-06
352.3049999998005,6.214844e-05,352.3049999998005,0.0003829563,352.3049999998005,2.877966e-05,352.3049999998005,9.239335e-06
352.3199999998005,6.123025e-05,352.3199999998005,0.0003715194,352.3199999998005,3.024735e-05,352.3199999998005,9.265217e-06
352.33499999980046,6.082654e-05,352.33499999980046,0.0003506276,352.33499999980046,3.0918e-05,352.33499999980046,9.365025e-06
352.34999999980045,6.048165e-05,352.34999999980045,0.0003300898,352.34999999980045,3.05928e-05,352.34999999980045,9.153557e-06
352.36499999980043,6.246924e-05,352.36499999980043,0.0004868238,352.36499999980043,3.069393e-05,352.36499999980043,9.034282e-06
352.3799999998004,6.41072e-05,352.3799999998004,0.0005172565,352.3799999998004,2.967943e-05,352.3799999998004,9.133529e-06
352.3949999998004,6.409402e-05,352.3949999998004,0.0005872412,352.3949999998004,2.959959e-05,352.3949999998004,8.872225e-06
352.4099999998004,6.333079e-05,352.4099999998004,0.0006093241,352.4099999998004,2.952525e-05,352.4099999998004,8.902342e-06
352.4249999998004,6.329852e-05,352.4249999998004,0.0006246189,352.4249999998004,3.064708e-05,352.4249999998004,9.024921e-06
352.43999999980036,6.189018e-05,352.43999999980036,0.0006583488,352.43999999980036,3.009139e-05,352.43999999980036,8.862694e-06
352.45499999980035,6.092997e-05,352.45499999980035,0.000656841,352.45499999980035,2.990356e-05,352.45499999980035,8.981111e-06
352.46999999980034,6.082352e-05,352.46999999980034,0.0006298462,352.46999999980034,2.168051e-05,352.46999999980034,9.046747e-06
352.4849999998003,6.162994e-05,352.4849999998003,0.0006382025,352.4849999998003,2.09415e-05,352.4849999998003,8.81648e-06
352.4999999998003,6.046255e-05,352.4999999998003,0.0006453504,352.4999999998003,2.111167e-05,352.4999999998003,8.810087e-06
352.5149999998003,6.17197e-05,352.5149999998003,0.000646301,352.5149999998003,2.104216e-05,352.5149999998003,8.792481e-06
352.5299999998003,6.168203e-05,352.5299999998003,0.0006465198,352.5299999998003,2.070337e-05,352.5299999998003,8.699061e-06
352.54499999980027,6.13114e-05,352.54499999980027,0.0006553323,352.54499999980027,2.130231e-05,352.54499999980027,9.063859e-06
352.55999999980025,6.174754e-05,352.55999999980025,0.0006645521,352.55999999980025,2.102207e-05,352.55999999980025,8.830848e-06
352.57499999980024,6.054008e-05,352.57499999980024,0.0006714877,352.57499999980024,2.043905e-05,352.57499999980024,8.813284e-06
352.5899999998002,6.118859e-05,352.5899999998002,0.0006923405,352.5899999998002,1.891267e-05,352.5899999998002,8.705536e-06
352.6049999998002,6.028569e-05,352.6049999998002,0.0006986935,352.6049999998002,1.879387e-05,352.6049999998002,8.973265e-06
352.6199999998002,5.840285e-05,352.6199999998002,0.0005503357,352.6199999998002,1.844128e-05,352.6199999998002,9.198077e-06
352.6349999998002,5.677251e-05,352.6349999998002,0.0005162953,352.6349999998002,1.85866e-05,352.6349999998002,9.029603e-06
352.6499999998002,5.393344e-05,352.6499999998002,0.0004563115,352.6499999998002,2.03264e-05,352.6499999998002,9.032722e-06
352.66499999980016,5.560144e-05,352.66499999980016,0.0004250295,352.66499999980016,2.118029e-05,352.66499999980016,8.976404e-06
352.67999999980015,5.47397e-05,352.67999999980015,0.000375905,352.67999999980015,1.891639e-05,352.67999999980015,8.900759e-06
352.69499999980013,5.474382e-05,352.69499999980013,0.0003247363,352.69499999980013,1.874959e-05,352.69499999980013,9.079387e-06
352.7099999998001,5.473919e-05,352.7099999998001,0.00032124,352.7099999998001,1.881784e-05,352.7099999998001,9.142777e-06
352.7249999998001,5.454222e-05,352.7249999998001,0.000311885,352.7249999998001,1.914659e-05,352.7249999998001,8.929201e-06
352.7399999998001,5.404146e-05,352.7399999998001,0.0002906069,352.7399999998001,1.963549e-05,352.7399999998001,8.897593e-06
352.7549999998001,5.318358e-05,352.7549999998001,0.0002790054,352.7549999998001,1.91105e-05,352.7549999998001,9.12427e-06
352.76999999980006,5.064181e-05,352.76999999980006,0.0002771706,352.76999999980006,1.871425e-05,352.76999999980006,9.09334e-06
352.78499999980005,5.028115e-05,352.78499999980005,0.0002735792,352.78499999980005,1.854259e-05,352.78499999980005,8.509145e-06
352.79999999980004,5.022648e-05,352.79999999980004,0.0002366931,352.79999999980004,1.798652e-05,352.79999999980004,8.547137e-06
352.8149999998,5.03928e-05,352.8149999998,0.0002223397,352.8149999998,1.715515e-05,352.8149999998,8.713623e-06
352.8299999998,4.940502e-05,352.8299999998,0.0001836709,352.8299999998,1.863051e-05,352.8299999998,8.669864e-06
352.8449999998,4.938392e-05,352.8449999998,0.0001009744,352.8449999998,1.832788e-05,352.8449999998,8.459336e-06
352.8599999998,4.847125e-05,352.8599999998,7.402113e-05,352.8599999998,1.840075e-05,352.8599999998,8.159269e-06
352.87499999979997,5.031391e-05,352.87499999979997,7.510611e-05,352.87499999979997,1.893277e-05,352.87499999979997,8.02874e-06
352.88999999979995,5.073103e-05,352.88999999979995,7.541775e-05,352.88999999979995,1.786234e-05,352.88999999979995,8.012934e-06
352.90499999979994,5.078237e-05,352.90499999979994,7.375957e-05,352.90499999979994,1.64672e-05,352.90499999979994,8.107309e-06
352.9199999997999,4.964849e-05,352.9199999997999,7.229082e-05,352.9199999997999,1.5324e-05,352.9199999997999,8.02523e-06
352.9349999997999,5.00703e-05,352.9349999997999,7.284057e-05,352.9349999997999,1.558921e-05,352.9349999997999,7.929877e-06
352.9499999997999,5.030943e-05,352.9499999997999,7.285836e-05,352.9499999997999,1.584643e-05,352.9499999997999,8.056763e-06
352.9649999997999,5.027778e-05,352.9649999997999,7.283864e-05,352.9649999997999,1.618418e-05,352.9649999997999,7.594135e-06
352.9799999997999,5.005764e-05,352.9799999997999,7.296559e-05,352.9799999997999,1.632803e-05,352.9799999997999,7.538281e-06
352.99499999979986,5.026237e-05,352.99499999979986,7.135054e-05,352.99499999979986,1.624326e-05,352.99499999979986,7.919212e-06
353.00999999979985,5.024107e-05,353.00999999979985,7.049608e-05,353.00999999979985,1.596687e-05,353.00999999979985,7.483893e-06
353.02499999979983,4.989331e-05,353.02499999979983,7.025468e-05,353.02499999979983,1.631163e-05,353.02499999979983,7.316379e-06
353.0399999997998,5.071381e-05,353.0399999997998,6.587029e-05,353.0399999997998,1.648515e-05,353.0399999997998,7.379642e-06
353.0549999997998,5.078986e-05,353.0549999997998,5.832779e-05,353.0549999997998,1.583576e-05,353.0549999997998,7.101431e-06
353.0699999997998,4.97893e-05,353.0699999997998,5.266081e-05,353.0699999997998,1.556751e-05,353.0699999997998,6.973323e-06
353.0849999997998,5.023967e-05,353.0849999997998,5.122483e-05,353.0849999997998,1.3497e-05,353.0849999997998,6.94904e-06
353.09999999979976,4.985575e-05,353.09999999979976,4.800136e-05,353.09999999979976,1.316734e-05,353.09999999979976,7.24479e-06
353.11499999979975,4.922907e-05,353.11499999979975,3.989802e-05,353.11499999979975,1.187585e-05,353.11499999979975,7.231167e-06
353.12999999979974,4.952946e-05,353.12999999979974,3.641439e-05,353.12999999979974,1.374213e-05,353.12999999979974,7.1921e-06
353.1449999997997,4.842618e-05,353.1449999997997,3.422561e-05,353.1449999997997,1.454005e-05,353.1449999997997,7.15282e-06
353.1599999997997,4.604457e-05,353.1599999997997,2.601826e-05,353.1599999997997,1.483639e-05,353.1599999997997,7.123218e-06
353.1749999997997,4.61985e-05,353.1749999997997,1.760498e-05,353.1749999997997,1.479551e-05,353.1749999997997,6.896133e-06
353.1899999997997,4.650878e-05,353.1899999997997,1.569368e-05,353.1899999997997,1.475165e-05,353.1899999997997,6.737009e-06
353.20499999979967,4.551284e-05,353.20499999979967,1.584465e-05,353.20499999979967,1.459227e-05,353.20499999979967,6.728641e-06
353.21999999979965,4.538049e-05,353.21999999979965,1.378716e-05,353.21999999979965,1.453714e-05,353.21999999979965,6.865424e-06
353.23499999979964,4.528229e-05,353.23499999979964,1.298203e-05,353.23499999979964,1.395674e-05,353.23499999979964,7.059652e-06
353.2499999997996,4.616617e-05,353.2499999997996,1.174345e-05,353.2499999997996,1.42207e-05,353.2499999997996,6.603967e-06
353.2649999997996,4.627193e-05,353.2649999997996,1.179014e-05,353.2649999997996,1.397792e-05,353.2649999997996,6.633762e-06
353.2799999997996,4.592602e-05,353.2799999997996,1.177699e-05,353.2799999997996,1.37534e-05,353.2799999997996,6.722357e-06
353.2949999997996,4.795203e-05,353.2949999997996,1.179253e-05,353.2949999997996,1.361236e-05,353.2949999997996,6.728641e-06
353.3099999997996,4.721787e-05,353.3099999997996,1.193501e-05,353.3099999997996,1.366709e-05,353.3099999997996,6.737009e-06
353.32499999979956,4.696181e-05,353.32499999979956,1.214677e-05,353.32499999979956,1.369592e-05,353.32499999979956,6.766219e-06
353.33999999979955,4.772914e-05,353.33999999979955,1.286869e-05,353.33999999979955,1.412728e-05,353.33999999979955,6.574036e-06
353.35499999979953,4.734985e-05,353.35499999979953,1.326434e-05,353.35499999979953,1.414422e-05,353.35499999979953,6.417902e-06
353.3699999997995,4.773976e-05,353.3699999997995,1.336274e-05,353.3699999997995,1.413227e-05,353.3699999997995,6.446372e-06
353.3849999997995,4.785852e-05,353.3849999997995,1.319086e-05,353.3849999997995,1.250111e-05,353.3849999997995,6.705572e-06
353.3999999997995,4.748354e-05,353.3999999997995,1.375545e-05,353.3999999997995,1.20933e-05,353.3999999997995,6.644371e-06
353.4149999997995,4.777515e-05,353.4149999997995,1.419889e-05,353.4149999997995,1.214329e-05,353.4149999997995,6.612493e-06
353.42999999979946,4.623538e-05,353.42999999979946,1.328026e-05,353.42999999979946,1.220692e-05,353.42999999979946,6.550423e-06
353.44499999979945,4.583637e-05,353.44499999979945,1.325478e-05,353.44499999979945,1.187111e-05,353.44499999979945,6.513761e-06
353.45999999979944,4.623904e-05,353.45999999979944,1.333425e-05,353.45999999979944,1.170861e-05,353.45999999979944,6.485587e-06
353.4749999997994,4.551934e-05,353.4749999997994,1.334058e-05,353.4749999997994,1.164346e-05,353.4749999997994,6.03324e-06
353.4899999997994,4.541245e-05,353.4899999997994,1.348134e-05,353.4899999997994,1.068186e-05,353.4899999997994,5.8867e-06
353.5049999997994,4.3645e-05,353.5049999997994,1.33131e-05,353.5049999997994,1.065413e-05,353.5049999997994,5.903427e-06
353.5199999997994,4.394638e-05,353.5199999997994,1.347715e-05,353.5199999997994,1.043504e-05,353.5199999997994,5.889093e-06
353.53499999979937,4.407185e-05,353.53499999979937,1.335852e-05,353.53499999979937,1.080902e-05,353.53499999979937,5.910582e-06
353.54999999979935,4.327647e-05,353.54999999979935,1.337854e-05,353.54999999979935,1.078031e-05,353.54999999979935,5.795054e-06
353.56499999979934,4.332624e-05,353.56499999979934,1.333108e-05,353.56499999979934,1.08701e-05,353.56499999979934,5.622323e-06
353.5799999997993,4.361336e-05,353.5799999997993,1.319193e-05,353.5799999997993,1.067922e-05,353.5799999997993,5.704405e-06
353.5949999997993,4.349174e-05,353.5949999997993,1.325478e-05,353.5949999997993,1.043639e-05,353.5949999997993,5.782887e-06
353.6099999997993,4.380833e-05,353.6099999997993,1.359061e-05,353.6099999997993,1.054115e-05,353.6099999997993,6.030905e-06
353.6249999997993,4.281406e-05,353.6249999997993,1.465873e-05,353.6249999997993,1.007515e-05,353.6249999997993,6.114414e-06
353.6399999997993,4.454714e-05,353.6399999997993,1.619897e-05,353.6399999997993,1.007795e-05,353.6399999997993,5.915346e-06
353.65499999979926,4.35972e-05,353.65499999979926,1.594568e-05,353.65499999979926,9.430977e-06,353.65499999979926,6.345057e-06
353.66999999979924,4.548343e-05,353.66999999979924,1.819442e-05,353.66999999979924,8.941813e-06,353.66999999979924,6.494269e-06
353.68499999979923,4.718505e-05,353.68499999979923,1.882907e-05,353.68499999979923,8.824465e-06,353.68499999979923,6.595429e-06
353.6999999997992,4.775598e-05,353.6999999997992,2.112435e-05,353.6999999997992,9.017113e-06,353.6999999997992,6.638008e-06
353.7149999997992,4.743189e-05,353.7149999997992,5.90369e-05,353.7149999997992,8.752336e-06,353.7149999997992,6.745368e-06
353.7299999997992,4.869885e-05,353.7299999997992,0.000103287,353.7299999997992,8.932356e-06,353.7299999997992,6.774542e-06
353.7449999997992,4.725276e-05,353.7449999997992,0.0001648483,353.7449999997992,8.959125e-06,353.7449999997992,6.920602e-06
353.75999999979916,4.709839e-05,353.75999999979916,0.0004698031,353.75999999979916,9.214908e-06,353.75999999979916,6.94904e-06
353.77499999979915,4.652907e-05,353.77499999979915,0.0005053983,353.77499999979915,9.898837e-06,353.77499999979915,6.813935e-06
353.78999999979914,4.528167e-05,353.78999999979914,0.0005258194,353.78999999979914,1.024431e-05,353.78999999979914,6.871577e-06
353.8049999997991,4.377616e-05,353.8049999997991,0.0005454209,353.8049999997991,1.043774e-05,353.8049999997991,6.904299e-06
353.8199999997991,4.299366e-05,353.8199999997991,0.0005503442,353.8199999997991,1.019192e-05,353.8199999997991,6.898175e-06
353.8349999997991,4.19905e-05,353.8349999997991,0.0005506052,353.8349999997991,1.017394e-05,353.8349999997991,6.730734e-06
353.8499999997991,4.202806e-05,353.8499999997991,0.0005507832,353.8499999997991,1.059314e-05,353.8499999997991,6.616753e-06
353.86499999979907,4.192402e-05,353.86499999979907,0.0005509764,353.86499999979907,1.062765e-05,353.86499999979907,6.463831e-06
353.87999999979905,4.169795e-05,353.87999999979905,0.0005510763,353.87999999979905,1.080772e-05,353.87999999979905,6.284828e-06
353.89499999979904,4.008892e-05,353.89499999979904,0.0005510896,353.89499999979904,1.121328e-05,353.89499999979904,6.304968e-06
353.909999999799,4.04555e-05,353.909999999799,0.0005510701,353.909999999799,1.093986e-05,353.909999999799,5.8867e-06
353.924999999799,3.89128e-05,353.924999999799,0.0005510318,353.924999999799,1.12158e-05,353.924999999799,5.662269e-06
353.939999999799,3.633655e-05,353.939999999799,0.0005509861,353.939999999799,1.122584e-05,353.939999999799,5.602244e-06
353.954999999799,3.584358e-05,353.954999999799,0.0005507868,353.954999999799,1.140016e-05,353.954999999799,5.516089e-06
353.969999999799,3.589698e-05,353.969999999799,0.0005431754,353.969999999799,1.103984e-05,353.969999999799,5.521194e-06
353.98499999979896,3.453536e-05,353.98499999979896,0.000535741,353.98499999979896,1.058648e-05,353.98499999979896,5.807196e-06
353.99999999979894,3.469205e-05,353.99999999979894,0.0004839262,353.99999999979894,1.060244e-05,353.99999999979894,5.905813e-06
354.01499999979893,3.460301e-05,354.01499999979893,0.0002131952,354.01499999979893,1.07266e-05,354.01499999979893,5.81689e-06
354.0299999997989,3.309611e-05,354.0299999997989,0.0001892714,354.0299999997989,1.041612e-05,354.0299999997989,5.719203e-06
354.0449999997989,3.358663e-05,354.0449999997989,0.0001283212,354.0449999997989,9.304663e-06,354.0449999997989,5.687093e-06
354.0599999997989,3.422355e-05,354.0599999997989,5.925031e-05,354.0599999997989,9.210321e-06,354.0599999997989,5.743781e-06
354.0749999997989,3.447576e-05,354.0749999997989,2.550646e-05,354.0749999997989,9.231709e-06,354.0749999997989,5.743781e-06
354.08999999979886,3.509936e-05,354.08999999979886,2.265032e-05,354.08999999979886,9.577708e-06,354.08999999979886,5.765811e-06
354.10499999979885,3.47237e-05,354.10499999979885,1.965844e-05,354.10499999979885,9.363521e-06,354.10499999979885,5.724127e-06
354.11999999979884,3.325745e-05,354.11999999979884,1.598891e-05,354.11999999979884,9.20114e-06,354.11999999979884,5.657291e-06
354.1349999997988,3.380111e-05,354.1349999997988,1.420385e-05,354.1349999997988,9.021799e-06,354.1349999997988,5.694519e-06
354.1499999997988,3.38336e-05,354.1499999997988,1.26356e-05,354.1499999997988,8.677985e-06,354.1499999997988,5.736418e-06
354.1649999997988,3.32837e-05,354.1649999997988,1.318338e-05,354.1649999997988,8.749116e-06,354.1649999997988,5.652309e-06
354.1799999997988,3.4371e-05,354.1799999997988,1.315985e-05,354.1799999997988,8.330127e-06,354.1799999997988,5.81689e-06
354.19499999979877,3.426057e-05,354.19499999979877,1.32154e-05,354.19499999979877,8.440998e-06,354.19499999979877,5.881913e-06
354.20999999979875,3.479705e-05,354.20999999979875,1.310407e-05,354.20999999979875,8.109047e-06,354.20999999979875,5.826569e-06
354.22499999979874,3.424783e-05,354.22499999979874,1.32026e-05,354.22499999979874,8.335198e-06,354.22499999979874,5.841057e-06
354.2399999997987,3.467621e-05,354.2399999997987,1.296248e-05,354.2399999997987,8.707154e-06,354.2399999997987,5.423375e-06
354.2549999997987,3.482659e-05,354.2549999997987,1.334164e-05,354.2549999997987,8.517419e-06,354.2549999997987,5.706874e-06
354.2699999997987,3.55139e-05,354.2699999997987,1.335114e-05,354.2699999997987,9.207261e-06,354.2699999997987,5.719203e-06
354.2849999997987,3.617063e-05,354.2849999997987,1.346147e-05,354.2849999997987,9.21338e-06,354.2849999997987,5.819312e-06
354.2999999997987,3.572469e-05,354.2999999997987,1.388794e-05,354.2999999997987,9.295575e-06,354.2999999997987,5.821732e-06
354.31499999979866,3.541341e-05,354.31499999979866,1.360097e-05,354.31499999979866,9.720776e-06,354.31499999979866,6.116717e-06
354.32999999979864,3.421943e-05,354.32999999979864,1.416512e-05,354.32999999979864,9.868907e-06,354.32999999979864,6.151165e-06
354.34499999979863,3.406719e-05,354.34499999979863,1.433613e-05,354.34499999979863,9.228656e-06,354.34499999979863,6.128222e-06
354.3599999997986,3.384775e-05,354.3599999997986,0.0004934493,354.3599999997986,9.44441e-06,354.3599999997986,6.282586e-06
354.3749999997986,3.355684e-05,354.3749999997986,0.0005606077,354.3749999997986,9.524612e-06,354.3749999997986,6.474718e-06
354.3899999997986,3.319004e-05,354.3899999997986,0.0006324539,354.3899999997986,9.432471e-06,354.3899999997986,6.644371e-06
354.4049999997986,3.280454e-05,354.4049999997986,0.0006377433,354.4049999997986,9.564462e-06,354.4049999997986,6.842817e-06
354.41999999979856,3.111148e-05,354.41999999979856,0.0006409076,354.41999999979856,9.62173e-06,354.41999999979856,6.900217e-06
354.43499999979855,3.099853e-05,354.43499999979855,0.0006448809,354.43499999979855,9.704822e-06,354.43499999979855,6.930771e-06
354.44999999979854,3.078604e-05,354.44999999979854,0.0006468467,354.44999999979854,9.411539e-06,354.44999999979854,6.985433e-06
354.4649999997985,3.135144e-05,354.4649999997985,0.0006473299,354.4649999997985,9.502402e-06,354.4649999997985,7.05566e-06
354.4799999997985,3.2189e-05,354.4799999997985,0.0006474048,354.4799999997985,9.716427e-06,354.4799999997985,6.896133e-06
354.4949999997985,3.16368e-05,354.4949999997985,0.0006474041,354.4949999997985,9.318279e-06,354.4949999997985,6.924671e-06
354.5099999997985,3.210531e-05,354.5099999997985,0.0006473991,354.5099999997985,8.92131e-06,354.5099999997985,6.782854e-06
354.52499999979847,3.363566e-05,354.52499999979847,0.000647406,354.52499999979847,8.91973e-06,354.52499999979847,6.811867e-06
354.53999999979845,3.41972e-05,354.53999999979845,0.0006474063,354.53999999979845,9.125813e-06,354.53999999979845,6.871577e-06
354.55499999979844,3.386356e-05,354.55499999979844,0.0006473975,354.55499999979844,9.355996e-06,354.55499999979844,6.813935e-06
354.5699999997984,3.397735e-05,354.5699999997984,0.0006473896,354.5699999997984,8.932356e-06,354.5699999997984,6.500773e-06
354.5849999997984,3.654491e-05,354.5849999997984,0.0006473819,354.5849999997984,8.843601e-06,354.5849999997984,6.48993e-06
354.5999999997984,3.689554e-05,354.5999999997984,0.0006473745,354.5999999997984,9.0374e-06,354.5999999997984,6.673986e-06
354.6149999997984,3.682063e-05,354.6149999997984,0.0003853664,354.6149999997984,9.077836e-06,354.6149999997984,6.663425e-06
354.6299999997984,3.709354e-05,354.6299999997984,0.0002515613,354.6299999997984,8.949686e-06,354.6299999997984,6.442001e-06
354.64499999979836,3.960246e-05,354.64499999979836,0.0001012955,354.64499999979836,9.268258e-06,354.64499999979836,6.093644e-06
354.65999999979834,3.946992e-05,354.65999999979834,9.046887e-05,354.65999999979834,8.98895e-06,354.65999999979834,5.976941e-06
354.67499999979833,4.0927e-05,354.67499999979833,6.982125e-05,354.67499999979833,8.782863e-06,354.67499999979833,5.943854e-06
354.6899999997983,4.20783e-05,354.6899999997983,4.430012e-05,354.6899999997983,8.797286e-06,354.6899999997983,5.946224e-06
354.7049999997983,4.144313e-05,354.7049999997983,2.921252e-05,354.7049999997983,8.819675e-06,354.7049999997983,5.802342e-06
354.7199999997983,4.218329e-05,354.7199999997983,3.046313e-05,354.7199999997983,8.400851e-06,354.7199999997983,5.770695e-06
354.7349999997983,4.237853e-05,354.7349999997983,3.44312e-05,354.7349999997983,8.216045e-06,354.7349999997983,5.976941e-06
354.74999999979826,4.24413e-05,354.74999999979826,3.453414e-05,354.74999999979826,8.527336e-06,354.74999999979826,5.879517e-06
354.76499999979825,4.402036e-05,354.76499999979825,3.521876e-05,354.76499999979825,8.962269e-06,354.76499999979825,6.051891e-06
354.77999999979824,4.274491e-05,354.77999999979824,3.560145e-05,354.77999999979824,8.517419e-06,354.77999999979824,6.079758e-06
354.7949999997982,4.23629e-05,354.7949999997982,3.566865e-05,354.7949999997982,8.456004e-06,354.7949999997982,6.042573e-06
354.8099999997982,4.265551e-05,354.8099999997982,3.577592e-05,354.8099999997982,8.54384e-06,354.8099999997982,6.049562e-06
354.8249999997982,4.21923e-05,354.8249999997982,3.57168e-05,354.8249999997982,8.859515e-06,354.8249999997982,6.105191e-06
354.8399999997982,4.174894e-05,354.8399999997982,3.572233e-05,354.8399999997982,9.110365e-06,354.8399999997982,6.237581e-06
354.85499999979817,4.393452e-05,354.85499999979817,3.59115e-05,354.85499999979817,8.883333e-06,354.85499999979817,6.185421e-06
354.86999999979815,4.489363e-05,354.86999999979815,3.6002e-05,354.86999999979815,8.765202e-06,354.86999999979815,6.047233e-06
354.88499999979814,4.485219e-05,354.88499999979814,3.595697e-05,354.88499999979814,8.862694e-06,354.88499999979814,6.459471e-06
354.8999999997981,4.427722e-05,354.8999999997981,3.584868e-05,354.8999999997981,8.415928e-06,354.8999999997981,6.659195e-06
354.9149999997981,4.52602e-05,354.9149999997981,3.598634e-05,354.9149999997981,8.720087e-06,354.9149999997981,6.684531e-06
354.9299999997981,4.499518e-05,354.9299999997981,3.613089e-05,354.9299999997981,8.985815e-06,354.9299999997981,7.750201e-06
354.9449999997981,4.562814e-05,354.9449999997981,3.401091e-05,354.9449999997981,8.891258e-06,354.9449999997981,7.919212e-06
354.9599999997981,4.749155e-05,354.9599999997981,3.171018e-05,354.9599999997981,8.716856e-06,354.9599999997981,8.167896e-06
354.97499999979806,4.869248e-05,354.97499999979806,2.61344e-05,354.97499999979806,8.95598e-06,354.97499999979806,8.154087e-06
354.98999999979804,4.887239e-05,354.98999999979804,2.586785e-05,354.98999999979804,8.620983e-06,354.98999999979804,8.110784e-06
355.00499999979803,5.029795e-05,355.00499999979803,0.0001899812,355.00499999979803,8.770023e-06,355.00499999979803,8.444335e-06
355.019999999798,5.027918e-05,355.019999999798,0.0002107667,355.019999999798,8.372296e-06,355.019999999798,8.707154e-06
355.034999999798,5.018243e-05,355.034999999798,0.0002131857,355.034999999798,8.303025e-06,355.034999999798,8.818078e-06
355.049999999798,5.093996e-05,355.049999999798,0.0002145777,355.049999999798,8.251971e-06,355.049999999798,8.741063e-06
355.064999999798,5.125397e-05,355.064999999798,0.0002157802,355.064999999798,8.532291e-06,355.064999999798,8.984247e-06
355.07999999979796,5.254807e-05,355.07999999979796,0.0002160473,355.07999999979796,8.851561e-06,355.07999999979796,8.987383e-06
355.09499999979795,5.237219e-05,355.09499999979795,0.0002161303,355.09499999979795,8.750726e-06,355.09499999979795,8.913411e-06
355.10999999979794,5.234448e-05,355.10999999979794,0.0002161671,355.10999999979794,9.195013e-06,355.10999999979794,8.981111e-06
355.1249999997979,5.159965e-05,355.1249999997979,0.0002161857,355.1249999997979,9.790087e-06,355.1249999997979,9.13507e-06
355.1399999997979,5.1406e-05,355.1399999997979,0.0002162068,355.1399999997979,1.002047e-05,355.1399999997979,9.142777e-06
355.1549999997979,4.987778e-05,355.1549999997979,0.0002162132,355.1549999997979,1.01337e-05,355.1549999997979,9.20114e-06
355.1699999997979,5.033071e-05,355.1699999997979,0.0002162321,355.1699999997979,9.958426e-06,355.1699999997979,8.889673e-06
355.18499999979787,4.958091e-05,355.18499999979787,0.0002163611,355.18499999979787,1.027177e-05,355.18499999979787,8.173069e-06
355.19999999979785,5.035533e-05,355.19999999979785,0.0002162449,355.19999999979785,1.034692e-05,355.19999999979785,8.1264e-06
355.21499999979784,4.767805e-05,355.21499999979784,0.0002161676,355.21499999979784,1.073711e-05,355.21499999979784,8.176516e-06
355.2299999997978,4.73439e-05,355.2299999997978,0.0002154759,355.2299999997978,1.056517e-05,355.2299999997978,8.59316e-06
355.2449999997978,4.659744e-05,355.2449999997978,0.0002048451,355.2449999997978,1.084545e-05,355.2449999997978,8.655229e-06
355.2599999997978,4.559046e-05,355.2599999997978,8.614739e-05,355.2599999997978,1.093084e-05,355.2599999997978,8.596438e-06
355.2749999997978,4.476448e-05,355.2749999997978,4.212916e-05,355.2749999997978,1.071741e-05,355.2749999997978,8.444335e-06
355.2899999997978,4.631605e-05,355.2899999997978,3.616674e-05,355.2899999997978,1.114398e-05,355.2899999997978,8.485937e-06
355.30499999979776,4.653543e-05,355.30499999979776,2.596731e-05,355.30499999979776,1.134939e-05,355.30499999979776,8.444335e-06
355.31999999979774,4.527265e-05,355.31999999979774,2.050304e-05,355.31999999979774,1.069504e-05,355.31999999979774,8.212614e-06
355.33499999979773,4.598365e-05,355.33499999979773,2.040732e-05,355.33499999979773,1.061439e-05,355.33499999979773,8.384065e-06
355.3499999997977,4.554749e-05,355.3499999997977,1.893575e-05,355.3499999997977,1.041342e-05,355.3499999997977,8.350395e-06
355.3649999997977,4.473364e-05,355.3649999997977,1.81952e-05,355.3649999997977,1.05251e-05,355.3649999997977,8.186846e-06
355.3799999997977,4.488139e-05,355.3799999997977,1.829326e-05,355.3799999997977,9.764152e-06,355.3799999997977,8.162721e-06
355.3949999997977,4.498673e-05,355.3949999997977,1.817273e-05,355.3949999997977,9.627584e-06,355.3949999997977,7.845942e-06
355.40999999979766,4.478085e-05,355.40999999979766,1.821841e-05,355.40999999979766,9.817387e-06,355.40999999979766,7.929877e-06
355.42499999979765,4.446009e-05,355.42499999979765,1.739002e-05,355.42499999979765,9.864624e-06,355.42499999979765,7.779228e-06
355.43999999979764,4.464758e-05,355.43999999979764,1.63004e-05,355.43999999979764,9.40555e-06,355.43999999979764,8.074229e-06
355.4549999997976,4.421322e-05,355.4549999997976,1.644922e-05,355.4549999997976,9.333384e-06,355.4549999997976,7.901403e-06
355.4699999997976,4.442459e-05,355.4699999997976,1.612139e-05,355.4699999997976,9.031162e-06,355.4699999997976,7.582997e-06
355.4849999997976,4.591221e-05,355.4849999997976,1.632285e-05,355.4849999997976,8.424293e-06,355.4849999997976,7.795508e-06
355.4999999997976,4.59116e-05,355.4999999997976,1.618853e-05,355.4999999997976,8.377342e-06,355.4999999997976,7.515824e-06
355.51499999979757,4.632183e-05,355.51499999979757,1.6003e-05,355.51499999979757,9.573294e-06,355.51499999979757,7.634834e-06
355.52999999979755,4.537614e-05,355.52999999979755,1.588017e-05,355.52999999979755,9.42201e-06,355.52999999979755,7.974164e-06
355.54499999979754,4.401012e-05,355.54499999979754,1.572865e-05,355.54499999979754,9.085591e-06,355.54499999979754,8.037508e-06
355.5599999997975,4.4646e-05,355.5599999997975,1.548767e-05,355.5599999997975,9.615872e-06,355.5599999997975,8.250264e-06
355.5749999997975,4.522844e-05,355.5749999997975,1.527797e-05,355.5749999997975,9.574765e-06,355.5749999997975,8.229749e-06
355.5899999997975,4.527358e-05,355.5899999997975,1.367431e-05,355.5899999997975,9.31979e-06,355.5899999997975,7.982992e-06
355.6049999997975,4.797465e-05,355.6049999997975,1.371237e-05,355.6049999997975,9.486082e-06,355.6049999997975,8.136793e-06
355.61999999979747,4.847444e-05,355.61999999979747,1.363614e-05,355.61999999979747,9.648047e-06,355.61999999979747,8.030494e-06
355.63499999979746,4.86482e-05,355.63499999979746,1.369592e-05,355.63499999979746,1.012675e-05,355.63499999979746,8.058511e-06
355.64999999979744,4.832543e-05,355.64999999979744,1.422863e-05,355.64999999979744,1.023605e-05,355.64999999979744,8.086432e-06
355.66499999979743,4.793852e-05,355.66499999979743,1.40232e-05,355.66499999979743,1.042424e-05,355.66499999979743,8.002378e-06
355.6799999997974,4.723875e-05,355.6799999997974,1.407133e-05,355.6799999997974,1.024705e-05,355.6799999997974,8.176516e-06
355.6949999997974,4.755202e-05,355.6949999997974,1.324308e-05,355.6949999997974,1.060643e-05,355.6949999997974,7.894269e-06
355.7099999997974,4.845758e-05,355.7099999997974,1.347715e-05,355.7099999997974,1.09347e-05,355.7099999997974,7.899621e-06
355.7249999997974,4.873442e-05,355.7249999997974,1.338381e-05,355.7249999997974,1.108822e-05,355.7249999997974,7.379642e-06
355.73999999979736,4.688435e-05,355.73999999979736,1.356571e-05,355.73999999979736,1.105641e-05,355.73999999979736,7.387274e-06
355.75499999979735,4.655207e-05,355.75499999979735,1.474305e-05,355.75499999979735,1.077639e-05,355.75499999979735,7.508323e-06
355.76999999979734,4.664005e-05,355.76999999979734,1.471532e-05,355.76999999979734,1.030326e-05,355.76999999979734,7.140994e-06
355.7849999997973,4.710138e-05,355.7849999997973,1.582152e-05,355.7849999997973,1.006256e-05,355.7849999997973,7.077588e-06
355.7999999997973,4.776365e-05,355.7999999997973,1.576354e-05,355.7999999997973,1.008493e-05,355.7999999997973,6.890002e-06
355.8149999997973,4.639688e-05,355.8149999997973,1.615456e-05,355.8149999997973,9.532005e-06,355.8149999997973,7.129148e-06
355.8299999997973,4.852266e-05,355.8299999997973,1.613362e-05,355.8299999997973,9.662636e-06,355.8299999997973,7.081567e-06
355.84499999979727,4.734598e-05,355.84499999979727,1.602499e-05,355.84499999979727,9.577708e-06,355.84499999979727,7.059652e-06
355.85999999979725,4.440873e-05,355.85999999979725,1.590499e-05,355.85999999979725,9.430977e-06,355.85999999979725,6.942956e-06
355.87499999979724,4.440176e-05,355.87499999979724,1.576086e-05,355.87499999979724,9.028043e-06,355.87499999979724,6.997522e-06
355.8899999997972,4.430997e-05,355.8899999997972,1.579211e-05,355.8899999997972,8.803689e-06,355.8899999997972,7.041671e-06
355.9049999997972,4.483272e-05,355.9049999997972,1.517435e-05,355.9049999997972,8.36893e-06,355.9049999997972,7.254505e-06
355.9199999997972,4.535968e-05,355.9199999997972,1.524936e-05,355.9199999997972,8.350395e-06,355.9199999997972,7.1921e-06
355.9349999997972,4.424571e-05,355.9349999997972,1.50803e-05,355.9349999997972,7.90675e-06,355.9349999997972,6.993494e-06
355.94999999979717,4.497953e-05,355.94999999979717,1.549495e-05,355.94999999979717,7.799122e-06,355.94999999979717,7.091506e-06
355.96499999979716,4.397586e-05,355.96499999979716,1.544122e-05,355.96499999979716,7.601551e-06,355.96499999979716,7.19993e-06
355.97999999979714,4.396657e-05,355.97999999979714,1.550949e-05,355.97999999979714,7.802733e-06,355.97999999979714,7.506446e-06
355.99499999979713,4.3517e-05,355.99499999979713,1.503258e-05,355.99499999979713,8.056763e-06,355.99499999979713,7.308674e-06
356.0099999997971,4.430489e-05,356.0099999997971,1.492726e-05,356.0099999997971,7.904969e-06,356.0099999997971,7.27777e-06
356.0249999997971,4.397074e-05,356.0249999997971,1.517342e-05,356.0249999997971,7.806343e-06,356.0249999997971,7.233115e-06
356.0399999997971,4.239215e-05,356.0399999997971,1.542753e-05,356.0399999997971,7.988284e-06,356.0399999997971,7.043671e-06
356.0549999997971,4.18894e-05,356.0549999997971,1.560818e-05,356.0549999997971,7.883556e-06,356.0549999997971,6.614623e-06
356.06999999979706,4.011562e-05,356.06999999979706,1.543118e-05,356.06999999979706,7.929877e-06,356.06999999979706,6.537507e-06
356.08499999979705,3.977496e-05,356.08499999979705,1.53056e-05,356.08499999979705,8.067247e-06,356.08499999979705,6.533196e-06
356.09999999979703,4.016896e-05,356.09999999979703,1.534972e-05,356.09999999979703,8.178238e-06,356.09999999979703,6.48993e-06
356.114999999797,4.040288e-05,356.114999999797,1.514183e-05,356.114999999797,8.212614e-06,356.114999999797,6.7391e-06
356.129999999797,4.044261e-05,356.129999999797,1.507376e-05,356.129999999797,8.192006e-06,356.129999999797,6.711871e-06
356.144999999797,4.139449e-05,356.144999999797,1.493858e-05,356.144999999797,8.169621e-06,356.144999999797,6.599699e-06
356.159999999797,4.175636e-05,356.159999999797,1.488852e-05,356.159999999797,8.150632e-06,356.159999999797,6.391509e-06
356.17499999979697,4.132535e-05,356.17499999979697,1.504757e-05,356.17499999979697,8.060259e-06,356.17499999979697,6.296025e-06
356.18999999979695,3.999429e-05,356.18999999979695,1.440573e-05,356.18999999979695,8.462665e-06,356.18999999979695,6.056544e-06
356.20499999979694,3.883852e-05,356.20499999979694,1.443211e-05,356.20499999979694,8.030494e-06,356.20499999979694,6.016875e-06
356.2199999997969,3.840778e-05,356.2199999997969,1.438616e-05,356.2199999997969,7.844146e-06,356.2199999997969,6.007502e-06
356.2349999997969,3.796177e-05,356.2349999997969,1.454489e-05,356.2349999997969,9.097987e-06,356.2349999997969,5.679657e-06
356.2499999997969,3.710911e-05,356.2499999997969,1.289602e-05,356.2499999997969,8.960697e-06,356.2499999997969,5.564399e-06
356.2649999997969,3.795101e-05,356.2649999997969,1.249547e-05,356.2649999997969,9.287995e-06,356.2649999997969,5.584614e-06
356.27999999979687,3.78607e-05,356.27999999979687,1.183902e-05,356.27999999979687,9.167396e-06,356.27999999979687,5.574516e-06
356.29499999979686,3.798291e-05,356.29499999979686,9.558568e-06,356.29499999979686,9.34545e-06,356.29499999979686,5.614802e-06
356.30999999979684,3.79317e-05,356.30999999979684,9.207261e-06,356.30999999979684,9.587998e-06,356.30999999979684,5.556798e-06
356.32499999979683,3.649515e-05,356.32499999979683,9.073179e-06,356.32499999979683,9.509811e-06,356.32499999979683,5.746233e-06
356.3399999997968,3.683325e-05,356.3399999997968,9.834591e-06,356.3399999997968,1.003873e-05,356.3399999997968,5.893875e-06
356.3549999997968,3.573691e-05,356.3549999997968,9.971149e-06,356.3549999997968,1.018639e-05,356.3549999997968,5.848288e-06
356.3699999997968,3.421367e-05,356.3699999997968,9.755493e-06,356.3699999997968,1.023055e-05,356.3699999997968,5.612292e-06
356.3849999997968,3.383984e-05,356.3849999997968,1.087787e-05,356.3849999997968,1.031966e-05,356.3849999997968,5.874723e-06
356.39999999979676,3.321931e-05,356.39999999979676,1.102068e-05,356.39999999979676,1.064884e-05,356.39999999979676,5.81689e-06
356.41499999979675,3.280498e-05,356.41499999979675,1.101557e-05,356.41499999979675,1.073054e-05,356.41499999979675,6.146583e-06
356.42999999979673,3.289931e-05,356.42999999979673,1.070031e-05,356.42999999979673,1.092181e-05,356.42999999979673,6.176305e-06
356.4449999997967,3.367836e-05,356.4449999997967,1.071609e-05,356.4449999997967,1.138409e-05,356.4449999997967,6.640129e-06
356.4599999997967,3.425441e-05,356.4599999997967,1.070294e-05,356.4599999997967,1.146915e-05,356.4599999997967,6.673986e-06
356.4749999997967,3.391053e-05,356.4749999997967,0.0001359799,356.4749999997967,1.10933e-05,356.4749999997967,6.595429e-06
356.4899999997967,3.42799e-05,356.4899999997967,0.0001735426,356.4899999997967,1.02388e-05,356.4899999997967,6.569749e-06
356.50499999979667,3.460138e-05,356.50499999979667,0.0002117175,356.50499999979667,9.969736e-06,356.50499999979667,6.642251e-06
356.51999999979665,3.33391e-05,356.51999999979665,0.0002422681,356.51999999979665,1.02209e-05,356.51999999979665,6.809799e-06
356.53499999979664,3.433286e-05,356.53499999979664,0.00025221,356.53499999979664,1.010865e-05,356.53499999979664,6.963215e-06
356.5499999997966,3.389058e-05,356.5499999997966,0.0002525852,356.5499999997966,9.893143e-06,356.5499999997966,6.840758e-06
356.5649999997966,3.447535e-05,356.5649999997966,0.00025401,356.5649999997966,9.833158e-06,356.5649999997966,6.759971e-06
356.5799999997966,3.425194e-05,356.5799999997966,0.0002570859,356.5799999997966,9.725122e-06,356.5799999997966,6.635885e-06
356.5949999997966,3.436567e-05,356.5949999997966,0.0002597903,356.5949999997966,8.826061e-06,356.5949999997966,6.732826e-06
356.60999999979657,3.541858e-05,356.60999999979657,0.0002610635,356.60999999979657,9.152018e-06,356.60999999979657,6.722357e-06
356.62499999979656,3.62325e-05,356.62499999979656,0.0002615034,356.62499999979656,9.195013e-06,356.62499999979656,6.713969e-06
356.63999999979654,3.645189e-05,356.63999999979654,0.0002615763,356.63999999979654,9.004607e-06,356.63999999979654,6.603967e-06
356.65499999979653,3.582549e-05,356.65499999979653,0.0002616018,356.65499999979653,9.111911e-06,356.65499999979653,6.646491e-06
356.6699999997965,3.570339e-05,356.6699999997965,0.0002616073,356.6699999997965,9.190417e-06,356.6699999997965,6.470365e-06
356.6849999997965,3.452394e-05,356.6849999997965,0.0002617049,356.6849999997965,9.576237e-06,356.6849999997965,6.382687e-06
356.6999999997965,3.322864e-05,356.6999999997965,0.0002651471,356.6999999997965,8.957552e-06,356.6999999997965,5.931993e-06
356.7149999997965,3.332304e-05,356.7149999997965,0.0002719851,356.7149999997965,8.867461e-06,356.7149999997965,5.8867e-06
356.72999999979646,3.350979e-05,356.72999999979646,0.0002117738,356.72999999979646,8.992083e-06,356.72999999979646,5.711809e-06
356.74499999979645,3.319089e-05,356.74499999979645,0.0002541935,356.74499999979645,9.094889e-06,356.74499999979645,5.758477e-06
356.75999999979643,3.160784e-05,356.75999999979643,0.0002285656,356.75999999979643,9.085591e-06,356.75999999979643,5.736418e-06
356.7749999997964,3.189975e-05,356.7749999997964,0.0002019233,356.7749999997964,8.880161e-06,356.7749999997964,5.61731e-06
356.7899999997964,3.084455e-05,356.7899999997964,0.0001971787,356.7899999997964,8.963841e-06,356.7899999997964,5.692045e-06
356.8049999997964,3.144475e-05,356.8049999997964,0.0001989845,356.8049999997964,9.131986e-06,356.8049999997964,5.787757e-06
356.8199999997964,3.109971e-05,356.8199999997964,0.0001985421,356.8199999997964,9.254569e-06,356.8199999997964,5.845879e-06
356.83499999979637,3.14219e-05,356.83499999979637,0.0001959517,356.83499999979637,9.352983e-06,356.83499999979637,5.934367e-06
356.84999999979635,3.151412e-05,356.84999999979635,0.0001937884,356.84999999979635,9.545296e-06,356.84999999979635,5.804769e-06
356.86499999979634,3.106753e-05,356.86499999979634,0.0001926593,356.86499999979634,9.355996e-06,356.86499999979634,5.748683e-06
356.8799999997963,3.119242e-05,356.8799999997963,0.0001923399,356.8799999997963,9.363521e-06,356.8799999997963,5.622323e-06
356.8949999997963,3.047839e-05,356.8949999997963,0.0001923243,356.8949999997963,9.432471e-06,356.8949999997963,5.672212e-06
356.9099999997963,2.994028e-05,356.9099999997963,0.0001926408,356.9099999997963,9.268258e-06,356.9099999997963,5.536481e-06
356.9249999997963,3.018441e-05,356.9249999997963,0.000192672,356.9249999997963,8.695822e-06,356.9249999997963,5.505864e-06
356.93999999979627,3.119513e-05,356.93999999979627,0.0001919368,356.93999999979627,8.40923e-06,356.93999999979627,5.998116e-06
356.95499999979626,3.090797e-05,356.95499999979626,0.000185139,356.95499999979626,8.500864e-06,356.95499999979626,6.077441e-06
356.96999999979624,3.076453e-05,356.96999999979624,0.0001704363,356.96999999979624,8.535592e-06,356.96999999979624,6.072803e-06
356.98499999979623,3.100217e-05,356.98499999979623,0.0001317113,356.98499999979623,8.446003e-06,356.98499999979623,5.943854e-06
356.9999999997962,3.146625e-05,356.9999999997962,5.725726e-05,356.9999999997962,8.487596e-06,356.9999999997962,5.962784e-06
357.0149999997962,3.193417e-05,357.0149999997962,5.33618e-05,357.0149999997962,8.39414e-06,357.0149999997962,5.943854e-06
357.0299999997962,3.094077e-05,357.0299999997962,3.951879e-05,357.0299999997962,8.42262e-06,357.0299999997962,6.178585e-06
357.0449999997962,2.97671e-05,357.0449999997962,2.790087e-05,357.0449999997962,8.581677e-06,357.0449999997962,6.618881e-06
357.05999999979616,2.996614e-05,357.05999999979616,2.373272e-05,357.05999999979616,8.297934e-06,357.05999999979616,6.824264e-06
357.07499999979615,2.916426e-05,357.07499999979615,2.379733e-05,357.07499999979615,8.03926e-06,357.07499999979615,6.818068e-06
357.08999999979613,3.001077e-05,357.08999999979613,2.666585e-05,357.08999999979613,7.616361e-06,357.08999999979613,6.912455e-06
357.1049999997961,2.994404e-05,357.1049999997961,3.188826e-05,357.1049999997961,7.60896e-06,357.1049999997961,6.881819e-06
357.1199999997961,2.941531e-05,357.1199999997961,3.332473e-05,357.1199999997961,7.480127e-06,357.1199999997961,6.989465e-06
357.1349999997961,2.939375e-05,357.1349999997961,3.319216e-05,357.1349999997961,7.270023e-06,357.1349999997961,7.003558e-06
357.1499999997961,3.052227e-05,357.1499999997961,3.244183e-05,357.1499999997961,7.087532e-06,357.1499999997961,7.011599e-06
357.16499999979607,3.031759e-05,357.16499999979607,3.115627e-05,357.16499999979607,6.811867e-06,357.16499999979607,6.916529e-06
357.17999999979605,2.999387e-05,357.17999999979605,3.122763e-05,357.17999999979605,6.716067e-06,357.17999999979605,6.877724e-06
357.19499999979604,2.932706e-05,357.19499999979604,3.134424e-05,357.19499999979604,6.591156e-06,357.19499999979604,6.541815e-06
357.209999999796,2.930304e-05,357.209999999796,3.114768e-05,357.209999999796,6.522406e-06,357.209999999796,6.582601e-06
357.224999999796,2.923373e-05,357.224999999796,3.101943e-05,357.224999999796,6.593293e-06,357.224999999796,6.737009e-06
357.239999999796,2.931169e-05,357.239999999796,3.090022e-05,357.239999999796,6.757886e-06,357.239999999796,6.918566e-06
357.254999999796,2.879043e-05,357.254999999796,3.118294e-05,357.254999999796,7.05566e-06,357.254999999796,6.869526e-06
357.26999999979597,2.903113e-05,357.26999999979597,3.147834e-05,357.26999999979597,7.123218e-06,357.26999999979597,6.904299e-06
357.28499999979596,2.95305e-05,357.28499999979596,3.163992e-05,357.28499999979596,6.896133e-06,357.28499999979596,7.197973e-06
357.29999999979594,3.040481e-05,357.29999999979594,3.162299e-05,357.29999999979594,6.846933e-06,357.29999999979594,6.479067e-06
357.31499999979593,2.970789e-05,357.31499999979593,2.75738e-05,357.31499999979593,7.059652e-06,357.31499999979593,6.404719e-06
357.3299999997959,2.917199e-05,357.3299999997959,2.695901e-05,357.3299999997959,7.168558e-06,357.3299999997959,6.362793e-06
357.3449999997959,2.89884e-05,357.3449999997959,2.301249e-05,357.3449999997959,7.379642e-06,357.3449999997959,6.151165e-06
357.3599999997959,2.896944e-05,357.3599999997959,1.912303e-05,357.3599999997959,8.204034e-06,357.3599999997959,6.116717e-06
357.3749999997959,2.799411e-05,357.3749999997959,1.779756e-05,357.3749999997959,8.109047e-06,357.3749999997959,5.948592e-06
357.38999999979586,2.791096e-05,357.38999999979586,1.867507e-05,357.38999999979586,8.294538e-06,357.38999999979586,6.481242e-06
357.40499999979585,2.710181e-05,357.40499999979585,2.238444e-05,357.40499999979585,8.316587e-06,357.40499999979585,6.420096e-06
357.41999999979583,2.773528e-05,357.41999999979583,2.658331e-05,357.41999999979583,8.25709e-06,357.41999999979583,6.466009e-06
357.4349999997958,2.837595e-05,357.4349999997958,2.761158e-05,357.4349999997958,8.269024e-06,357.4349999997958,6.753716e-06
357.4499999997958,2.851116e-05,357.4499999997958,2.792761e-05,357.4499999997958,8.289442e-06,357.4499999997958,6.720261e-06
357.4649999997958,2.85477e-05,357.4649999997958,2.857285e-05,357.4649999997958,8.357139e-06,357.4649999997958,6.99148e-06
357.4799999997958,2.86649e-05,357.4799999997958,2.86162e-05,357.4799999997958,8.28094e-06,357.4799999997958,6.916529e-06
357.49499999979577,2.856989e-05,357.49499999979577,2.848199e-05,357.49499999979577,8.124666e-06,357.49499999979577,6.818068e-06
357.50999999979575,3.039045e-05,357.50999999979575,2.846121e-05,357.50999999979575,7.833364e-06,357.50999999979575,6.871577e-06
357.52499999979574,3.035706e-05,357.52499999979574,2.806046e-05,357.52499999979574,7.741108e-06,357.52499999979574,6.373853e-06
357.5399999997957,3.022685e-05,357.5399999997957,2.847012e-05,357.5399999997957,7.92099e-06,357.5399999997957,6.437625e-06
357.5549999997957,2.956149e-05,357.5549999997957,2.926022e-05,357.5549999997957,7.771981e-06,357.5549999997957,6.703471e-06
357.5699999997957,2.929775e-05,357.5699999997957,2.919322e-05,357.5699999997957,7.981227e-06,357.5699999997957,6.734918e-06
357.5849999997957,3.019047e-05,357.5849999997957,2.950186e-05,357.5849999997957,8.297934e-06,357.5849999997957,6.755802e-06
357.59999999979567,2.990073e-05,357.59999999979567,2.994263e-05,357.59999999979567,7.616361e-06,357.59999999979567,6.873626e-06
357.61499999979566,3.07897e-05,357.61499999979566,2.917633e-05,357.61499999979566,7.033664e-06,357.61499999979566,6.963215e-06
357.62999999979564,3.203635e-05,357.62999999979564,2.938896e-05,357.62999999979564,7.139021e-06,357.62999999979564,7.190141e-06
357.64499999979563,3.178251e-05,357.64499999979563,2.757074e-05,357.64499999979563,6.834577e-06,357.64499999979563,6.846933e-06
357.6599999997956,3.266943e-05,357.6599999997956,2.494524e-05,357.6599999997956,6.953093e-06,357.6599999997956,7.260328e-06
357.6749999997956,3.362938e-05,357.6749999997956,2.244415e-05,357.6749999997956,7.091506e-06,357.6749999997956,7.154789e-06
357.6899999997956,3.385732e-05,357.6899999997956,2.466185e-05,357.6899999997956,7.03967e-06,357.6899999997956,7.10738e-06
357.7049999997956,3.432261e-05,357.7049999997956,2.451978e-05,357.7049999997956,8.202317e-06,357.7049999997956,7.057657e-06
357.71999999979556,3.500009e-05,357.71999999979556,2.460752e-05,357.71999999979556,8.202317e-06,357.71999999979556,6.629514e-06
357.73499999979555,3.462254e-05,357.73499999979555,2.612524e-05,357.73499999979555,8.686096e-06,357.73499999979555,6.707672e-06
357.74999999979553,3.450721e-05,357.74999999979553,2.635607e-05,357.74999999979553,9.340927e-06,357.74999999979553,6.74119e-06
357.7649999997955,3.427209e-05,357.7649999997955,2.625164e-05,357.7649999997955,9.521654e-06,357.7649999997955,6.699267e-06
357.7799999997955,3.440705e-05,357.7799999997955,2.600851e-05,357.7799999997955,9.823125e-06,357.7799999997955,6.730734e-06
357.7949999997955,3.451823e-05,357.7949999997955,2.605289e-05,357.7949999997955,9.759823e-06,357.7949999997955,6.485587e-06
357.8099999997955,3.514708e-05,357.8099999997955,2.518018e-05,357.8099999997955,9.775687e-06,357.8099999997955,6.246608e-06
357.82499999979547,3.586243e-05,357.82499999979547,2.585914e-05,357.82499999979547,9.352983e-06,357.82499999979547,6.282586e-06
357.83999999979545,3.529227e-05,357.83999999979545,2.537523e-05,357.83999999979545,9.316767e-06,357.83999999979545,6.413511e-06
357.85499999979544,3.770187e-05,357.85499999979544,2.515668e-05,357.85499999979544,9.425e-06,357.85499999979544,6.395915e-06
357.8699999997954,3.737012e-05,357.8699999997954,2.54932e-05,357.8699999997954,9.380055e-06,357.8699999997954,6.291548e-06
357.8849999997954,3.85816e-05,357.8849999997954,2.466013e-05,357.8849999997954,9.497953e-06,357.8849999997954,6.169459e-06
357.8999999997954,3.907896e-05,357.8999999997954,2.53063e-05,357.8999999997954,1.009889e-05,357.8999999997954,6.404719e-06
357.9149999997954,3.842648e-05,357.9149999997954,2.515892e-05,357.9149999997954,1.021539e-05,357.9149999997954,5.838645e-06
357.92999999979537,3.82188e-05,357.92999999979537,2.475079e-05,357.92999999979537,1.006396e-05,357.92999999979537,5.879517e-06
357.94499999979536,3.861846e-05,357.94499999979536,2.214783e-05,357.94499999979536,1.035237e-05,357.94499999979536,6.016875e-06
357.95999999979534,3.981319e-05,357.95999999979534,2.22481e-05,357.95999999979534,9.664094e-06,357.95999999979534,6.373853e-06
357.97499999979533,3.983972e-05,357.97499999979533,2.057437e-05,357.97499999979533,9.878894e-06,357.97499999979533,6.753716e-06
357.9899999997953,4.148118e-05,357.9899999997953,1.96835e-05,357.9899999997953,9.339419e-06,357.9899999997953,6.705572e-06
358.0049999997953,4.161646e-05,358.0049999997953,1.912156e-05,358.0049999997953,9.023361e-06,358.0049999997953,6.757886e-06
358.0199999997953,4.566702e-05,358.0199999997953,1.937041e-05,358.0199999997953,9.193482e-06,358.0199999997953,6.828391e-06
358.0349999997953,4.656296e-05,358.0349999997953,1.918407e-05,358.0349999997953,9.187351e-06,358.0349999997953,6.965238e-06
358.04999999979526,4.626554e-05,358.04999999979526,1.880885e-05,358.04999999979526,9.586528e-06,358.04999999979526,7.109361e-06
358.06499999979525,4.723816e-05,358.06499999979525,1.881484e-05,358.06499999979525,1.039446e-05,358.06499999979525,7.105398e-06
358.07999999979523,4.758667e-05,358.07999999979523,1.792061e-05,358.07999999979523,1.057583e-05,358.07999999979523,7.573703e-06
358.0949999997952,4.755084e-05,358.0949999997952,1.719206e-05,358.0949999997952,1.043099e-05,358.0949999997952,7.571843e-06
358.1099999997952,4.725396e-05,358.1099999997952,1.708273e-05,358.1099999997952,1.067922e-05,358.1099999997952,7.849532e-06
358.1249999997952,4.755913e-05,358.1249999997952,1.621375e-05,358.1249999997952,1.104111e-05,358.1249999997952,8.138525e-06
358.1399999997952,4.762484e-05,358.1399999997952,1.522347e-05,358.1399999997952,1.071346e-05,358.1399999997952,7.8907e-06
358.15499999979517,4.78953e-05,358.15499999979517,1.395876e-05,358.15499999979517,1.052777e-05,358.15499999979517,7.8907e-06
358.16999999979515,4.876591e-05,358.16999999979515,1.293093e-05,358.16999999979515,1.065413e-05,358.16999999979515,8.032248e-06
358.18499999979514,4.858301e-05,358.18499999979514,1.274107e-05,358.18499999979514,1.084675e-05,358.18499999979514,8.150632e-06
358.1999999997951,4.897259e-05,358.1999999997951,1.235147e-05,358.1999999997951,1.031283e-05,358.1999999997951,8.016449e-06
358.2149999997951,4.872921e-05,358.2149999997951,1.248983e-05,358.2149999997951,1.097328e-05,358.2149999997951,7.542018e-06
358.2299999997951,5.268381e-05,358.2299999997951,1.283471e-05,358.2299999997951,1.153284e-05,358.2299999997951,7.640368e-06
358.2449999997951,5.198126e-05,358.2449999997951,1.361236e-05,358.2449999997951,1.158889e-05,358.2449999997951,7.874616e-06
358.25999999979507,5.137202e-05,358.25999999979507,1.385443e-05,358.25999999979507,1.153529e-05,358.25999999979507,7.968863e-06
358.27499999979506,4.913512e-05,358.27499999979506,1.392542e-05,358.27499999979506,1.123963e-05,358.27499999979506,7.908532e-06
358.28999999979504,5.106701e-05,358.28999999979504,1.480407e-05,358.28999999979504,1.110853e-05,358.28999999979504,7.929877e-06
358.30499999979503,5.213874e-05,358.30499999979503,1.458261e-05,358.30499999979503,1.075677e-05,358.30499999979503,8.034001e-06
358.319999999795,5.271856e-05,358.319999999795,1.492726e-05,358.319999999795,1.007235e-05,358.319999999795,7.777418e-06
358.334999999795,5.207386e-05,358.334999999795,1.446818e-05,358.334999999795,1.013509e-05,358.334999999795,7.829767e-06
358.349999999795,5.142299e-05,358.349999999795,1.464815e-05,358.349999999795,1.03714e-05,358.349999999795,7.581139e-06
358.364999999795,5.044198e-05,358.364999999795,1.485537e-05,358.364999999795,1.009471e-05,358.364999999795,7.653262e-06
358.37999999979496,4.986168e-05,358.37999999979496,1.493198e-05,358.37999999979496,9.90595e-06,358.37999999979496,7.564397e-06
358.39499999979495,4.912595e-05,358.39499999979495,1.537265e-05,358.39499999979495,1.011283e-05,358.39499999979495,7.52706e-06
358.40999999979493,4.862387e-05,358.40999999979493,1.517621e-05,358.40999999979493,1.034692e-05,358.40999999979493,7.455606e-06
358.4249999997949,4.875898e-05,358.4249999997949,1.5324e-05,358.4249999997949,1.012953e-05,358.4249999997949,7.673483e-06
358.4399999997949,4.861141e-05,358.4399999997949,1.524012e-05,358.4399999997949,9.988088e-06,358.4399999997949,7.500814e-06
358.4549999997949,4.691979e-05,358.4549999997949,1.551585e-05,358.4549999997949,9.824559e-06,358.4549999997949,7.863876e-06
358.4699999997949,4.741674e-05,358.4699999997949,1.478408e-05,358.4699999997949,9.599744e-06,358.4699999997949,7.984756e-06
358.48499999979487,4.364209e-05,358.48499999979487,1.379227e-05,358.48499999979487,8.797286e-06,358.48499999979487,8.326743e-06
358.49999999979485,4.522813e-05,358.49999999979485,1.372366e-05,358.49999999979485,9.001478e-06,358.49999999979485,8.178238e-06
358.51499999979484,4.65003e-05,358.51499999979484,1.397994e-05,358.51499999979484,9.884596e-06,358.51499999979484,8.270727e-06
358.5299999997948,4.54261e-05,358.5299999997948,1.372366e-05,358.5299999997948,9.901682e-06,358.5299999997948,8.348708e-06
358.5449999997948,4.543602e-05,358.5449999997948,1.255844e-05,358.5449999997948,1.001063e-05,358.5449999997948,8.258797e-06
358.5599999997948,4.365726e-05,358.5599999997948,1.223113e-05,358.5599999997948,1.0505e-05,358.5599999997948,8.282642e-06
358.5749999997948,4.280189e-05,358.5749999997948,1.263449e-05,358.5749999997948,1.03101e-05,358.5749999997948,8.297934e-06
358.58999999979477,4.325628e-05,358.58999999979477,1.273665e-05,358.58999999979477,1.027999e-05,358.58999999979477,8.148903e-06
358.60499999979476,4.320317e-05,358.60499999979476,1.226908e-05,358.60499999979476,1.004434e-05,358.60499999979476,7.97063e-06
358.61999999979474,4.363338e-05,358.61999999979474,1.247403e-05,358.61999999979474,9.921579e-06,358.61999999979474,7.860292e-06
358.63499999979473,4.421737e-05,358.63499999979473,1.248081e-05,358.63499999979473,1.058382e-05,358.63499999979473,7.854914e-06
358.6499999997947,4.456073e-05,358.6499999997947,1.159375e-05,358.6499999997947,1.038226e-05,358.6499999997947,7.782849e-06
358.6649999997947,4.427531e-05,358.6649999997947,1.202204e-05,358.6649999997947,1.022779e-05,358.6649999997947,7.764728e-06
358.6799999997947,4.453638e-05,358.6799999997947,1.243331e-05,358.6799999997947,1.033739e-05,358.6799999997947,7.536412e-06
358.6949999997947,4.538452e-05,358.6949999997947,1.217804e-05,358.6949999997947,1.051706e-05,358.6949999997947,7.391086e-06
358.70999999979466,4.463307e-05,358.70999999979466,1.221384e-05,358.70999999979466,1.032102e-05,358.70999999979466,7.1921e-06
358.72499999979465,4.489175e-05,358.72499999979465,1.363717e-05,358.72499999979465,9.996546e-06,358.72499999979465,7.16266e-06
358.73999999979463,4.396913e-05,358.73999999979463,1.397288e-05,358.73999999979463,9.874615e-06,358.73999999979463,6.778699e-06
358.7549999997946,4.129364e-05,358.7549999997946,1.358335e-05,358.7549999997946,9.281926e-06,358.7549999997946,7.001547e-06
358.7699999997946,4.091185e-05,358.7699999997946,1.338907e-05,358.7699999997946,8.814882e-06,358.7699999997946,6.780777e-06
358.7849999997946,4.036137e-05,358.7849999997946,1.395977e-05,358.7849999997946,8.538892e-06,358.7849999997946,6.650728e-06
358.7999999997946,3.79161e-05,358.7999999997946,1.511296e-05,358.7999999997946,8.231461e-06,358.7999999997946,6.663425e-06
358.81499999979457,3.784247e-05,358.81499999979457,1.564513e-05,358.81499999979457,7.995334e-06,358.81499999979457,6.593293e-06
358.82999999979455,3.893306e-05,358.82999999979455,1.570714e-05,358.82999999979455,7.979462e-06,358.82999999979455,6.820134e-06
358.84499999979454,3.848545e-05,358.84499999979454,1.585265e-05,358.84499999979454,7.931653e-06,358.84499999979454,6.885912e-06
358.8599999997945,3.937415e-05,358.8599999997945,1.553852e-05,358.8599999997945,7.993573e-06,358.8599999997945,6.926705e-06
358.8749999997945,3.98793e-05,358.8749999997945,1.556298e-05,358.8749999997945,7.612662e-06,358.8749999997945,6.861319e-06
358.8899999997945,3.945314e-05,358.8899999997945,1.772539e-05,358.8899999997945,6.947012e-06,358.8899999997945,6.947012e-06
358.9049999997945,4.043774e-05,358.9049999997945,1.825086e-05,358.9049999997945,7.011599e-06,358.9049999997945,7.017624e-06
358.91999999979447,3.994565e-05,358.91999999979447,1.779439e-05,358.91999999979447,7.502692e-06,358.91999999979447,7.383459e-06
358.93499999979446,4.117441e-05,358.93499999979446,1.786392e-05,358.93499999979446,7.60896e-06,358.93499999979446,7.556945e-06
358.94999999979444,4.014229e-05,358.94999999979444,1.814403e-05,358.94999999979444,7.642211e-06,358.94999999979444,7.493299e-06
358.96499999979443,4.020226e-05,358.96499999979443,1.798573e-05,358.96499999979443,7.638524e-06,358.96499999979443,7.863876e-06
358.9799999997944,4.120998e-05,358.9799999997944,1.708108e-05,358.9799999997944,7.599698e-06,358.9799999997944,7.616361e-06
358.9949999997944,4.128887e-05,358.9949999997944,1.69561e-05,358.9949999997944,7.940529e-06,358.9949999997944,7.308674e-06
359.0099999997944,4.183691e-05,359.0099999997944,1.690368e-05,359.0099999997944,7.997096e-06,359.0099999997944,7.327922e-06
359.0249999997944,4.0632e-05,359.0249999997944,1.705385e-05,359.0249999997944,8.419275e-06,359.0249999997944,7.645896e-06
359.03999999979436,4.174995e-05,359.03999999979436,1.644837e-05,359.03999999979436,9.43695e-06,359.03999999979436,7.879981e-06
359.05499999979435,4.258015e-05,359.05499999979435,1.486864e-05,359.05499999979435,9.334893e-06,359.05499999979435,7.811755e-06
359.06999999979433,4.292906e-05,359.06999999979433,1.483354e-05,359.06999999979433,9.857482e-06,359.06999999979433,7.917432e-06
359.0849999997943,4.193477e-05,359.0849999997943,1.480598e-05,359.0849999997943,9.958426e-06,359.0849999997943,7.735647e-06
359.0999999997943,4.324945e-05,359.0999999997943,1.588815e-05,359.0999999997943,9.942854e-06,359.0999999997943,7.677153e-06
359.1149999997943,4.223969e-05,359.1149999997943,1.589613e-05,359.1149999997943,9.78289e-06,359.1149999997943,7.689987e-06
359.1299999997943,4.19294e-05,359.1299999997943,1.488474e-05,359.1299999997943,9.941437e-06,359.1299999997943,7.904969e-06
359.14499999979427,4.129091e-05,359.14499999979427,1.316199e-05,359.14499999979427,1.011422e-05,359.14499999979427,8.081204e-06
359.15999999979425,4.249272e-05,359.15999999979425,1.3103e-05,359.15999999979425,1.008214e-05,359.15999999979425,8.419275e-06
359.17499999979424,4.277654e-05,359.17499999979424,1.309654e-05,359.17499999979424,9.864624e-06,359.17499999979424,8.497549e-06
359.1899999997942,4.261685e-05,359.1899999997942,1.403023e-05,359.1899999997942,9.827426e-06,359.1899999997942,8.399174e-06
359.2049999997942,4.309772e-05,359.2049999997942,1.418897e-05,359.2049999997942,9.958426e-06,359.2049999997942,8.314893e-06
359.2199999997942,4.270007e-05,359.2199999997942,1.403424e-05,359.2199999997942,1.0005e-05,359.2199999997942,8.065501e-06
359.2349999997942,4.19952e-05,359.2349999997942,1.392036e-05,359.2349999997942,1.004575e-05,359.2349999997942,8.231461e-06
359.24999999979417,4.265584e-05,359.24999999979417,1.411631e-05,359.24999999979417,1.001766e-05,359.24999999979417,8.380704e-06
359.26499999979416,4.239082e-05,359.26499999979416,1.408534e-05,359.26499999979416,1.02841e-05,359.26499999979416,8.301328e-06
359.27999999979414,4.218028e-05,359.27999999979414,1.482309e-05,359.27999999979414,1.005976e-05,359.27999999979414,8.109047e-06
359.29499999979413,4.23875e-05,359.29499999979413,1.488e-05,359.29499999979413,9.274335e-06,359.29499999979413,7.817162e-06
359.3099999997941,4.178536e-05,359.3099999997941,1.500632e-05,359.3099999997941,8.843601e-06,359.3099999997941,7.733825e-06
359.3249999997941,4.118536e-05,359.3249999997941,1.498754e-05,359.3249999997941,8.900759e-06,359.3249999997941,7.838757e-06
359.3399999997941,4.076906e-05,359.3399999997941,1.406132e-05,359.3399999997941,8.819675e-06,359.3399999997941,7.831566e-06
359.3549999997941,4.050909e-05,359.3549999997941,1.326646e-05,359.3549999997941,9.049861e-06,359.3549999997941,8.009417e-06
359.36999999979406,4.084397e-05,359.36999999979406,1.319513e-05,359.36999999979406,9.085591e-06,359.36999999979406,7.945849e-06
359.38499999979405,4.027368e-05,359.38499999979405,1.322392e-05,359.38499999979405,9.085591e-06,359.38499999979405,7.396802e-06
359.39999999979403,4.151309e-05,359.39999999979403,1.354492e-05,359.39999999979403,8.813284e-06,359.39999999979403,6.940926e-06
359.414999999794,4.080981e-05,359.414999999794,1.333742e-05,359.414999999794,8.768416e-06,359.414999999794,6.431058e-06
359.429999999794,3.956723e-05,359.429999999794,1.311589e-05,359.429999999794,8.59316e-06,359.429999999794,6.349495e-06
359.444999999794,3.753711e-05,359.444999999794,1.259764e-05,359.444999999794,8.619349e-06,359.444999999794,6.174023e-06
359.459999999794,3.705365e-05,359.459999999794,1.338381e-05,359.459999999794,8.51411e-06,359.459999999794,6.25337e-06
359.47499999979397,3.668841e-05,359.47499999979397,1.365781e-05,359.47499999979397,8.668239e-06,359.47499999979397,6.05887e-06
359.48999999979395,3.571247e-05,359.48999999979395,1.370312e-05,359.48999999979395,8.555373e-06,359.48999999979395,5.934367e-06
359.50499999979394,3.517032e-05,359.50499999979394,1.368975e-05,359.50499999979394,8.548785e-06,359.50499999979394,5.905813e-06
359.5199999997939,3.512183e-05,359.5199999997939,1.426027e-05,359.5199999997939,8.348708e-06,359.5199999997939,5.729046e-06
359.5349999997939,3.547064e-05,359.5349999997939,1.356675e-05,359.5349999997939,8.470984e-06,359.5349999997939,5.577042e-06
359.5499999997939,3.636368e-05,359.5499999997939,1.354596e-05,359.5499999997939,8.58496e-06,359.5499999997939,5.516089e-06
359.5649999997939,3.759411e-05,359.5649999997939,1.37534e-05,359.5649999997939,8.625883e-06,359.5649999997939,5.457037e-06
359.57999999979387,3.652833e-05,359.57999999979387,1.387576e-05,359.57999999979387,8.724932e-06,359.57999999979387,5.015856e-06
359.59499999979386,3.63722e-05,359.59499999979386,1.403625e-05,359.59499999979386,8.742674e-06,359.59499999979386,4.81818e-06
359.60999999979384,3.709734e-05,359.60999999979384,1.408534e-05,359.60999999979384,8.884918e-06,359.60999999979384,4.450379e-06
359.62499999979383,3.67448e-05,359.62499999979383,1.416612e-05,359.62499999979383,8.720087e-06,359.62499999979383,4.39624e-06
359.6399999997938,3.574519e-05,359.6399999997938,1.435185e-05,359.6399999997938,8.954407e-06,359.6399999997938,4.192873e-06
359.6549999997938,3.409489e-05,359.6549999997938,1.368152e-05,359.6549999997938,9.242383e-06,359.6549999997938,4.216325e-06
359.6699999997938,3.359879e-05,359.6699999997938,1.370312e-05,359.6699999997938,9.230183e-06,359.6699999997938,4.29248e-06
359.6849999997938,3.395246e-05,359.6849999997938,1.317055e-05,359.6849999997938,8.943388e-06,359.6849999997938,4.145571e-06
359.69999999979376,3.358453e-05,359.69999999979376,1.240382e-05,359.69999999979376,9.018676e-06,359.69999999979376,4.094283e-06
359.71499999979375,3.418113e-05,359.71499999979375,1.218035e-05,359.71499999979375,8.765202e-06,359.71499999979375,3.911283e-06
359.72999999979373,3.520435e-05,359.72999999979373,1.217225e-05,359.72999999979373,9.122726e-06,359.72999999979373,3.760722e-06
359.7449999997937,3.520715e-05,359.7449999997937,1.301346e-05,359.7449999997937,9.585059e-06,359.7449999997937,4.308857e-06
359.7599999997937,3.624689e-05,359.7599999997937,1.313199e-05,359.7599999997937,9.363521e-06,359.7599999997937,4.544346e-06
359.7749999997937,3.646658e-05,359.7749999997937,1.343843e-05,359.7749999997937,9.39506e-06,359.7749999997937,4.608983e-06
359.7899999997937,3.664845e-05,359.7899999997937,1.346565e-05,359.7899999997937,9.728018e-06,359.7899999997937,4.666692e-06
359.80499999979367,3.52799e-05,359.80499999979367,1.338907e-05,359.80499999979367,1.009471e-05,359.80499999979367,4.684768e-06
359.81999999979365,3.458102e-05,359.81999999979365,1.362167e-05,359.81999999979365,1.005135e-05,359.81999999979365,4.774123e-06
359.83499999979364,3.502302e-05,359.83499999979364,1.3892e-05,359.83499999979364,1.001344e-05,359.83499999979364,4.965048e-06
359.8499999997936,3.415021e-05,359.8499999997936,1.374315e-05,359.8499999997936,9.895991e-06,359.8499999997936,5.289249e-06
359.8649999997936,3.440418e-05,359.8649999997936,1.407434e-05,359.8649999997936,9.567407e-06,359.8649999997936,5.305204e-06
359.8799999997936,3.37594e-05,359.8799999997936,1.439595e-05,359.8799999997936,9.301635e-06,359.8799999997936,5.358047e-06
359.8949999997936,3.390139e-05,359.8949999997936,1.479456e-05,359.8949999997936,9.480139e-06,359.8949999997936,5.392116e-06
359.90999999979357,3.465345e-05,359.90999999979357,1.499505e-05,359.90999999979357,9.090241e-06,359.90999999979357,5.523745e-06
359.92499999979356,3.386896e-05,359.92499999979356,1.490554e-05,359.92499999979356,9.283444e-06,359.92499999979356,5.587136e-06
359.93999999979354,3.35392e-05,359.93999999979354,1.494235e-05,359.93999999979354,9.497953e-06,359.93999999979354,5.647323e-06
359.95499999979353,3.382776e-05,359.95499999979353,1.489041e-05,359.95499999979353,1.004294e-05,359.95499999979353,5.56946e-06
359.9699999997935,3.221088e-05,359.9699999997935,1.496214e-05,359.9699999997935,9.91874e-06,359.9699999997935,5.679657e-06
359.9849999997935,3.236532e-05,359.9849999997935,1.449833e-05,359.9849999997935,9.158172e-06,359.9849999997935,5.61731e-06
359.9999999997935,3.100308e-05,359.9999999997935,1.433122e-05,359.9999999997935,9.42201e-06,359.9999999997935,5.211442e-06
360.0149999997935,3.094304e-05,360.0149999997935,1.352723e-05,360.0149999997935,9.47122e-06,360.0149999997935,5.08004e-06
360.02999999979346,3.053011e-05,360.02999999979346,1.330252e-05,360.02999999979346,9.167396e-06,360.02999999979346,5.060592e-06
360.04499999979345,2.804037e-05,360.04499999979345,1.321433e-05,360.04499999979345,8.694202e-06,360.04499999979345,5.027078e-06
360.05999999979343,2.852351e-05,360.05999999979343,1.311052e-05,360.05999999979343,8.77805e-06,360.05999999979343,4.93374e-06
360.0749999997934,2.803987e-05,360.0749999997934,1.24129e-05,360.0749999997934,9.199609e-06,360.0749999997934,4.815255e-06
360.0899999997934,2.723661e-05,360.0899999997934,1.229202e-05,360.0899999997934,9.035841e-06,360.0899999997934,4.777073e-06
360.1049999997934,2.668645e-05,360.1049999997934,1.191257e-05,360.1049999997934,9.139696e-06,360.1049999997934,4.478776e-06
360.1199999997934,2.609125e-05,360.1199999997934,1.157673e-05,360.1199999997934,9.292544e-06,360.1199999997934,4.469331e-06
360.13499999979337,2.634378e-05,360.13499999979337,1.188415e-05,360.13499999979337,9.233234e-06,360.13499999979337,4.35115e-06
360.14999999979335,2.588908e-05,360.14999999979335,1.184378e-05,360.14999999979335,9.518695e-06,360.14999999979335,4.246287e-06
360.16499999979334,2.486209e-05,360.16499999979334,1.173145e-05,360.16499999979334,9.636359e-06,360.16499999979334,3.950702e-06
360.1799999997933,2.852104e-05,360.1799999997933,1.208048e-05,360.1799999997933,1.05251e-05,360.1799999997933,3.78313e-06
360.1949999997933,3.124972e-05,360.1949999997933,1.617983e-05,360.1949999997933,1.214097e-05,360.1949999997933,3.760722e-06
360.2099999997933,3.49856e-05,360.2099999997933,1.829942e-05,360.2099999997933,1.642609e-05,360.2099999997933,3.715501e-06
360.2249999997933,4.344346e-05,360.2249999997933,1.851751e-05,360.2249999997933,2.227847e-05,360.2249999997933,3.79057e-06
360.23999999979327,0.0001152859,360.23999999979327,1.881484e-05,360.23999999979327,6.763845e-05,360.23999999979327,4.376973e-06
360.25499999979326,0.0003040069,360.25499999979326,1.86728e-05,360.25499999979326,8.458053e-05,360.25499999979326,4.562907e-06
360.26999999979324,0.0003746163,360.26999999979324,1.930558e-05,360.26999999979324,0.0001121759,360.26999999979324,4.858938e-06
360.28499999979323,0.0004387554,360.28499999979323,1.933548e-05,360.28499999979323,0.0001186054,360.28499999979323,4.896482e-06
360.2999999997932,0.0006009643,360.2999999997932,1.939875e-05,360.2999999997932,0.0001194806,360.2999999997932,4.902232e-06
360.3149999997932,0.0008702775,360.3149999997932,2.040663e-05,360.3149999997932,0.000122366,360.3149999997932,4.905105e-06
360.3299999997932,0.0009051584,360.3299999997932,2.058738e-05,360.3299999997932,0.0001259926,360.3299999997932,4.93374e-06
360.3449999997932,0.0009217461,360.3449999997932,2.092333e-05,360.3449999997932,0.0001277666,360.3449999997932,4.759348e-06
360.35999999979316,0.0009496256,360.35999999979316,2.121816e-05,360.35999999979316,0.0001279572,360.35999999979316,4.907976e-06
360.37499999979315,0.0009697049,360.37499999979315,2.122546e-05,360.37499999979315,0.0001280205,360.37499999979315,4.998978e-06
360.38999999979313,0.0009787009,360.38999999979313,2.488248e-05,360.38999999979313,0.0001281676,360.38999999979313,5.066156e-06
360.4049999997931,0.0009821334,360.4049999997931,5.185564e-05,360.4049999997931,0.0001282541,360.4049999997931,5.104936e-06
360.4199999997931,0.001004992,360.4199999997931,8.570442e-05,360.4199999997931,0.0001283014,360.4199999997931,5.168013e-06
360.4349999997931,0.001075108,360.4349999997931,0.0001084998,360.4349999997931,0.0001283093,360.4349999997931,5.251831e-06
360.4499999997931,0.001115462,360.4499999997931,0.0001605306,360.4499999997931,0.0001285119,360.4499999997931,5.2679e-06
360.46499999979306,0.001120803,360.46499999979306,0.0001897375,360.46499999979306,0.0001278245,360.46499999979306,5.273245e-06
360.47999999979305,0.001127278,360.47999999979305,0.0002153489,360.47999999979305,0.0001229034,360.47999999979305,5.162558e-06
360.49499999979304,0.001134553,360.49499999979304,0.0002705713,360.49499999979304,0.000105335,360.49499999979304,4.569077e-06
360.509999999793,0.001094753,360.509999999793,0.0003014376,360.509999999793,8.638449e-05,360.509999999793,4.389827e-06
360.524999999793,0.001086572,360.524999999793,0.0003730795,360.524999999793,5.385973e-05,360.524999999793,3.775675e-06
360.539999999793,0.001055945,360.539999999793,0.0004023604,360.539999999793,4.541214e-05,360.539999999793,3.893234e-06
360.554999999793,0.0009173739,360.554999999793,0.000410452,360.554999999793,4.445724e-05,360.554999999793,4.066665e-06
360.56999999979297,0.0007487345,360.56999999979297,0.0005069217,360.56999999979297,4.192369e-05,360.56999999979297,4.216325e-06
360.58499999979296,0.0007197976,360.58499999979296,0.0005589496,360.58499999979296,3.33074e-05,360.58499999979296,4.179412e-06
360.59999999979294,0.0007134043,360.59999999979294,0.0005920499,360.59999999979294,3.675975e-05,360.59999999979294,4.172666e-06
360.61499999979293,0.0007175512,360.61499999979293,0.001161069,360.61499999979293,4.973467e-05,360.61499999979293,4.145571e-06
360.6299999997929,0.0007320492,360.6299999997929,0.001385919,360.6299999997929,5.706307e-05,360.6299999997929,4.232997e-06
360.6449999997929,0.000735671,360.6449999997929,0.001440003,360.6449999997929,0.00013411,360.6449999997929,4.179412e-06
360.6599999997929,0.0007139653,360.6599999997929,0.001479406,360.6599999997929,0.0001421246,360.6599999997929,4.152361e-06
360.6749999997929,0.0006906535,360.6749999997929,0.001483534,360.6749999997929,0.0001586744,360.6749999997929,4.252917e-06
360.68999999979286,0.0005245792,360.68999999979286,0.001513623,360.68999999979286,0.0001615183,360.68999999979286,4.125132e-06
360.70499999979285,0.0004681564,360.70499999979285,0.001553058,360.70499999979285,0.0001614422,360.70499999979285,4.045829e-06
360.71999999979283,0.0004623094,360.71999999979283,0.001554569,360.71999999979283,0.0001630476,360.71999999979283,4.108022e-06
360.7349999997928,0.000453192,360.7349999997928,0.001543711,360.7349999997928,0.0001640691,360.7349999997928,4.182782e-06
360.7499999997928,0.0004327079,360.7499999997928,0.001548834,360.7499999997928,0.0001641953,360.7499999997928,4.252917e-06
360.7649999997928,0.000413679,360.7649999997928,0.001556415,360.7649999997928,0.000164344,360.7649999997928,4.354386e-06
360.7799999997928,0.0004122686,360.7799999997928,0.001544485,360.7799999997928,0.0001647668,360.7799999997928,4.559819e-06
360.79499999979276,0.0004112056,360.79499999979276,0.001539158,360.79499999979276,0.0001649311,360.79499999979276,4.522595e-06
360.80999999979275,0.0003774757,360.80999999979275,0.001529174,360.80999999979275,0.0001647283,360.80999999979275,4.506994e-06
360.82499999979274,0.0002963845,360.82499999979274,0.001498272,360.82499999979274,0.0001635864,360.82499999979274,4.440873e-06
360.8399999997927,0.0002792774,360.8399999997927,0.00149196,360.8399999997927,0.0001632824,360.8399999997927,4.48192e-06
360.8549999997927,0.0002795387,360.8549999997927,0.001299175,360.8549999997927,0.0001601517,360.8549999997927,4.535037e-06
360.8699999997927,0.0002286761,360.8699999997927,0.0009108243,360.8699999997927,0.0001586797,360.8699999997927,4.302314e-06
360.8849999997927,0.0001742388,360.8849999997927,0.0007510937,360.8849999997927,0.0001423295,360.8849999997927,4.513241e-06
360.89999999979267,0.0001461652,360.89999999979267,0.0006791761,360.89999999979267,9.223144e-05,360.89999999979267,4.547444e-06
360.91499999979266,0.0001428738,360.91499999979266,0.0005703351,360.91499999979266,7.278989e-05,360.91499999979266,4.590608e-06
360.92999999979264,0.0001409602,360.92999999979264,0.000553233,360.92999999979264,4.15643e-05,360.92999999979264,4.447213e-06
360.9449999997926,0.0001533782,360.9449999997926,0.0003908541,360.9449999997926,3.534173e-05,360.9449999997926,4.870521e-06
360.9599999997926,0.0002264385,360.9599999997926,0.0003112702,360.9599999997926,3.413618e-05,360.9599999997926,4.990517e-06
360.9749999997926,0.0005367639,360.9749999997926,0.0003002625,360.9749999997926,2.801524e-05,360.9749999997926,5.307859e-06
360.9899999997926,0.0007322576,360.9899999997926,0.0002935045,360.9899999997926,3.015733e-05,360.9899999997926,5.222243e-06
361.0049999997926,0.0007965202,361.0049999997926,0.0001997879,361.0049999997926,3.841768e-05,361.0049999997926,5.216845e-06
361.01999999979256,0.001421897,361.01999999979256,0.0001141132,361.01999999979256,3.828766e-05,361.01999999979256,5.184341e-06
361.03499999979255,0.001614246,361.03499999979255,0.000112067,361.03499999979255,5.177054e-05,361.03499999979255,5.243778e-06
361.04999999979253,0.001623286,361.04999999979253,9.750206e-05,361.04999999979253,7.200908e-05,361.04999999979253,5.107694e-06
361.0649999997925,0.001702071,361.0649999997925,7.72712e-05,361.0649999997925,7.971655e-05,361.0649999997925,5.027078e-06
361.0799999997925,0.001789325,361.0799999997925,7.301924e-05,361.0799999997925,8.003875e-05,361.0799999997925,5.001795e-06
361.0949999997925,0.001811876,361.0949999997925,5.830291e-05,361.0949999997925,8.051814e-05,361.0949999997925,4.970719e-06
361.1099999997925,0.001816341,361.1099999997925,4.584651e-05,361.1099999997925,8.017257e-05,361.1099999997925,5.018664e-06
361.12499999979246,0.001831503,361.12499999979246,3.903063e-05,361.12499999979246,8.024124e-05,361.12499999979246,5.104936e-06
361.13999999979245,0.001843773,361.13999999979245,3.803739e-05,361.13999999979245,8.494267e-05,361.13999999979245,4.942298e-06
361.15499999979244,0.00184481,361.15499999979244,3.693828e-05,361.15499999979244,9.251494e-05,361.15499999979244,4.882076e-06
361.1699999997924,0.00184475,361.1699999997924,3.644841e-05,361.1699999997924,9.649405e-05,361.1699999997924,4.861837e-06
361.1849999997924,0.001844531,361.1849999997924,3.054579e-05,361.1849999997924,9.865624e-05,361.1849999997924,4.953686e-06
361.1999999997924,0.001838182,361.1999999997924,2.985972e-05,361.1999999997924,9.903219e-05,361.1999999997924,4.373753e-06
361.2149999997924,0.001832539,361.2149999997924,2.874881e-05,361.2149999997924,9.944441e-05,361.2149999997924,4.269446e-06
361.22999999979237,0.001702886,361.22999999979237,2.79261e-05,361.22999999979237,0.0001003872,361.22999999979237,3.90768e-06
361.24499999979236,0.001696819,361.24499999979236,2.958387e-05,361.24499999979236,9.848031e-05,361.24499999979236,3.871464e-06
361.25999999979234,0.001645484,361.25999999979234,3.044741e-05,361.25999999979234,9.579237e-05,361.25999999979234,3.749468e-06
361.2749999997923,0.001207564,361.2749999997923,3.230913e-05,361.2749999997923,9.426226e-05,361.2749999997923,3.820184e-06
361.2899999997923,0.001070639,361.2899999997923,3.174348e-05,361.2899999997923,8.583269e-05,361.2899999997923,3.665883e-06
361.3049999997923,0.001048419,361.3049999997923,4.220399e-05,361.3049999997923,7.401371e-05,361.3049999997923,3.580347e-06
361.3199999997923,0.0009480698,361.3199999997923,7.24018e-05,361.3199999997923,9.888586e-05,361.3199999997923,3.532818e-06
361.3349999997923,0.0009112674,361.3349999997923,8.654463e-05,361.3349999997923,0.000105915,361.3349999997923,3.472492e-06
361.34999999979226,0.0009282755,361.34999999979226,0.0001220117,361.34999999979226,0.0001073539,361.34999999979226,3.386231e-06
361.36499999979225,0.0009512096,361.36499999979225,0.000131998,361.36499999979225,0.0001171822,361.36499999979225,3.263362e-06
361.37999999979223,0.0009351335,361.37999999979223,0.0001399874,361.37999999979223,0.0001193574,361.37999999979223,3.117661e-06
361.3949999997922,0.0009276425,361.3949999997922,0.0001417771,361.3949999997922,0.0001163695,361.3949999997922,3.117661e-06
361.4099999997922,0.0009858584,361.4099999997922,0.0001502716,361.4099999997922,0.0001137854,361.4099999997922,3.044509e-06
361.4249999997922,0.001090834,361.4249999997922,0.0001560238,361.4249999997922,0.0001133048,361.4249999997922,3.025945e-06
361.4399999997922,0.001118145,361.4399999997922,0.0001572145,361.4399999997922,0.0001119451,361.4399999997922,2.793568e-06
361.45499999979216,0.001122185,361.45499999979216,0.0001569386,361.45499999979216,0.00011182,361.45499999979216,2.803635e-06
361.46999999979215,0.001171834,361.46999999979215,0.0001569145,361.46999999979215,0.0001115836,361.46999999979215,2.696058e-06
361.48499999979214,0.001195637,361.48499999979214,0.0001567858,361.48499999979214,0.0001106725,361.48499999979214,2.848496e-06
361.4999999997921,0.001152675,361.4999999997921,0.0001564412,361.4999999997921,0.0001095157,361.4999999997921,2.808655e-06
361.5149999997921,0.001044561,361.5149999997921,0.0001561948,361.5149999997921,0.0001093818,361.5149999997921,2.878015e-06
361.5299999997921,0.0009776695,361.5299999997921,0.0001559432,361.5299999997921,0.0001093205,361.5299999997921,2.783465e-06
361.5449999997921,0.0009756881,361.5449999997921,0.0001555757,361.5449999997921,0.000109074,361.5449999997921,2.828646e-06
361.55999999979207,0.0009788196,361.55999999979207,0.0001466983,361.55999999979207,9.830335e-05,361.55999999979207,2.940956e-06
361.57499999979206,0.0009592983,361.57499999979206,0.0001351905,361.57499999979206,7.296443e-05,361.57499999979206,3.025945e-06
361.58999999979204,0.0009556297,361.58999999979204,0.0001211393,361.58999999979204,6.644392e-05,361.58999999979204,3.081303e-06
361.604999999792,0.000974832,361.604999999792,9.398373e-05,361.604999999792,6.028499e-05,361.604999999792,3.11314e-06
361.619999999792,0.001024052,361.619999999792,8.320279e-05,361.619999999792,3.938846e-05,361.619999999792,3.094987e-06
361.634999999792,0.001005652,361.634999999792,6.313832e-05,361.634999999792,3.572114e-05,361.634999999792,3.081303e-06
361.649999999792,0.001037826,361.649999999792,5.779208e-05,361.649999999792,3.115899e-05,361.649999999792,3.053749e-06
361.664999999792,0.001109565,361.664999999792,3.820368e-05,361.664999999792,2.155213e-05,361.664999999792,3.053749e-06
361.67999999979196,0.001121264,361.67999999979196,1.702988e-05,361.67999999979196,1.150472e-05,361.67999999979196,3.062961e-06
361.69499999979195,0.001125133,361.69499999979195,9.941437e-06,361.69499999979195,8.169621e-06,361.69499999979195,3.104077e-06
361.70999999979193,0.001114996,361.70999999979193,9.884596e-06,361.70999999979193,8.154087e-06,361.70999999979193,3.090432e-06
361.7249999997919,0.001075706,361.7249999997919,1.056784e-05,361.7249999997919,8.703918e-06,361.7249999997919,3.11314e-06
361.7399999997919,0.001053299,361.7399999997919,1.051439e-05,361.7399999997919,1.161803e-05,361.7399999997919,2.936162e-06
361.7549999997919,0.001042985,361.7549999997919,1.032375e-05,361.7549999997919,1.172184e-05,361.7549999997919,2.945742e-06
361.7699999997919,0.001041756,361.7699999997919,9.655344e-06,361.7699999997919,1.402521e-05,361.7699999997919,2.882905e-06
361.78499999979186,0.001042266,361.78499999979186,9.484596e-06,361.78499999979186,5.91256e-05,361.78499999979186,2.763147e-06
361.79999999979185,0.001041993,361.79999999979185,1.261105e-05,361.79999999979185,0.0001380754,361.79999999979185,2.818668e-06
361.81499999979184,0.001039458,361.81499999979184,1.342584e-05,361.81499999979184,0.0001581651,361.81499999979184,2.873116e-06
361.8299999997918,0.001024319,361.8299999997918,1.598803e-05,361.8299999997918,0.0002222788,361.8299999997918,2.74781e-06
361.8449999997918,0.0009862164,361.8449999997918,2.085387e-05,361.8449999997918,0.0002399316,361.8449999997918,3.035241e-06
361.8599999997918,0.0008533484,361.8599999997918,2.117031e-05,361.8599999997918,0.0002414305,361.8599999997918,3.090432e-06
361.8749999997918,0.0006991943,361.8749999997918,2.215356e-05,361.8749999997918,0.0002474881,361.8749999997918,3.211145e-06
361.88999999979177,0.0006687923,361.88999999979177,2.23857e-05,361.88999999979177,0.0002549208,361.88999999979177,3.228645e-06
361.90499999979176,0.0006320312,361.90499999979176,2.274961e-05,361.90499999979176,0.0002565001,361.90499999979176,3.352786e-06
361.91999999979174,0.0004650691,361.91999999979174,2.283675e-05,361.91999999979174,0.0002565287,361.91999999979174,3.427579e-06
361.9349999997917,0.0002936763,361.9349999997917,2.296224e-05,361.9349999997917,0.0002567345,361.9349999997917,3.448066e-06
361.9499999997917,0.0002277736,361.9499999997917,2.309803e-05,361.9499999997917,0.0002569401,361.9499999997917,3.492716e-06
361.9649999997917,0.0002238903,361.9649999997917,2.396897e-05,361.9649999997917,0.0002570725,361.9649999997917,3.556662e-06
361.9799999997917,0.0002192274,361.9799999997917,2.407627e-05,361.9799999997917,0.00025703,361.9799999997917,3.512824e-06
361.9949999997917,0.0002089549,361.9949999997917,2.412304e-05,361.9949999997917,0.0002569119,361.9949999997917,3.520835e-06
362.00999999979166,0.000207168,362.00999999979166,2.452093e-05,362.00999999979166,0.0002569052,362.00999999979166,3.488681e-06
362.02499999979165,0.0002104493,362.02499999979165,2.463384e-05,362.02499999979165,0.0002567373,362.02499999979165,3.540784e-06
362.03999999979163,0.0002119715,362.03999999979163,2.674339e-05,362.03999999979163,0.0002387662,362.03999999979163,3.536803e-06
362.0549999997916,0.0002153039,362.0549999997916,2.555501e-05,362.0549999997916,0.0002062131,362.0549999997916,3.415227e-06
362.0699999997916,0.0002191944,362.0699999997916,2.967231e-05,362.0699999997916,0.0001800953,362.0699999997916,3.394541e-06
362.0849999997916,0.0002230176,362.0849999997916,3.025154e-05,362.0849999997916,0.0001063854,362.0849999997916,3.335938e-06
362.0999999997916,0.0002710537,362.0999999997916,2.73584e-05,362.0999999997916,8.227507e-05,362.0999999997916,3.158065e-06
362.11499999979156,0.000400245,362.11499999979156,2.761617e-05,362.11499999979156,7.813251e-05,362.11499999979156,3.11314e-06
362.12999999979155,0.0004179052,362.12999999979155,2.733316e-05,362.12999999979155,5.854691e-05,362.12999999979155,2.964809e-06
362.14499999979154,0.0004267098,362.14499999979154,2.728828e-05,362.14499999979154,2.670386e-05,362.14499999979154,2.997883e-06
362.1599999997915,0.0004394368,362.1599999997915,2.695535e-05,362.1599999997915,1.988713e-05,362.1599999997915,2.838588e-06
362.1749999997915,0.0004458623,362.1749999997915,2.687685e-05,362.1749999997915,1.947268e-05,362.1749999997915,2.768241e-06
362.1899999997915,0.0004483912,362.1899999997915,2.68102e-05,362.1899999997915,1.769118e-05,362.1899999997915,2.778399e-06
362.2049999997915,0.0004479889,362.2049999997915,2.653505e-05,362.2049999997915,1.511389e-05,362.2049999997915,2.627256e-06
362.21999999979147,0.0004480307,362.21999999979147,2.54473e-05,362.21999999979147,1.391935e-05,362.21999999979147,2.578549e-06
362.23499999979146,0.0004496876,362.23499999979146,2.542016e-05,362.23499999979146,1.316199e-05,362.23499999979146,2.637958e-06
362.24999999979144,0.0004508649,362.24999999979144,2.535968e-05,362.24999999979144,1.390517e-05,362.24999999979144,2.685588e-06
362.2649999997914,0.0004570855,362.2649999997914,2.505905e-05,362.2649999997914,1.604695e-05,362.2649999997914,2.768241e-06
362.2799999997914,0.0004631571,362.2799999997914,2.496895e-05,362.2799999997914,1.734704e-05,362.2799999997914,2.627256e-06
362.2949999997914,0.0004630213,362.2949999997914,2.088695e-05,362.2949999997914,1.743937e-05,362.2949999997914,2.653929e-06
362.3099999997914,0.0004660927,362.3099999997914,1.968636e-05,362.3099999997914,1.765452e-05,362.3099999997914,2.57308e-06
362.3249999997914,0.0004646546,362.3249999997914,1.418996e-05,362.3249999997914,1.812306e-05,362.3249999997914,2.534468e-06
362.33999999979136,0.0004532284,362.33999999979136,1.167367e-05,362.33999999979136,2.125862e-05,362.33999999979136,2.722057e-06
362.35499999979135,0.0004041259,362.35499999979135,1.3451e-05,362.35499999979135,0.0001080146,362.35499999979135,2.701278e-06
362.36999999979133,0.0002967933,362.36999999979133,1.377285e-05,362.36999999979133,0.0001421389,362.36999999979133,2.685588e-06
362.3849999997913,0.0002905456,362.3849999997913,1.327283e-05,362.3849999997913,0.0002197309,362.3849999997913,2.675077e-06
362.3999999997913,0.0003183006,362.3999999997913,1.303077e-05,362.3999999997913,0.0002321957,362.3999999997913,2.690828e-06
362.4149999997913,0.0003173671,362.4149999997913,1.298745e-05,362.4149999997913,0.0002804638,362.4149999997913,2.711688e-06
362.4299999997913,0.0003073762,362.4299999997913,1.304913e-05,362.4299999997913,0.0003017249,362.4299999997913,2.758045e-06
362.44499999979126,0.0003272538,362.44499999979126,1.321433e-05,362.44499999979126,0.0003025638,362.44499999979126,2.727227e-06
362.45999999979125,0.0003583275,362.45999999979125,1.311052e-05,362.45999999979125,0.0003071103,362.45999999979125,2.758045e-06
362.47499999979124,0.0003801134,362.47499999979124,1.295596e-05,362.47499999979124,0.0003123818,362.47499999979124,2.793568e-06
362.4899999997912,0.0003827871,362.4899999997912,1.262891e-05,362.4899999997912,0.0003139789,362.4899999997912,2.813666e-06
362.5049999997912,0.000380484,362.5049999997912,1.256517e-05,362.5049999997912,0.0003140541,362.5049999997912,2.897527e-06
362.5199999997912,0.0003738891,362.5199999997912,1.242991e-05,362.5199999997912,0.0003139805,362.5199999997912,2.907234e-06
362.5349999997912,0.0003742435,362.5349999997912,1.259317e-05,362.5349999997912,0.0003140253,362.5349999997912,2.931361e-06
362.54999999979117,0.000377142,362.54999999979117,1.291894e-05,362.54999999979117,0.0003140597,362.54999999979117,2.974296e-06
362.56499999979116,0.0003768372,362.56499999979116,1.227138e-05,362.56499999979116,0.0003140252,362.56499999979116,3.085871e-06
362.57999999979114,0.0003768271,362.57999999979114,1.044044e-05,362.57999999979114,0.0003140315,362.57999999979114,3.122176e-06
362.5949999997911,0.0003624622,362.5949999997911,9.876042e-06,362.5949999997911,0.0003112238,362.5949999997911,2.887788e-06
362.6099999997911,0.0003554037,362.6099999997911,8.21433e-06,362.6099999997911,0.0002908506,362.6099999997911,2.95052e-06
362.6249999997911,0.0003565521,362.6249999997911,8.167896e-06,362.6249999997911,0.0002637982,362.6249999997911,2.926552e-06
362.6399999997911,0.0003464644,362.6399999997911,7.753835e-06,362.6399999997911,0.0002108744,362.6399999997911,2.955291e-06
362.6549999997911,0.0003255358,362.6549999997911,7.795508e-06,362.6549999997911,0.0001928881,362.6549999997911,2.979029e-06
362.66999999979106,0.0003144081,362.66999999979106,7.717415e-06,362.66999999979106,0.000114086,362.66999999979106,2.997883e-06
362.68499999979105,0.0003109046,362.68499999979105,7.618211e-06,362.68499999979105,7.707022e-05,362.68499999979105,3.007266e-06
362.69999999979103,0.0002823649,362.69999999979103,7.551351e-06,362.69999999979103,7.399696e-05,362.69999999979103,3.002579e-06
362.714999999791,0.0002307075,362.714999999791,7.497057e-06,362.714999999791,5.770646e-05,362.714999999791,2.960054e-06
362.729999999791,0.0002058336,362.729999999791,7.632989e-06,362.729999999791,2.783212e-05,362.729999999791,2.993181e-06
362.744999999791,0.0001955248,362.744999999791,7.59599e-06,362.744999999791,1.623806e-05,362.744999999791,2.892662e-06
362.759999999791,0.0001925551,362.759999999791,7.373913e-06,362.759999999791,1.544122e-05,362.759999999791,2.878015e-06
362.77499999979096,0.0001871712,362.77499999979096,7.558809e-06,362.77499999979096,1.462794e-05,362.77499999979096,2.828646e-06
362.78999999979095,0.0001721869,362.78999999979095,7.188182e-06,362.78999999979095,1.342689e-05,362.78999999979095,2.793568e-06
362.80499999979094,0.0001695077,362.80499999979094,7.213613e-06,362.80499999979094,1.262891e-05,362.80499999979094,2.912075e-06
362.8199999997909,0.0001442883,362.8199999997909,7.547619e-06,362.8199999997909,1.239132e-05,362.8199999997909,2.863294e-06
362.8349999997909,0.0001250797,362.8349999997909,7.666136e-06,362.8349999997909,1.225989e-05,362.8349999997909,2.988471e-06
362.8499999997909,0.000123745,362.8499999997909,7.530803e-06,362.8499999997909,1.267901e-05,362.8499999997909,2.955291e-06
362.8649999997909,0.0001331679,362.8649999997909,7.493299e-06,362.8649999997909,1.316627e-05,362.8649999997909,2.921734e-06
362.87999999979087,0.0001460802,362.87999999979087,7.730182e-06,362.87999999979087,1.334164e-05,362.87999999979087,2.907234e-06
362.89499999979085,0.0001537561,362.89499999979085,8.338578e-06,362.89499999979085,1.330357e-05,362.89499999979085,2.873116e-06
362.90999999979084,0.0001533257,362.90999999979084,8.243432e-06,362.90999999979084,1.373085e-05,362.90999999979084,2.843547e-06
362.9249999997908,0.0001540036,362.9249999997908,9.772805e-06,362.9249999997908,1.388693e-05,362.9249999997908,2.916909e-06
362.9399999997908,0.0001629716,362.9399999997908,9.820256e-06,362.9399999997908,1.438126e-05,362.9399999997908,3.158065e-06
362.9549999997908,0.0001648547,362.9549999997908,1.009052e-05,362.9549999997908,1.512041e-05,362.9549999997908,3.189136e-06
362.9699999997908,0.0001773062,362.9699999997908,1.037683e-05,362.9699999997908,1.477073e-05,362.9699999997908,3.108612e-06
362.9849999997908,0.000188812,362.9849999997908,1.035781e-05,362.9849999997908,1.49612e-05,362.9849999997908,3.202359e-06
362.99999999979076,0.0002007759,362.99999999979076,1.090762e-05,362.99999999979076,1.579746e-05,362.99999999979076,3.237359e-06
363.01499999979075,0.0002129156,363.01499999979075,1.09553e-05,363.01499999979075,1.611965e-05,363.01499999979075,3.219907e-06
363.02999999979073,0.0002158401,363.02999999979073,1.124089e-05,363.02999999979073,1.60408e-05,363.02999999979073,3.259043e-06
363.0449999997907,0.0002216705,363.0449999997907,1.139398e-05,363.0449999997907,1.633407e-05,363.0449999997907,3.284874e-06
363.0599999997907,0.0002237495,363.0599999997907,1.137047e-05,363.0599999997907,1.666448e-05,363.0599999997907,3.28916e-06
363.0749999997907,0.0002252908,363.0749999997907,1.12484e-05,363.0749999997907,1.708933e-05,363.0749999997907,3.267676e-06
363.0899999997907,0.0002273254,363.0899999997907,1.116292e-05,363.0899999997907,1.744421e-05,363.0899999997907,3.29344e-06
363.10499999979066,0.0002362673,363.10499999979066,1.121077e-05,363.10499999979066,1.737787e-05,363.10499999979066,3.340158e-06
363.11999999979065,0.0002380901,363.11999999979065,1.129839e-05,363.11999999979065,1.728847e-05,363.11999999979065,3.504795e-06
363.13499999979064,0.0002354293,363.13499999979064,1.074366e-05,363.13499999979064,1.699261e-05,363.13499999979064,3.540784e-06
363.1499999997906,0.0002377129,363.1499999997906,1.130836e-05,363.1499999997906,1.66991e-05,363.1499999997906,3.696496e-06
363.1649999997906,0.0002477897,363.1649999997906,1.167608e-05,363.1649999997906,1.609953e-05,363.1649999997906,3.83123e-06
363.1799999997906,0.0002601224,363.1799999997906,1.132205e-05,363.1799999997906,1.593154e-05,363.1799999997906,3.756974e-06
363.1949999997906,0.0002528878,363.1949999997906,1.197037e-05,363.1949999997906,1.545125e-05,363.1949999997906,3.797995e-06
363.20999999979057,0.0002495133,363.20999999979057,1.151818e-05,363.20999999979057,1.486864e-05,363.20999999979057,3.871464e-06
363.22499999979055,0.0002486779,363.22499999979055,1.145194e-05,363.22499999979055,1.515577e-05,363.22499999979055,3.889614e-06
363.23999999979054,0.0002459124,363.23999999979054,1.14421e-05,363.23999999979054,1.633062e-05,363.23999999979054,3.896851e-06
363.2549999997905,0.0002678052,363.2549999997905,1.105896e-05,363.2549999997905,1.599595e-05,363.2549999997905,4.11145e-06
363.2699999997905,0.0003039129,363.2699999997905,1.105641e-05,363.2699999997905,1.650309e-05,363.2699999997905,4.165909e-06
363.2849999997905,0.000369652,363.2849999997905,1.087917e-05,363.2849999997905,1.656273e-05,363.2849999997905,4.196231e-06
363.2999999997905,0.0004217679,363.2999999997905,1.081423e-05,363.2999999997905,1.635303e-05,363.2999999997905,4.186148e-06
363.3149999997905,0.0004485665,363.3149999997905,1.084415e-05,363.3149999997905,1.596951e-05,363.3149999997905,4.094283e-06
363.32999999979046,0.0004484239,363.32999999979046,1.106151e-05,363.32999999979046,1.567572e-05,363.32999999979046,4.20294e-06
363.34499999979045,0.0004435205,363.34499999979045,1.134194e-05,363.34499999979045,1.510363e-05,363.34499999979045,4.229668e-06
363.35999999979043,0.0004396978,363.35999999979043,1.140881e-05,363.35999999979043,1.539371e-05,363.35999999979043,4.229668e-06
363.3749999997904,0.0004466911,363.3749999997904,1.240836e-05,363.3749999997904,1.50354e-05,363.3749999997904,4.272744e-06
363.3899999997904,0.0004479383,363.3899999997904,1.407534e-05,363.3899999997904,1.502133e-05,363.3899999997904,4.252917e-06
363.4049999997904,0.0004428363,363.4049999997904,2.141312e-05,363.4049999997904,1.538181e-05,363.4049999997904,4.073587e-06
363.4199999997904,0.0004311003,363.4199999997904,0.0001455457,363.4199999997904,1.585709e-05,363.4199999997904,4.083948e-06
363.43499999979036,0.0004096365,363.43499999979036,0.0001880924,363.43499999979036,1.571072e-05,363.43499999979036,4.080498e-06
363.44999999979035,0.0003984789,363.44999999979035,0.0002008409,363.44999999979035,1.555936e-05,363.44999999979035,4.042345e-06
363.46499999979034,0.0003924099,363.46499999979034,0.0002646741,363.46499999979034,1.560727e-05,363.46499999979034,4.066665e-06
363.4799999997903,0.000402197,363.4799999997903,0.0002925528,363.4799999997903,1.458551e-05,363.4799999997903,4.118297e-06
363.4949999997903,0.0004039078,363.4949999997903,0.001141821,363.4949999997903,1.301995e-05,363.4949999997903,4.038859e-06
363.5099999997903,0.0003886087,363.5099999997903,0.001701475,363.5099999997903,1.38351e-05,363.5099999997903,3.775675e-06
363.5249999997903,0.00037011,363.5249999997903,0.001944051,363.5249999997903,1.277861e-05,363.5249999997903,3.83123e-06
363.53999999979027,0.0002994292,363.53999999979027,0.002120385,363.53999999979027,1.349491e-05,363.53999999979027,3.820184e-06
363.55499999979025,0.0002061131,363.55499999979025,0.002584956,363.55499999979025,1.402219e-05,363.55499999979025,3.797995e-06
363.56999999979024,0.0001655297,363.56999999979024,0.002940927,363.56999999979024,1.351681e-05,363.56999999979024,3.749468e-06
363.5849999997902,0.0001633009,363.5849999997902,0.003224628,363.5849999997902,1.406933e-05,363.5849999997902,3.536803e-06
363.5999999997902,0.0001615884,363.5999999997902,0.00345352,363.5999999997902,1.399605e-05,363.5999999997902,3.512824e-06
363.6149999997902,0.000153524,363.6149999997902,0.003591771,363.6149999997902,1.344995e-05,363.6149999997902,3.4111e-06
363.6299999997902,0.0001532099,363.6299999997902,0.003800468,363.6299999997902,1.312341e-05,363.6299999997902,3.340158e-06
363.6449999997902,0.0001443584,363.6449999997902,0.004080585,363.6449999997902,1.288619e-05,363.6449999997902,3.263362e-06
363.65999999979016,0.0001405494,363.65999999979016,0.004317037,363.65999999979016,1.287853e-05,363.65999999979016,3.180289e-06
363.67499999979015,0.0001515488,363.67499999979015,0.004516366,363.67499999979015,1.31395e-05,363.67499999979015,3.122176e-06
363.68999999979013,0.0001806964,363.68999999979013,0.004671932,363.68999999979013,1.449736e-05,363.68999999979013,2.988471e-06
363.7049999997901,0.0001809362,363.7049999997901,0.004721723,363.7049999997901,1.437342e-05,363.7049999997901,2.813666e-06
363.7199999997901,0.0001871876,363.7199999997901,0.0048819,363.7199999997901,1.562621e-05,363.7199999997901,2.843547e-06
363.7349999997901,0.0001820807,363.7349999997901,0.004929889,363.7349999997901,2.470921e-05,363.7349999997901,2.768241e-06
363.7499999997901,0.0001813311,363.7499999997901,0.004760164,363.7499999997901,2.470978e-05,363.7499999997901,2.803635e-06
363.76499999979006,0.0001757745,363.76499999979006,0.004568851,363.76499999979006,2.508209e-05,363.76499999979006,2.727227e-06
363.77999999979005,0.0001772141,363.77999999979005,0.004424774,363.77999999979005,2.564196e-05,363.77999999979005,2.627256e-06
363.79499999979004,0.0001756547,363.79499999979004,0.004298843,363.79499999979004,2.573299e-05,363.79499999979004,2.584006e-06
363.80999999979,0.0001745557,363.80999999979,0.004130061,363.80999999979,2.565843e-05,363.80999999979,2.5676e-06
363.82499999979,0.0001757078,363.82499999979,0.003927767,363.82499999979,2.555446e-05,363.82499999979,2.584006e-06
363.83999999979,0.0001823583,363.83999999979,0.003684491,363.83999999979,2.538411e-05,363.83999999979,2.701278e-06
363.85499999979,0.0001821443,363.85499999979,0.003399421,363.85499999979,2.550922e-05,363.85499999979,2.716877e-06
363.86999999978997,0.0001729891,363.86999999978997,0.003149629,363.86999999978997,2.574339e-05,363.86999999978997,2.643292e-06
363.88499999978995,0.0001734337,363.88499999978995,0.002952617,363.88499999978995,2.607234e-05,363.88499999978995,2.742679e-06
363.89999999978994,0.0001798079,363.89999999978994,0.002685065,363.89999999978994,2.597328e-05,363.89999999978994,2.752932e-06
363.9149999997899,0.0001813487,363.9149999997899,0.002348017,363.9149999997899,2.587275e-05,363.9149999997899,2.716877e-06
363.9299999997899,0.0001669255,363.9299999997899,0.001906041,363.9299999997899,2.544564e-05,363.9299999997899,2.803635e-06
363.9449999997899,0.0001471495,363.9449999997899,0.001587254,363.9449999997899,2.500052e-05,363.9449999997899,2.813666e-06
363.9599999997899,0.0001533728,363.9599999997899,0.001332524,363.9599999997899,2.586785e-05,363.9599999997899,2.818668e-06
363.9749999997899,0.0001408203,363.9749999997899,0.0007363099,363.9749999997899,2.76544e-05,363.9749999997899,2.706488e-06
363.98999999978986,0.000137565,363.98999999978986,0.0002692916,363.98999999978986,2.483999e-05,363.98999999978986,2.680338e-06
364.00499999978985,0.0001375727,364.00499999978985,0.0002163261,364.00499999978985,3.391759e-05,364.00499999978985,2.653929e-06
364.01999999978983,0.0001411463,364.01999999978983,0.0002039662,364.01999999978983,3.767945e-05,364.01999999978983,2.643292e-06
364.0349999997898,0.0001646626,364.0349999997898,0.0001998687,364.0349999997898,4.142851e-05,364.0349999997898,2.605721e-06
364.0499999997898,0.0001807258,364.0499999997898,0.0001797194,364.0499999997898,4.269017e-05,364.0499999997898,2.589452e-06
364.0649999997898,0.0001892573,364.0649999997898,0.0001690741,364.0649999997898,4.492845e-05,364.0649999997898,2.589452e-06
364.0799999997898,0.0002122392,364.0799999997898,0.0001706243,364.0799999997898,5.353391e-05,364.0799999997898,2.611121e-06
364.09499999978976,0.0002289958,364.09499999978976,0.0001746265,364.09499999978976,6.196638e-05,364.09499999978976,2.659232e-06
364.10999999978975,0.0002363662,364.10999999978975,0.0001617482,364.10999999978975,6.371465e-05,364.10999999978975,2.763147e-06
364.12499999978974,0.0002392139,364.12499999978974,0.000139769,364.12499999978974,6.657757e-05,364.12499999978974,2.803635e-06
364.1399999997897,0.0002393058,364.1399999997897,0.0001125665,364.1399999997897,7.086101e-05,364.1399999997897,2.716877e-06
364.1549999997897,0.0002370097,364.1549999997897,9.375037e-05,364.1549999997897,7.440096e-05,364.1549999997897,2.878015e-06
364.1699999997897,0.0002432566,364.1699999997897,8.318958e-05,364.1699999997897,7.66981e-05,364.1699999997897,2.813666e-06
364.1849999997897,0.0002469852,364.1849999997897,7.678787e-05,364.1849999997897,8.046091e-05,364.1849999997897,2.983753e-06
364.19999999978967,0.0002483398,364.19999999978967,6.663615e-05,364.19999999978967,8.139564e-05,364.19999999978967,3.072146e-06
364.21499999978965,0.0003564764,364.21499999978965,5.579365e-05,364.21499999978965,8.222865e-05,364.21499999978965,3.233005e-06
364.22999999978964,0.0004587166,364.22999999978964,4.754284e-05,364.22999999978964,8.186381e-05,364.22999999978964,4.169289e-06
364.2449999997896,0.0005826681,364.2449999997896,4.247249e-05,364.2449999997896,8.102756e-05,364.2449999997896,4.299038e-06
364.2599999997896,0.0006356535,364.2599999997896,3.703121e-05,364.2599999997896,8.164792e-05,364.2599999997896,4.266145e-06
364.2749999997896,0.000641342,364.2749999997896,3.397735e-05,364.2749999997896,8.233189e-05,364.2749999997896,4.262842e-06
364.2899999997896,0.000638563,364.2899999997896,3.402458e-05,364.2899999997896,8.072938e-05,364.2899999997896,4.431347e-06
364.3049999997896,0.0006557668,364.3049999997896,3.403079e-05,364.3049999997896,8.110922e-05,364.3049999997896,4.675739e-06
364.31999999978956,0.0006630119,364.31999999978956,3.343066e-05,364.31999999978956,7.789597e-05,364.31999999978956,5.178904e-06
364.33499999978955,0.0006561014,364.33499999978955,3.233222e-05,364.33499999978955,7.528315e-05,364.33499999978955,5.08004e-06
364.34999999978953,0.0006497895,364.34999999978953,3.223973e-05,364.34999999978953,7.147737e-05,364.34999999978953,5.032679e-06
364.3649999997895,0.0006488787,364.3649999997895,3.212022e-05,364.3649999997895,7.1314e-05,364.3649999997895,5.088352e-06
364.3799999997895,0.000649217,364.3799999997895,3.227641e-05,364.3799999997895,6.875429e-05,364.3799999997895,5.104936e-06
364.3949999997895,0.0006487081,364.3949999997895,2.265343e-05,364.3949999997895,6.454103e-05,364.3949999997895,5.113207e-06
364.4099999997895,0.000643416,364.4099999997895,2.104752e-05,364.4099999997895,6.298866e-05,364.4099999997895,5.010237e-06
364.42499999978946,0.0006419756,364.42499999978946,1.866375e-05,364.42499999978946,6.313095e-05,364.42499999978946,5.068936e-06
364.43999999978945,0.0006407109,364.43999999978945,1.542296e-05,364.43999999978945,5.791528e-05,364.43999999978945,5.024275e-06
364.45499999978944,0.0006402584,364.45499999978944,1.516228e-05,364.45499999978944,5.725751e-05,364.45499999978944,4.996159e-06
364.4699999997894,0.000543124,364.4699999997894,1.466353e-05,364.4699999997894,5.746404e-05,364.4699999997894,4.660651e-06
364.4849999997894,0.0004340982,364.4849999997894,1.495366e-05,364.4849999997894,8.204996e-05,364.4849999997894,4.266145e-06
364.4999999997894,0.0003271257,364.4999999997894,1.451386e-05,364.4999999997894,8.90462e-05,364.4999999997894,4.212983e-06
364.5149999997894,0.0002266557,364.5149999997894,1.418202e-05,364.5149999997894,9.2309e-05,364.5149999997894,4.246287e-06
364.52999999978937,0.0002172908,364.52999999978937,1.359786e-05,364.52999999978937,9.147891e-05,364.52999999978937,4.246287e-06
364.54499999978935,0.0002078466,364.54499999978935,1.278853e-05,364.54499999978935,9.078565e-05,364.54499999978935,4.256228e-06
364.55999999978934,0.0001504325,364.55999999978934,1.314807e-05,364.55999999978934,9.113302e-05,364.55999999978934,4.073587e-06
364.5749999997893,0.0001170746,364.5749999997893,1.309009e-05,364.5749999997893,9.146582e-05,364.5749999997893,3.775675e-06
364.5899999997893,0.0001164113,364.5899999997893,1.344576e-05,364.5899999997893,8.965601e-05,364.5899999997893,3.805405e-06
364.6049999997893,0.000146098,364.6049999997893,1.339117e-05,364.6049999997893,8.903291e-05,364.6049999997893,4.246287e-06
364.6199999997893,0.0001581657,364.6199999997893,1.351577e-05,364.6199999997893,8.927497e-05,364.6199999997893,4.192873e-06
364.6349999997893,0.0001563503,364.6349999997893,1.313735e-05,364.6349999997893,8.932356e-05,364.6349999997893,4.242968e-06
364.64999999978926,0.000159525,364.64999999978926,1.307178e-05,364.64999999978926,8.719554e-05,364.64999999978926,4.360851e-06
364.66499999978925,0.0001660797,364.66499999978925,1.288728e-05,364.66499999978925,8.613055e-05,364.66499999978925,4.434525e-06
364.67999999978923,0.0001762676,364.67999999978923,1.300913e-05,364.67999999978923,8.57524e-05,364.67999999978923,4.52882e-06
364.6949999997892,0.0001958501,364.6949999997892,1.299179e-05,364.6949999997892,8.575585e-05,364.6949999997892,4.491339e-06
364.7099999997892,0.0002109594,364.7099999997892,1.346774e-05,364.7099999997892,8.51717e-05,364.7099999997892,4.491339e-06
364.7249999997892,0.0002110444,364.7249999997892,1.365059e-05,364.7249999997892,7.712613e-05,364.7249999997892,4.522595e-06
364.7399999997892,0.0002154047,364.7399999997892,1.407133e-05,364.7399999997892,5.570926e-05,364.7399999997892,4.553636e-06
364.75499999978916,0.0002143537,364.75499999978916,1.539828e-05,364.75499999978916,3.289503e-05,364.75499999978916,4.602866e-06
364.76999999978915,0.0002144637,364.76999999978915,1.54476e-05,364.76999999978915,3.089612e-05,364.76999999978915,4.744526e-06
364.78499999978914,0.000211202,364.78499999978914,1.540285e-05,364.78499999978914,3.313864e-05,364.78499999978914,4.738583e-06
364.7999999997891,0.0002113449,364.7999999997891,1.539188e-05,364.7999999997891,3.214784e-05,364.7999999997891,4.642481e-06
364.8149999997891,0.0002128677,364.8149999997891,1.551312e-05,364.8149999997891,3.030504e-05,364.8149999997891,4.519479e-06
364.8299999997891,0.0002161239,364.8299999997891,1.48639e-05,364.8299999997891,3.23949e-05,364.8299999997891,4.510119e-06
364.8449999997891,0.0002161034,364.8449999997891,1.538547e-05,364.8449999997891,3.380235e-05,364.8449999997891,4.525708e-06
364.85999999978907,0.0001942087,364.85999999978907,1.533044e-05,364.85999999978907,3.328582e-05,364.85999999978907,4.094283e-06
364.87499999978905,0.000183403,364.87499999978905,2.083969e-05,364.87499999978905,3.193241e-05,364.87499999978905,4.121716e-06
364.88999999978904,0.0001805367,364.88999999978904,2.930256e-05,364.88999999978904,3.554443e-05,364.88999999978904,4.049309e-06
364.904999999789,0.000202267,364.904999999789,3.259821e-05,364.904999999789,3.567379e-05,364.904999999789,3.885991e-06
364.919999999789,0.0002885188,364.919999999789,3.771606e-05,364.919999999789,3.586008e-05,364.919999999789,3.715501e-06
364.934999999789,0.0003480813,364.934999999789,4.525833e-05,364.934999999789,3.670836e-05,364.934999999789,3.611685e-06
364.949999999789,0.0003398975,364.949999999789,5.330687e-05,364.949999999789,3.696534e-05,364.949999999789,3.635012e-06
364.964999999789,0.0003472874,364.964999999789,5.425582e-05,364.964999999789,3.658459e-05,364.964999999789,3.677393e-06
364.97999999978896,0.0003554598,364.97999999978896,5.453396e-05,364.97999999978896,3.656841e-05,364.97999999978896,3.669723e-06
364.99499999978894,0.0003561024,364.99499999978894,5.469568e-05,364.99499999978894,3.648781e-05,364.99499999978894,3.56062e-06
365.00999999978893,0.000361945,365.00999999978893,5.461836e-05,365.00999999978893,3.614414e-05,365.00999999978893,3.480596e-06
365.0249999997889,0.0003679105,365.0249999997889,5.457217e-05,365.0249999997889,3.460626e-05,365.0249999997889,3.301983e-06
365.0399999997889,0.0003732179,365.0399999997889,5.462996e-05,365.0399999997889,3.263751e-05,365.0399999997889,3.228645e-06
365.0549999997889,0.0003858067,365.0549999997889,5.569965e-05,365.0549999997889,3.066317e-05,365.0549999997889,3.094987e-06
365.0699999997889,0.0003869902,365.0699999997889,5.598747e-05,365.0699999997889,3.027667e-05,365.0699999997889,3.11314e-06
365.08499999978886,0.0003863618,365.08499999978886,8.459652e-05,365.08499999978886,2.770529e-05,365.08499999978886,3.01662e-06
365.09999999978885,0.0003927202,365.09999999978885,9.367627e-05,365.09999999978885,2.700861e-05,365.09999999978885,3.025945e-06
365.11499999978884,0.0003925418,365.11499999978884,9.679823e-05,365.11499999978884,2.630793e-05,365.11499999978884,3.039879e-06
365.1299999997888,0.0004068977,365.1299999997888,9.551964e-05,365.1299999997888,2.498192e-05,365.1299999997888,2.974296e-06
365.1449999997888,0.0004098584,365.1449999997888,9.449077e-05,365.1449999997888,2.080721e-05,365.1449999997888,2.979029e-06
365.1599999997888,0.0004064874,365.1599999997888,0.0001149161,365.1599999997888,2.106558e-05,365.1599999997888,2.997883e-06
365.1749999997888,0.0003585614,365.1749999997888,0.0001320233,365.1749999997888,2.353124e-05,365.1749999997888,3.126685e-06
365.18999999978877,0.0002978493,365.18999999978877,0.0001643336,365.18999999978877,2.408447e-05,365.18999999978877,3.219907e-06
365.20499999978875,0.0003050736,365.20499999978875,0.0002120495,365.20499999978875,2.502361e-05,365.20499999978875,3.241707e-06
365.21999999978874,0.0003050508,365.21999999978874,0.0002167803,365.21999999978874,2.602259e-05,365.21999999978874,3.250386e-06
365.2349999997887,0.0003023481,365.2349999997887,0.0002281268,365.2349999997887,2.755847e-05,365.2349999997887,3.228645e-06
365.2499999997887,0.0003008352,365.2499999997887,0.0002461697,365.2499999997887,2.916233e-05,365.2499999997887,3.211145e-06
365.2649999997887,0.0003010068,365.2649999997887,0.0002495839,365.2649999997887,3.037097e-05,365.2649999997887,3.206755e-06
365.2799999997887,0.0003224823,365.2799999997887,0.0002687802,365.2799999997887,3.359795e-05,365.2799999997887,3.280583e-06
365.2949999997887,0.0003144844,365.2949999997887,0.0002813841,365.2949999997887,3.486298e-05,365.2949999997887,3.310505e-06
365.30999999978866,0.0003285098,365.30999999978866,0.0003003239,365.30999999978866,3.569195e-05,365.30999999978866,3.373728e-06
365.32499999978864,0.0003553973,365.32499999978864,0.0003052871,365.32499999978864,3.675247e-05,365.32499999978864,3.59605e-06
365.33999999978863,0.0003607993,365.33999999978863,0.0003041186,365.33999999978863,3.891786e-05,365.33999999978863,3.801702e-06
365.3549999997886,0.0003565105,365.3549999997886,0.0003214828,365.3549999997886,4.002738e-05,365.3549999997886,3.797995e-06
365.3699999997886,0.0003443644,365.3699999997886,0.0003270253,365.3699999997886,3.952734e-05,365.3699999997886,3.82387e-06
365.3849999997886,0.0003186372,365.3849999997886,0.0003269252,365.3849999997886,3.949668e-05,365.3849999997886,3.764466e-06
365.3999999997886,0.0003180093,365.3999999997886,0.0003246948,365.3999999997886,3.899452e-05,365.3999999997886,3.779404e-06
365.41499999978856,0.0002987146,365.41499999978856,0.0003075043,365.41499999978856,3.869935e-05,365.41499999978856,3.741947e-06
365.42999999978855,0.0002973781,365.42999999978855,0.0003033357,365.42999999978855,3.920098e-05,365.42999999978855,3.681221e-06
365.44499999978854,0.0003016222,365.44499999978854,0.0002803865,365.44499999978854,3.850924e-05,365.44499999978854,3.607783e-06
365.4599999997885,0.0002945111,365.4599999997885,0.0002626327,365.4599999997885,3.765738e-05,365.4599999997885,3.627253e-06
365.4749999997885,0.0002900426,365.4749999997885,0.0002560642,365.4749999997885,3.701828e-05,365.4749999997885,3.603876e-06
365.4899999997885,0.0002868351,365.4899999997885,0.0002349253,365.4899999997885,3.590522e-05,365.4899999997885,3.588207e-06
365.5049999997885,0.0002861185,365.5049999997885,0.0002150121,365.5049999997885,3.460382e-05,365.5049999997885,3.588207e-06
365.51999999978847,0.0005576011,365.51999999978847,0.0002113422,365.51999999978847,3.405106e-05,365.51999999978847,3.615583e-06
365.53499999978845,0.0008370007,365.53499999978845,0.0001935027,365.53499999978845,3.143131e-05,365.53499999978845,3.476546e-06
365.54999999978844,0.0008986587,365.54999999978844,0.000185801,365.54999999978844,2.967373e-05,365.54999999978844,3.512824e-06
365.5649999997884,0.001028373,365.5649999997884,0.0001334016,365.5649999997884,2.863047e-05,365.5649999997884,3.536803e-06
365.5799999997884,0.001091687,365.5799999997884,0.0001266685,365.5799999997884,2.666162e-05,365.5799999997884,3.390388e-06
365.5949999997884,0.001098724,365.5949999997884,0.0001002798,365.5949999997884,2.268512e-05,365.5949999997884,3.271984e-06
365.6099999997884,0.001099063,365.6099999997884,5.012007e-05,365.6099999997884,2.171167e-05,365.6099999997884,3.319004e-06
365.6249999997884,0.001102329,365.6249999997884,4.010929e-05,365.6249999997884,2.167141e-05,365.6249999997884,3.348582e-06
365.63999999978836,0.001107075,365.63999999978836,4.434588e-05,365.63999999978836,2.132676e-05,365.63999999978836,3.377901e-06
365.65499999978834,0.001112767,365.65499999978834,0.0001964936,365.65499999978834,2.023958e-05,365.65499999978834,3.356985e-06
365.66999999978833,0.001113127,365.66999999978833,0.0002749698,365.66999999978833,1.647319e-05,365.66999999978833,3.435788e-06
365.6849999997883,0.001112002,365.6849999997883,0.0003057817,365.6849999997883,1.675889e-05,365.6849999997883,3.435788e-06
365.6999999997883,0.001112414,365.6999999997883,0.0003347237,365.6999999997883,1.563162e-05,365.6999999997883,3.365367e-06
365.7149999997883,0.001113966,365.7149999997883,0.0003392401,365.7149999997883,1.545034e-05,365.7149999997883,3.352786e-06
365.7299999997883,0.001115987,365.7299999997883,0.0003409893,365.7299999997883,1.335325e-05,365.7299999997883,3.327482e-06
365.74499999978826,0.001116244,365.74499999978826,0.0003419973,365.74499999978826,1.336485e-05,365.74499999978826,3.340158e-06
365.75999999978825,0.001116047,365.75999999978825,0.0003426576,365.75999999978825,1.399806e-05,365.75999999978825,3.344373e-06
365.77499999978824,0.0008373222,365.77499999978824,0.0003455642,365.77499999978824,1.342689e-05,365.77499999978824,3.29344e-06
365.7899999997882,0.0007003716,365.7899999997882,0.0003575281,365.7899999997882,1.147161e-05,365.7899999997882,3.310505e-06
365.8049999997882,0.0006172634,365.8049999997882,0.0003621099,365.8049999997882,1.087528e-05,365.8049999997882,3.284874e-06
365.8199999997882,0.0003948885,365.8199999997882,0.0003628649,365.8199999997882,1.058648e-05,365.8199999997882,3.197958e-06
365.8349999997882,0.0002663205,365.8349999997882,0.0004523562,365.8349999997882,1.020435e-05,365.8349999997882,3.189136e-06
365.84999999978817,0.0002066413,365.84999999978817,0.0006567548,365.84999999978817,1.005696e-05,365.84999999978817,2.983753e-06
365.86499999978815,0.0002068675,365.86499999978815,0.0007011514,365.86499999978815,1.001204e-05,365.86499999978815,3.149131e-06
365.87999999978814,0.0002011473,365.87999999978814,0.0007870288,365.87999999978814,9.949936e-06,365.87999999978814,3.158065e-06
365.8949999997881,0.0001922646,365.8949999997881,0.000820314,365.8949999997881,9.719326e-06,365.8949999997881,3.171418e-06
365.9099999997881,0.0001835984,365.9099999997881,0.0007783442,365.9099999997881,9.593873e-06,365.9099999997881,3.144655e-06
365.9249999997881,0.0001830136,365.9249999997881,0.0007753508,365.9249999997881,1.266233e-05,365.9249999997881,3.053749e-06
365.9399999997881,0.0001898767,365.9399999997881,0.0007625781,365.9399999997881,1.314271e-05,365.9399999997881,3.062961e-06
365.9549999997881,0.0002543801,365.9549999997881,0.0007560283,365.9549999997881,1.505319e-05,365.9549999997881,3.11314e-06
365.96999999978806,0.0006908017,365.96999999978806,0.0007552531,365.96999999978806,1.533135e-05,365.96999999978806,3.140172e-06
365.98499999978804,0.0008728821,365.98499999978804,0.0007549006,365.98499999978804,1.480598e-05,365.98499999978804,3.140172e-06
365.99999999978803,0.001010744,365.99999999978803,0.0007542528,365.99999999978803,1.471819e-05,365.99999999978803,3.104077e-06
366.014999999788,0.001020319,366.014999999788,0.0007540983,366.014999999788,1.441648e-05,366.014999999788,3.067557e-06
366.029999999788,0.001021926,366.029999999788,0.0007515133,366.029999999788,1.439399e-05,366.029999999788,3.099535e-06
366.044999999788,0.001031825,366.044999999788,0.0007463405,366.044999999788,1.423753e-05,366.044999999788,3.099535e-06
366.059999999788,0.001038333,366.059999999788,0.0007452234,366.059999999788,1.390416e-05,366.059999999788,2.936162e-06
366.07499999978796,0.001040397,366.07499999978796,0.0007447349,366.07499999978796,1.391631e-05,366.07499999978796,2.916909e-06
366.08999999978795,0.001040363,366.08999999978795,0.0005740445,366.08999999978795,1.396481e-05,366.08999999978795,2.912075e-06
366.10499999978794,0.00103942,366.10499999978794,0.0004642706,366.10499999978794,1.396078e-05,366.10499999978794,3.01662e-06
366.1199999997879,0.001038965,366.1199999997879,0.0003773229,366.1199999997879,1.396582e-05,366.1199999997879,2.940956e-06
366.1349999997879,0.001038874,366.1349999997879,0.0001967858,366.1349999997879,1.404829e-05,366.1349999997879,2.974296e-06
366.1499999997879,0.001039814,366.1499999997879,8.537011e-05,366.1499999997879,1.415916e-05,366.1499999997879,2.940956e-06
366.1649999997879,0.001044235,366.1649999997879,0.0003111642,366.1649999997879,1.410133e-05,366.1649999997879,2.988471e-06
366.17999999978787,0.001053595,366.17999999978787,0.0003252818,366.17999999978787,1.047546e-05,366.17999999978787,2.95052e-06
366.19499999978785,0.001061826,366.19499999978785,0.0003794275,366.19499999978785,8.803689e-06,366.19499999978785,2.926552e-06
366.20999999978784,0.001017479,366.20999999978784,0.000398861,366.20999999978784,6.360578e-06,366.20999999978784,2.882905e-06
366.2249999997878,0.0007998333,366.2249999997878,0.0004002702,366.2249999997878,5.848288e-06,366.2249999997878,2.858369e-06
366.2399999997878,0.000555951,366.2399999997878,0.0004013502,366.2399999997878,5.477649e-06,366.2399999997878,2.882905e-06
366.2549999997878,0.0003757306,366.2549999997878,0.000405132,366.2549999997878,5.203327e-06,366.2549999997878,2.863294e-06
366.2699999997878,0.0003630378,366.2699999997878,0.0004076155,366.2699999997878,5.140683e-06,366.2699999997878,2.798606e-06
366.2849999997878,0.0003525258,366.2849999997878,0.000407653,366.2849999997878,5.246463e-06,366.2849999997878,2.74781e-06
366.29999999978776,0.000334095,366.29999999978776,0.0004076188,366.29999999978776,5.222243e-06,366.29999999978776,2.706488e-06
366.31499999978774,0.0003236037,366.31499999978774,0.0004088586,366.31499999978774,5.559333e-06,366.31499999978774,2.803635e-06
366.32999999978773,0.0003244448,366.32999999978773,0.0004095761,366.32999999978773,5.541568e-06,366.32999999978773,2.768241e-06
366.3449999997877,0.0003271207,366.3449999997877,0.0004104225,366.3449999997877,5.753582e-06,366.3449999997877,2.732388e-06
366.3599999997877,0.0003363288,366.3599999997877,0.0004105207,366.3599999997877,5.860319e-06,366.3599999997877,2.621889e-06
366.3749999997877,0.0003555215,366.3749999997877,0.0004105806,366.3749999997877,5.731505e-06,366.3749999997877,2.578549e-06
366.3899999997877,0.0003586714,366.3899999997877,0.0004107147,366.3899999997877,5.485359e-06,366.3899999997877,2.500897e-06
