X[s],a: EMG RMS 1-1,X[s].1,a: EMG RMS 1-2,X[s].2,a: EMG RMS 1-3,X[s].3,a: EMG RMS 1-4
337.0049999998144,0.000248298,337.0049999998144,1.193265e-05,337.0049999998144,6.983416e-06,337.0049999998144,3.452149e-06
337.0199999998144,0.0002318444,337.0199999998144,1.252925e-05,337.0199999998144,6.936866e-06,337.0199999998144,3.520835e-06
337.0349999998144,0.0002267801,337.0349999998144,1.254048e-05,337.0349999998144,7.133099e-06,337.0349999998144,3.448066e-06
337.04999999981436,0.0001979032,337.04999999981436,1.413526e-05,337.04999999981436,6.910417e-06,337.04999999981436,3.435788e-06
337.06499999981435,0.0002151867,337.06499999981435,1.552855e-05,337.06499999981435,6.906339e-06,337.06499999981435,3.382069e-06
337.07999999981433,0.0002702292,337.07999999981433,1.60118e-05,337.07999999981433,6.969281e-06,337.07999999981433,3.327482e-06
337.0949999998143,0.0002964395,337.0949999998143,1.588461e-05,337.0949999998143,7.061647e-06,337.0949999998143,3.36955e-06
337.1099999998143,0.0002968668,337.1099999998143,1.642351e-05,337.1099999998143,6.789081e-06,337.1099999998143,3.327482e-06
337.1249999998143,0.0004447296,337.1249999998143,1.645351e-05,337.1249999998143,6.424483e-06,337.1249999998143,3.319004e-06
337.1399999998143,0.000557262,337.1399999998143,1.606099e-05,337.1399999998143,6.349495e-06,337.1399999998143,3.448066e-06
337.15499999981427,0.0005653556,337.15499999981427,1.607063e-05,337.15499999981427,6.327271e-06,337.15499999981427,3.540784e-06
337.16999999981425,0.000579869,337.16999999981425,1.603026e-05,337.16999999981425,6.376062e-06,337.16999999981425,3.599965e-06
337.18499999981424,0.000586392,337.18499999981424,1.603466e-05,337.18499999981424,6.098266e-06,337.18499999981424,3.592131e-06
337.1999999998142,0.0005877317,337.1999999998142,1.603202e-05,337.1999999998142,6.098266e-06,337.1999999998142,3.552699e-06
337.2149999998142,0.0005862766,337.2149999998142,1.604519e-05,337.2149999998142,6.01219e-06,337.2149999998142,3.492716e-06
337.2299999998142,0.0005876306,337.2299999998142,1.578675e-05,337.2299999998142,5.95096e-06,337.2299999998142,3.406967e-06
337.2449999998142,0.0005957077,337.2449999998142,1.519847e-05,337.2449999998142,5.765811e-06,337.2449999998142,3.340158e-06
337.25999999981417,0.0005992815,337.25999999981417,1.460288e-05,337.25999999981417,5.821732e-06,337.25999999981417,3.166973e-06
337.27499999981416,0.0006086355,337.27499999981416,1.408534e-05,337.27499999981416,5.743781e-06,337.27499999981416,3.108612e-06
337.28999999981414,0.0006111535,337.28999999981414,1.368049e-05,337.28999999981414,5.436346e-06,337.28999999981414,3.241707e-06
337.30499999981413,0.0006091128,337.30499999981413,1.152429e-05,337.30499999981413,5.216845e-06,337.30499999981413,3.224279e-06
337.3199999998141,0.0005885152,337.3199999998141,1.03142e-05,337.3199999998141,5.286585e-06,337.3199999998141,3.259043e-06
337.3349999998141,0.0005559243,337.3349999998141,9.427989e-06,337.3349999998141,5.402556e-06,337.3349999998141,3.180289e-06
337.3499999998141,0.0005827745,337.3499999998141,8.734614e-06,337.3499999998141,5.368553e-06,337.3499999998141,3.250386e-06
337.3649999998141,0.0005997937,337.3649999998141,7.22337e-06,337.3649999998141,5.500745e-06,337.3649999998141,3.241707e-06
337.37999999981406,0.0004645722,337.37999999981406,7.083556e-06,337.37999999981406,5.503306e-06,337.37999999981406,3.197958e-06
337.39499999981405,0.0003729428,337.39499999981405,6.920602e-06,337.39499999981405,5.551726e-06,337.39499999981405,2.931361e-06
337.40999999981403,0.0003647655,337.40999999981403,6.086705e-06,337.40999999981403,5.614802e-06,337.40999999981403,2.808655e-06
337.424999999814,0.0003513644,337.424999999814,5.976941e-06,337.424999999814,5.441526e-06,337.424999999814,2.838588e-06
337.439999999814,0.0003458245,337.439999999814,6.349495e-06,337.439999999814,5.444114e-06,337.439999999814,2.853437e-06
337.454999999814,0.0003518554,337.454999999814,6.269119e-06,337.454999999814,5.344885e-06,337.454999999814,2.858369e-06
337.469999999814,0.0003565469,337.469999999814,6.58688e-06,337.469999999814,5.254512e-06,337.469999999814,2.808655e-06
337.48499999981397,0.0003458275,337.48499999981397,6.552573e-06,337.48499999981397,5.493057e-06,337.48499999981397,2.763147e-06
337.49999999981395,0.0003297303,337.49999999981395,6.608231e-06,337.49999999981395,5.612292e-06,337.49999999981395,2.798606e-06
337.51499999981394,0.0003224008,337.51499999981394,6.526725e-06,337.51499999981394,5.577042e-06,337.51499999981394,2.788521e-06
337.5299999998139,0.0003218965,337.5299999998139,6.487759e-06,337.5299999998139,5.53139e-06,337.5299999998139,2.803635e-06
337.5449999998139,0.0003393838,337.5449999998139,6.883865e-06,337.5449999998139,5.495621e-06,337.5449999998139,2.621889e-06
337.5599999998139,0.000353138,337.5599999998139,7.031661e-06,337.5599999998139,5.751133e-06,337.5599999998139,2.653929e-06
337.5749999998139,0.0003571289,337.5749999998139,7.103415e-06,337.5749999998139,5.652309e-06,337.5749999998139,2.605721e-06
337.58999999981387,0.0003560059,337.58999999981387,7.266147e-06,337.58999999981387,5.431162e-06,337.58999999981387,2.57308e-06
337.60499999981386,0.0003371697,337.60499999981386,7.339447e-06,337.60499999981386,5.469929e-06,337.60499999981386,2.616511e-06
337.61999999981384,0.000299028,337.61999999981384,7.308674e-06,337.61999999981384,5.342249e-06,337.61999999981384,2.621889e-06
337.63499999981383,0.0003225599,337.63499999981383,7.612662e-06,337.63499999981383,5.431162e-06,337.63499999981383,2.589452e-06
337.6499999998138,0.0003892023,337.6499999998138,7.515824e-06,337.6499999998138,5.490492e-06,337.6499999998138,2.659232e-06
337.6649999998138,0.0005873534,337.6649999998138,8.575109e-06,337.6649999998138,5.915346e-06,337.6649999998138,2.664524e-06
337.6799999998138,0.0006064076,337.6799999998138,1.006676e-05,337.6799999998138,6.05887e-06,337.6799999998138,2.680338e-06
337.6949999998138,0.0006206181,337.6949999998138,1.010726e-05,337.6949999998138,6.963215e-06,337.6949999998138,2.727227e-06
337.70999999981376,0.0006310891,337.70999999981376,1.091794e-05,337.70999999981376,8.258797e-06,337.70999999981376,2.742679e-06
337.72499999981375,0.0006376329,337.72499999981375,1.144825e-05,337.72499999981375,9.834591e-06,337.72499999981375,2.868209e-06
337.73999999981373,0.0006412922,337.73999999981373,1.136055e-05,337.73999999981373,1.052911e-05,337.73999999981373,2.921734e-06
337.7549999998137,0.0006424899,337.7549999998137,1.237995e-05,337.7549999998137,1.132329e-05,337.7549999998137,2.955291e-06
337.7699999998137,0.0006422173,337.7699999998137,1.286869e-05,337.7699999998137,1.31277e-05,337.7699999998137,3.011947e-06
337.7849999998137,0.0006312019,337.7849999998137,1.287525e-05,337.7849999998137,1.385443e-05,337.7849999998137,3.062961e-06
337.7999999998137,0.0006266212,337.7999999998137,1.412529e-05,337.7999999998137,1.383e-05,337.7999999998137,3.072146e-06
337.81499999981366,0.0006256775,337.81499999981366,1.480693e-05,337.81499999981366,1.397691e-05,337.81499999981366,3.035241e-06
337.82999999981365,0.0006212185,337.82999999981365,1.504008e-05,337.82999999981365,1.401114e-05,337.82999999981365,3.058359e-06
337.84499999981364,0.0005953189,337.84499999981364,1.530929e-05,337.84499999981364,1.397591e-05,337.84499999981364,3.076727e-06
337.8599999998136,0.0005745251,337.8599999998136,1.572148e-05,337.8599999998136,1.403023e-05,337.8599999998136,3.11314e-06
337.8749999998136,0.0005739545,337.8749999998136,1.584643e-05,337.8749999998136,1.406533e-05,337.8749999998136,3.301983e-06
337.8899999998136,0.0005561106,337.8899999998136,1.566403e-05,337.8899999998136,1.402219e-05,337.8899999998136,3.331712e-06
337.9049999998136,0.0004998742,337.9049999998136,1.535522e-05,337.9049999998136,1.400309e-05,337.9049999998136,3.340158e-06
337.91999999981357,0.0002899958,337.91999999981357,1.517992e-05,337.91999999981357,1.377591e-05,337.91999999981357,3.331712e-06
337.93499999981356,0.0002747039,337.93499999981356,1.435185e-05,337.93499999981356,1.365678e-05,337.93499999981356,3.331712e-06
337.94999999981354,0.0002511736,337.94999999981354,1.432925e-05,337.94999999981354,1.327708e-05,337.94999999981354,3.377901e-06
337.96499999981353,0.0002073063,337.96499999981353,1.35989e-05,337.96499999981353,1.213865e-05,337.96499999981353,3.340158e-06
337.9799999998135,0.0001911541,337.9799999998135,1.327814e-05,337.9799999998135,1.073317e-05,337.9799999998135,3.276286e-06
337.9949999998135,0.0001851786,337.9949999998135,1.307932e-05,337.9949999998135,1.004855e-05,337.9949999998135,3.237359e-06
338.0099999998135,0.0001846999,338.0099999998135,1.227367e-05,338.0099999998135,9.017113e-06,338.0099999998135,3.24605e-06
338.0249999998135,0.0001899263,338.0249999998135,1.164588e-05,338.0249999998135,6.189974e-06,338.0249999998135,3.062961e-06
338.03999999981346,0.0001913682,338.03999999981346,1.145563e-05,338.03999999981346,5.323759e-06,338.03999999981346,3.058359e-06
338.05499999981345,0.0001894984,338.05499999981345,9.631973e-06,338.05499999981345,5.323759e-06,338.05499999981345,2.997883e-06
338.06999999981343,0.0001977344,338.06999999981343,9.315255e-06,338.06999999981343,5.088352e-06,338.06999999981343,3.049133e-06
338.0849999998134,0.0001998658,338.0849999998134,8.832443e-06,338.0849999998134,5.057808e-06,338.0849999998134,3.007266e-06
338.0999999998134,0.0003420359,338.0999999998134,1.026354e-05,338.0999999998134,5.170737e-06,338.0999999998134,3.117661e-06
338.1149999998134,0.0004614666,338.1149999998134,1.22817e-05,338.1149999998134,5.355417e-06,338.1149999998134,2.997883e-06
338.1299999998134,0.000485373,338.1299999998134,1.268012e-05,338.1299999998134,5.368553e-06,338.1299999998134,2.887788e-06
338.14499999981336,0.0005166298,338.14499999981336,1.325903e-05,338.14499999981336,5.334332e-06,338.14499999981336,2.936162e-06
338.15999999981335,0.0005422012,338.15999999981335,1.378103e-05,338.15999999981335,5.339611e-06,338.15999999981335,2.931361e-06
338.17499999981334,0.000559705,338.17499999981334,1.418003e-05,338.17499999981334,5.350154e-06,338.17499999981334,2.868209e-06
338.1899999998133,0.0005961079,338.1899999998133,1.468465e-05,338.1899999998133,5.392116e-06,338.1899999998133,2.868209e-06
338.2049999998133,0.00061869,338.2049999998133,1.492632e-05,338.2049999998133,5.420777e-06,338.2049999998133,2.803635e-06
338.2199999998133,0.0006408143,338.2199999998133,1.581706e-05,338.2199999998133,5.241091e-06,338.2199999998133,2.921734e-06
338.2349999998133,0.0006598686,338.2349999998133,1.607326e-05,338.2349999998133,5.302549e-06,338.2349999998133,2.969556e-06
338.24999999981327,0.0006810591,338.24999999981327,1.687782e-05,338.24999999981327,5.173461e-06,338.24999999981327,2.988471e-06
338.26499999981326,0.00070061,338.26499999981326,1.71346e-05,338.26499999981326,5.14616e-06,338.26499999981326,3.104077e-06
338.27999999981324,0.0007177065,338.27999999981324,1.747326e-05,338.27999999981324,5.093886e-06,338.27999999981324,3.158065e-06
338.29499999981323,0.0007385341,338.29499999981323,1.780943e-05,338.29499999981323,5.055022e-06,338.29499999981323,3.211145e-06
338.3099999998132,0.0007556667,338.3099999998132,1.811295e-05,338.3099999998132,4.882076e-06,338.3099999998132,3.175857e-06
338.3249999998132,0.0007680615,338.3249999998132,1.850305e-05,338.3249999998132,4.993339e-06,338.3249999998132,3.284874e-06
338.3399999998132,0.0007863781,338.3399999998132,1.877362e-05,338.3399999998132,5.132455e-06,338.3399999998132,3.348582e-06
338.3549999998132,0.000740281,338.3549999998132,1.765531e-05,338.3549999998132,4.982041e-06,338.3549999998132,3.267676e-06
338.36999999981316,0.0006905181,338.36999999981316,1.706458e-05,338.36999999981316,4.803539e-06,338.36999999981316,3.19355e-06
338.38499999981315,0.0006760442,338.38499999981315,1.698598e-05,338.38499999981315,5.235713e-06,338.38499999981315,3.250386e-06
338.39999999981313,0.0006741114,338.39999999981313,1.660775e-05,338.39999999981313,5.168013e-06,338.39999999981313,3.202359e-06
338.4149999998131,0.0006614244,338.4149999998131,1.64458e-05,338.4149999998131,4.942298e-06,338.4149999998131,3.184716e-06
338.4299999998131,0.0006480305,338.4299999998131,1.615805e-05,338.4299999998131,4.996159e-06,338.4299999998131,3.131187e-06
338.4449999998131,0.0006416301,338.4449999998131,1.583131e-05,338.4449999998131,4.87919e-06,338.4449999998131,3.135683e-06
338.4599999998131,0.0006209894,338.4599999998131,1.588815e-05,338.4599999998131,4.887844e-06,338.4599999998131,3.117661e-06
338.47499999981306,0.0006046502,338.47499999981306,1.528534e-05,338.47499999981306,4.979213e-06,338.47499999981306,3.319004e-06
338.48999999981305,0.0005907883,338.48999999981305,1.497437e-05,338.48999999981305,5.00461e-06,338.48999999981305,3.219907e-06
338.50499999981304,0.0005808352,338.50499999981304,1.460674e-05,338.50499999981304,5.102175e-06,338.50499999981304,3.158065e-06
338.519999999813,0.0005571927,338.519999999813,1.422764e-05,338.519999999813,5.246463e-06,338.519999999813,3.067557e-06
338.534999999813,0.0005447532,338.534999999813,1.406232e-05,338.534999999813,5.61731e-06,338.534999999813,3.044509e-06
338.549999999813,0.000530017,338.549999999813,1.415916e-05,338.549999999813,5.602244e-06,338.549999999813,3.039879e-06
338.564999999813,0.0005072086,338.564999999813,1.403023e-05,338.564999999813,5.477649e-06,338.564999999813,3.076727e-06
338.57999999981297,0.0004968846,338.57999999981297,1.350222e-05,338.57999999981297,5.503306e-06,338.57999999981297,2.931361e-06
338.59499999981296,0.0004869743,338.59499999981296,1.380758e-05,338.59499999981296,5.498184e-06,338.59499999981296,2.873116e-06
338.60999999981294,0.0004768753,338.60999999981294,1.325903e-05,338.60999999981294,5.526294e-06,338.60999999981294,2.863294e-06
338.6249999998129,0.0004669583,338.6249999998129,1.292548e-05,338.6249999998129,5.254512e-06,338.6249999998129,2.887788e-06
338.6399999998129,0.0004594303,338.6399999998129,1.281493e-05,338.6399999998129,5.137942e-06,338.6399999998129,2.873116e-06
338.6549999998129,0.000456522,338.6549999998129,1.278522e-05,338.6549999998129,5.195198e-06,338.6549999998129,2.892662e-06
338.6699999998129,0.0004485329,338.6699999998129,1.302428e-05,338.6699999998129,5.178904e-06,338.6699999998129,3.039879e-06
338.6849999998129,0.0004426422,338.6849999998129,1.264118e-05,338.6849999998129,5.140683e-06,338.6849999998129,3.021286e-06
338.69999999981286,0.0004401392,338.69999999981286,1.2601e-05,338.69999999981286,5.154366e-06,338.69999999981286,3.021286e-06
338.71499999981285,0.0004354232,338.71499999981285,1.255396e-05,338.71499999981285,5.214144e-06,338.71499999981285,3.11314e-06
338.72999999981283,0.0004230317,338.72999999981283,1.223459e-05,338.72999999981283,5.041069e-06,338.72999999981283,2.960054e-06
338.7449999998128,0.0004111765,338.7449999998128,1.18295e-05,338.7449999998128,5.582091e-06,338.7449999998128,2.916909e-06
338.7599999998128,0.000400939,338.7599999998128,1.174825e-05,338.7599999998128,5.845879e-06,338.7599999998128,2.912075e-06
338.7749999998128,0.000387742,338.7749999998128,1.156456e-05,338.7749999998128,5.941484e-06,338.7749999998128,2.931361e-06
338.7899999998128,0.0003743508,338.7899999998128,1.080381e-05,338.7899999998128,5.526294e-06,338.7899999998128,2.993181e-06
338.80499999981276,0.0003592438,338.80499999981276,1.049024e-05,338.80499999981276,5.659781e-06,338.80499999981276,3.053749e-06
338.81999999981275,0.0003403925,338.81999999981275,1.008912e-05,338.81999999981275,6.070483e-06,338.81999999981275,3.206755e-06
338.83499999981274,0.0003241509,338.83499999981274,9.90026e-06,338.83499999981274,6.269119e-06,338.83499999981274,3.202359e-06
338.8499999998127,0.0003031795,338.8499999998127,9.115002e-06,338.8499999998127,6.293787e-06,338.8499999998127,3.202359e-06
338.8649999998127,0.0002884436,338.8649999998127,8.903924e-06,338.8649999998127,6.351713e-06,338.8649999998127,3.211145e-06
338.8799999998127,0.0002625983,338.8799999998127,8.42262e-06,338.8799999998127,6.431058e-06,338.8799999998127,3.189136e-06
338.8949999998127,0.0002464997,338.8949999998127,8.042764e-06,338.8949999998127,6.618881e-06,338.8949999998127,3.153601e-06
338.90999999981267,0.0002087531,338.90999999981267,7.349037e-06,338.90999999981267,6.65708e-06,338.90999999981267,3.090432e-06
338.92499999981266,0.0001934089,338.92499999981266,7.168558e-06,338.92499999981266,6.690851e-06,338.92499999981266,3.002579e-06
338.93999999981264,0.0001550066,338.93999999981264,6.64861e-06,338.93999999981264,6.709772e-06,338.93999999981264,3.007266e-06
338.9549999998126,0.0001303784,338.9549999998126,6.313899e-06,338.9549999998126,6.7391e-06,338.9549999998126,2.955291e-06
338.9699999998126,9.559718e-05,338.9699999998126,5.920107e-06,338.9699999998126,7.003558e-06,338.9699999998126,2.843547e-06
338.9849999998126,9.243908e-05,338.9849999998126,5.857914e-06,338.9849999998126,6.973323e-06,338.9849999998126,2.897527e-06
338.9999999998126,0.0001051574,338.9999999998126,6.007502e-06,338.9999999998126,6.353931e-06,338.9999999998126,2.931361e-06
339.0149999998126,0.0001070793,339.0149999998126,6.289309e-06,339.0149999998126,6.402519e-06,339.0149999998126,2.940956e-06
339.02999999981256,0.0001057695,339.02999999981256,6.040241e-06,339.02999999981256,6.307202e-06,339.02999999981256,3.011947e-06
339.04499999981255,0.0001313067,339.04499999981255,6.904299e-06,339.04499999981255,6.208153e-06,339.04499999981255,3.067557e-06
339.05999999981253,0.0001351442,339.05999999981253,7.289374e-06,339.05999999981253,6.371642e-06,339.05999999981253,3.072146e-06
339.0749999998125,0.0001517206,339.0749999998125,7.314453e-06,339.0749999998125,6.051891e-06,339.0749999998125,2.945742e-06
339.0899999998125,0.000156008,339.0899999998125,7.258388e-06,339.0899999998125,5.991066e-06,339.0899999998125,2.926552e-06
339.1049999998125,0.0001599989,339.1049999998125,7.335607e-06,339.1049999998125,5.929618e-06,339.1049999998125,2.907234e-06
339.1199999998125,0.0001661451,339.1199999998125,7.530803e-06,339.1199999998125,5.993417e-06,339.1199999998125,3.025945e-06
339.13499999981246,0.0001715946,339.13499999981246,7.854914e-06,339.13499999981246,5.807196e-06,339.13499999981246,3.104077e-06
339.14999999981245,0.0001757736,339.14999999981245,7.945849e-06,339.14999999981245,5.704405e-06,339.14999999981245,3.090432e-06
339.16499999981244,0.0001801421,339.16499999981244,8.202317e-06,339.16499999981244,5.760922e-06,339.16499999981244,3.184716e-06
339.1799999998124,0.0001823338,339.1799999998124,8.340267e-06,339.1799999998124,5.915346e-06,339.1799999998124,3.280583e-06
339.1949999998124,0.0001906063,339.1949999998124,8.417602e-06,339.1949999998124,6.054217e-06,339.1949999998124,3.331712e-06
339.2099999998124,0.0001950138,339.2099999998124,8.545489e-06,339.2099999998124,6.280343e-06,339.2099999998124,3.415227e-06
339.2249999998124,0.0002037007,339.2249999998124,8.715239e-06,339.2249999998124,6.070483e-06,339.2249999998124,3.386231e-06
339.23999999981237,0.0002175045,339.23999999981237,8.800488e-06,339.23999999981237,6.264623e-06,339.23999999981237,3.348582e-06
339.25499999981236,0.0002413684,339.25499999981236,8.854743e-06,339.25499999981236,6.102884e-06,339.25499999981236,3.452149e-06
339.26999999981234,0.0002581352,339.26999999981234,8.781259e-06,339.26999999981234,6.009847e-06,339.26999999981234,3.476546e-06
339.2849999998123,0.0002736568,339.2849999998123,8.878575e-06,339.2849999998123,6.316129e-06,339.2849999998123,3.331712e-06
339.2999999998123,0.0002815234,339.2999999998123,8.848378e-06,339.2999999998123,6.347276e-06,339.2999999998123,3.280583e-06
339.3149999998123,0.0003072392,339.3149999998123,8.853152e-06,339.3149999998123,6.123622e-06,339.3149999998123,3.331712e-06
339.3299999998123,0.0003074373,339.3299999998123,8.99365e-06,339.3299999998123,6.035575e-06,339.3299999998123,3.335938e-06
339.3449999998123,0.000318077,339.3449999998123,9.216436e-06,339.3449999998123,6.079758e-06,339.3449999998123,3.276286e-06
339.35999999981226,0.0003301926,339.35999999981226,9.710626e-06,339.35999999981226,6.095956e-06,339.35999999981226,3.237359e-06
339.37499999981225,0.0003412581,339.37499999981225,9.754049e-06,339.37499999981225,6.028569e-06,339.37499999981225,3.310505e-06
339.38999999981223,0.0003519513,339.38999999981223,9.891719e-06,339.38999999981223,5.848288e-06,339.38999999981223,3.352786e-06
339.4049999998122,0.0003618218,339.4049999998122,9.917319e-06,339.4049999998122,5.872325e-06,339.4049999998122,3.306247e-06
339.4199999998122,0.0003843312,339.4199999998122,1.004154e-05,339.4199999998122,5.733962e-06,339.4199999998122,3.140172e-06
339.4349999998122,0.0003989619,339.4349999998122,1.010168e-05,339.4349999998122,5.667242e-06,339.4349999998122,3.044509e-06
339.4499999998122,0.0004034222,339.4499999998122,1.035645e-05,339.4499999998122,5.397339e-06,339.4499999998122,2.974296e-06
339.46499999981216,0.0004110732,339.46499999981216,1.026903e-05,339.46499999981216,5.302549e-06,339.46499999981216,3.002579e-06
339.47999999981215,0.0004200373,339.47999999981215,1.031966e-05,339.47999999981215,4.962209e-06,339.47999999981215,3.021286e-06
339.49499999981214,0.0003971431,339.49499999981214,1.008214e-05,339.49499999981214,4.976383e-06,339.49499999981214,2.916909e-06
339.5099999998121,0.0003994314,339.5099999998121,1.05745e-05,339.5099999998121,4.953686e-06,339.5099999998121,2.813666e-06
339.5249999998121,0.0003865588,339.5249999998121,1.067922e-05,339.5249999998121,5.024275e-06,339.5249999998121,2.823661e-06
339.5399999998121,0.0004096455,339.5399999998121,1.049964e-05,339.5399999998121,5.148897e-06,339.5399999998121,2.768241e-06
339.5549999998121,0.0004109903,339.5549999998121,1.018224e-05,339.5549999998121,5.168013e-06,339.5549999998121,2.788521e-06
339.56999999981207,0.00044059,339.56999999981207,9.878894e-06,339.56999999981207,5.451871e-06,339.56999999981207,2.664524e-06
339.58499999981206,0.000546967,339.58499999981206,1.013231e-05,339.58499999981206,5.402556e-06,339.58499999981206,2.632612e-06
339.59999999981204,0.0005880711,339.59999999981204,1.013509e-05,339.59999999981204,5.819312e-06,339.59999999981204,2.611121e-06
339.614999999812,0.0006649373,339.614999999812,9.769921e-06,339.614999999812,5.843468e-06,339.614999999812,2.517739e-06
339.629999999812,0.0006720698,339.629999999812,9.732362e-06,339.629999999812,5.797484e-06,339.629999999812,2.528904e-06
339.644999999812,0.000674412,339.644999999812,9.637821e-06,339.644999999812,6.539662e-06,339.644999999812,2.483942e-06
339.659999999812,0.0007118438,339.659999999812,9.316767e-06,339.659999999812,7.442368e-06,339.659999999812,2.578549e-06
339.674999999812,0.0007350124,339.674999999812,9.86748e-06,339.674999999812,9.207261e-06,339.674999999812,2.758045e-06
339.68999999981196,0.0007312274,339.68999999981196,9.742488e-06,339.68999999981196,9.965496e-06,339.68999999981196,2.828646e-06
339.70499999981195,0.0007291771,339.70499999981195,1.042559e-05,339.70499999981195,1.001907e-05,339.70499999981195,2.882905e-06
339.71999999981193,0.0007312385,339.71999999981193,1.038633e-05,339.71999999981193,1.016008e-05,339.71999999981193,2.897527e-06
339.7349999998119,0.0007316995,339.7349999998119,1.042153e-05,339.7349999998119,1.051706e-05,339.7349999998119,2.912075e-06
339.7499999998119,0.000730445,339.7499999998119,1.035237e-05,339.7499999998119,1.0972e-05,339.7499999998119,2.936162e-06
339.7649999998119,0.0007300958,339.7649999998119,9.930095e-06,339.7649999998119,1.098098e-05,339.7649999998119,3.011947e-06
339.7799999998119,0.0007269808,339.7799999998119,1.018086e-05,339.7799999998119,1.082855e-05,339.7799999998119,3.067557e-06
339.79499999981186,0.0006885243,339.79499999981186,1.031146e-05,339.79499999981186,1.068186e-05,339.79499999981186,3.180289e-06
339.80999999981185,0.0006693336,339.80999999981185,1.032784e-05,339.80999999981185,1.071741e-05,339.80999999981185,3.166973e-06
339.82499999981184,0.0006491988,339.82499999981184,1.052644e-05,339.82499999981184,1.070689e-05,339.82499999981184,3.171418e-06
339.8399999998118,0.0005778892,339.8399999998118,9.931514e-06,339.8399999998118,1.059845e-05,339.8399999998118,3.184716e-06
339.8549999998118,0.0005051203,339.8549999998118,9.62173e-06,339.8549999998118,1.03809e-05,339.8549999998118,3.448066e-06
339.8699999998118,0.0004035156,339.8699999998118,9.593873e-06,339.8699999998118,1.029779e-05,339.8699999998118,3.464369e-06
339.8849999998118,0.0003940387,339.8849999998118,9.430977e-06,339.8849999998118,1.030053e-05,339.8849999998118,3.377901e-06
339.89999999981177,0.0003647767,339.89999999981177,9.546771e-06,339.89999999981177,9.856052e-06,339.89999999981177,3.241707e-06
339.91499999981176,0.0003214635,339.91499999981176,9.445902e-06,339.91499999981176,9.307691e-06,339.91499999981176,3.340158e-06
339.92999999981174,0.0002492402,339.92999999981174,8.726546e-06,339.92999999981174,7.304818e-06,339.92999999981174,3.206755e-06
339.9449999998117,0.0002281824,339.9449999998117,8.133331e-06,339.9449999998117,6.75163e-06,339.9449999998117,3.090432e-06
339.9599999998117,0.0002174706,339.9599999998117,7.24479e-06,339.9599999998117,6.867475e-06,339.9599999998117,3.099535e-06
339.9749999998117,0.0001829858,339.9749999998117,7.10738e-06,339.9749999998117,6.883865e-06,339.9749999998117,3.104077e-06
339.9899999998117,0.000174486,339.9899999998117,7.035667e-06,339.9899999998117,6.4921e-06,339.9899999998117,3.11314e-06
340.0049999998117,0.0001673417,340.0049999998117,7.00959e-06,340.0049999998117,6.105191e-06,340.0049999998117,3.067557e-06
340.01999999981166,0.0001678568,340.01999999981166,6.865424e-06,340.01999999981166,6.205884e-06,340.01999999981166,2.983753e-06
340.03499999981165,0.0001677733,340.03499999981165,6.459471e-06,340.03499999981165,6.19907e-06,340.03499999981165,2.974296e-06
340.04999999981163,0.0001602734,340.04999999981163,5.972226e-06,340.04999999981163,6.269119e-06,340.04999999981163,2.823661e-06
340.0649999998116,0.0001529809,340.0649999998116,6.329497e-06,340.0649999998116,6.342836e-06,340.0649999998116,2.926552e-06
340.0799999998116,0.0001554279,340.0799999998116,6.358363e-06,340.0799999998116,6.42229e-06,340.0799999998116,2.993181e-06
340.0949999998116,0.0001588852,340.0949999998116,6.205884e-06,340.0949999998116,6.470365e-06,340.0949999998116,2.979029e-06
340.1099999998116,0.0001566147,340.1099999998116,6.417902e-06,340.1099999998116,6.345057e-06,340.1099999998116,2.706488e-06
340.12499999981156,0.0001557486,340.12499999981156,6.387099e-06,340.12499999981156,6.162605e-06,340.12499999981156,2.711688e-06
340.13999999981155,0.0001609638,340.13999999981155,6.442001e-06,340.13999999981155,6.296025e-06,340.13999999981155,2.742679e-06
340.15499999981154,0.0001606846,340.15499999981154,6.257873e-06,340.15499999981154,6.171741e-06,340.15499999981154,2.727227e-06
340.1699999998115,0.0001651851,340.1699999998115,6.196798e-06,340.1699999998115,5.905813e-06,340.1699999998115,2.653929e-06
340.1849999998115,0.0002051978,340.1849999998115,6.19225e-06,340.1849999998115,6.11211e-06,340.1849999998115,2.737538e-06
340.1999999998115,0.0002073084,340.1999999998115,6.293787e-06,340.1999999998115,6.203613e-06,340.1999999998115,2.768241e-06
340.2149999998115,0.0002139783,340.2149999998115,6.338393e-06,340.2149999998115,6.023894e-06,340.2149999998115,2.737538e-06
340.22999999981147,0.0002395663,340.22999999981147,6.158032e-06,340.22999999981147,5.701935e-06,340.22999999981147,2.643292e-06
340.24499999981145,0.0002599496,340.24499999981145,6.244353e-06,340.24499999981145,5.765811e-06,340.24499999981145,2.616511e-06
340.25999999981144,0.0002596461,340.25999999981144,6.185421e-06,340.25999999981144,5.669728e-06,340.25999999981144,2.680338e-06
340.2749999998114,0.0002605348,340.2749999998114,6.141998e-06,340.2749999998114,5.672212e-06,340.2749999998114,2.798606e-06
340.2899999998114,0.0002663567,340.2899999998114,6.369431e-06,340.2899999998114,5.701935e-06,340.2899999998114,2.838588e-06
340.3049999998114,0.0002800055,340.3049999998114,6.33617e-06,340.3049999998114,5.48279e-06,340.3049999998114,2.940956e-06
340.3199999998114,0.0002943033,340.3199999998114,6.000464e-06,340.3199999998114,5.334332e-06,340.3199999998114,2.828646e-06
340.3349999998114,0.0002914699,340.3349999998114,5.93674e-06,340.3349999998114,5.389503e-06,340.3349999998114,2.897527e-06
340.34999999981136,0.0002994247,340.34999999981136,5.773135e-06,340.34999999981136,5.436346e-06,340.34999999981136,2.897527e-06
340.36499999981135,0.0003082371,340.36499999981135,5.765811e-06,340.36499999981135,5.574516e-06,340.36499999981135,2.863294e-06
340.37999999981133,0.0003123819,340.37999999981133,5.674694e-06,340.37999999981133,5.536481e-06,340.37999999981133,2.902385e-06
340.3949999998113,0.0003309551,340.3949999998113,5.667242e-06,340.3949999998113,5.498184e-06,340.3949999998113,2.868209e-06
340.4099999998113,0.0003484743,340.4099999998113,5.632336e-06,340.4099999998113,5.513535e-06,340.4099999998113,2.907234e-06
340.4249999998113,0.000336867,340.4249999998113,6.061194e-06,340.4249999998113,5.503306e-06,340.4249999998113,2.940956e-06
340.4399999998113,0.0003243441,340.4399999998113,6.137409e-06,340.4399999998113,5.241091e-06,340.4399999998113,2.887788e-06
340.45499999981126,0.0003208937,340.45499999981126,6.302733e-06,340.45499999981126,5.181623e-06,340.45499999981126,2.828646e-06
340.46999999981125,0.0003106745,340.46999999981125,6.42229e-06,340.46999999981125,5.238403e-06,340.46999999981125,2.843547e-06
340.48499999981124,0.0002904347,340.48499999981124,6.559019e-06,340.48499999981124,5.187057e-06,340.48499999981124,2.863294e-06
340.4999999998112,0.0002741604,340.4999999998112,6.485587e-06,340.4999999998112,5.546649e-06,340.4999999998112,2.887788e-06
340.5149999998112,0.0002749324,340.5149999998112,6.759971e-06,340.5149999998112,5.554263e-06,340.5149999998112,2.868209e-06
340.5299999998112,0.0002745577,340.5299999998112,6.539662e-06,340.5299999998112,5.602244e-06,340.5299999998112,2.788521e-06
340.5449999998112,0.0002663581,340.5449999998112,6.393712e-06,340.5449999998112,5.768253e-06,340.5449999998112,2.798606e-06
340.55999999981117,0.0002545151,340.55999999981117,6.311667e-06,340.55999999981117,6.139704e-06,340.55999999981117,2.711688e-06
340.57499999981115,0.0002432386,340.57499999981115,6.246608e-06,340.57499999981115,6.481242e-06,340.57499999981115,2.616511e-06
340.58999999981114,0.0002348313,340.58999999981114,6.201342e-06,340.58999999981114,6.54612e-06,340.58999999981114,2.706488e-06
340.6049999998111,0.0001781869,340.6049999998111,6.180865e-06,340.6049999998111,6.446372e-06,340.6049999998111,2.742679e-06
340.6199999998111,0.0001636758,340.6199999998111,6.189974e-06,340.6199999998111,6.387099e-06,340.6199999998111,2.648616e-06
340.6349999998111,0.0001445302,340.6349999998111,6.233063e-06,340.6349999998111,6.296025e-06,340.6349999998111,2.664524e-06
340.6499999998111,0.0001245795,340.6499999998111,6.210422e-06,340.6499999998111,6.340615e-06,340.6499999998111,2.653929e-06
340.6649999998111,9.947117e-05,340.6649999998111,6.116717e-06,340.6649999998111,6.371642e-06,340.6649999998111,2.578549e-06
340.67999999981106,8.888881e-05,340.67999999981106,5.632336e-06,340.67999999981106,6.466009e-06,340.67999999981106,2.57308e-06
340.69499999981105,8.296593e-05,340.69499999981105,5.48279e-06,340.69499999981105,6.389304e-06,340.69499999981105,2.648616e-06
340.70999999981103,8.217879e-05,340.70999999981103,5.415577e-06,340.70999999981103,6.563313e-06,340.70999999981103,2.742679e-06
340.724999999811,8.199912e-05,340.724999999811,5.814468e-06,340.724999999811,6.603967e-06,340.724999999811,2.722057e-06
340.739999999811,7.820658e-05,340.739999999811,5.709342e-06,340.739999999811,6.426676e-06,340.739999999811,2.758045e-06
340.754999999811,7.100459e-05,340.754999999811,5.637336e-06,340.754999999811,6.302733e-06,340.754999999811,2.732388e-06
340.769999999811,6.167038e-05,340.769999999811,5.541568e-06,340.769999999811,6.533196e-06,340.769999999811,2.696058e-06
340.78499999981096,6.466859e-05,340.78499999981096,5.632336e-06,340.78499999981096,6.485587e-06,340.78499999981096,2.680338e-06
340.79999999981095,6.527329e-05,340.79999999981095,5.627332e-06,340.79999999981095,6.187698e-06,340.79999999981095,2.632612e-06
340.81499999981094,6.589574e-05,340.81499999981094,5.634837e-06,340.81499999981094,6.322817e-06,340.81499999981094,2.680338e-06
340.8299999998109,6.869793e-05,340.8299999998109,6.571893e-06,340.8299999998109,5.770695e-06,340.8299999998109,2.696058e-06
340.8449999998109,6.886361e-05,340.8449999998109,6.614623e-06,340.8449999998109,5.75603e-06,340.8449999998109,2.611121e-06
340.8599999998109,6.589211e-05,340.8599999998109,7.105398e-06,340.8599999998109,5.743781e-06,340.8599999998109,2.621889e-06
340.8749999998109,6.56887e-05,340.8749999998109,7.10738e-06,340.8749999998109,5.462197e-06,340.8749999998109,2.616511e-06
340.88999999981087,6.67082e-05,340.88999999981087,7.140994e-06,340.88999999981087,5.743781e-06,340.88999999981087,2.675077e-06
340.90499999981085,6.786384e-05,340.90499999981085,7.215565e-06,340.90499999981085,5.753582e-06,340.90499999981085,2.716877e-06
340.91999999981084,6.921517e-05,340.91999999981084,7.362442e-06,340.91999999981084,5.679657e-06,340.91999999981084,2.808655e-06
340.9349999998108,6.798909e-05,340.9349999998108,7.551351e-06,340.9349999998108,5.577042e-06,340.9349999998108,2.711688e-06
340.9499999998108,6.82127e-05,340.9499999998108,7.590424e-06,340.9499999998108,5.405162e-06,340.9499999998108,2.768241e-06
340.9649999998108,8.210316e-05,340.9649999998108,7.352869e-06,340.9649999998108,5.2679e-06,340.9649999998108,2.690828e-06
340.9799999998108,0.0001011694,340.9799999998108,7.061647e-06,340.9799999998108,5.249148e-06,340.9799999998108,2.711688e-06
340.9949999998108,0.0001208968,340.9949999998108,7.172487e-06,340.9949999998108,5.313164e-06,340.9949999998108,2.664524e-06
341.00999999981076,0.0001257413,341.00999999981076,7.219469e-06,341.00999999981076,5.318464e-06,341.00999999981076,2.732388e-06
341.02499999981075,0.0001258393,341.02499999981075,7.164627e-06,341.02499999981075,5.162558e-06,341.02499999981075,2.685588e-06
341.03999999981073,0.000125242,341.03999999981073,7.15282e-06,341.03999999981073,5.381656e-06,341.03999999981073,2.727227e-06
341.0549999998107,0.000125669,341.0549999998107,7.176414e-06,341.0549999998107,5.2679e-06,341.0549999998107,2.732388e-06
341.0699999998107,0.0001251107,341.0699999998107,6.924671e-06,341.0699999998107,4.990517e-06,341.0699999998107,2.690828e-06
341.0849999998107,0.00012223,341.0849999998107,6.293787e-06,341.0849999998107,5.168013e-06,341.0849999998107,2.902385e-06
341.0999999998107,0.0001182576,341.0999999998107,5.95096e-06,341.0999999998107,5.104936e-06,341.0999999998107,2.960054e-06
341.11499999981066,0.0001181698,341.11499999981066,5.706874e-06,341.11499999981066,5.077266e-06,341.11499999981066,2.960054e-06
341.12999999981065,0.0001199932,341.12999999981065,5.826569e-06,341.12999999981065,5.170737e-06,341.12999999981065,3.044509e-06
341.14499999981064,0.000120118,341.14499999981064,5.809621e-06,341.14499999981064,5.121465e-06,341.14499999981064,3.002579e-06
341.1599999998106,0.0001190495,341.1599999998106,5.516089e-06,341.1599999998106,5.227635e-06,341.1599999998106,2.887788e-06
341.1749999998106,0.0001174391,341.1749999998106,5.368553e-06,341.1749999998106,5.360675e-06,341.1749999998106,2.843547e-06
341.1899999998106,0.0001173007,341.1899999998106,5.082812e-06,341.1899999998106,5.433755e-06,341.1899999998106,2.921734e-06
341.2049999998106,0.000117008,341.2049999998106,5.243778e-06,341.2049999998106,5.533936e-06,341.2049999998106,2.843547e-06
341.21999999981057,9.805126e-05,341.21999999981057,5.634837e-06,341.21999999981057,5.459618e-06,341.21999999981057,2.907234e-06
341.23499999981055,8.786775e-05,341.23499999981055,5.561867e-06,341.23499999981055,5.508422e-06,341.23499999981055,2.892662e-06
341.24999999981054,5.354785e-05,341.24999999981054,5.551726e-06,341.24999999981054,5.363302e-06,341.24999999981054,2.828646e-06
341.2649999998105,4.419729e-05,341.2649999998105,5.449287e-06,341.2649999998105,5.096651e-06,341.2649999998105,2.813666e-06
341.2799999998105,4.367371e-05,341.2799999998105,5.368553e-06,341.2799999998105,4.867628e-06,341.2799999998105,2.788521e-06
341.2949999998105,4.73317e-05,341.2949999998105,5.410373e-06,341.2949999998105,5.029879e-06,341.2949999998105,2.788521e-06
341.3099999998105,5.190017e-05,341.3099999998105,5.48022e-06,341.3099999998105,4.984868e-06,341.3099999998105,2.808655e-06
341.3249999998105,5.219464e-05,341.3249999998105,5.485359e-06,341.3249999998105,4.973552e-06,341.3249999998105,2.752932e-06
341.33999999981046,5.099579e-05,341.33999999981046,5.536481e-06,341.33999999981046,4.936594e-06,341.33999999981046,2.594886e-06
341.35499999981045,5.155049e-05,341.35499999981045,5.503306e-06,341.35499999981045,4.850233e-06,341.35499999981045,2.528904e-06
341.36999999981043,4.992182e-05,341.36999999981043,5.441526e-06,341.36999999981043,4.809401e-06,341.36999999981043,2.500897e-06
341.3849999998104,4.61683e-05,341.3849999998104,5.384273e-06,341.3849999998104,4.861837e-06,341.3849999998104,2.500897e-06
341.3999999998104,4.276567e-05,341.3999999998104,5.389503e-06,341.3999999998104,4.956529e-06,341.3999999998104,2.500897e-06
341.4149999998104,3.952377e-05,341.4149999998104,5.677176e-06,341.4149999998104,4.864733e-06,341.4149999998104,2.506524e-06
341.4299999998104,3.541022e-05,341.4299999998104,5.751133e-06,341.4299999998104,4.774123e-06,341.4299999998104,2.443922e-06
341.44499999981036,3.519835e-05,341.44499999981036,5.714275e-06,341.44499999981036,4.815255e-06,341.44499999981036,2.46687e-06
341.45999999981035,3.432753e-05,341.45999999981035,5.528843e-06,341.45999999981035,5.235713e-06,341.45999999981035,2.46687e-06
341.47499999981034,3.378485e-05,341.47499999981034,5.541568e-06,341.47499999981034,5.423375e-06,341.47499999981034,2.420756e-06
341.4899999998103,3.276072e-05,341.4899999998103,6.291548e-06,341.4899999998103,5.412975e-06,341.4899999998103,2.443922e-06
341.5049999998103,3.105982e-05,341.5049999998103,6.327271e-06,341.5049999998103,5.612292e-06,341.5049999998103,2.46687e-06
341.5199999998103,6.005063e-05,341.5199999998103,6.340615e-06,341.5199999998103,5.743781e-06,341.5199999998103,2.483942e-06
341.5349999998103,6.016148e-05,341.5349999998103,6.331722e-06,341.5349999998103,6.021555e-06,341.5349999998103,2.461153e-06
341.54999999981027,7.234439e-05,341.54999999981027,6.977362e-06,341.54999999981027,5.965146e-06,341.54999999981027,2.54556e-06
341.56499999981025,7.903775e-05,341.56499999981025,7.190141e-06,341.56499999981025,5.979298e-06,341.56499999981025,2.495258e-06
341.57999999981024,0.0001032251,341.57999999981024,8.561957e-06,341.57999999981024,5.891484e-06,341.57999999981024,2.637958e-06
341.5949999998102,0.0001697055,341.5949999998102,1.135931e-05,341.5949999998102,5.931993e-06,341.5949999998102,2.643292e-06
341.6099999998102,0.0001911163,341.6099999998102,1.196213e-05,341.6099999998102,6.116717e-06,341.6099999998102,2.632612e-06
341.6249999998102,0.0002236417,341.6249999998102,1.417805e-05,341.6249999998102,6.953093e-06,341.6249999998102,2.632612e-06
341.6399999998102,0.000234676,341.6399999998102,1.577336e-05,341.6399999998102,6.995509e-06,341.6399999998102,2.632612e-06
341.6549999998102,0.0002384652,341.6549999998102,1.582864e-05,341.6549999998102,7.813558e-06,341.6549999998102,2.716877e-06
341.66999999981016,0.0002397571,341.66999999981016,1.578229e-05,341.66999999981016,8.946537e-06,341.66999999981016,2.706488e-06
341.68499999981015,0.0002513455,341.68499999981015,1.576443e-05,341.68499999981015,9.735256e-06,341.68499999981015,2.722057e-06
341.69999999981013,0.0002555285,341.69999999981013,1.592092e-05,341.69999999981013,9.571822e-06,341.69999999981013,2.722057e-06
341.7149999998101,0.0002560043,341.7149999998101,1.617374e-05,341.7149999998101,9.583589e-06,341.7149999998101,2.763147e-06
341.7299999998101,0.0002571348,341.7299999998101,1.605836e-05,341.7299999998101,9.838886e-06,341.7299999998101,2.768241e-06
341.7449999998101,0.0002585272,341.7449999998101,1.594479e-05,341.7449999998101,1.0462e-05,341.7449999998101,3.025945e-06
341.7599999998101,0.0002579307,341.7599999998101,1.623459e-05,341.7599999998101,1.052911e-05,341.7599999998101,3.189136e-06
341.77499999981006,0.0002544074,341.77499999981006,1.652186e-05,341.77499999981006,1.039853e-05,341.77499999981006,3.377901e-06
341.78999999981005,0.0002542289,341.78999999981005,1.674627e-05,341.78999999981005,1.03714e-05,341.78999999981005,3.390388e-06
341.80499999981004,0.0002483422,341.80499999981004,1.648003e-05,341.80499999981004,1.065149e-05,341.80499999981004,3.373728e-06
341.81999999981,0.0002469521,341.81999999981,1.659926e-05,341.81999999981,1.068977e-05,341.81999999981,3.323245e-06
341.83499999981,0.0002165374,341.83499999981,1.537997e-05,341.83499999981,1.072004e-05,341.83499999981,3.361178e-06
341.84999999981,0.0001841523,341.84999999981,1.350535e-05,341.84999999981,1.069241e-05,341.84999999981,3.36955e-06
341.86499999981,0.0001612332,341.86499999981,1.296683e-05,341.86499999981,1.034692e-05,341.86499999981,3.344373e-06
341.87999999980997,0.0001245785,341.87999999980997,1.082725e-05,341.87999999980997,9.78289e-06,341.87999999980997,3.452149e-06
341.89499999980995,0.0001176168,341.89499999980995,9.903105e-06,341.89499999980995,9.877468e-06,341.89499999980995,3.386231e-06
341.90999999980994,0.0001112352,341.90999999980994,9.898837e-06,341.90999999980994,9.402554e-06,341.90999999980994,3.448066e-06
341.9249999998099,0.0001062231,341.9249999998099,9.927257e-06,341.9249999998099,8.355453e-06,341.9249999998099,3.580347e-06
341.9399999998099,7.832537e-05,341.9399999998099,1.041883e-05,341.9399999998099,7.961788e-06,341.9399999998099,3.584279e-06
341.9549999998099,7.276124e-05,341.9549999998099,1.037411e-05,341.9549999998099,8.026986e-06,341.9549999998099,3.588207e-06
341.9699999998099,7.698006e-05,341.9699999998099,1.012814e-05,341.9699999998099,7.974164e-06,341.9699999998099,3.611685e-06
341.9849999998099,7.645584e-05,341.9849999998099,1.042018e-05,341.9849999998099,7.436688e-06,341.9849999998099,3.592131e-06
341.99999999980986,8.003611e-05,341.99999999980986,1.022779e-05,341.99999999980986,6.859265e-06,341.99999999980986,3.310505e-06
342.01499999980985,9.448958e-05,342.01499999980985,9.891719e-06,342.01499999980985,7.142966e-06,342.01499999980985,3.331712e-06
342.02999999980983,9.612912e-05,342.02999999980983,9.204201e-06,342.02999999980983,7.081567e-06,342.02999999980983,3.184716e-06
342.0449999998098,0.0001012258,342.0449999998098,8.784466e-06,342.0449999998098,6.908378e-06,342.0449999998098,3.184716e-06
342.0599999998098,0.0001091344,342.0599999998098,8.733001e-06,342.0599999998098,6.644371e-06,342.0599999998098,3.122176e-06
342.0749999998098,0.0001122903,342.0749999998098,9.040516e-06,342.0749999998098,6.759971e-06,342.0749999998098,3.144655e-06
342.0899999998098,0.0001224219,342.0899999998098,9.130444e-06,342.0899999998098,6.730734e-06,342.0899999998098,3.11314e-06
342.10499999980976,0.0001407399,342.10499999980976,9.167396e-06,342.10499999980976,7.154789e-06,342.10499999980976,3.104077e-06
342.11999999980975,0.0001449221,342.11999999980975,9.221021e-06,342.11999999980975,7.270023e-06,342.11999999980975,3.067557e-06
342.13499999980974,0.0001462969,342.13499999980974,8.943388e-06,342.13499999980974,7.137048e-06,342.13499999980974,2.945742e-06
342.1499999998097,0.0001509849,342.1499999998097,8.611173e-06,342.1499999998097,7.04567e-06,342.1499999998097,2.902385e-06
342.1649999998097,0.000148008,342.1649999998097,8.765202e-06,342.1649999998097,6.932803e-06,342.1649999998097,2.833621e-06
342.1799999998097,0.0001480622,342.1799999998097,8.76681e-06,342.1799999998097,6.766219e-06,342.1799999998097,2.727227e-06
342.1949999998097,0.0001538758,342.1949999998097,8.204034e-06,342.1949999998097,6.759971e-06,342.1949999998097,2.685588e-06
342.20999999980967,0.0001698814,342.20999999980967,8.105571e-06,342.20999999980967,6.621009e-06,342.20999999980967,2.669806e-06
342.22499999980965,0.0001811855,342.22499999980965,8.452672e-06,342.22499999980965,6.614623e-06,342.22499999980965,2.648616e-06
342.23999999980964,0.0001822551,342.23999999980964,8.145445e-06,342.23999999980964,6.415707e-06,342.23999999980964,2.632612e-06
342.2549999998096,0.0002004631,342.2549999998096,8.316587e-06,342.2549999998096,6.358363e-06,342.2549999998096,2.523327e-06
342.2699999998096,0.0002443959,342.2699999998096,8.370614e-06,342.2699999998096,5.751133e-06,342.2699999998096,2.438151e-06
342.2849999998096,0.0003207311,342.2849999998096,8.39414e-06,342.2849999998096,5.988714e-06,342.2849999998096,2.397367e-06
342.2999999998096,0.0003674105,342.2999999998096,8.353768e-06,342.2999999998096,6.093644e-06,342.2999999998096,2.40909e-06
342.3149999998096,0.0003691152,342.3149999998096,8.234882e-06,342.3149999998096,5.998116e-06,342.3149999998096,2.443922e-06
342.32999999980956,0.0004120512,342.32999999980956,7.519571e-06,342.32999999980956,5.898653e-06,342.32999999980956,2.295304e-06
342.34499999980954,0.0004408369,342.34499999980954,7.123218e-06,342.34499999980954,5.763367e-06,342.34499999980954,2.319723e-06
342.35999999980953,0.0004397925,342.35999999980953,7.135074e-06,342.35999999980953,5.431162e-06,342.35999999980953,2.379674e-06
342.3749999998095,0.0004391336,342.3749999998095,7.051666e-06,342.3749999998095,5.485359e-06,342.3749999998095,2.307546e-06
342.3899999998095,0.0004395552,342.3899999998095,7.14888e-06,342.3899999998095,5.472503e-06,342.3899999998095,2.343887e-06
342.4049999998095,0.0004401109,342.4049999998095,7.103415e-06,342.4049999998095,5.289249e-06,342.4049999998095,2.461153e-06
342.4199999998095,0.0004416743,342.4199999998095,6.898175e-06,342.4199999998095,5.068936e-06,342.4199999998095,2.449679e-06
342.43499999980946,0.0004424856,342.43499999980946,6.822199e-06,342.43499999980946,5.057808e-06,342.43499999980946,2.534468e-06
342.44999999980945,0.0004395424,342.44999999980945,6.826328e-06,342.44999999980945,4.976383e-06,342.44999999980945,2.680338e-06
342.46499999980944,0.0004355827,342.46499999980944,6.79323e-06,342.46499999980944,4.962209e-06,342.46499999980944,2.722057e-06
342.4799999998094,0.0004290794,342.4799999998094,6.463831e-06,342.4799999998094,5.074491e-06,342.4799999998094,2.823661e-06
342.4949999998094,0.0004284039,342.4949999998094,6.940926e-06,342.4949999998094,5.433755e-06,342.4949999998094,2.863294e-06
342.5099999998094,0.0004187139,342.5099999998094,6.999535e-06,342.5099999998094,5.477649e-06,342.5099999998094,2.907234e-06
342.5249999998094,0.0003893069,342.5249999998094,7.033664e-06,342.5249999998094,5.929618e-06,342.5249999998094,2.979029e-06
342.53999999980937,0.0003012251,342.53999999980937,6.977362e-06,342.53999999980937,6.077441e-06,342.53999999980937,2.936162e-06
342.55499999980935,0.0002564496,342.55499999980935,6.908378e-06,342.55499999980935,6.474718e-06,342.55499999980935,2.960054e-06
342.56999999980934,0.0002406163,342.56999999980934,6.80773e-06,342.56999999980934,6.606099e-06,342.56999999980934,2.964809e-06
342.5849999998093,0.0001806333,342.5849999998093,6.928738e-06,342.5849999998093,6.582601e-06,342.5849999998093,2.964809e-06
342.5999999998093,0.000130284,342.5999999998093,7.291306e-06,342.5999999998093,6.411314e-06,342.5999999998093,2.993181e-06
342.6149999998093,0.000120602,342.6149999998093,7.287441e-06,342.6149999998093,6.391509e-06,342.6149999998093,2.983753e-06
342.6299999998093,0.0001210901,342.6299999998093,7.28164e-06,342.6299999998093,6.520246e-06,342.6299999998093,2.988471e-06
342.6449999998093,0.0001198958,342.6449999998093,7.238955e-06,342.6449999998093,6.470365e-06,342.6449999998093,2.848496e-06
342.65999999980926,0.0001202705,342.65999999980926,7.337527e-06,342.65999999980926,6.869526e-06,342.65999999980926,2.843547e-06
342.67499999980924,0.0001089144,342.67499999980924,7.377733e-06,342.67499999980924,6.791156e-06,342.67499999980924,2.818668e-06
342.68999999980923,0.0001058864,342.68999999980923,7.377733e-06,342.68999999980923,6.669763e-06,342.68999999980923,2.813666e-06
342.7049999998092,9.306525e-05,342.7049999998092,7.021637e-06,342.7049999998092,6.593293e-06,342.7049999998092,2.828646e-06
342.7199999998092,8.182319e-05,342.7199999998092,6.838698e-06,342.7199999998092,6.638008e-06,342.7199999998092,2.912075e-06
342.7349999998092,7.378688e-05,342.7349999998092,6.203613e-06,342.7349999998092,6.686639e-06,342.7349999998092,2.813666e-06
342.7499999998092,7.313625e-05,342.7499999998092,5.833818e-06,342.7499999998092,6.688745e-06,342.7499999998092,2.887788e-06
342.76499999980916,6.498649e-05,342.76499999980916,5.768253e-06,342.76499999980916,6.818068e-06,342.76499999980916,2.945742e-06
342.77999999980915,6.23408e-05,342.77999999980915,5.662269e-06,342.77999999980915,6.543968e-06,342.77999999980915,3.030597e-06
342.79499999980914,6.0827e-05,342.79499999980914,5.602244e-06,342.79499999980914,6.016875e-06,342.79499999980914,3.039879e-06
342.8099999998091,7.523411e-05,342.8099999998091,5.652309e-06,342.8099999998091,5.662269e-06,342.8099999998091,3.099535e-06
342.8249999998091,7.667239e-05,342.8249999998091,6.431058e-06,342.8249999998091,5.758477e-06,342.8249999998091,3.175857e-06
342.8399999998091,8.883349e-05,342.8399999998091,8.060259e-06,342.8399999998091,5.860319e-06,342.8399999998091,3.202359e-06
342.8549999998091,8.668028e-05,342.8549999998091,8.048017e-06,342.8549999998091,5.979298e-06,342.8549999998091,3.158065e-06
342.86999999980907,8.651501e-05,342.86999999980907,8.720087e-06,342.86999999980907,6.035575e-06,342.86999999980907,3.224279e-06
342.88499999980905,8.613381e-05,342.88499999980905,1.014759e-05,342.88499999980905,5.828986e-06,342.88499999980905,3.24605e-06
342.89999999980904,8.341922e-05,342.89999999980904,1.053045e-05,342.89999999980904,5.814468e-06,342.89999999980904,3.250386e-06
342.914999999809,8.237055e-05,342.914999999809,1.06845e-05,342.914999999809,5.726587e-06,342.914999999809,3.306247e-06
342.929999999809,8.334607e-05,342.929999999809,1.072792e-05,342.929999999809,6.116717e-06,342.929999999809,3.224279e-06
342.944999999809,8.463098e-05,342.944999999809,1.078554e-05,342.944999999809,6.260124e-06,342.944999999809,3.153601e-06
342.959999999809,9.074235e-05,342.959999999809,1.082075e-05,342.959999999809,6.380479e-06,342.959999999809,3.049133e-06
342.974999999809,9.053425e-05,342.974999999809,1.084285e-05,342.974999999809,6.53104e-06,342.974999999809,2.940956e-06
342.98999999980896,8.998896e-05,342.98999999980896,1.083636e-05,342.98999999980896,6.325044e-06,342.98999999980896,2.897527e-06
343.00499999980894,9.0014e-05,343.00499999980894,1.081944e-05,343.00499999980894,6.109804e-06,343.00499999980894,2.828646e-06
343.01999999980893,8.927008e-05,343.01999999980893,1.076985e-05,343.01999999980893,6.051891e-06,343.01999999980893,2.669806e-06
343.0349999998089,9.163861e-05,343.0349999998089,1.133697e-05,343.0349999998089,6.11902e-06,343.0349999998089,2.600309e-06
343.0499999998089,9.705243e-05,343.0499999998089,1.175903e-05,343.0499999998089,6.210422e-06,343.0499999998089,2.605721e-06
343.0649999998089,0.0001065533,343.0649999998089,1.199036e-05,343.0649999998089,6.25337e-06,343.0649999998089,2.40909e-06
343.0799999998089,0.0001073626,343.0799999998089,1.142115e-05,343.0799999998089,6.016875e-06,343.0799999998089,2.432367e-06
343.09499999980886,0.0001037736,343.09499999980886,9.690296e-06,343.09499999980886,6.007502e-06,343.09499999980886,2.40909e-06
343.10999999980885,0.0001164776,343.10999999980885,9.94002e-06,343.10999999980885,5.969867e-06,343.10999999980885,2.40909e-06
343.12499999980884,0.0001318507,343.12499999980884,9.281926e-06,343.12499999980884,5.860319e-06,343.12499999980884,2.343887e-06
343.1399999998088,0.0001392818,343.1399999998088,8.135063e-06,343.1399999998088,5.699464e-06,343.1399999998088,2.319723e-06
343.1549999998088,0.0001411158,343.1549999998088,8.107309e-06,343.1549999998088,5.551726e-06,343.1549999998088,2.282997e-06
343.1699999998088,0.0001625896,343.1699999998088,8.041013e-06,343.1699999998088,5.313164e-06,343.1699999998088,2.26441e-06
343.1849999998088,0.0001911516,343.1849999998088,8.228038e-06,343.1849999998088,5.08004e-06,343.1849999998088,2.295304e-06
343.19999999980877,0.0001966771,343.19999999980877,8.296236e-06,343.19999999980877,5.085583e-06,343.19999999980877,2.220437e-06
343.21499999980875,0.0001952101,343.21499999980875,8.328435e-06,343.21499999980875,4.970719e-06,343.21499999980875,2.239388e-06
343.22999999980874,0.0002076766,343.22999999980874,8.269024e-06,343.22999999980874,4.771172e-06,343.22999999980874,2.449679e-06
343.2449999998087,0.0002415144,343.2449999998087,8.260502e-06,343.2449999998087,4.608983e-06,343.2449999998087,2.517739e-06
343.2599999998087,0.0002766902,343.2599999998087,8.36893e-06,343.2599999998087,4.675739e-06,343.2599999998087,2.489606e-06
343.2749999998087,0.0002983878,343.2749999998087,8.627516e-06,343.2749999998087,4.630328e-06,343.2749999998087,2.54002e-06
343.2899999998087,0.0004526615,343.2899999998087,1.171222e-05,343.2899999998087,4.538142e-06,343.2899999998087,2.512137e-06
343.3049999998087,0.0004755708,343.3049999998087,1.143225e-05,343.3049999998087,4.578317e-06,343.3049999998087,2.54556e-06
343.31999999980866,0.0004808964,343.31999999980866,1.135683e-05,343.31999999980866,4.559819e-06,343.31999999980866,2.551088e-06
343.33499999980864,0.0004918021,343.33499999980864,1.269788e-05,343.33499999980864,4.488202e-06,343.33499999980864,2.517739e-06
343.34999999980863,0.0004977204,343.34999999980863,1.345205e-05,343.34999999980863,4.556728e-06,343.34999999980863,2.556603e-06
343.3649999998086,0.0004969302,343.3649999998086,1.327495e-05,343.3649999998086,4.970719e-06,343.3649999998086,2.551088e-06
343.3799999998086,0.0004939582,343.3799999998086,1.320367e-05,343.3799999998086,5.350154e-06,343.3799999998086,2.54556e-06
343.3949999998086,0.0004928074,343.3949999998086,1.332473e-05,343.3949999998086,6.518086e-06,343.3949999998086,2.556603e-06
343.4099999998086,0.000491773,343.4099999998086,1.343109e-05,343.4099999998086,6.813935e-06,343.4099999998086,2.5676e-06
343.42499999980856,0.0004823328,343.42499999980856,1.329086e-05,343.42499999980856,7.719241e-06,343.42499999980856,2.675077e-06
343.43999999980855,0.0004706632,343.43999999980855,1.322179e-05,343.43999999980855,1.016978e-05,343.43999999980855,2.669806e-06
343.45499999980854,0.0004700069,343.45499999980854,1.317269e-05,343.45499999980854,1.091794e-05,343.45499999980854,2.669806e-06
343.4699999998085,0.0004717463,343.4699999998085,1.334797e-05,343.4699999998085,1.092181e-05,343.4699999998085,2.653929e-06
343.4849999998085,0.0004655243,343.4849999998085,1.35418e-05,343.4849999998085,1.105514e-05,343.4849999998085,2.443922e-06
343.4999999998085,0.0004469369,343.4999999998085,1.539096e-05,343.4999999998085,1.114777e-05,343.4999999998085,2.455423e-06
343.5149999998085,0.0004233575,343.5149999998085,1.541383e-05,343.5149999998085,1.147775e-05,343.5149999998085,2.426568e-06
343.52999999980847,0.0003826396,343.52999999980847,1.429776e-05,343.52999999980847,1.148511e-05,343.52999999980847,2.653929e-06
343.54499999980845,0.0001964963,343.54499999980845,1.285445e-05,343.54499999980845,1.155237e-05,343.54499999980845,2.669806e-06
343.55999999980844,0.0001761387,343.55999999980844,1.290476e-05,343.55999999980844,1.165314e-05,343.55999999980844,2.653929e-06
343.5749999998084,0.0001529737,343.5749999998084,1.280614e-05,343.5749999998084,1.164951e-05,343.5749999998084,2.659232e-06
343.5899999998084,0.000109744,343.5899999998084,1.141992e-05,343.5899999998084,1.178058e-05,343.5899999998084,2.706488e-06
343.6049999998084,7.643206e-05,343.6049999998084,1.076985e-05,343.6049999998084,1.181759e-05,343.6049999998084,2.696058e-06
343.6199999998084,6.994602e-05,343.6199999998084,1.092697e-05,343.6199999998084,1.159861e-05,343.6199999998084,2.758045e-06
343.6349999998084,6.994884e-05,343.6349999998084,1.121956e-05,343.6349999998084,1.101429e-05,343.6349999998084,2.752932e-06
343.64999999980836,7.117322e-05,343.64999999980836,1.102835e-05,343.64999999980836,1.053446e-05,343.64999999980836,2.808655e-06
343.66499999980834,7.328499e-05,343.66499999980834,1.114524e-05,343.66499999980834,1.047546e-05,343.66499999980834,2.838588e-06
343.67999999980833,7.351337e-05,343.67999999980833,1.134318e-05,343.67999999980833,9.304663e-06,343.67999999980833,2.768241e-06
343.6949999998083,6.900993e-05,343.6949999998083,1.145932e-05,343.6949999998083,6.811867e-06,343.6949999998083,2.773325e-06
343.7099999998083,6.111972e-05,343.7099999998083,1.109584e-05,343.7099999998083,5.826569e-06,343.7099999998083,2.793568e-06
343.7249999998083,5.532765e-05,343.7249999998083,1.092826e-05,343.7249999998083,5.765811e-06,343.7249999998083,2.737538e-06
343.7399999998083,6.282228e-05,343.7399999998083,1.044718e-05,343.7399999998083,5.778013e-06,343.7399999998083,2.833621e-06
343.75499999980826,6.56035e-05,343.75499999980826,7.771981e-06,343.75499999980826,5.508422e-06,343.75499999980826,2.808655e-06
343.76999999980825,6.73178e-05,343.76999999980825,7.582997e-06,343.76999999980825,5.462197e-06,343.76999999980825,2.882905e-06
343.78499999980824,6.867886e-05,343.78499999980824,7.532673e-06,343.78499999980824,5.278585e-06,343.78499999980824,2.773325e-06
343.7999999998082,6.928088e-05,343.7999999998082,7.093493e-06,343.7999999998082,5.200618e-06,343.7999999998082,2.763147e-06
343.8149999998082,7.321268e-05,343.8149999998082,6.953093e-06,343.8149999998082,4.916579e-06,343.8149999998082,2.711688e-06
343.8299999998082,8.356297e-05,343.8299999998082,6.720261e-06,343.8299999998082,5.057808e-06,343.8299999998082,2.685588e-06
343.8449999998082,8.397496e-05,343.8449999998082,6.64861e-06,343.8449999998082,4.982041e-06,343.8449999998082,2.632612e-06
343.85999999980817,8.56648e-05,343.85999999980817,6.66131e-06,343.85999999980817,5.001795e-06,343.85999999980817,2.675077e-06
343.87499999980815,8.543081e-05,343.87499999980815,6.424483e-06,343.87499999980815,4.970719e-06,343.87499999980815,2.669806e-06
343.88999999980814,8.5003e-05,343.88999999980814,6.009847e-06,343.88999999980814,5.148897e-06,343.88999999980814,2.696058e-06
343.9049999998081,8.427721e-05,343.9049999998081,5.884307e-06,343.9049999998081,5.181623e-06,343.9049999998081,2.621889e-06
343.9199999998081,8.334015e-05,343.9199999998081,5.743781e-06,343.9199999998081,5.233022e-06,343.9199999998081,2.54556e-06
343.9349999998081,8.260298e-05,343.9349999998081,5.238403e-06,343.9349999998081,5.307859e-06,343.9349999998081,2.605721e-06
343.9499999998081,8.170828e-05,343.9499999998081,4.936594e-06,343.9499999998081,5.321112e-06,343.9499999998081,2.589452e-06
343.9649999998081,8.018434e-05,343.9649999998081,4.998978e-06,343.9649999998081,5.477649e-06,343.9649999998081,2.605721e-06
343.97999999980806,7.978721e-05,343.97999999980806,5.462197e-06,343.97999999980806,5.315815e-06,343.97999999980806,2.584006e-06
343.99499999980804,7.287518e-05,343.99499999980804,5.60727e-06,343.99499999980804,5.405162e-06,343.99499999980804,2.512137e-06
344.00999999980803,6.605779e-05,344.00999999980803,5.56693e-06,344.00999999980803,5.438937e-06,344.00999999980803,2.361848e-06
344.024999999808,6.372327e-05,344.024999999808,5.8867e-06,344.024999999808,5.259872e-06,344.024999999808,2.489606e-06
344.039999999808,6.230509e-05,344.039999999808,6.518086e-06,344.039999999808,5.428567e-06,344.039999999808,2.483942e-06
344.054999999808,6.075887e-05,344.054999999808,6.834577e-06,344.054999999808,5.518642e-06,344.054999999808,2.512137e-06
344.069999999808,5.762243e-05,344.069999999808,6.803591e-06,344.069999999808,5.402556e-06,344.069999999808,2.54002e-06
344.08499999980796,4.388222e-05,344.08499999980796,6.728641e-06,344.08499999980796,5.315815e-06,344.08499999980796,2.54556e-06
344.09999999980795,3.931042e-05,344.09999999980795,6.805661e-06,344.09999999980795,5.143422e-06,344.09999999980795,2.551088e-06
344.11499999980794,3.723909e-05,344.11499999980794,6.871577e-06,344.11499999980794,5.662269e-06,344.11499999980794,2.483942e-06
344.1299999998079,3.639852e-05,344.1299999998079,6.768301e-06,344.1299999998079,5.614802e-06,344.1299999998079,2.432367e-06
344.1449999998079,3.589385e-05,344.1449999998079,6.842817e-06,344.1449999998079,5.682137e-06,344.1449999998079,2.57308e-06
344.1599999998079,3.575858e-05,344.1599999998079,6.846933e-06,344.1599999998079,5.467352e-06,344.1599999998079,2.57308e-06
344.1749999998079,3.426633e-05,344.1749999998079,6.838698e-06,344.1749999998079,5.469929e-06,344.1749999998079,2.584006e-06
344.18999999980787,2.979927e-05,344.18999999980787,6.842817e-06,344.18999999980787,5.516089e-06,344.18999999980787,2.659232e-06
344.20499999980785,2.965189e-05,344.20499999980785,6.844875e-06,344.20499999980785,5.405162e-06,344.20499999980785,2.643292e-06
344.21999999980784,2.892808e-05,344.21999999980784,6.875675e-06,344.21999999980784,5.410373e-06,344.21999999980784,2.637958e-06
344.2349999998078,2.774848e-05,344.2349999998078,6.448557e-06,344.2349999998078,5.441526e-06,344.2349999998078,2.701278e-06
344.2499999998078,2.750526e-05,344.2499999998078,6.327271e-06,344.2499999998078,5.344885e-06,344.2499999998078,2.680338e-06
344.2649999998078,2.683646e-05,344.2649999998078,6.002811e-06,344.2649999998078,5.612292e-06,344.2649999998078,2.659232e-06
344.2799999998078,2.803685e-05,344.2799999998078,5.597212e-06,344.2799999998078,5.664756e-06,344.2799999998078,2.711688e-06
344.29499999980777,2.826454e-05,344.29499999980777,4.838602e-06,344.29499999980777,5.639834e-06,344.29499999980777,2.752932e-06
344.30999999980776,2.850474e-05,344.30999999980776,4.602866e-06,344.30999999980776,5.549188e-06,344.30999999980776,2.727227e-06
344.32499999980774,2.865507e-05,344.32499999980774,4.608983e-06,344.32499999980774,5.493057e-06,344.32499999980774,2.763147e-06
344.33999999980773,2.893197e-05,344.33999999980773,4.402644e-06,344.33999999980773,5.289249e-06,344.33999999980773,2.778399e-06
344.3549999998077,2.975764e-05,344.3549999998077,4.38019e-06,344.3549999998077,5.386888e-06,344.3549999998077,2.768241e-06
344.3699999998077,3.053242e-05,344.3699999998077,4.239647e-06,344.3699999998077,5.262549e-06,344.3699999998077,2.803635e-06
344.3849999998077,3.010731e-05,344.3849999998077,4.447213e-06,344.3849999998077,5.281253e-06,344.3849999998077,2.752932e-06
344.3999999998077,3.001359e-05,344.3999999998077,4.35762e-06,344.3999999998077,5.230329e-06,344.3999999998077,2.722057e-06
344.41499999980766,3.001969e-05,344.41499999980766,4.409039e-06,344.41499999980766,5.254512e-06,344.41499999980766,2.763147e-06
344.42999999980765,3.007266e-05,344.42999999980765,4.383405e-06,344.42999999980765,5.307859e-06,344.42999999980765,2.813666e-06
344.44499999980764,3.006751e-05,344.44499999980764,4.412233e-06,344.44499999980764,5.475077e-06,344.44499999980764,2.706488e-06
344.4599999998076,2.963668e-05,344.4599999998076,4.299038e-06,344.4599999998076,5.518642e-06,344.4599999998076,2.737538e-06
344.4749999998076,3.046822e-05,344.4749999998076,4.31539e-06,344.4749999998076,5.423375e-06,344.4749999998076,2.758045e-06
344.4899999998076,3.048024e-05,344.4899999998076,4.216325e-06,344.4899999998076,5.373798e-06,344.4899999998076,2.690828e-06
344.5049999998076,3.223754e-05,344.5049999998076,4.266145e-06,344.5049999998076,5.189773e-06,344.5049999998076,2.737538e-06
344.51999999980757,3.457165e-05,344.51999999980757,4.229668e-06,344.51999999980757,5.446701e-06,344.51999999980757,2.627256e-06
344.53499999980755,3.469205e-05,344.53499999980755,4.256228e-06,344.53499999980755,5.360675e-06,344.53499999980755,2.5676e-06
344.54999999980754,3.553888e-05,344.54999999980754,4.289197e-06,344.54999999980754,5.584614e-06,344.54999999980754,2.534468e-06
344.5649999998075,3.763867e-05,344.5649999998075,4.556728e-06,344.5649999998075,5.48279e-06,344.5649999998075,2.611121e-06
344.5799999998075,3.880622e-05,344.5799999998075,4.562907e-06,344.5799999998075,5.475077e-06,344.5799999998075,2.600309e-06
344.5949999998075,3.970867e-05,344.5949999998075,5.032679e-06,344.5949999998075,5.459618e-06,344.5949999998075,2.5676e-06
344.6099999998075,4.01444e-05,344.6099999998075,5.041069e-06,344.6099999998075,5.355417e-06,344.6099999998075,2.495258e-06
344.62499999980747,3.95195e-05,344.62499999980747,4.93374e-06,344.62499999980747,5.259872e-06,344.62499999980747,2.443922e-06
344.63999999980746,3.978275e-05,344.63999999980746,5.049445e-06,344.63999999980746,5.438937e-06,344.63999999980746,2.506524e-06
344.65499999980744,4.064933e-05,344.65499999980744,5.052234e-06,344.65499999980744,5.498184e-06,344.65499999980744,2.556603e-06
344.66999999980743,4.168106e-05,344.66999999980743,5.02147e-06,344.66999999980743,5.571988e-06,344.66999999980743,2.489606e-06
344.6849999998074,4.243832e-05,344.6849999998074,5.085583e-06,344.6849999998074,5.510979e-06,344.6849999998074,2.461153e-06
344.6999999998074,4.348656e-05,344.6999999998074,5.200618e-06,344.6999999998074,5.275916e-06,344.6999999998074,2.523327e-06
344.7149999998074,4.428103e-05,344.7149999998074,5.206033e-06,344.7149999998074,5.302549e-06,344.7149999998074,2.551088e-06
344.7299999998074,4.498172e-05,344.7299999998074,5.104936e-06,344.7299999998074,5.355417e-06,344.7299999998074,2.584006e-06
344.74499999980736,4.552491e-05,344.74499999980736,5.140683e-06,344.74499999980736,5.259872e-06,344.74499999980736,2.584006e-06
344.75999999980735,4.573268e-05,344.75999999980735,5.118714e-06,344.75999999980735,5.124215e-06,344.75999999980735,2.534468e-06
344.77499999980733,4.541245e-05,344.77499999980733,5.104936e-06,344.77499999980733,4.947995e-06,344.77499999980733,2.57308e-06
344.7899999998073,4.488139e-05,344.7899999998073,5.195198e-06,344.7899999998073,4.593675e-06,344.7899999998073,2.5676e-06
344.8049999998073,4.718684e-05,344.8049999998073,5.099414e-06,344.8049999998073,4.771172e-06,344.8049999998073,2.512137e-06
344.8199999998073,4.790619e-05,344.8199999998073,4.95937e-06,344.8199999998073,4.899358e-06,344.8199999998073,2.675077e-06
344.8349999998073,4.789942e-05,344.8349999998073,4.896482e-06,344.8349999998073,4.916579e-06,344.8349999998073,2.659232e-06
344.84999999980727,4.839679e-05,344.84999999980727,4.654602e-06,344.84999999980727,4.853136e-06,344.84999999980727,2.788521e-06
344.86499999980725,4.979637e-05,344.86499999980725,4.856038e-06,344.86499999980725,4.729657e-06,344.86499999980725,2.838588e-06
344.87999999980724,5.043444e-05,344.87999999980724,4.765263e-06,344.87999999980724,4.660651e-06,344.87999999980724,2.843547e-06
344.8949999998072,5.273112e-05,344.8949999998072,4.75046e-06,344.8949999998072,4.31539e-06,344.8949999998072,2.868209e-06
344.9099999998072,5.5063e-05,344.9099999998072,5.214144e-06,344.9099999998072,4.338181e-06,344.9099999998072,2.818668e-06
344.9249999998072,5.621747e-05,344.9249999998072,5.173461e-06,344.9249999998072,4.402644e-06,344.9249999998072,2.945742e-06
344.9399999998072,5.657341e-05,344.9399999998072,5.464775e-06,344.9399999998072,4.48192e-06,344.9399999998072,2.940956e-06
344.95499999980717,5.729637e-05,344.95499999980717,5.48022e-06,344.95499999980717,4.687774e-06,344.95499999980717,2.969556e-06
344.96999999980716,5.72516e-05,344.96999999980716,5.574516e-06,344.96999999980716,4.806471e-06,344.96999999980716,3.002579e-06
344.98499999980714,5.8227e-05,344.98499999980714,5.993417e-06,344.98499999980714,4.942298e-06,344.98499999980714,2.974296e-06
344.99999999980713,5.811754e-05,344.99999999980713,6.116717e-06,344.99999999980713,5.074491e-06,344.99999999980713,2.964809e-06
345.0149999998071,5.720139e-05,345.0149999998071,6.476893e-06,345.0149999998071,5.326404e-06,345.0149999998071,3.007266e-06
345.0299999998071,5.744614e-05,345.0299999998071,6.452925e-06,345.0299999998071,5.352786e-06,345.0299999998071,3.002579e-06
345.0449999998071,5.566044e-05,345.0449999998071,6.654963e-06,345.0449999998071,5.415577e-06,345.0449999998071,3.025945e-06
345.0599999998071,5.466554e-05,345.0599999998071,6.795303e-06,345.0599999998071,5.425972e-06,345.0599999998071,2.969556e-06
345.07499999980706,5.16515e-05,345.07499999980706,6.881819e-06,345.07499999980706,5.594695e-06,345.07499999980706,2.907234e-06
345.08999999980705,5.053712e-05,345.08999999980705,6.983416e-06,345.08999999980705,5.556798e-06,345.08999999980705,2.945742e-06
345.10499999980703,5.128419e-05,345.10499999980703,6.846933e-06,345.10499999980703,5.687093e-06,345.10499999980703,2.878015e-06
345.119999999807,5.057835e-05,345.119999999807,6.816002e-06,345.119999999807,5.775575e-06,345.119999999807,2.955291e-06
345.134999999807,4.857518e-05,345.134999999807,6.916529e-06,345.134999999807,6.028569e-06,345.134999999807,2.843547e-06
345.149999999807,4.818618e-05,345.149999999807,6.924671e-06,345.149999999807,6.000464e-06,345.149999999807,2.873116e-06
345.164999999807,4.403924e-05,345.164999999807,6.673986e-06,345.164999999807,6.028569e-06,345.164999999807,2.868209e-06
345.17999999980697,4.041021e-05,345.17999999980697,6.680315e-06,345.17999999980697,6.125922e-06,345.17999999980697,2.783465e-06
345.19499999980695,3.996504e-05,345.19499999980695,6.409116e-06,345.19499999980695,6.271365e-06,345.19499999980695,2.74781e-06
345.20999999980694,3.840228e-05,345.20999999980694,6.358363e-06,345.20999999980694,6.037908e-06,345.20999999980694,2.722057e-06
345.2249999998069,3.707911e-05,345.2249999998069,6.450741e-06,345.2249999998069,6.144291e-06,345.2249999998069,2.696058e-06
345.2399999998069,3.554205e-05,345.2399999998069,6.03324e-06,345.2399999998069,6.086705e-06,345.2399999998069,2.758045e-06
345.2549999998069,3.452312e-05,345.2549999998069,5.934367e-06,345.2549999998069,5.993417e-06,345.2549999998069,2.897527e-06
345.2699999998069,3.495015e-05,345.2699999998069,5.654801e-06,345.2699999998069,5.696992e-06,345.2699999998069,2.921734e-06
345.28499999980687,3.360718e-05,345.28499999980687,5.629835e-06,345.28499999980687,5.716739e-06,345.28499999980687,2.912075e-06
345.29999999980686,3.381569e-05,345.29999999980686,5.342249e-06,345.29999999980686,5.903427e-06,345.29999999980686,2.868209e-06
345.31499999980684,3.344204e-05,345.31499999980684,5.273245e-06,345.31499999980684,6.077441e-06,345.31499999980684,2.848496e-06
345.32999999980683,3.209916e-05,345.32999999980683,5.032679e-06,345.32999999980683,6.141998e-06,345.32999999980683,2.818668e-06
345.3449999998068,3.044324e-05,345.3449999998068,4.939447e-06,345.3449999998068,6.210422e-06,345.3449999998068,2.803635e-06
345.3599999998068,2.837248e-05,345.3599999998068,5.099414e-06,345.3599999998068,6.244353e-06,345.3599999998068,2.669806e-06
345.3749999998068,2.754825e-05,345.3749999998068,5.305204e-06,345.3749999998068,6.203613e-06,345.3749999998068,2.648616e-06
345.3899999998068,2.775406e-05,345.3899999998068,5.230329e-06,345.3899999998068,5.969867e-06,345.3899999998068,2.696058e-06
345.40499999980676,2.677708e-05,345.40499999980676,5.331691e-06,345.40499999980676,6.06584e-06,345.40499999980676,2.690828e-06
345.41999999980675,2.533968e-05,345.41999999980675,5.384273e-06,345.41999999980675,5.891484e-06,345.41999999980675,2.675077e-06
345.43499999980673,2.472859e-05,345.43499999980673,5.441526e-06,345.43499999980673,5.556798e-06,345.43499999980673,2.716877e-06
345.4499999998067,2.483261e-05,345.4499999998067,5.436346e-06,345.4499999998067,5.674694e-06,345.4499999998067,2.690828e-06
345.4649999998067,2.439133e-05,345.4649999998067,5.350154e-06,345.4649999998067,5.632336e-06,345.4649999998067,2.680338e-06
345.4799999998067,2.40552e-05,345.4799999998067,5.379038e-06,345.4799999998067,5.592176e-06,345.4799999998067,2.632612e-06
345.4949999998067,2.324879e-05,345.4949999998067,5.53139e-06,345.4949999998067,5.634837e-06,345.4949999998067,2.584006e-06
345.50999999980667,2.278179e-05,345.50999999980667,5.415577e-06,345.50999999980667,5.719203e-06,345.50999999980667,2.373747e-06
345.52499999980665,2.13624e-05,345.52499999980665,5.477649e-06,345.52499999980665,5.877121e-06,345.52499999980665,2.361848e-06
345.53999999980664,2.092805e-05,345.53999999980664,5.441526e-06,345.53999999980664,5.797484e-06,345.53999999980664,2.385586e-06
345.5549999998066,2.004938e-05,345.5549999998066,5.469929e-06,345.5549999998066,5.659781e-06,345.5549999998066,2.426568e-06
345.5699999998066,2.026532e-05,345.5699999998066,5.389503e-06,345.5699999998066,5.323759e-06,345.5699999998066,2.397367e-06
345.5849999998066,2.064136e-05,345.5849999998066,5.454455e-06,345.5849999998066,5.433755e-06,345.5849999998066,2.385586e-06
345.5999999998066,2.373153e-05,345.5999999998066,5.459618e-06,345.5999999998066,5.243778e-06,345.5999999998066,2.449679e-06
345.61499999980657,2.410084e-05,345.61499999980657,5.358047e-06,345.61499999980657,5.203327e-06,345.61499999980657,2.426568e-06
345.62999999980656,2.819218e-05,345.62999999980656,5.096651e-06,345.62999999980656,5.159829e-06,345.62999999980656,2.397367e-06
345.64499999980654,2.90612e-05,345.64499999980654,5.096651e-06,345.64499999980654,5.148897e-06,345.64499999980654,2.282997e-06
345.65999999980653,3.06976e-05,345.65999999980653,4.838602e-06,345.65999999980653,5.278585e-06,345.65999999980653,2.270622e-06
345.6749999998065,3.449333e-05,345.6749999998065,4.832776e-06,345.6749999998065,5.649817e-06,345.6749999998065,2.472574e-06
345.6899999998065,3.85458e-05,345.6899999998065,4.987693e-06,345.6899999998065,5.719203e-06,345.6899999998065,2.517739e-06
345.7049999998065,3.885592e-05,345.7049999998065,5.035477e-06,345.7049999998065,5.910582e-06,345.7049999998065,2.611121e-06
345.7199999998065,3.875391e-05,345.7199999998065,4.838602e-06,345.7199999998065,5.814468e-06,345.7199999998065,2.648616e-06
345.73499999980646,4.202604e-05,345.73499999980646,5.373798e-06,345.73499999980646,6.095956e-06,345.73499999980646,2.690828e-06
345.74999999980645,4.333535e-05,345.74999999980645,6.051891e-06,345.74999999980645,6.311667e-06,345.74999999980645,2.690828e-06
345.76499999980643,4.400372e-05,345.76499999980643,6.021555e-06,345.76499999980643,6.498606e-06,345.76499999980643,2.711688e-06
345.7799999998064,4.659653e-05,345.7799999998064,6.424483e-06,345.7799999998064,6.424483e-06,345.7799999998064,2.74781e-06
345.7949999998064,4.806852e-05,345.7949999998064,6.548272e-06,345.7949999998064,6.439814e-06,345.7949999998064,2.808655e-06
345.8099999998064,5.573555e-05,345.8099999998064,6.614623e-06,345.8099999998064,6.378271e-06,345.8099999998064,2.838588e-06
345.8249999998064,5.928192e-05,345.8249999998064,6.680315e-06,345.8249999998064,6.318359e-06,345.8249999998064,2.818668e-06
345.83999999980637,6.079735e-05,345.83999999980637,6.688745e-06,345.83999999980637,6.230803e-06,345.83999999980637,2.848496e-06
345.85499999980635,5.931019e-05,345.85499999980635,6.887957e-06,345.85499999980635,6.242096e-06,345.85499999980635,2.858369e-06
345.86999999980634,6.163314e-05,345.86999999980634,6.963215e-06,345.86999999980634,6.420096e-06,345.86999999980634,2.868209e-06
345.8849999998063,6.349695e-05,345.8849999998063,7.22142e-06,345.8849999998063,6.4921e-06,345.8849999998063,2.902385e-06
345.8999999998063,6.702966e-05,345.8999999998063,7.510198e-06,345.8999999998063,6.466009e-06,345.8999999998063,2.916909e-06
345.9149999998063,6.757344e-05,345.9149999998063,8.096878e-06,345.9149999998063,6.291548e-06,345.9149999998063,2.988471e-06
345.9299999998063,6.695691e-05,345.9299999998063,8.609537e-06,345.9299999998063,6.044903e-06,345.9299999998063,2.931361e-06
345.94499999980627,7.013588e-05,345.94499999980627,8.454338e-06,345.94499999980627,5.915346e-06,345.94499999980627,2.907234e-06
345.95999999980626,7.324672e-05,345.95999999980626,8.484277e-06,345.95999999980626,5.986361e-06,345.95999999980626,2.892662e-06
345.97499999980624,7.41793e-05,345.97499999980624,8.612809e-06,345.97499999980624,5.922486e-06,345.97499999980624,2.843547e-06
345.98999999980623,7.811178e-05,345.98999999980623,8.246849e-06,345.98999999980623,5.541568e-06,345.98999999980623,2.823661e-06
346.0049999998062,7.8023e-05,346.0049999998062,7.912094e-06,346.0049999998062,5.336972e-06,346.0049999998062,2.843547e-06
346.0199999998062,7.991281e-05,346.0199999998062,7.981227e-06,346.0199999998062,5.121465e-06,346.0199999998062,2.798606e-06
346.0349999998062,7.859056e-05,346.0349999998062,7.671647e-06,346.0349999998062,5.344885e-06,346.0349999998062,2.882905e-06
346.0499999998062,7.69936e-05,346.0499999998062,7.673483e-06,346.0499999998062,5.418178e-06,346.0499999998062,2.858369e-06
346.06499999980616,7.26826e-05,346.06499999980616,7.673483e-06,346.06499999980616,5.632336e-06,346.06499999980616,2.833621e-06
346.07999999980615,6.88057e-05,346.07999999980615,7.818965e-06,346.07999999980615,5.521194e-06,346.07999999980615,2.818668e-06
346.09499999980613,6.886403e-05,346.09499999980613,7.788277e-06,346.09499999980613,5.556798e-06,346.09499999980613,2.803635e-06
346.1099999998061,6.926278e-05,346.1099999998061,7.660622e-06,346.1099999998061,5.564399e-06,346.1099999998061,2.788521e-06
346.1249999998061,6.740689e-05,346.1249999998061,7.56626e-06,346.1249999998061,5.467352e-06,346.1249999998061,2.793568e-06
346.1399999998061,6.324309e-05,346.1399999998061,7.22532e-06,346.1399999998061,5.428567e-06,346.1399999998061,2.803635e-06
346.1549999998061,5.725382e-05,346.1549999998061,6.861319e-06,346.1549999998061,5.420777e-06,346.1549999998061,2.798606e-06
346.16999999980607,5.582117e-05,346.16999999980607,6.167175e-06,346.16999999980607,5.48022e-06,346.16999999980607,2.669806e-06
346.18499999980605,5.471448e-05,346.18499999980605,5.792623e-06,346.18499999980605,5.510979e-06,346.18499999980605,2.54556e-06
346.19999999980604,4.811567e-05,346.19999999980604,5.602244e-06,346.19999999980604,5.365928e-06,346.19999999980604,2.534468e-06
346.214999999806,4.602621e-05,346.214999999806,5.386888e-06,346.214999999806,5.397339e-06,346.214999999806,2.551088e-06
346.229999999806,4.369048e-05,346.229999999806,5.384273e-06,346.229999999806,5.394728e-06,346.229999999806,2.627256e-06
346.244999999806,3.272673e-05,346.244999999806,5.235713e-06,346.244999999806,5.61731e-06,346.244999999806,2.584006e-06
346.259999999806,3.235357e-05,346.259999999806,5.294573e-06,346.259999999806,5.760922e-06,346.259999999806,2.584006e-06
346.27499999980597,2.928332e-05,346.27499999980597,6.000464e-06,346.27499999980597,6.079758e-06,346.27499999980597,2.495258e-06
346.28999999980596,2.864622e-05,346.28999999980596,6.114414e-06,346.28999999980596,5.677176e-06,346.28999999980596,2.391484e-06
346.30499999980594,3.013957e-05,346.30499999980594,5.972226e-06,346.30499999980594,5.782887e-06,346.30499999980594,2.403235e-06
346.31999999980593,3.040852e-05,346.31999999980593,6.089019e-06,346.31999999980593,5.833818e-06,346.31999999980593,2.361848e-06
346.3349999998059,2.966424e-05,346.3349999998059,5.855509e-06,346.3349999998059,5.795054e-06,346.3349999998059,2.426568e-06
346.3499999998059,3.348834e-05,346.3499999998059,6.230803e-06,346.3499999998059,6.11211e-06,346.3499999998059,2.472574e-06
346.3649999998059,3.240881e-05,346.3649999998059,6.459471e-06,346.3649999998059,6.123622e-06,346.3649999998059,2.478264e-06
346.3799999998059,3.330444e-05,346.3799999998059,6.442001e-06,346.3799999998059,6.070483e-06,346.3799999998059,2.438151e-06
346.39499999980586,3.291301e-05,346.39499999980586,6.483414e-06,346.39499999980586,6.035575e-06,346.39499999980586,2.432367e-06
346.40999999980585,3.372183e-05,346.40999999980585,6.507271e-06,346.40999999980585,6.049562e-06,346.40999999980585,2.449679e-06
346.42499999980583,3.48553e-05,346.42499999980583,6.448557e-06,346.42499999980583,6.098266e-06,346.42499999980583,2.397367e-06
346.4399999998058,3.528269e-05,346.4399999998058,6.435437e-06,346.4399999998058,6.121322e-06,346.4399999998058,2.443922e-06
346.4549999998058,3.51551e-05,346.4549999998058,6.548272e-06,346.4549999998058,6.037908e-06,346.4549999998058,2.483942e-06
346.4699999998058,3.627874e-05,346.4699999998058,6.703471e-06,346.4699999998058,6.205884e-06,346.4699999998058,2.349889e-06
346.4849999998058,3.53947e-05,346.4849999998058,6.720261e-06,346.4849999998058,6.2781e-06,346.4849999998058,2.289158e-06
346.49999999980577,3.412421e-05,346.49999999980577,6.867475e-06,346.49999999980577,6.123622e-06,346.49999999980577,2.391484e-06
346.51499999980575,3.382443e-05,346.51499999980575,6.774542e-06,346.51499999980575,5.889093e-06,346.51499999980575,2.420756e-06
346.52999999980574,3.361765e-05,346.52999999980574,6.237581e-06,346.52999999980574,5.75603e-06,346.52999999980574,2.443922e-06
346.5449999998057,3.344499e-05,346.5449999998057,6.413511e-06,346.5449999998057,5.775575e-06,346.5449999998057,2.426568e-06
346.5599999998057,3.325152e-05,346.5599999998057,6.266871e-06,346.5599999998057,5.743781e-06,346.5599999998057,2.449679e-06
346.5749999998057,3.284831e-05,346.5749999998057,6.300498e-06,346.5749999998057,5.48279e-06,346.5749999998057,2.517739e-06
346.5899999998057,3.262715e-05,346.5899999998057,6.242096e-06,346.5899999998057,5.498184e-06,346.5899999998057,2.449679e-06
346.60499999980567,3.093895e-05,346.60499999980567,6.028569e-06,346.60499999980567,5.368553e-06,346.60499999980567,2.517739e-06
346.61999999980566,2.858714e-05,346.61999999980566,5.792623e-06,346.61999999980566,5.336972e-06,346.61999999980566,2.584006e-06
346.63499999980564,2.883443e-05,346.63499999980564,5.75603e-06,346.63499999980564,5.464775e-06,346.63499999980564,2.701278e-06
346.64999999980563,3.34854e-05,346.64999999980563,5.724127e-06,346.64999999980563,5.614802e-06,346.64999999980563,2.680338e-06
346.6649999998056,4.715667e-05,346.6649999998056,6.64861e-06,346.6649999998056,5.748683e-06,346.6649999998056,2.664524e-06
346.6799999998056,5.482456e-05,346.6799999998056,7.2409e-06,346.6799999998056,5.629835e-06,346.6799999998056,2.727227e-06
346.6949999998056,5.622674e-05,346.6949999998056,7.364355e-06,346.6949999998056,5.719203e-06,346.6949999998056,2.605721e-06
346.7099999998056,5.561106e-05,346.7099999998056,7.304818e-06,346.7099999998056,5.729046e-06,346.7099999998056,2.664524e-06
346.72499999980556,5.571128e-05,346.72499999980556,7.398706e-06,346.72499999980556,5.584614e-06,346.72499999980556,2.685588e-06
346.73999999980555,6.066282e-05,346.73999999980555,7.480127e-06,346.73999999980555,5.546649e-06,346.73999999980555,2.902385e-06
346.75499999980553,6.206973e-05,346.75499999980553,7.942303e-06,346.75499999980553,5.741327e-06,346.75499999980553,2.853437e-06
346.7699999998055,6.517221e-05,346.7699999998055,8.570179e-06,346.7699999998055,5.719203e-06,346.7699999998055,2.838588e-06
346.7849999998055,9.753875e-05,346.7849999998055,8.604628e-06,346.7849999998055,5.624828e-06,346.7849999998055,2.838588e-06
346.7999999998055,0.0001123874,346.7999999998055,8.726546e-06,346.7999999998055,5.721665e-06,346.7999999998055,2.828646e-06
346.8149999998055,0.0001155147,346.8149999998055,8.681231e-06,346.8149999998055,6.121322e-06,346.8149999998055,2.793568e-06
346.82999999980547,0.0001174692,346.82999999980547,8.721702e-06,346.82999999980547,6.266871e-06,346.82999999980547,2.722057e-06
346.84499999980545,0.0001289826,346.84499999980545,8.916571e-06,346.84499999980545,6.304968e-06,346.84499999980545,2.763147e-06
346.85999999980544,0.000142449,346.85999999980544,8.861105e-06,346.85999999980544,6.625263e-06,346.85999999980544,2.685588e-06
346.8749999998054,0.0001482835,346.8749999998054,9.195013e-06,346.8749999998054,6.818068e-06,346.8749999998054,2.696058e-06
346.8899999998054,0.0001483938,346.8899999998054,9.561515e-06,346.8899999998054,7.003558e-06,346.8899999998054,2.988471e-06
346.9049999998054,0.000147237,346.9049999998054,9.68157e-06,346.9049999998054,7.025649e-06,346.9049999998054,3.044509e-06
346.9199999998054,0.0001493087,346.9199999998054,9.191949e-06,346.9199999998054,6.97938e-06,346.9199999998054,3.104077e-06
346.93499999980537,0.0001481342,346.93499999980537,8.970124e-06,346.93499999980537,7.109361e-06,346.93499999980537,3.11314e-06
346.94999999980536,0.0001500867,346.94999999980536,8.865873e-06,346.94999999980536,6.995509e-06,346.94999999980536,3.356985e-06
346.96499999980534,0.0001534929,346.96499999980534,8.897593e-06,346.96499999980534,7.043671e-06,346.96499999980534,3.348582e-06
346.97999999980533,0.000154945,346.97999999980533,8.810087e-06,346.97999999980533,7.04567e-06,346.97999999980533,3.335938e-06
346.9949999998053,0.0001713293,346.9949999998053,8.789276e-06,346.9949999998053,6.934835e-06,346.9949999998053,3.271984e-06
347.0099999998053,0.0002175971,347.0099999998053,8.313199e-06,347.0099999998053,7.001547e-06,347.0099999998053,3.29344e-06
347.0249999998053,0.0002302009,347.0249999998053,7.558809e-06,347.0249999998053,7.188182e-06,347.0249999998053,3.310505e-06
347.0399999998053,0.0002164125,347.0399999998053,7.436688e-06,347.0399999998053,7.506446e-06,347.0399999998053,3.335938e-06
347.05499999980526,0.0002039794,347.05499999980526,7.642211e-06,347.05499999980526,7.392992e-06,347.05499999980526,3.435788e-06
347.06999999980525,0.0002037551,347.06999999980525,7.632989e-06,347.06999999980525,7.1921e-06,347.06999999980525,3.468433e-06
347.08499999980523,0.0002386139,347.08499999980523,7.656943e-06,347.08499999980523,6.900217e-06,347.08499999980523,3.500774e-06
347.0999999998052,0.0002756232,347.0999999998052,7.515824e-06,347.0999999998052,6.885912e-06,347.0999999998052,3.516832e-06
347.1149999998052,0.0002819278,347.1149999998052,7.48201e-06,347.1149999998052,6.599699e-06,347.1149999998052,3.484641e-06
347.1299999998052,0.0002980672,347.1299999998052,7.248678e-06,347.1299999998052,6.329497e-06,347.1299999998052,3.356985e-06
347.1449999998052,0.0003203429,347.1449999998052,6.692956e-06,347.1449999998052,6.16489e-06,347.1449999998052,3.140172e-06
347.15999999980517,0.0003258907,347.15999999980517,6.57832e-06,347.15999999980517,5.976941e-06,347.15999999980517,3.140172e-06
347.17499999980515,0.0003495844,347.17499999980515,6.019215e-06,347.17499999980515,6.219488e-06,347.17499999980515,3.117661e-06
347.18999999980514,0.0003992208,347.18999999980514,6.061194e-06,347.18999999980514,6.102884e-06,347.18999999980514,3.058359e-06
347.2049999998051,0.0004361381,347.2049999998051,5.922486e-06,347.2049999998051,6.051891e-06,347.2049999998051,2.916909e-06
347.2199999998051,0.0004388343,347.2199999998051,5.865124e-06,347.2199999998051,6.049562e-06,347.2199999998051,2.95052e-06
347.2349999998051,0.0004508375,347.2349999998051,6.155743e-06,347.2349999998051,6.347276e-06,347.2349999998051,2.960054e-06
347.2499999998051,0.0004413054,347.2499999998051,5.967507e-06,347.2499999998051,6.369431e-06,347.2499999998051,2.848496e-06
347.26499999980507,0.000434321,347.26499999980507,5.922486e-06,347.26499999980507,6.100575e-06,347.26499999980507,2.997883e-06
347.27999999980506,0.0004515437,347.27999999980506,5.901041e-06,347.27999999980506,5.965146e-06,347.27999999980506,3.044509e-06
347.29499999980504,0.0004723012,347.29499999980504,5.711809e-06,347.29499999980504,5.559333e-06,347.29499999980504,3.039879e-06
347.30999999980503,0.0004729014,347.30999999980503,5.642331e-06,347.30999999980503,5.587136e-06,347.30999999980503,3.394541e-06
347.324999999805,0.0005608434,347.324999999805,5.790191e-06,347.324999999805,5.472503e-06,347.324999999805,3.406967e-06
347.339999999805,0.0006565413,347.339999999805,5.867525e-06,347.339999999805,5.571988e-06,347.339999999805,3.427579e-06
347.354999999805,0.0006695346,347.354999999805,6.203613e-06,347.354999999805,5.48279e-06,347.354999999805,3.54476e-06
347.369999999805,0.0006721142,347.369999999805,6.455107e-06,347.369999999805,5.350154e-06,347.369999999805,3.67356e-06
347.38499999980496,0.0006772235,347.38499999980496,6.496438e-06,347.38499999980496,5.420777e-06,347.38499999980496,3.741947e-06
347.39999999980495,0.0006732053,347.39999999980495,6.574036e-06,347.39999999980495,5.360675e-06,347.39999999980495,3.745709e-06
347.41499999980493,0.0008019586,347.41499999980493,6.64861e-06,347.41499999980493,5.457037e-06,347.41499999980493,3.805405e-06
347.4299999998049,0.001151403,347.4299999998049,6.642251e-06,347.4299999998049,5.329048e-06,347.4299999998049,3.834905e-06
347.4449999998049,0.001302676,347.4449999998049,6.535352e-06,347.4449999998049,5.459618e-06,347.4449999998049,3.794284e-06
347.4599999998049,0.001321494,347.4599999998049,6.633762e-06,347.4599999998049,5.988714e-06,347.4599999998049,3.786851e-06
347.4749999998049,0.001353091,347.4749999998049,6.755802e-06,347.4749999998049,6.189974e-06,347.4749999998049,3.83123e-06
347.48999999980487,0.001385484,347.48999999980487,6.409116e-06,347.48999999980487,5.853103e-06,347.48999999980487,3.82387e-06
347.50499999980485,0.001372218,347.50499999980485,6.369431e-06,347.50499999980485,5.995767e-06,347.50499999980485,3.882364e-06
347.51999999980484,0.001315001,347.51999999980484,6.448557e-06,347.51999999980484,6.2781e-06,347.51999999980484,3.801702e-06
347.5349999998048,0.001459068,347.5349999998048,6.539662e-06,347.5349999998048,6.248863e-06,347.5349999998048,3.779404e-06
347.5499999998048,0.002039467,347.5499999998048,6.601833e-06,347.5499999998048,6.280343e-06,347.5499999998048,3.677393e-06
347.5649999998048,0.002487121,347.5649999998048,6.780777e-06,347.5649999998048,6.595429e-06,347.5649999998048,3.615583e-06
347.5799999998048,0.002578817,347.5799999998048,6.569749e-06,347.5799999998048,6.505105e-06,347.5799999998048,3.681221e-06
347.59499999980477,0.002568493,347.59499999980477,6.358363e-06,347.59499999980477,6.433248e-06,347.59499999980477,3.73441e-06
347.60999999980476,0.00258039,347.60999999980476,5.721665e-06,347.60999999980476,6.682424e-06,347.60999999980476,3.532818e-06
347.62499999980474,0.002585675,347.62499999980474,5.792623e-06,347.62499999980474,7.142966e-06,347.62499999980474,3.452149e-06
347.63999999980473,0.002590895,347.63999999980473,5.792623e-06,347.63999999980473,7.19993e-06,347.63999999980473,3.524834e-06
347.6549999998047,0.002592141,347.6549999998047,6.900217e-06,347.6549999998047,8.049767e-06,347.6549999998047,3.615583e-06
347.6699999998047,0.002523821,347.6699999998047,7.573703e-06,347.6699999998047,9.33791e-06,347.6699999998047,3.552699e-06
347.6849999998047,0.002358169,347.6849999998047,7.699141e-06,347.6849999998047,1.134815e-05,347.6849999998047,3.845909e-06
347.6999999998047,0.002236435,347.6999999998047,9.054529e-06,347.6999999998047,1.257974e-05,347.6999999998047,3.936414e-06
347.71499999980466,0.002164566,347.71499999980466,9.20114e-06,347.71499999980466,1.503071e-05,347.71499999980466,3.957827e-06
347.72999999980465,0.002092545,347.72999999980465,9.426494e-06,347.72999999980465,1.640807e-05,347.72999999980465,3.922073e-06
347.74499999980463,0.002028752,347.74499999980463,1.054382e-05,347.74499999980463,1.637971e-05,347.74499999980463,3.911283e-06
347.7599999998046,0.001992011,347.7599999998046,1.127342e-05,347.7599999998046,1.722235e-05,347.7599999998046,3.812802e-06
347.7749999998046,0.001960876,347.7749999998046,1.149369e-05,347.7749999998046,1.77079e-05,347.7749999998046,3.78313e-06
347.7899999998046,0.00183293,347.7899999998046,1.16156e-05,347.7899999998046,1.91105e-05,347.7899999998046,3.794284e-06
347.8049999998046,0.001417471,347.8049999998046,1.228973e-05,347.8049999998046,2.37523e-05,347.8049999998046,3.779404e-06
347.81999999980457,0.0009138439,347.81999999980457,1.258757e-05,347.81999999980457,2.810811e-05,347.81999999980457,3.504795e-06
347.83499999980455,0.0008364021,347.83499999980455,1.280614e-05,347.83499999980455,3.722206e-05,347.83499999980455,3.456227e-06
347.84999999980454,0.0008904328,347.84999999980454,1.311696e-05,347.84999999980454,5.170302e-05,347.84999999980454,3.528828e-06
347.8649999998045,0.0009849687,347.8649999998045,1.317055e-05,347.8649999998045,5.442613e-05,347.8649999998045,3.564574e-06
347.8799999998045,0.00103871,347.8799999998045,1.318017e-05,347.8799999998045,5.485744e-05,347.8799999998045,3.615583e-06
347.8949999998045,0.001053065,347.8949999998045,1.292112e-05,347.8949999998045,5.655473e-05,347.8949999998045,3.584279e-06
347.9099999998045,0.00104831,347.9099999998045,1.257302e-05,347.9099999998045,5.908842e-05,347.9099999998045,3.488681e-06
347.92499999980447,0.001031912,347.92499999980447,1.25831e-05,347.92499999980447,5.923556e-05,347.92499999980447,3.484641e-06
347.93999999980446,0.0009358492,347.93999999980446,1.246613e-05,347.93999999980446,8.467425e-05,347.93999999980446,3.206755e-06
347.95499999980444,0.0009136703,347.95499999980444,1.219307e-05,347.95499999980444,9.017863e-05,347.95499999980444,3.144655e-06
347.96999999980443,0.0009126787,347.96999999980443,1.239814e-05,347.96999999980443,0.0001005753,347.96999999980443,3.224279e-06
347.9849999998044,0.0009095035,347.9849999998044,1.296574e-05,347.9849999998044,0.0001014764,347.9849999998044,3.250386e-06
347.9999999998044,0.0009200507,347.9999999998044,1.682516e-05,347.9999999998044,0.0001019883,347.9999999998044,3.267676e-06
348.0149999998044,0.0009488129,348.0149999998044,0.0001977342,348.0149999998044,0.0001023126,348.0149999998044,3.361178e-06
348.0299999998044,0.0009567536,348.0299999998044,0.001086093,348.0299999998044,0.0001025549,348.0299999998044,3.373728e-06
348.04499999980436,0.0009158527,348.04499999980436,0.001592901,348.04499999980436,0.0001024448,348.04499999980436,3.423466e-06
348.05999999980435,0.000872768,348.05999999980435,0.002022591,348.05999999980435,0.0001013345,348.05999999980435,3.496747e-06
348.07499999980433,0.0008614639,348.07499999980433,0.002073128,348.07499999980433,0.0001001227,348.07499999980433,3.599965e-06
348.0899999998043,0.0008507598,348.0899999998043,0.002077874,348.0899999998043,9.578002e-05,348.0899999998043,3.516832e-06
348.1049999998043,0.000790581,348.1049999998043,0.002111587,348.1049999998043,9.017942e-05,348.1049999998043,3.377901e-06
348.1199999998043,0.0006698117,348.1199999998043,0.002189408,348.1199999998043,9.084506e-05,348.1199999998043,3.419349e-06
348.1349999998043,0.0005429899,348.1349999998043,0.00223652,348.1349999998043,9.06678e-05,348.1349999998043,3.352786e-06
348.14999999980427,0.0004914963,348.14999999980427,0.002243507,348.14999999980427,8.960603e-05,348.14999999980427,3.394541e-06
348.16499999980425,0.0004833743,348.16499999980425,0.002247312,348.16499999980425,8.861422e-05,348.16499999980425,3.615583e-06
348.17999999980424,0.0004923883,348.17999999980424,0.002270454,348.17999999980424,8.789869e-05,348.17999999980424,3.662038e-06
348.1949999998042,0.0005071863,348.1949999998042,0.002285237,348.1949999998042,6.288525e-05,348.1949999998042,3.607783e-06
348.2099999998042,0.000491899,348.2099999998042,0.002288583,348.2099999998042,5.056164e-05,348.2099999998042,3.540784e-06
348.2249999998042,0.0004546256,348.2249999998042,0.002328843,348.2249999998042,3.409323e-05,348.2249999998042,3.472492e-06
348.2399999998042,0.0004900685,348.2399999998042,0.002362779,348.2399999998042,3.38856e-05,348.2399999998042,3.476546e-06
348.25499999980417,0.0005305708,348.25499999980417,0.002380503,348.25499999980417,3.4986e-05,348.25499999980417,3.568524e-06
348.26999999980416,0.0004963589,348.26999999980416,0.002337745,348.26999999980416,3.478005e-05,348.26999999980416,3.580347e-06
348.28499999980414,0.000437862,348.28499999980414,0.002039169,348.28499999980414,4.097e-05,348.28499999980414,3.753223e-06
348.29999999980413,0.0004312857,348.29999999980413,0.001601505,348.29999999980413,4.159784e-05,348.29999999980413,3.730636e-06
348.3149999998041,0.0004350622,348.3149999998041,0.001176926,348.3149999998041,4.335777e-05,348.3149999998041,3.82387e-06
348.3299999998041,0.0004349341,348.3299999998041,0.001137082,348.3299999998041,4.333827e-05,348.3299999998041,3.760722e-06
348.3449999998041,0.0004338601,348.3449999998041,0.001130849,348.3449999998041,4.541183e-05,348.3449999998041,3.871464e-06
348.3599999998041,0.000435288,348.3599999998041,0.001076138,348.3599999998041,4.648181e-05,348.3599999998041,3.943564e-06
348.37499999980406,0.0004255232,348.37499999980406,0.00100728,348.37499999980406,4.525055e-05,348.37499999980406,3.842245e-06
348.38999999980405,0.0004176938,348.38999999980405,0.001020199,348.38999999980405,4.759436e-05,348.38999999980405,3.853228e-06
348.40499999980403,0.000418376,348.40499999980403,0.001048576,348.40499999980403,4.899617e-05,348.40499999980403,3.82387e-06
348.419999999804,0.0004154746,348.419999999804,0.001032064,348.419999999804,5.521373e-05,348.419999999804,3.568524e-06
348.434999999804,0.0003968558,348.434999999804,0.0009822181,348.434999999804,5.82959e-05,348.434999999804,3.556662e-06
348.449999999804,0.0003584499,348.449999999804,0.0009570853,348.449999999804,6.354064e-05,348.449999999804,3.603876e-06
348.464999999804,0.0003407075,348.464999999804,0.0009410092,348.464999999804,6.309636e-05,348.464999999804,3.568524e-06
348.47999999980397,0.0003477903,348.47999999980397,0.0008540295,348.47999999980397,6.422553e-05,348.47999999980397,3.57641e-06
348.49499999980395,0.0002987698,348.49499999980395,0.0007780921,348.49499999980395,6.510301e-05,348.49499999980395,3.685046e-06
348.50999999980394,0.0002575339,348.50999999980394,0.0007687417,348.50999999980394,6.494833e-05,348.50999999980394,3.548731e-06
348.5249999998039,0.0002326983,348.5249999998039,0.0007879522,348.5249999998039,6.45323e-05,348.5249999998039,3.59605e-06
348.5399999998039,0.0002299208,348.5399999998039,0.0007884706,348.5399999998039,6.092719e-05,348.5399999998039,3.548731e-06
348.5549999998039,0.0002171062,348.5549999998039,0.0007768492,348.5549999998039,6.058242e-05,348.5549999998039,3.658189e-06
348.5699999998039,0.0002102048,348.5699999998039,0.0007676078,348.5699999998039,6.149952e-05,348.5699999998039,3.631134e-06
348.58499999980387,0.0002182346,348.58499999980387,0.0007671405,348.58499999980387,6.123116e-05,348.58499999980387,3.638885e-06
348.59999999980386,0.0002259922,348.59999999980386,0.0007651161,348.59999999980386,5.943096e-05,348.59999999980386,3.508812e-06
348.61499999980384,0.0002367031,348.61499999980384,0.0007279093,348.61499999980384,5.918417e-05,348.61499999980384,3.456227e-06
348.62999999980383,0.0002375812,348.62999999980383,0.0006104276,348.62999999980383,5.887993e-05,348.62999999980383,3.484641e-06
348.6449999998038,0.0002366125,348.6449999998038,0.0004859435,348.6449999998038,5.881913e-05,348.6449999998038,3.476546e-06
348.6599999998038,0.0002380516,348.6599999998038,0.0004165297,348.6599999998038,5.771622e-05,348.6599999998038,3.552699e-06
348.6749999998038,0.00022943,348.6749999998038,0.0004090659,348.6749999998038,5.370258e-05,348.6749999998038,3.54476e-06
348.6899999998038,0.0002308866,348.6899999998038,0.0003740525,348.6899999998038,5.290021e-05,348.6899999998038,3.512824e-06
348.70499999980376,0.0002263331,348.70499999980376,0.0003601248,348.70499999980376,4.856618e-05,348.70499999980376,3.516832e-06
348.71999999980375,0.0002203416,348.71999999980375,0.0003585093,348.71999999980375,4.921877e-05,348.71999999980375,3.504795e-06
348.73499999980373,0.0002218762,348.73499999980373,0.0003500576,348.73499999980373,4.787383e-05,348.73499999980373,3.406967e-06
348.7499999998037,0.0002198078,348.7499999998037,0.0003286069,348.7499999998037,4.601764e-05,348.7499999998037,3.386231e-06
348.7649999998037,0.0002219456,348.7649999998037,0.0002156896,348.7649999998037,4.549272e-05,348.7649999998037,3.297714e-06
348.7799999998037,0.0002243331,348.7799999998037,0.000133501,348.7799999998037,4.473993e-05,348.7799999998037,3.158065e-06
348.7949999998037,0.0002277193,348.7949999998037,0.0001182781,348.7949999998037,4.432301e-05,348.7949999998037,3.122176e-06
348.80999999980367,0.000227955,348.80999999980367,0.000110447,348.80999999980367,4.39608e-05,348.80999999980367,2.940956e-06
348.82499999980365,0.0002264931,348.82499999980365,9.199532e-05,348.82499999980365,4.215924e-05,348.82499999980365,2.828646e-06
348.83999999980364,0.0002142376,348.83999999980364,6.343969e-05,348.83999999980364,4.025408e-05,348.83999999980364,2.848496e-06
348.8549999998036,0.0002026218,348.8549999998036,3.519635e-05,348.8549999998036,4.105553e-05,348.8549999998036,2.838588e-06
348.8699999998036,0.0001883495,348.8699999998036,2.645157e-05,348.8699999998036,4.060425e-05,348.8699999998036,2.873116e-06
348.8849999998036,0.0001872135,348.8849999998036,2.530519e-05,348.8849999998036,4.056885e-05,348.8849999998036,2.868209e-06
348.8999999998036,0.0001779272,348.8999999998036,2.475933e-05,348.8999999998036,3.498882e-05,348.8999999998036,2.818668e-06
348.91499999980357,0.0001745377,348.91499999980357,2.444037e-05,348.91499999980357,3.476992e-05,348.91499999980357,2.783465e-06
348.92999999980356,0.0001725871,348.92999999980356,2.313155e-05,348.92999999980356,3.290316e-05,348.92999999980356,2.778399e-06
348.94499999980354,0.0001710569,348.94499999980354,2.313399e-05,348.94499999980354,2.848842e-05,348.94499999980354,2.758045e-06
348.95999999980353,0.0001736311,348.95999999980353,2.249368e-05,348.95999999980353,2.808705e-05,348.95999999980353,2.742679e-06
348.9749999998035,0.0001580982,348.9749999998035,2.441038e-05,348.9749999998035,2.679128e-05,348.9749999998035,2.921734e-06
348.9899999998035,0.0001242135,348.9899999998035,2.42e-05,348.9899999998035,2.574996e-05,348.9899999998035,3.237359e-06
349.0049999998035,0.0001081944,349.0049999998035,2.355518e-05,349.0049999998035,2.469552e-05,349.0049999998035,3.237359e-06
349.0199999998035,0.0001100906,349.0199999998035,2.375645e-05,349.0199999998035,2.462927e-05,349.0199999998035,3.254718e-06
349.03499999980346,0.0001121478,349.03499999980346,2.358446e-05,349.03499999980346,2.466984e-05,349.03499999980346,3.314757e-06
349.04999999980345,0.0001073676,349.04999999980345,2.305958e-05,349.04999999980345,2.453586e-05,349.04999999980345,3.254718e-06
349.06499999980343,0.0001041927,349.06499999980343,2.073329e-05,349.06499999980343,2.325303e-05,349.06499999980343,3.340158e-06
349.0799999998034,0.0001001897,349.0799999998034,2.012932e-05,349.0799999998034,2.302106e-05,349.0799999998034,3.356985e-06
349.0949999998034,9.451954e-05,349.0949999998034,2.058601e-05,349.0949999998034,2.120621e-05,349.0949999998034,3.435788e-06
349.1099999998034,9.491782e-05,349.1099999998034,2.162782e-05,349.1099999998034,2.151615e-05,349.1099999998034,3.464369e-06
349.1249999998034,9.243983e-05,349.1249999998034,2.083833e-05,349.1249999998034,2.15874e-05,349.1249999998034,3.484641e-06
349.13999999980336,9.167381e-05,349.13999999980336,1.934567e-05,349.13999999980336,2.175381e-05,349.13999999980336,3.520835e-06
349.15499999980335,9.527836e-05,349.15499999980335,1.802407e-05,349.15499999980335,2.165971e-05,349.15499999980335,3.435788e-06
349.16999999980334,0.0001181904,349.16999999980334,1.848629e-05,349.16999999980334,2.118494e-05,349.16999999980334,3.435788e-06
349.1849999998033,0.0001251705,349.1849999998033,1.912671e-05,349.1849999998033,2.142824e-05,349.1849999998033,3.448066e-06
349.1999999998033,0.000171357,349.1999999998033,1.855247e-05,349.1999999998033,2.032224e-05,349.1999999998033,3.448066e-06
349.2149999998033,0.0001811198,349.2149999998033,1.855626e-05,349.2149999998033,1.993382e-05,349.2149999998033,3.415227e-06
349.2299999998033,0.0001828955,349.2299999998033,1.624933e-05,349.2299999998033,1.82817e-05,349.2299999998033,3.331712e-06
349.24499999980327,0.0001958842,349.24499999980327,1.648601e-05,349.24499999980327,1.856916e-05,349.24499999980327,2.960054e-06
349.25999999980326,0.0002152037,349.25999999980326,1.673028e-05,349.25999999980326,1.856613e-05,349.25999999980326,2.955291e-06
349.27499999980324,0.0002366783,349.27499999980324,1.705632e-05,349.27499999980324,1.890745e-05,349.27499999980324,3.076727e-06
349.28999999980323,0.0002428794,349.28999999980323,1.760978e-05,349.28999999980323,1.983606e-05,349.28999999980323,3.085871e-06
349.3049999998032,0.0002429672,349.3049999998032,1.788599e-05,349.3049999998032,2.265903e-05,349.3049999998032,3.085871e-06
349.3199999998032,0.000246334,349.3199999998032,1.886867e-05,349.3199999998032,2.306996e-05,349.3199999998032,3.085871e-06
349.3349999998032,0.0002468783,349.3349999998032,2.25949e-05,349.3349999998032,2.282194e-05,349.3349999998032,3.122176e-06
349.3499999998032,0.0002466191,349.3499999998032,2.402473e-05,349.3499999998032,2.424826e-05,349.3499999998032,3.099535e-06
349.36499999980316,0.0002466023,349.36499999980316,2.399246e-05,349.36499999980316,2.61748e-05,349.36499999980316,3.153601e-06
349.37999999980315,0.0002461856,349.37999999980315,2.554343e-05,349.37999999980315,2.58177e-05,349.37999999980315,3.11314e-06
349.39499999980313,0.0002465193,349.39499999980313,3.173106e-05,349.39499999980313,2.644518e-05,349.39499999980313,3.131187e-06
349.4099999998031,0.0002645928,349.4099999998031,3.289674e-05,349.4099999998031,2.722419e-05,349.4099999998031,3.323245e-06
349.4249999998031,0.0003039592,349.4249999998031,3.351273e-05,349.4249999998031,2.782199e-05,349.4249999998031,3.323245e-06
349.4399999998031,0.000332971,349.4399999998031,3.597538e-05,349.4399999998031,2.785387e-05,349.4399999998031,3.323245e-06
349.4549999998031,0.0003152686,349.4549999998031,3.658305e-05,349.4549999998031,2.814167e-05,349.4549999998031,3.314757e-06
349.46999999980306,0.0003227461,349.46999999980306,3.663192e-05,349.46999999980306,3.103986e-05,349.46999999980306,3.398688e-06
349.48499999980305,0.0003422216,349.48499999980305,3.681604e-05,349.48499999980305,3.104666e-05,349.48499999980305,3.335938e-06
349.49999999980304,0.0003538355,349.49999999980304,3.736031e-05,349.49999999980304,3.101398e-05,349.49999999980304,3.327482e-06
349.514999999803,0.0003697275,349.514999999803,3.722925e-05,349.514999999803,3.089612e-05,349.514999999803,3.259043e-06
349.529999999803,0.0003689137,349.529999999803,3.704452e-05,349.529999999803,3.046175e-05,349.529999999803,3.184716e-06
349.544999999803,0.000365841,349.544999999803,3.727841e-05,349.544999999803,2.888958e-05,349.544999999803,3.19355e-06
349.559999999803,0.0003700486,349.559999999803,3.722963e-05,349.559999999803,2.804891e-05,349.559999999803,3.184716e-06
349.57499999980297,0.0003781447,349.57499999980297,3.574755e-05,349.57499999980297,2.807451e-05,349.57499999980297,3.184716e-06
349.58999999980296,0.0003836741,349.58999999980296,3.453292e-05,349.58999999980296,2.743295e-05,349.58999999980296,3.162522e-06
349.60499999980294,0.0003874557,349.60499999980294,3.401505e-05,349.60499999980294,2.644678e-05,349.60499999980294,3.131187e-06
349.6199999998029,0.0003913833,349.6199999998029,3.482862e-05,349.6199999998029,2.506861e-05,349.6199999998029,3.025945e-06
349.6349999998029,0.0003910991,349.6349999998029,3.393586e-05,349.6349999998029,2.512194e-05,349.6349999998029,3.090432e-06
349.6499999998029,0.0004012909,349.6499999998029,2.950902e-05,349.6499999998029,2.541406e-05,349.6499999998029,3.011947e-06
349.6649999998029,0.0004256371,349.6649999998029,2.98314e-05,349.6649999998029,2.458003e-05,349.6649999998029,2.887788e-06
349.6799999998029,0.0003934202,349.6799999998029,3.092756e-05,349.6799999998029,2.417787e-05,349.6799999998029,2.916909e-06
349.69499999980286,0.0003674352,349.69499999980286,2.972733e-05,349.69499999980286,2.418719e-05,349.69499999980286,2.921734e-06
349.70999999980285,0.0003674261,349.70999999980285,2.918357e-05,349.70999999980285,2.121683e-05,349.70999999980285,2.960054e-06
349.72499999980283,0.0003620691,349.72499999980283,3.07187e-05,349.72499999980283,1.915689e-05,349.72499999980283,3.067557e-06
349.7399999998028,0.0003983327,349.7399999998028,3.124927e-05,349.7399999998028,1.973567e-05,349.7399999998028,3.117661e-06
349.7549999998028,0.0005111044,349.7549999998028,3.128892e-05,349.7549999998028,1.973924e-05,349.7549999998028,3.11314e-06
349.7699999998028,0.0005080208,349.7699999998028,3.159714e-05,349.7699999998028,1.953912e-05,349.7699999998028,3.11314e-06
349.7849999998028,0.0005060644,349.7849999998028,3.461929e-05,349.7849999998028,1.999309e-05,349.7849999998028,3.144655e-06
349.79999999980276,0.0005365653,349.79999999980276,3.519635e-05,349.79999999980276,2.023193e-05,349.79999999980276,3.090432e-06
349.81499999980275,0.0005757141,349.81499999980275,3.510979e-05,349.81499999980275,2.021172e-05,349.81499999980275,3.039879e-06
349.82999999980274,0.0006074309,349.82999999980274,3.513867e-05,349.82999999980274,1.972496e-05,349.82999999980274,3.162522e-06
349.8449999998027,0.0006106235,349.8449999998027,3.464166e-05,349.8449999998027,1.920096e-05,349.8449999998027,3.144655e-06
349.8599999998027,0.0006091238,349.8599999998027,3.307354e-05,349.8599999998027,1.867959e-05,349.8599999998027,3.144655e-06
349.8749999998027,0.0006021062,349.8749999998027,3.154628e-05,349.8749999998027,1.795281e-05,349.8749999998027,3.049133e-06
349.8899999998027,0.0006054908,349.8899999998027,3.151322e-05,349.8899999998027,1.682767e-05,349.8899999998027,2.936162e-06
349.90499999980267,0.0005954647,349.90499999980267,3.217324e-05,349.90499999980267,1.507282e-05,349.90499999980267,2.964809e-06
349.91999999980266,0.00057972,349.91999999980266,3.278865e-05,349.91999999980266,1.345623e-05,349.91999999980266,2.936162e-06
349.93499999980264,0.0005779728,349.93499999980264,3.213031e-05,349.93499999980264,1.348342e-05,349.93499999980264,3.01662e-06
349.9499999998026,0.0005778846,349.9499999998026,3.140217e-05,349.9499999998026,1.312985e-05,349.9499999998026,2.936162e-06
349.9649999998026,0.0006003546,349.9649999998026,3.656841e-05,349.9649999998026,1.255171e-05,349.9649999998026,2.912075e-06
349.9799999998026,0.0006579441,349.9799999998026,4.008822e-05,349.9799999998026,1.190547e-05,349.9799999998026,2.758045e-06
349.9949999998026,0.000735495,349.9949999998026,3.972818e-05,349.9949999998026,1.106915e-05,349.9949999998026,2.858369e-06
350.0099999998026,0.0007120996,350.0099999998026,3.952663e-05,350.0099999998026,1.02553e-05,350.0099999998026,2.863294e-06
350.02499999980256,0.000723556,350.02499999980256,3.957506e-05,350.02499999980256,9.971149e-06,350.02499999980256,3.072146e-06
350.03999999980255,0.0007568842,350.03999999980255,3.858708e-05,350.03999999980255,8.540542e-06,350.03999999980255,3.166973e-06
350.05499999980253,0.0007401985,350.05499999980253,3.84547e-05,350.05499999980253,8.173069e-06,350.05499999980253,3.140172e-06
350.0699999998025,0.0007824385,350.0699999998025,3.852314e-05,350.0699999998025,8.606265e-06,350.0699999998025,3.062961e-06
350.0849999998025,0.0008775751,350.0849999998025,3.81834e-05,350.0849999998025,1.087917e-05,350.0849999998025,2.931361e-06
350.0999999998025,0.0009242993,350.0999999998025,3.860496e-05,350.0999999998025,1.213516e-05,350.0999999998025,2.907234e-06
350.1149999998025,0.0009288094,350.1149999998025,3.835603e-05,350.1149999998025,1.245821e-05,350.1149999998025,3.085871e-06
350.12999999980246,0.0009673532,350.12999999980246,4.052647e-05,350.12999999980246,1.309116e-05,350.12999999980246,3.267676e-06
350.14499999980245,0.001042455,350.14499999980245,4.166585e-05,350.14499999980245,1.30286e-05,350.14499999980245,3.28916e-06
350.15999999980244,0.001093003,350.15999999980244,4.129739e-05,350.15999999980244,1.285116e-05,350.15999999980244,3.284874e-06
350.1749999998024,0.001108262,350.1749999998024,3.887876e-05,350.1749999998024,1.285226e-05,350.1749999998024,3.267676e-06
350.1899999998024,0.001124036,350.1899999998024,3.757649e-05,350.1899999998024,1.287306e-05,350.1899999998024,3.24605e-06
350.2049999998024,0.001258424,350.2049999998024,3.745371e-05,350.2049999998024,1.288072e-05,350.2049999998024,3.24605e-06
350.2199999998024,0.001468589,350.2199999998024,3.025014e-05,350.2199999998024,1.356778e-05,350.2199999998024,3.352786e-06
350.23499999980237,0.001564503,350.23499999980237,2.734243e-05,350.23499999980237,2.043009e-05,350.23499999980237,3.327482e-06
350.24999999980236,0.001509616,350.24999999980236,2.704613e-05,350.24999999980236,2.463098e-05,350.24999999980236,3.241707e-06
350.26499999980234,0.001530226,350.26499999980234,2.718173e-05,350.26499999980234,3.290273e-05,350.26499999980234,3.484641e-06
350.2799999998023,0.001615059,350.2799999998023,2.65902e-05,350.2799999998023,4.015493e-05,350.2799999998023,3.40283e-06
350.2949999998023,0.001717485,350.2949999998023,2.563207e-05,350.2949999998023,4.184263e-05,350.2949999998023,3.431686e-06
350.3099999998023,0.001803509,350.3099999998023,2.568039e-05,350.3099999998023,4.231765e-05,350.3099999998023,3.448066e-06
350.3249999998023,0.001773501,350.3249999998023,2.798405e-05,350.3249999998023,4.317349e-05,350.3249999998023,3.472492e-06
350.3399999998023,0.001719646,350.3399999998023,2.795836e-05,350.3399999998023,4.435382e-05,350.3399999998023,3.508812e-06
350.35499999980226,0.00169448,350.35499999980226,2.694229e-05,350.35499999980226,4.43211e-05,350.35499999980226,3.496747e-06
350.36999999980225,0.001744903,350.36999999980225,2.673813e-05,350.36999999980225,4.427212e-05,350.36999999980225,3.472492e-06
350.38499999980223,0.001841849,350.38499999980223,2.271367e-05,350.38499999980223,4.463591e-05,350.38499999980223,3.464369e-06
350.3999999998022,0.001955913,350.3999999998022,2.146437e-05,350.3999999998022,4.465389e-05,350.3999999998022,3.516832e-06
350.4149999998022,0.00206441,350.4149999998022,2.417728e-05,350.4149999998022,4.467029e-05,350.4149999998022,3.464369e-06
350.4299999998022,0.002091269,350.4299999998022,2.467156e-05,350.4299999998022,4.479311e-05,350.4299999998022,3.439886e-06
350.4449999998022,0.002101984,350.4449999998022,2.472972e-05,350.4449999998022,4.498736e-05,350.4449999998022,3.528828e-06
350.45999999980216,0.002201578,350.45999999980216,2.892856e-05,350.45999999980216,4.506838e-05,350.45999999980216,3.954266e-06
350.47499999980215,0.002336574,350.47499999980215,3.07929e-05,350.47499999980215,4.374526e-05,350.47499999980215,4.199587e-06
350.48999999980214,0.002537036,350.48999999980214,3.108249e-05,350.48999999980214,4.124927e-05,350.48999999980214,4.219664e-06
350.5049999998021,0.002683668,350.5049999998021,5.035897e-05,350.5049999998021,3.700571e-05,350.5049999998021,4.20629e-06
350.5199999998021,0.002682551,350.5199999998021,5.291007e-05,350.5199999998021,2.774899e-05,350.5199999998021,4.070128e-06
350.5349999998021,0.00267182,350.5349999998021,5.956283e-05,350.5349999998021,2.367091e-05,350.5349999998021,4.256228e-06
350.5499999998021,0.002648978,350.5499999998021,7.770876e-05,350.5499999998021,2.085793e-05,350.5499999998021,4.312125e-06
350.56499999980207,0.002699413,350.56499999980207,8.343475e-05,350.56499999980207,2.018243e-05,350.56499999980207,4.308857e-06
350.57999999980206,0.002785969,350.57999999980206,0.0001803263,350.57999999980206,1.634355e-05,350.57999999980206,4.312125e-06
350.59499999980204,0.002813991,350.59499999980204,0.000191879,350.59499999980204,1.33004e-05,350.59499999980204,4.232997e-06
350.609999999802,0.002813127,350.609999999802,0.0002016167,350.609999999802,1.292439e-05,350.609999999802,4.216325e-06
350.624999999802,0.002781739,350.624999999802,0.0002023093,350.624999999802,1.194445e-05,350.624999999802,4.654602e-06
350.639999999802,0.002693522,350.639999999802,0.000203121,350.639999999802,1.11982e-05,350.639999999802,4.79767e-06
350.654999999802,0.002524674,350.654999999802,0.0002050008,350.654999999802,1.127592e-05,350.654999999802,4.884961e-06
350.669999999802,0.002335071,350.669999999802,0.0002051153,350.669999999802,1.157308e-05,350.669999999802,4.925167e-06
350.68499999980196,0.002250195,350.68499999980196,0.0002051179,350.68499999980196,1.180089e-05,350.68499999980196,5.013047e-06
350.69999999980195,0.002244766,350.69999999980195,0.0002050317,350.69999999980195,1.099893e-05,350.69999999980195,5.102175e-06
350.71499999980193,0.002135189,350.71499999980193,0.0002045343,350.71499999980193,1.075153e-05,350.71499999980193,4.648545e-06
350.7299999998019,0.001888172,350.7299999998019,0.0002043744,350.7299999998019,1.082075e-05,350.7299999998019,4.747494e-06
350.7449999998019,0.001399676,350.7449999998019,0.000203225,350.7449999998019,1.003171e-05,350.7449999998019,4.794733e-06
350.7599999998019,0.00111707,350.7599999998019,0.0002000886,350.7599999998019,9.719326e-06,350.7599999998019,4.83569e-06
350.7749999998019,0.001008124,350.7749999998019,0.0001985996,350.7749999998019,1.162167e-05,350.7749999998019,4.803539e-06
350.78999999980186,0.0009880561,350.78999999980186,0.0001986027,350.78999999980186,1.131707e-05,350.78999999980186,4.79767e-06
350.80499999980185,0.0009607754,350.80499999980185,0.0001919426,350.80499999980185,1.228744e-05,350.80499999980185,4.861837e-06
350.81999999980184,0.0007695662,350.81999999980184,0.0001295795,350.81999999980184,1.249547e-05,350.81999999980184,5.115961e-06
350.8349999998018,0.0004434531,350.8349999998018,0.0001008916,350.8349999998018,1.250787e-05,350.8349999998018,5.299891e-06
350.8499999998018,0.0003037443,350.8499999998018,7.379776e-05,350.8499999998018,1.246839e-05,350.8499999998018,5.436346e-06
350.8649999998018,0.0003015661,350.8649999998018,5.117282e-05,350.8649999998018,1.243445e-05,350.8649999998018,5.770695e-06
350.8799999998018,0.0002751571,350.8799999998018,5.342249e-05,350.8799999998018,1.236629e-05,350.8799999998018,5.922486e-06
350.89499999980177,0.0002742807,350.89499999980177,5.897769e-05,350.89499999980177,1.250449e-05,350.89499999980177,6.867475e-06
350.90999999980176,0.0002833597,350.90999999980176,7.034105e-05,350.90999999980176,1.257302e-05,350.90999999980176,6.995509e-06
350.92499999980174,0.0002744864,350.92499999980174,8.366405e-05,350.92499999980174,1.229546e-05,350.92499999980174,8.17996e-06
350.9399999998017,0.0002763309,350.9399999998017,8.486502e-05,350.9399999998017,1.195742e-05,350.9399999998017,9.18275e-06
350.9549999998017,0.0002828646,350.9549999998017,8.528047e-05,350.9549999998017,1.183545e-05,350.9549999998017,1.07476e-05
350.9699999998017,0.0002995688,350.9699999998017,8.619839e-05,350.9699999998017,1.184021e-05,350.9699999998017,1.129465e-05
350.9849999998017,0.0002971316,350.9849999998017,8.629133e-05,350.9849999998017,1.245595e-05,350.9849999998017,1.20396e-05
350.9999999998017,0.0003064584,350.9999999998017,8.597683e-05,350.9999999998017,1.256741e-05,350.9999999998017,1.213981e-05
351.01499999980166,0.0002957402,351.01499999980166,8.576111e-05,351.01499999980166,1.340589e-05,351.01499999980166,1.225759e-05
351.02999999980165,0.0002825811,351.02999999980165,8.544466e-05,351.02999999980165,1.25225e-05,351.02999999980165,1.241177e-05
351.04499999980163,0.0002679934,351.04499999980163,8.194929e-05,351.04499999980163,1.24129e-05,351.04499999980163,1.25135e-05
351.0599999998016,0.0002667119,351.0599999998016,8.194121e-05,351.0599999998016,1.219538e-05,351.0599999998016,1.257638e-05
351.0749999998016,0.000260407,351.0749999998016,0.0001289221,351.0749999998016,1.225989e-05,351.0749999998016,1.273886e-05
351.0899999998016,0.0002555476,351.0899999998016,0.0001400699,351.0899999998016,1.251012e-05,351.0899999998016,1.322179e-05
351.1049999998016,0.0002464356,351.1049999998016,0.0001695353,351.1049999998016,1.340694e-05,351.1049999998016,1.379022e-05
351.11999999980156,0.0002306161,351.11999999980156,0.0001762715,351.11999999980156,1.369798e-05,351.11999999980156,1.372264e-05
351.13499999980155,0.0002270283,351.13499999980155,0.0001735137,351.13499999980155,1.452939e-05,351.13499999980155,1.34782e-05
351.14999999980154,0.0002190653,351.14999999980154,0.0001776138,351.14999999980154,1.546401e-05,351.14999999980154,1.348342e-05
351.1649999998015,0.0001966596,351.1649999998015,0.0001751195,351.1649999998015,2.31565e-05,351.1649999998015,1.348342e-05
351.1799999998015,0.0001945373,351.1799999998015,0.0001715877,351.1799999998015,2.465556e-05,351.1799999998015,1.292112e-05
351.1949999998015,0.0001899639,351.1949999998015,0.0001713521,351.1949999998015,2.812915e-05,351.1949999998015,1.252475e-05
351.2099999998015,0.0001798565,351.2099999998015,0.000171531,351.2099999998015,2.972069e-05,351.2099999998015,1.275765e-05
351.22499999980147,0.0001369001,351.22499999980147,0.0001713189,351.22499999980147,3.842758e-05,351.22499999980147,1.235717e-05
351.23999999980146,0.0001319322,351.23999999980146,0.0001714129,351.23999999980146,5.173978e-05,351.23999999980146,1.19739e-05
351.25499999980144,0.0001099124,351.25499999980144,0.0001718892,351.25499999980144,5.472606e-05,351.25499999980144,1.213516e-05
351.2699999998014,0.000107089,351.2699999998014,0.0001718884,351.2699999998014,8.35633e-05,351.2699999998014,1.226563e-05
351.2849999998014,0.0001085144,351.2849999998014,0.0001719756,351.2849999998014,0.000137025,351.2849999998014,1.256293e-05
351.2999999998014,0.0001090306,351.2999999998014,0.0001765631,351.2999999998014,0.0001451089,351.2999999998014,1.263114e-05
351.3149999998014,8.932845e-05,351.3149999998014,0.000180285,351.3149999998014,0.0001585332,351.3149999998014,1.24966e-05
351.3299999998014,8.762486e-05,351.3299999998014,0.0001661271,351.3299999998014,0.0001620194,351.3299999998014,1.239132e-05
351.34499999980136,7.949518e-05,351.34499999980136,0.0004394538,351.34499999980136,0.000162102,351.34499999980136,1.245369e-05
351.35999999980135,7.923302e-05,351.35999999980135,0.0004899482,351.35999999980135,0.0001623212,351.35999999980135,1.200562e-05
351.37499999980133,8.206798e-05,351.37499999980133,0.0005529968,351.37499999980133,0.0001627213,351.37499999980133,1.212587e-05
