X[s],a: EMG RMS 1-1,X[s].1,a: EMG RMS 1-2,X[s].2,a: EMG RMS 1-3,X[s].3,a: EMG RMS 1-4
472.0049999996916,0.00436396,472.0049999996916,6.712291e-05,472.0049999996916,7.872273e-05,472.0049999996916,1.63263e-05
472.0199999996916,0.004264716,472.0199999996916,6.716781e-05,472.0199999996916,9.632178e-05,472.0199999996916,1.640721e-05
472.0349999996916,0.004091609,472.0349999996916,6.817552e-05,472.0349999996916,9.6492e-05,472.0349999996916,1.602235e-05
472.0499999996916,0.003939032,472.0499999996916,6.638942e-05,472.0499999996916,9.664998e-05,472.0499999996916,1.597657e-05
472.06499999969157,0.003842628,472.06499999969157,6.562068e-05,472.06499999969157,9.857396e-05,472.06499999969157,1.651589e-05
472.07999999969155,0.003678555,472.07999999969155,6.476262e-05,472.07999999969155,0.0001007906,472.07999999969155,1.644494e-05
472.09499999969154,0.003439511,472.09499999969154,6.403113e-05,472.09499999969154,0.0001009793,472.09499999969154,1.646378e-05
472.1099999996915,0.003237056,472.1099999996915,5.962855e-05,472.1099999996915,0.0001018621,472.1099999996915,1.591827e-05
472.1249999996915,0.002964012,472.1249999996915,5.808699e-05,472.1249999996915,0.0001031293,472.1249999996915,1.622678e-05
472.1399999996915,0.002641551,472.1399999996915,5.708824e-05,472.1399999996915,9.753124e-05,472.1399999996915,1.633234e-05
472.1549999996915,0.002330314,472.1549999996915,5.587489e-05,472.1549999996915,9.732651e-05,472.1549999996915,1.603817e-05
472.16999999969147,0.001953067,472.16999999969147,4.973382e-05,472.16999999969147,9.771003e-05,472.16999999969147,1.608903e-05
472.18499999969146,0.00155723,472.18499999969146,4.986677e-05,472.18499999969146,9.540513e-05,472.18499999969146,1.712967e-05
472.19999999969144,0.001017048,472.19999999969144,5.030383e-05,472.19999999969144,9.496397e-05,472.19999999969144,1.737868e-05
472.21499999969143,0.0006796223,472.21499999969143,5.115493e-05,472.21499999969143,8.908226e-05,472.21499999969143,1.759057e-05
472.2299999996914,0.0005803094,472.2299999996914,5.220354e-05,472.2299999996914,8.667817e-05,472.2299999996914,1.824545e-05
472.2449999996914,0.000340739,472.2449999996914,5.280453e-05,472.2449999996914,8.303348e-05,472.2449999996914,1.795046e-05
472.2599999996914,0.0003216593,472.2599999996914,4.637806e-05,472.2599999996914,8.061413e-05,472.2599999996914,1.708191e-05
472.2749999996914,0.0003017234,472.2749999996914,5.225748e-05,472.2749999996914,6.317311e-05,472.2749999996914,1.77936e-05
472.28999999969136,0.0002805638,472.28999999969136,5.108053e-05,472.28999999969136,6.666066e-05,472.28999999969136,1.767923e-05
472.30499999969135,0.0002640921,472.30499999969135,5.190343e-05,472.30499999969135,6.482458e-05,472.30499999969135,1.778964e-05
472.31999999969133,0.0002527999,472.31999999969133,5.198289e-05,472.31999999969133,6.340859e-05,472.31999999969133,1.744502e-05
472.3349999996913,0.000307321,472.3349999996913,5.188442e-05,472.3349999996913,6.068603e-05,472.3349999996913,1.926833e-05
472.3499999996913,0.0002956172,472.3499999996913,5.201377e-05,472.3499999996913,6.487998e-05,472.3499999996913,1.942488e-05
472.3649999996913,0.000308467,472.3649999996913,5.956118e-05,472.3649999996913,6.507422e-05,472.3649999996913,2.031739e-05
472.3799999996913,0.0003093311,472.3799999996913,6.214821e-05,472.3799999996913,6.342436e-05,472.3799999996913,2.058943e-05
472.39499999969127,0.0003072174,472.39499999969127,6.360357e-05,472.39499999969127,6.281465e-05,472.39499999969127,2.037278e-05
472.40999999969125,0.0003099716,472.40999999969125,6.500708e-05,472.40999999969125,6.028989e-05,472.40999999969125,2.047554e-05
472.42499999969124,0.0003136422,472.42499999969124,0.0005142704,472.42499999969124,5.940109e-05,472.42499999969124,2.308278e-05
472.4399999996912,0.0003187467,472.4399999996912,0.001378574,472.4399999996912,5.80358e-05,472.4399999996912,2.283614e-05
472.4549999996912,0.0003244882,472.4549999996912,0.001808212,472.4549999996912,6.016242e-05,472.4549999996912,2.289589e-05
472.4699999996912,0.0003256654,472.4699999996912,0.002249542,472.4699999996912,6.35515e-05,472.4699999996912,2.245795e-05
472.4849999996912,0.0003287488,472.4849999996912,0.002409986,472.4849999996912,6.261362e-05,472.4849999996912,2.325908e-05
472.49999999969117,0.0003335768,472.49999999969117,0.002423988,472.49999999969117,6.071179e-05,472.49999999969117,2.407627e-05
472.51499999969116,0.0003022001,472.51499999969116,0.00243703,472.51499999969116,6.03338e-05,472.51499999969116,2.459206e-05
472.52999999969114,0.0003034949,472.52999999969114,0.002497699,472.52999999969114,6.298508e-05,472.52999999969114,2.498643e-05
472.54499999969113,0.0003083718,472.54499999969113,0.002560774,472.54499999969113,6.001731e-05,472.54499999969113,2.645796e-05
472.5599999996911,0.000303875,472.5599999996911,0.002613658,472.5599999996911,6.116096e-05,472.5599999996911,2.667008e-05
472.5749999996911,0.0002994649,472.5749999996911,0.002630902,472.5749999996911,6.217449e-05,472.5749999996911,2.620707e-05
472.5899999996911,0.0002891748,472.5899999996911,0.002633274,472.5899999996911,5.650141e-05,472.5899999996911,2.589398e-05
472.6049999996911,0.0003295185,472.6049999996911,0.002825514,472.6049999996911,5.667963e-05,472.6049999996911,2.617103e-05
472.61999999969106,0.0003555698,472.61999999969106,0.002903752,472.61999999969106,6.750274e-05,472.61999999969106,2.561778e-05
472.63499999969105,0.0004022022,472.63499999969105,0.002935052,472.63499999969105,7.293006e-05,472.63499999969105,2.584442e-05
472.64999999969103,0.0005368858,472.64999999969103,0.003002868,472.64999999969103,7.518916e-05,472.64999999969103,2.688314e-05
472.664999999691,0.0006225057,472.664999999691,0.003036569,472.664999999691,7.785129e-05,472.664999999691,2.735891e-05
472.679999999691,0.0008346161,472.679999999691,0.002895001,472.679999999691,8.68707e-05,472.679999999691,2.570232e-05
472.694999999691,0.00105064,472.694999999691,0.002650239,472.694999999691,8.696518e-05,472.694999999691,2.663625e-05
472.709999999691,0.001132601,472.709999999691,0.00232164,472.709999999691,9.10232e-05,472.709999999691,2.714854e-05
472.72499999969097,0.001177251,472.72499999969097,0.00189205,472.72499999969097,9.224228e-05,472.72499999969097,2.690409e-05
472.73999999969095,0.001315667,472.73999999969095,0.001787308,472.73999999969095,9.584588e-05,472.73999999969095,2.72392e-05
472.75499999969094,0.001505865,472.75499999969094,0.001758769,472.75499999969094,9.782444e-05,472.75499999969094,2.962337e-05
472.7699999996909,0.001677884,472.7699999996909,0.001748177,472.7699999996909,0.0001013379,472.7699999996909,2.991486e-05
472.7849999996909,0.001973399,472.7849999996909,0.001691261,472.7849999996909,0.000104063,472.7849999996909,2.963811e-05
472.7999999996909,0.002339499,472.7999999996909,0.00162384,472.7999999996909,0.0001050498,472.7999999996909,2.923228e-05
472.8149999996909,0.002643689,472.8149999996909,0.00154675,472.8149999996909,0.000106611,472.8149999996909,2.941052e-05
472.82999999969087,0.002943491,472.82999999969087,0.001536754,472.82999999969087,0.0001143545,472.82999999969087,2.939423e-05
472.84499999969086,0.00321483,472.84499999969086,0.001503522,472.84499999969086,0.0001188399,472.84499999969086,3.031294e-05
472.85999999969084,0.003459,472.85999999969084,0.0009295775,472.85999999969084,0.0001236484,472.85999999969084,3.027807e-05
472.87499999969083,0.003639809,472.87499999969083,0.0007956894,472.87499999969083,0.0001241813,472.87499999969083,3.134469e-05
472.8899999996908,0.003832754,472.8899999996908,0.0006668613,472.8899999996908,0.0001383543,472.8899999996908,3.129927e-05
472.9049999996908,0.0040154,472.9049999996908,0.0004196631,472.9049999996908,0.0001515441,472.9049999996908,3.023104e-05
472.9199999996908,0.00411571,472.9199999996908,0.000214253,472.9199999996908,0.0001522366,472.9199999996908,2.951045e-05
472.9349999996908,0.004216032,472.9349999996908,0.0001158453,472.9349999996908,0.000151987,472.9349999996908,2.970742e-05
472.94999999969076,0.004248551,472.94999999969076,0.0001084852,472.94999999969076,0.0001606183,472.94999999969076,3.052642e-05
472.96499999969075,0.004327135,472.96499999969075,0.0001088518,472.96499999969075,0.000161866,472.96499999969075,2.985075e-05
472.97999999969073,0.004351327,472.97999999969073,9.618054e-05,472.97999999969073,0.0001754178,472.97999999969073,3.044741e-05
472.9949999996907,0.004350065,472.9949999996907,7.66643e-05,472.9949999996907,0.0001815984,472.9949999996907,2.964666e-05
473.0099999996907,0.004297161,473.0099999996907,6.720596e-05,473.0099999996907,0.0001836946,473.0099999996907,2.852252e-05
473.0249999996907,0.004201086,473.0249999996907,6.147179e-05,473.0249999996907,0.0001925128,473.0249999996907,2.95052e-05
473.0399999996907,0.004078101,473.0399999996907,5.57833e-05,473.0399999996907,0.0001981098,473.0399999996907,3.057299e-05
473.05499999969066,0.003869282,473.05499999969066,5.26822e-05,473.05499999969066,0.000203776,473.05499999969066,3.085049e-05
473.06999999969065,0.003663278,473.06999999969065,5.2942e-05,473.06999999969065,0.0002106136,473.06999999969065,3.04599e-05
473.08499999969064,0.003428169,473.08499999969064,5.198641e-05,473.08499999969064,0.0002203289,473.08499999969064,3.013303e-05
473.0999999996906,0.003186545,473.0999999996906,5.320636e-05,473.0999999996906,0.0002258522,473.0999999996906,3.098444e-05
473.1149999996906,0.002891022,473.1149999996906,5.319126e-05,473.1149999996906,0.0002343104,473.1149999996906,3.239316e-05
473.1299999996906,0.002690688,473.1299999996906,5.338899e-05,473.1299999996906,0.0002353039,473.1299999996906,3.151367e-05
473.1449999996906,0.002396069,473.1449999996906,5.324129e-05,473.1449999996906,0.0002330969,473.1449999996906,3.192358e-05
473.15999999969057,0.002137411,473.15999999969057,5.293535e-05,473.15999999969057,0.0002308483,473.15999999969057,3.166573e-05
473.17499999969056,0.001802298,473.17499999969056,5.804915e-05,473.17499999969056,0.0002345369,473.17499999969056,3.122312e-05
473.18999999969054,0.001514034,473.18999999969054,5.771159e-05,473.18999999969054,0.0002409183,473.18999999969054,3.121093e-05
473.20499999969053,0.001335922,473.20499999969053,6.188631e-05,473.20499999969053,0.0002399672,473.20499999969053,2.979596e-05
473.2199999996905,0.001075505,473.2199999996905,6.375576e-05,473.2199999996905,0.0002392442,473.2199999996905,3.022265e-05
473.2349999996905,0.0008586188,473.2349999996905,6.374736e-05,473.2349999996905,0.0002352986,473.2349999996905,2.935155e-05
473.2499999996905,0.000697648,473.2499999996905,6.472193e-05,473.2499999996905,0.000237631,473.2499999996905,2.9213e-05
473.2649999996905,0.0006951232,473.2649999996905,6.466074e-05,473.2649999996905,0.0002349264,473.2649999996905,2.6418e-05
473.27999999969046,0.0006550474,473.27999999969046,6.811412e-05,473.27999999969046,0.000224231,473.27999999969046,2.824858e-05
473.29499999969045,0.000714307,473.29499999969045,6.79211e-05,473.29499999969045,0.0002211124,473.29499999969045,2.655415e-05
473.30999999969043,0.0007345458,473.30999999969043,6.702882e-05,473.30999999969043,0.000213872,473.30999999969043,2.54473e-05
473.3249999996904,0.0007418913,473.3249999996904,6.656233e-05,473.3249999996904,0.0002086448,473.3249999996904,2.542514e-05
473.3399999996904,0.0009875821,473.3399999996904,6.536365e-05,473.3399999996904,0.0001919343,473.3399999996904,2.490964e-05
473.3549999996904,0.001064233,473.3549999996904,0.0006606275,473.3549999996904,0.0001813685,473.3549999996904,2.260301e-05
473.3699999996904,0.001196682,473.3699999996904,0.001314196,473.3699999996904,0.00016759,473.3699999996904,2.183976e-05
473.38499999969036,0.001414957,473.38499999969036,0.001709387,473.38499999969036,0.0001555251,473.38499999969036,2.18049e-05
473.39999999969035,0.001672092,473.39999999969035,0.002169782,473.39999999969035,0.0001511715,473.39999999969035,2.065637e-05
473.41499999969034,0.001865274,473.41499999969034,0.002384013,473.41499999969034,0.0001383379,473.41499999969034,2.114501e-05
473.4299999996903,0.0021142,473.4299999996903,0.002404984,473.4299999996903,0.0001338431,473.4299999996903,2.13914e-05
473.4449999996903,0.002296019,473.4449999996903,0.002469678,473.4449999996903,0.0001172159,473.4449999996903,2.298738e-05
473.4599999996903,0.002413183,473.4599999996903,0.0025171,473.4599999996903,0.0001096551,473.4599999996903,2.447435e-05
473.4749999996903,0.002569828,473.4749999996903,0.002532567,473.4749999996903,0.0001013609,473.4749999996903,2.379792e-05
473.48999999969027,0.002816516,473.48999999969027,0.002532779,473.48999999969027,8.500367e-05,473.48999999969027,2.418194e-05
473.50499999969026,0.002972114,473.50499999969026,0.00253317,473.50499999969026,8.005863e-05,473.50499999969026,2.514772e-05
473.51999999969024,0.003148101,473.51999999969024,0.002533569,473.51999999969024,8.232796e-05,473.51999999969024,2.407452e-05
473.5349999996902,0.003399915,473.5349999996902,0.002533935,473.5349999996902,8.405075e-05,473.5349999996902,2.360834e-05
473.5499999996902,0.00354305,473.5499999996902,0.002534148,473.5499999996902,8.519089e-05,473.5499999996902,2.816668e-05
473.5649999996902,0.003671205,473.5649999996902,0.002699519,473.5649999996902,8.870352e-05,473.5649999996902,2.949374e-05
473.5799999996902,0.00382525,473.5799999996902,0.002859416,473.5799999996902,8.894077e-05,473.5799999996902,3.006283e-05
473.5949999996902,0.003922557,473.5949999996902,0.003166907,473.5949999996902,9.050188e-05,473.5949999996902,3.063559e-05
473.60999999969016,0.003967744,473.60999999969016,0.003208467,473.60999999969016,9.548763e-05,473.60999999969016,3.083999e-05
473.62499999969015,0.003997847,473.62499999969015,0.003055291,473.62499999969015,0.0001024032,473.62499999969015,3.080434e-05
473.63999999969013,0.004007075,473.63999999969013,0.002914355,473.63999999969013,0.000104642,473.63999999969013,3.077963e-05
473.6549999996901,0.003917265,473.6549999996901,0.002653842,473.6549999996901,0.0001047616,473.6549999996901,3.126865e-05
473.6699999996901,0.003761245,473.6699999996901,0.002554062,473.6699999996901,0.0001064752,473.6699999996901,3.158823e-05
473.6849999996901,0.003668936,473.6849999996901,0.002539333,473.6849999996901,0.0001070691,473.6849999996901,3.293696e-05
473.6999999996901,0.003594291,473.6999999996901,0.002506447,473.6999999996901,0.0001065221,473.6999999996901,3.20737e-05
473.71499999969006,0.003436732,473.71499999969006,0.002483641,473.71499999969006,0.0001073407,473.71499999969006,3.070586e-05
473.72999999969005,0.003357913,473.72999999969005,0.002482024,473.72999999969005,0.0001074381,473.72999999969005,3.110605e-05
473.74499999969004,0.003170251,473.74499999969004,0.00248345,473.74499999969004,0.0001033249,473.74499999969004,3.036309e-05
473.75999999969,0.002991196,473.75999999969,0.002483847,473.75999999969,9.431783e-05,473.75999999969,3.021193e-05
473.77499999969,0.002810629,473.77499999969,0.00248398,473.77499999969,9.110071e-05,473.77499999969,3.007547e-05
473.78999999969,0.002511492,473.78999999969,0.002486562,473.78999999969,9.077231e-05,473.78999999969,2.987669e-05
473.80499999969,0.002248024,473.80499999969,0.0024887,473.80499999969,8.872813e-05,473.80499999969,2.635019e-05
473.81999999968997,0.00202828,473.81999999968997,0.002152923,473.81999999968997,8.607213e-05,473.81999999968997,2.457602e-05
473.83499999968996,0.001801259,473.83499999968996,0.001950042,473.83499999968996,8.406047e-05,473.83499999968996,2.418602e-05
473.84999999968994,0.001410734,473.84999999968994,0.001434269,473.84999999968994,8.181028e-05,473.84999999968994,2.355099e-05
473.8649999996899,0.001160858,473.8649999996899,0.0009402703,473.8649999996899,7.491268e-05,473.8649999996899,2.401242e-05
473.8799999996899,0.001053285,473.8799999996899,0.0008965224,473.8799999996899,6.661585e-05,473.8799999996899,2.403587e-05
473.8949999996899,0.000773866,473.8949999996899,0.0006830776,473.8949999996899,6.279311e-05,473.8949999996899,2.428309e-05
473.9099999996899,0.0007645678,473.9099999996899,0.0004768081,473.9099999996899,5.71494e-05,473.9099999996899,2.279044e-05
473.9249999996899,0.0007649973,473.9249999996899,0.0004090952,473.9249999996899,5.388771e-05,473.9249999996899,2.070745e-05
473.93999999968986,0.0007549013,473.93999999968986,0.0004162251,473.93999999968986,5.015969e-05,473.93999999968986,2.100933e-05
473.95499999968985,0.0007606638,473.95499999968985,0.0004512777,473.95499999968985,4.79491e-05,473.95499999968985,2.221515e-05
473.96999999968983,0.000763417,473.96999999968983,0.0004723587,473.96999999968983,4.69408e-05,473.96999999968983,2.238381e-05
473.9849999996898,0.0007324851,473.9849999996898,0.0004750685,473.9849999996898,4.410955e-05,473.9849999996898,2.163107e-05
473.9999999996898,0.0007199306,473.9999999996898,0.0005047212,473.9999999996898,4.644149e-05,473.9999999996898,2.153448e-05
474.0149999996898,0.0006536334,474.0149999996898,0.0005533965,474.0149999996898,4.806852e-05,474.0149999996898,2.142495e-05
474.0299999996898,0.0006400176,474.0299999996898,0.0005881197,474.0299999996898,4.701906e-05,474.0299999996898,2.105822e-05
474.04499999968976,0.0006370495,474.04499999968976,0.0005731109,474.04499999968976,4.376876e-05,474.04499999968976,2.203816e-05
474.05999999968975,0.0006012697,474.05999999968975,0.0005707802,474.05999999968975,4.222701e-05,474.05999999968975,2.261983e-05
474.07499999968974,0.0005855132,474.07499999968974,0.000523718,474.07499999968974,4.202001e-05,474.07499999968974,2.323424e-05
474.0899999996897,0.0005743377,474.0899999996897,0.0005133904,474.0899999996897,4.423202e-05,474.0899999996897,2.345209e-05
474.1049999996897,0.0004548201,474.1049999996897,0.0005160274,474.1049999996897,4.539073e-05,474.1049999996897,2.338592e-05
474.1199999996897,0.0004512657,474.1199999996897,0.0005101876,474.1199999996897,4.758489e-05,474.1199999996897,2.466699e-05
474.1349999996897,0.0004709048,474.1349999996897,0.0005049311,474.1349999996897,4.763962e-05,474.1349999996897,2.51124e-05
474.14999999968967,0.0004726367,474.14999999968967,0.0005036873,474.14999999968967,4.873152e-05,474.14999999968967,2.523272e-05
474.16499999968966,0.0004971575,474.16499999968966,0.0004955591,474.16499999968966,5.069881e-05,474.16499999968966,2.572697e-05
474.17999999968964,0.000520754,474.17999999968964,0.0004643037,474.17999999968964,5.144107e-05,474.17999999968964,2.577948e-05
474.1949999996896,0.0005229412,474.1949999996896,0.0004628537,474.1949999996896,5.143614e-05,474.1949999996896,2.599117e-05
474.2099999996896,0.0006038193,474.2099999996896,0.0004323257,474.2099999996896,5.158327e-05,474.2099999996896,2.525894e-05
474.2249999996896,0.000648742,474.2249999996896,0.0004080508,474.2249999996896,5.150374e-05,474.2249999996896,2.581715e-05
474.2399999996896,0.0006654764,474.2399999996896,0.0003684378,474.2399999996896,5.530015e-05,474.2399999996896,2.537023e-05
474.2549999996896,0.0006713184,474.2549999996896,0.000322342,474.2549999996896,5.077793e-05,474.2549999996896,2.571656e-05
474.26999999968956,0.0006854709,474.26999999968956,0.0002299791,474.26999999968956,4.992661e-05,474.26999999968956,2.637317e-05
474.28499999968955,0.0006849342,474.28499999968955,0.0001158887,474.28499999968955,4.701097e-05,474.28499999968955,2.64851e-05
474.29999999968953,0.0007000003,474.29999999968953,9.879407e-05,474.29999999968953,4.671791e-05,474.29999999968953,2.509388e-05
474.3149999996895,0.0007292771,474.3149999996895,9.714136e-05,474.3149999996895,4.626005e-05,474.3149999996895,2.473884e-05
474.3299999996895,0.0008313719,474.3299999996895,8.382351e-05,474.3299999996895,4.65926e-05,474.3299999996895,2.496782e-05
474.3449999996895,0.0009404825,474.3449999996895,6.398778e-05,474.3449999996895,4.360916e-05,474.3449999996895,2.587438e-05
474.3599999996895,0.001024691,474.3599999996895,5.509087e-05,474.3599999996895,4.133797e-05,474.3599999996895,2.60853e-05
474.37499999968946,0.001138568,474.37499999968946,5.668684e-05,474.37499999968946,3.955655e-05,474.37499999968946,2.58357e-05
474.38999999968945,0.001318447,474.38999999968945,5.767911e-05,474.38999999968945,3.926453e-05,474.38999999968945,2.714543e-05
474.40499999968944,0.001490614,474.40499999968944,5.833649e-05,474.40499999968944,3.802035e-05,474.40499999968944,2.790491e-05
474.4199999996894,0.00186943,474.4199999996894,5.649991e-05,474.4199999996894,3.641516e-05,474.4199999996894,2.769207e-05
474.4349999996894,0.00208885,474.4349999996894,5.196988e-05,474.4349999996894,3.671297e-05,474.4349999996894,2.868504e-05
474.4499999996894,0.002231019,474.4499999996894,5.259255e-05,474.4499999996894,3.819262e-05,474.4499999996894,3.053565e-05
474.4649999996894,0.002307664,474.4649999996894,5.17719e-05,474.4649999996894,3.966857e-05,474.4649999996894,2.968085e-05
474.47999999968937,0.002417982,474.47999999968937,5.811585e-05,474.47999999968937,4.180491e-05,474.47999999968937,2.970125e-05
474.49499999968936,0.002434883,474.49499999968936,6.194478e-05,474.49499999968936,3.733165e-05,474.49499999968936,3.17958e-05
474.50999999968934,0.002441334,474.50999999968934,6.292198e-05,474.50999999968934,3.865601e-05,474.50999999968934,3.156369e-05
474.5249999996893,0.002445215,474.5249999996893,6.706664e-05,474.5249999996893,4.094386e-05,474.5249999996893,3.213119e-05
474.5399999996893,0.002439849,474.5399999996893,6.810399e-05,474.5399999996893,4.101158e-05,474.5399999996893,3.218419e-05
474.5549999996893,0.002437214,474.5549999996893,6.836432e-05,474.5549999996893,4.141661e-05,474.5549999996893,3.230869e-05
474.5699999996893,0.002433617,474.5699999996893,7.114313e-05,474.5699999996893,4.365274e-05,474.5699999996893,3.274652e-05
474.5849999996893,0.002398633,474.5849999996893,7.245743e-05,474.5849999996893,4.393612e-05,474.5849999996893,3.259777e-05
474.59999999968926,0.00235449,474.59999999968926,7.255826e-05,474.59999999968926,4.364371e-05,474.59999999968926,3.105347e-05
474.61499999968925,0.002321546,474.61499999968925,7.27012e-05,474.61499999968925,4.402708e-05,474.61499999968925,3.152886e-05
474.62999999968923,0.002300879,474.62999999968923,7.238818e-05,474.62999999968923,4.274293e-05,474.62999999968923,3.114633e-05
474.6449999996892,0.002167512,474.6449999996892,7.183752e-05,474.6449999996892,4.381894e-05,474.6449999996892,3.084455e-05
474.6599999996892,0.002081807,474.6599999996892,7.088904e-05,474.6599999996892,4.487323e-05,474.6599999996892,3.008109e-05
474.6749999996892,0.001937576,474.6749999996892,6.976736e-05,474.6749999996892,4.463843e-05,474.6749999996892,2.959197e-05
474.6899999996892,0.0017315,474.6899999996892,7.081587e-05,474.6899999996892,4.213818e-05,474.6899999996892,2.919998e-05
474.70499999968916,0.001564613,474.70499999968916,7.078185e-05,474.70499999968916,4.25947e-05,474.70499999968916,2.798203e-05
474.71999999968915,0.001422642,474.71999999968915,7.066014e-05,474.71999999968915,4.064205e-05,474.71999999968915,2.807702e-05
474.73499999968914,0.001339809,474.73499999968914,6.729562e-05,474.73499999968914,4.350081e-05,474.73499999968914,2.786348e-05
474.7499999996891,0.001320299,474.7499999996891,6.370382e-05,474.7499999996891,4.260627e-05,474.7499999996891,2.596189e-05
474.7649999996891,0.00130415,474.7649999996891,6.770944e-05,474.7649999996891,4.207361e-05,474.7649999996891,2.692503e-05
474.7799999996891,0.001317163,474.7799999996891,6.402519e-05,474.7799999996891,4.119391e-05,474.7799999996891,2.666955e-05
474.7949999996891,0.001321654,474.7949999996891,6.421018e-05,474.7949999996891,4.083017e-05,474.7949999996891,2.698982e-05
474.80999999968907,0.001322669,474.80999999968907,6.258413e-05,474.80999999968907,3.921786e-05,474.80999999968907,2.665793e-05
474.82499999968906,0.001320708,474.82499999968906,6.111903e-05,474.82499999968906,3.831745e-05,474.82499999968906,2.634966e-05
474.83999999968904,0.001309317,474.83999999968904,6.495701e-05,474.83999999968904,5.06927e-05,474.83999999968904,2.60188e-05
474.854999999689,0.001297695,474.854999999689,6.52286e-05,474.854999999689,5.085001e-05,474.854999999689,2.62119e-05
474.869999999689,0.001276996,474.869999999689,6.370935e-05,474.869999999689,5.112931e-05,474.869999999689,2.55313e-05
474.884999999689,0.001282579,474.884999999689,7.251787e-05,474.884999999689,5.226206e-05,474.884999999689,2.605505e-05
474.899999999689,0.001214979,474.899999999689,8.219199e-05,474.899999999689,5.143149e-05,474.899999999689,2.605505e-05
474.914999999689,0.001062301,474.914999999689,8.710971e-05,474.914999999689,5.079152e-05,474.914999999689,2.694908e-05
474.92999999968896,0.0009878048,474.92999999968896,0.0001110511,474.92999999968896,4.979072e-05,474.92999999968896,2.546666e-05
474.94499999968895,0.0009412045,474.94499999968895,0.0001289787,474.94499999968895,4.961386e-05,474.94499999968895,2.651699e-05
474.95999999968893,0.0009019077,474.95999999968893,0.0001331746,474.95999999968893,4.965842e-05,474.95999999968893,2.61748e-05
474.9749999996889,0.0008907156,474.9749999996889,0.0001367241,474.9749999996889,4.574439e-05,474.9749999996889,2.625862e-05
474.9899999996889,0.0009279401,474.9899999996889,0.0001403702,474.9899999996889,4.712948e-05,474.9899999996889,2.620277e-05
475.0049999996889,0.0009297899,475.0049999996889,0.000195474,475.0049999996889,4.847008e-05,475.0049999996889,2.822663e-05
475.0199999996889,0.000926821,475.0199999996889,0.0002017863,475.0199999996889,4.79585e-05,475.0199999996889,2.741395e-05
475.03499999968886,0.0009812538,475.03499999968886,0.0002340647,475.03499999968886,4.929141e-05,475.03499999968886,2.752011e-05
475.04999999968885,0.0009754075,475.04999999968885,0.0003190084,475.04999999968885,5.134953e-05,475.04999999968885,2.718018e-05
475.06499999968884,0.0009780378,475.06499999968884,0.0003309718,475.06499999968884,5.121382e-05,475.06499999968884,2.75329e-05
475.0799999996888,0.0009797347,475.0799999996888,0.0004874257,475.0799999996888,5.080151e-05,475.0799999996888,2.796239e-05
475.0949999996888,0.0009799952,475.0949999996888,0.0005015162,475.0949999996888,3.914164e-05,475.0949999996888,2.810811e-05
475.1099999996888,0.000971115,475.1099999996888,0.0005058753,475.1099999996888,3.766075e-05,475.1099999996888,2.76177e-05
475.1249999996888,0.0009661859,475.1249999996888,0.0005077929,475.1249999996888,3.712884e-05,475.1249999996888,2.762586e-05
475.13999999968877,0.0009396144,475.13999999968877,0.0005128092,475.13999999968877,3.499928e-05,475.13999999968877,2.721798e-05
475.15499999968875,0.0009005624,475.15499999968875,0.0005119575,475.15499999968875,3.506683e-05,475.15499999968875,2.618663e-05
475.16999999968874,0.0008914249,475.16999999968874,0.0005102687,475.16999999968874,3.509735e-05,475.16999999968874,2.599388e-05
475.1849999996887,0.0007692621,475.1849999996887,0.0005051579,475.1849999996887,3.490457e-05,475.1849999996887,2.618448e-05
475.1999999996887,0.0006873963,475.1999999996887,0.0005021869,475.1999999996887,3.455412e-05,475.1999999996887,2.518969e-05
475.2149999996887,0.000661842,475.2149999996887,0.0005016274,475.2149999996887,3.330866e-05,475.2149999996887,2.501686e-05
475.2299999996887,0.0005773836,475.2299999996887,0.0005009526,475.2299999996887,3.298312e-05,475.2299999996887,2.435897e-05
475.2449999996887,0.0005494634,475.2449999996887,0.000499149,475.2449999996887,3.149176e-05,475.2449999996887,2.415047e-05
475.25999999968866,0.0004781996,475.25999999968866,0.001167966,475.25999999968866,2.881635e-05,475.25999999968866,2.040456e-05
475.27499999968865,0.000433403,475.27499999968865,0.001573057,475.27499999968865,2.469838e-05,475.27499999968865,2.049548e-05
475.28999999968863,0.000278987,475.28999999968863,0.002062804,475.28999999968863,2.392367e-05,475.28999999968863,2.141575e-05
475.3049999996886,0.0002642151,475.3049999996886,0.002444335,475.3049999996886,1.85593e-05,475.3049999996886,2.063385e-05
475.3199999996886,0.0002320248,475.3199999996886,0.002567004,475.3199999996886,1.885822e-05,475.3199999996886,2.032224e-05
475.3349999996886,0.0002139198,475.3349999996886,0.002581626,475.3349999996886,1.849315e-05,475.3349999996886,2.108563e-05
475.3499999996886,0.0002085617,475.3499999996886,0.002616634,475.3499999996886,1.766808e-05,475.3499999996886,2.082143e-05
475.36499999968856,0.0001922766,475.36499999968856,0.002625827,475.36499999968856,1.853728e-05,475.36499999968856,2.101068e-05
475.37999999968855,0.0001873883,475.37999999968855,0.002629656,475.37999999968855,1.847104e-05,475.37999999968855,2.084306e-05
475.39499999968854,0.0001823362,475.39499999968854,0.002632583,475.39499999968854,1.864789e-05,475.39499999968854,2.011181e-05
475.4099999996885,0.0001793079,475.4099999996885,0.002633135,475.4099999996885,1.861916e-05,475.4099999996885,1.969209e-05
475.4249999996885,0.0001771221,475.4249999996885,0.002633109,475.4249999996885,1.836627e-05,475.4249999996885,1.992463e-05
475.4399999996885,0.0001786234,475.4399999996885,0.002633334,475.4399999996885,1.839998e-05,475.4399999996885,2.057506e-05
475.4549999996885,0.000179597,475.4549999996885,0.002633641,475.4549999996885,1.866979e-05,475.4549999996885,2.152139e-05
475.46999999968847,0.0001817821,475.46999999968847,0.002633992,475.46999999968847,1.914659e-05,475.46999999968847,2.18133e-05
475.48499999968845,0.0001851866,475.48499999968845,0.002634191,475.48499999968845,1.894095e-05,475.48499999968845,2.25356e-05
475.49999999968844,0.0001815428,475.49999999968844,0.002629633,475.49999999968844,1.828401e-05,475.49999999968844,2.238067e-05
475.5149999996884,0.0001819547,475.5149999996884,0.002236765,475.5149999996884,1.910534e-05,475.5149999996884,2.223353e-05
475.5299999996884,0.000202914,475.5299999996884,0.001971333,475.5299999996884,2.003392e-05,475.5299999996884,2.080315e-05
475.5449999996884,0.0001984866,475.5449999996884,0.00150246,475.5449999996884,2.012162e-05,475.5449999996884,2.060858e-05
475.5599999996884,0.0002509824,475.5599999996884,0.0006709095,475.5599999996884,2.036794e-05,475.5599999996884,2.07129e-05
475.5749999996884,0.000263771,475.5749999996884,0.0005360696,475.5749999996884,1.963908e-05,475.5749999996884,2.057164e-05
475.58999999968836,0.000272027,475.58999999968836,0.0004226302,475.58999999968836,2.007887e-05,475.58999999968836,2.019081e-05
475.60499999968835,0.0002889824,475.60499999968835,0.0002703402,475.60499999968835,2.011671e-05,475.60499999968835,2.034164e-05
475.61999999968833,0.0002926568,475.61999999968833,0.0002170799,475.61999999968833,2.291803e-05,475.61999999968833,1.974638e-05
475.6349999996883,0.0003090597,475.6349999996883,0.000151439,475.6349999996883,2.33582e-05,475.6349999996883,2.03631e-05
475.6499999996883,0.0003238854,475.6499999996883,0.0001077459,475.6499999996883,2.319298e-05,475.6499999996883,2.093747e-05
475.6649999996883,0.000329541,475.6649999996883,0.0001025508,475.6649999996883,3.006845e-05,475.6649999996883,2.140983e-05
475.6799999996883,0.0003495252,475.6799999996883,0.0001030117,475.6799999996883,3.164259e-05,475.6799999996883,2.108764e-05
475.69499999968826,0.0003574744,475.69499999968826,0.0001024668,475.69499999968826,3.243358e-05,475.69499999968826,1.929171e-05
475.70999999968825,0.0003697452,475.70999999968825,9.498443e-05,475.70999999968825,3.425153e-05,475.70999999968825,1.937769e-05
475.72499999968824,0.0003810314,475.72499999968824,8.727805e-05,475.72499999968824,3.603681e-05,475.72499999968824,1.94198e-05
475.7399999996882,0.0003874255,475.7399999996882,8.436825e-05,475.7399999996882,3.695162e-05,475.7399999996882,1.891937e-05
475.7549999996882,0.0003915721,475.7549999996882,8.338138e-05,475.7549999996882,3.864982e-05,475.7549999996882,1.949076e-05
475.7699999996882,0.0003943477,475.7699999996882,8.489638e-05,475.7699999996882,3.891352e-05,475.7699999996882,1.948859e-05
475.7849999996882,0.0003899966,475.7849999996882,8.525585e-05,475.7849999996882,4.069955e-05,475.7849999996882,2.003181e-05
475.79999999968817,0.0003856017,475.79999999968817,9.11406e-05,475.79999999968817,4.31255e-05,475.79999999968817,2.006062e-05
475.81499999968815,0.0003634302,475.81499999968815,9.400127e-05,475.81499999968815,4.382537e-05,475.81499999968815,1.998746e-05
475.82999999968814,0.0003643073,475.82999999968814,9.808502e-05,475.82999999968814,4.415456e-05,475.82999999968814,1.920682e-05
475.8449999996881,0.0003656054,475.8449999996881,9.901782e-05,475.8449999996881,4.51608e-05,475.8449999996881,1.951532e-05
475.8599999996881,0.0003564718,475.8599999996881,9.974271e-05,475.8599999996881,4.5953e-05,475.8599999996881,1.920976e-05
475.8749999996881,0.0003527963,475.8749999996881,0.0001001945,475.8749999996881,4.489771e-05,475.8749999996881,1.895359e-05
475.8899999996881,0.000346692,475.8899999996881,0.0001216238,475.8899999996881,4.488735e-05,475.8899999996881,1.884253e-05
475.9049999996881,0.0003463541,475.9049999996881,0.0001492401,475.9049999996881,4.501959e-05,475.9049999996881,1.954849e-05
475.91999999968806,0.000343292,475.91999999968806,0.000181295,475.91999999968806,4.221934e-05,475.91999999968806,1.955786e-05
475.93499999968805,0.0003367616,475.93499999968805,0.0002672495,475.93499999968805,4.170707e-05,475.93499999968805,1.931142e-05
475.94999999968803,0.0003470565,475.94999999968803,0.0002694977,475.94999999968803,4.476291e-05,475.94999999968803,1.970782e-05
475.964999999688,0.0003424344,475.964999999688,0.000282562,475.964999999688,4.449335e-05,475.964999999688,2.006623e-05
475.979999999688,0.000362907,475.979999999688,0.0002844865,475.979999999688,4.376651e-05,475.979999999688,2.001914e-05
475.994999999688,0.0003719913,475.994999999688,0.0002889765,475.994999999688,4.344021e-05,475.994999999688,1.99797e-05
476.009999999688,0.0003663299,476.009999999688,0.0003121514,476.009999999688,4.318849e-05,476.009999999688,2.020266e-05
476.02499999968796,0.0004096948,476.02499999968796,0.0003307752,476.02499999968796,4.301004e-05,476.02499999968796,2.045765e-05
476.03999999968795,0.0004036263,476.03999999968795,0.0003364708,476.03999999968795,3.972251e-05,476.03999999968795,2.042526e-05
476.05499999968794,0.0003943756,476.05499999968794,0.0003645301,476.05499999968794,3.900681e-05,476.05499999968794,2.09442e-05
476.0699999996879,0.000386643,476.0699999996879,0.0003813785,476.0699999996879,3.9142e-05,476.0699999996879,2.192538e-05
476.0849999996879,0.0003856048,476.0849999996879,0.0003818755,476.0849999996879,4.116791e-05,476.0849999996879,2.181136e-05
476.0999999996879,0.0003812649,476.0999999996879,0.0003828937,476.0999999996879,3.987647e-05,476.0999999996879,2.14243e-05
476.1149999996879,0.0003745617,476.1149999996879,0.0003894877,476.1149999996879,3.990119e-05,476.1149999996879,2.118494e-05
476.12999999968787,0.0003735119,476.12999999968787,0.0005242037,476.12999999968787,3.935913e-05,476.12999999968787,2.176222e-05
476.14499999968785,0.0003623244,476.14499999968785,0.0008265538,476.14499999968785,3.880078e-05,476.14499999968785,2.113168e-05
476.15999999968784,0.0003589663,476.15999999968784,0.0008474755,476.15999999968784,3.872882e-05,476.15999999968784,2.111701e-05
476.1749999996878,0.0003563532,476.1749999996878,0.0008999858,476.1749999996878,3.795026e-05,476.1749999996878,2.0961e-05
476.1899999996878,0.0003439338,476.1899999996878,0.0009276354,476.1899999996878,3.689401e-05,476.1899999996878,2.110233e-05
476.2049999996878,0.0003306338,476.2049999996878,0.0009374852,476.2049999996878,3.290958e-05,476.2049999996878,2.10033e-05
476.2199999996878,0.0003374041,476.2199999996878,0.0009347824,476.2199999996878,3.259518e-05,476.2199999996878,2.026393e-05
476.2349999996878,0.0003130958,476.2349999996878,0.0009337804,476.2349999996878,3.17457e-05,476.2349999996878,2.051678e-05
476.24999999968776,0.0003483361,476.24999999968776,0.0009314853,476.24999999968776,3.047978e-05,476.24999999968776,2.065091e-05
476.26499999968775,0.0004441532,476.26499999968775,0.0009216942,476.26499999968775,2.957483e-05,476.26499999968775,2.032848e-05
476.27999999968773,0.000459658,476.27999999968773,0.0009161521,476.27999999968773,2.802982e-05,476.27999999968773,2.035618e-05
476.2949999996877,0.0004758317,476.2949999996877,0.0009148354,476.2949999996877,2.773375e-05,476.2949999996877,2.062429e-05
476.3099999996877,0.0004955171,476.3099999996877,0.0009042086,476.3099999996877,2.77429e-05,476.3099999996877,1.972282e-05
476.3249999996877,0.0005404073,476.3249999996877,0.0009001904,476.3249999996877,2.641693e-05,476.3249999996877,1.866903e-05
476.3399999996877,0.0005711194,476.3399999996877,0.0009003034,476.3399999996877,2.17784e-05,476.3399999996877,1.954128e-05
476.35499999968766,0.0005988473,476.35499999968766,0.0009001461,476.35499999968766,2.247551e-05,476.35499999968766,1.941472e-05
476.36999999968765,0.0006143654,476.36999999968765,0.0008859274,476.36999999968765,2.166946e-05,476.36999999968765,1.949076e-05
476.38499999968764,0.0006349767,476.38499999968764,0.0006794346,476.38499999968764,2.186426e-05,476.38499999968764,1.858509e-05
476.3999999996876,0.0006422494,476.3999999996876,0.0004494869,476.3999999996876,2.070269e-05,476.3999999996876,1.812616e-05
476.4149999996876,0.0006669667,476.4149999996876,0.000406679,476.4149999996876,2.080518e-05,476.4149999996876,1.887315e-05
476.4299999996876,0.0007772424,476.4299999996876,0.0002745004,476.4299999996876,2.2358e-05,476.4299999996876,1.887465e-05
476.4449999996876,0.000830461,476.4449999996876,0.0001526148,476.4449999996876,2.376831e-05,476.4449999996876,1.865998e-05
476.45999999968757,0.0009027761,476.45999999968757,9.654527e-05,476.45999999968757,2.670966e-05,476.45999999968757,1.899294e-05
476.47499999968755,0.000910131,476.47499999968755,9.009237e-05,476.47499999968755,2.824409e-05,476.47499999968755,1.973353e-05
476.48999999968754,0.0009311064,476.48999999968754,8.254241e-05,476.48999999968754,2.842555e-05,476.48999999968754,2.017964e-05
476.5049999996875,0.0009275473,476.5049999996875,8.562845e-05,476.5049999996875,2.93693e-05,476.5049999996875,2.045352e-05
476.5199999996875,0.0009075598,476.5199999996875,8.831885e-05,476.5199999996875,3.635593e-05,476.5199999996875,2.005008e-05
476.5349999996875,0.0008966877,476.5349999996875,8.455971e-05,476.5349999996875,4.333535e-05,476.5349999996875,2.21332e-05
476.5499999996875,0.000918671,476.5499999996875,8.114205e-05,476.5499999996875,4.612771e-05,476.5499999996875,2.244478e-05
476.5649999996875,0.0009027333,476.5649999996875,8.015465e-05,476.5649999996875,5.008071e-05,476.5649999996875,2.562492e-05
476.57999999968746,0.0009128987,476.57999999968746,7.964053e-05,476.57999999968746,5.231325e-05,476.57999999968746,2.805895e-05
476.59499999968745,0.0009040174,476.59499999968745,7.845709e-05,476.59499999968745,5.372067e-05,476.59499999968745,2.796995e-05
476.60999999968743,0.0009116767,476.60999999968743,7.867494e-05,476.60999999968743,5.465806e-05,476.60999999968743,2.89383e-05
476.6249999996874,0.0009190249,476.6249999996874,7.849999e-05,476.6249999996874,5.500131e-05,476.6249999996874,2.965141e-05
476.6399999996874,0.0009136783,476.6399999996874,7.842171e-05,476.6399999996874,5.602948e-05,476.6399999996874,2.953956e-05
476.6549999996874,0.0009190837,476.6549999996874,7.738469e-05,476.6549999996874,5.764222e-05,476.6549999996874,3.058221e-05
476.6699999996874,0.0009258997,476.6699999996874,7.358691e-05,476.6699999996874,5.834928e-05,476.6699999996874,3.356943e-05
476.68499999968736,0.0008065753,476.68499999968736,7.379909e-05,476.68499999968736,5.818005e-05,476.68499999968736,3.420255e-05
476.69999999968735,0.0007767315,476.69999999968735,7.304162e-05,476.69999999968735,5.777038e-05,476.69999999968735,3.58251e-05
476.71499999968734,0.0007113631,476.71499999968734,7.39082e-05,476.71499999968734,5.902926e-05,476.71499999968734,3.550398e-05
476.7299999996873,0.0006628984,476.7299999996873,7.437843e-05,476.7299999996873,5.941247e-05,476.7299999996873,3.518714e-05
476.7449999996873,0.0006395348,476.7449999996873,7.161932e-05,476.7449999996873,5.949634e-05,476.7449999996873,3.525034e-05
476.7599999996873,0.000668345,476.7599999996873,7.125986e-05,476.7599999996873,5.923033e-05,476.7599999996873,3.535767e-05
476.7749999996873,0.000691824,476.7749999996873,7.104188e-05,476.7749999996873,5.742407e-05,476.7749999996873,3.546826e-05
476.78999999968727,0.0006785017,476.78999999968727,6.915756e-05,476.78999999968727,5.307275e-05,476.78999999968727,3.490175e-05
476.80499999968725,0.0006592545,476.80499999968725,6.927396e-05,476.80499999968725,5.287704e-05,476.80499999968725,3.40581e-05
476.81999999968724,0.000630311,476.81999999968724,6.791737e-05,476.81999999968724,4.962919e-05,476.81999999968724,3.173771e-05
476.8349999996872,0.0006066683,476.8349999996872,7.098971e-05,476.8349999996872,4.802248e-05,476.8349999996872,3.27577e-05
476.8499999996872,0.0005947655,476.8499999996872,7.926449e-05,476.8499999996872,4.679383e-05,476.8499999996872,3.603602e-05
476.8649999996872,0.0005653717,476.8649999996872,8.782542e-05,476.8649999996872,4.543726e-05,476.8649999996872,3.858635e-05
476.8799999996872,0.0005526139,476.8799999996872,9.23328e-05,476.8799999996872,4.606384e-05,476.8799999996872,3.876518e-05
476.8949999996872,0.0005335597,476.8949999996872,9.536068e-05,476.8949999996872,4.49507e-05,476.8949999996872,3.861664e-05
476.90999999968716,0.0004992003,476.90999999968716,9.873931e-05,476.90999999968716,4.646484e-05,476.90999999968716,3.774593e-05
476.92499999968715,0.0004789948,476.92499999968715,9.734981e-05,476.92499999968715,4.681911e-05,476.92499999968715,3.430495e-05
476.93999999968713,0.0004725728,476.93999999968713,0.0001016992,476.93999999968713,4.595116e-05,476.93999999968713,3.489489e-05
476.9549999996871,0.0004510388,476.9549999996871,0.0001043152,476.9549999996871,4.496292e-05,476.9549999996871,3.346478e-05
476.9699999996871,0.0004395689,476.9699999996871,0.0001032984,476.9699999996871,4.370015e-05,476.9699999996871,3.342687e-05
476.9849999996871,0.0004276345,476.9849999996871,0.0001024982,476.9849999996871,4.444266e-05,476.9849999996871,3.376608e-05
476.9999999996871,0.0004106565,476.9999999996871,0.0001030049,476.9999999996871,4.343016e-05,476.9999999996871,3.393669e-05
477.01499999968706,0.0003381683,477.01499999968706,0.0001042472,477.01499999968706,4.184936e-05,477.01499999968706,3.358621e-05
477.02999999968705,0.0002191287,477.02999999968705,0.0001033402,477.02999999968705,4.190957e-05,477.02999999968705,3.325618e-05
477.04499999968704,0.0002143314,477.04499999968704,0.0001007853,477.04499999968704,3.971116e-05,477.04499999968704,3.317263e-05
477.059999999687,0.0002052799,477.059999999687,0.000101182,477.059999999687,3.7964e-05,477.059999999687,3.380777e-05
477.074999999687,0.0001973987,477.074999999687,9.876855e-05,477.074999999687,3.724778e-05,477.074999999687,3.241099e-05
477.089999999687,0.0001955114,477.089999999687,9.565213e-05,477.089999999687,3.681413e-05,477.089999999687,3.211408e-05
477.104999999687,0.000174395,477.104999999687,9.020144e-05,477.104999999687,3.696992e-05,477.104999999687,2.868553e-05
477.11999999968697,0.0001520792,477.11999999968697,7.543885e-05,477.11999999968697,3.484762e-05,477.11999999968697,2.321968e-05
477.13499999968695,0.0001486866,477.13499999968695,7.402855e-05,477.13499999968695,3.398937e-05,477.13499999968695,2.578221e-05
477.14999999968694,0.0001487973,477.14999999968694,6.674936e-05,477.14999999968694,3.336275e-05,477.14999999968694,2.635607e-05
477.1649999996869,0.0001406439,477.1649999996869,6.201229e-05,477.1649999996869,3.25082e-05,477.1649999996869,2.617264e-05
477.1799999996869,0.0001348466,477.1799999996869,6.115428e-05,477.1799999996869,3.122041e-05,477.1799999996869,2.637584e-05
477.1949999996869,0.000131768,477.1949999996869,5.581763e-05,477.1949999996869,3.065949e-05,477.1949999996869,2.555722e-05
477.2099999996869,0.0001241155,477.2099999996869,4.753098e-05,477.2099999996869,3.062041e-05,477.2099999996869,2.534412e-05
477.2249999996869,0.0001263371,477.2249999996869,4.927626e-05,477.2249999996869,2.973917e-05,477.2249999996869,2.571985e-05
477.23999999968686,0.0001279518,477.23999999968686,4.828635e-05,477.23999999968686,2.845626e-05,477.23999999968686,2.528402e-05
477.25499999968685,0.0001257937,477.25499999968685,4.665182e-05,477.25499999968685,2.885152e-05,477.25499999968685,2.644784e-05
477.26999999968683,0.000129195,477.26999999968683,4.62564e-05,477.26999999968683,2.886812e-05,477.26999999968683,2.744322e-05
477.2849999996868,0.0001352926,477.2849999996868,4.568183e-05,477.2849999996868,2.728518e-05,477.2849999996868,2.727899e-05
477.2999999996868,0.0001428109,477.2999999996868,5.045427e-05,477.2999999996868,3.040481e-05,477.2999999996868,3.126415e-05
477.3149999996868,0.0001356373,477.3149999996868,5.004076e-05,477.3149999996868,3.072237e-05,477.3149999996868,3.008952e-05
477.3299999996868,0.0001426234,477.3299999996868,5.145722e-05,477.3299999996868,3.402416e-05,477.3299999996868,3.014378e-05
477.34499999968676,0.0001495454,477.34499999968676,5.157808e-05,477.34499999968676,3.410563e-05,477.34499999968676,3.069577e-05
477.35999999968675,0.000159588,477.35999999968675,5.251375e-05,477.35999999968675,3.626437e-05,477.35999999968675,3.118881e-05
477.37499999968674,0.0001607734,477.37499999968674,5.396216e-05,477.37499999968674,3.648087e-05,477.37499999968674,3.149712e-05
477.3899999996867,0.0001666094,477.3899999996867,5.436243e-05,477.3899999996867,3.773548e-05,477.3899999996867,3.069944e-05
477.4049999996867,0.0001693494,477.4049999996867,5.491878e-05,477.4049999996867,3.540903e-05,477.4049999996867,3.218944e-05
477.4199999996867,0.0001749718,477.4199999996867,5.73148e-05,477.4199999996867,3.466605e-05,477.4199999996867,3.193064e-05
477.4349999996867,0.0001849708,477.4349999996867,5.724348e-05,477.4349999996867,3.459242e-05,477.4349999996867,3.226462e-05
477.44999999968667,0.0001949161,477.44999999968667,5.709169e-05,477.44999999968667,3.434722e-05,477.44999999968667,3.245486e-05
477.46499999968665,0.0001968164,477.46499999968665,5.814274e-05,477.46499999968665,3.396491e-05,477.46499999968665,3.28526e-05
477.47999999968664,0.0001990569,477.47999999968664,5.849299e-05,477.47999999968664,3.303732e-05,477.47999999968664,3.377108e-05
477.4949999996866,0.0001964208,477.4949999996866,5.68293e-05,477.4949999996866,3.235574e-05,477.4949999996866,3.317603e-05
477.5099999996866,0.0001963112,477.5099999996866,5.519255e-05,477.5099999996866,3.181573e-05,477.5099999996866,3.171951e-05
477.5249999996866,0.0001964173,477.5249999996866,5.679633e-05,477.5249999996866,3.15436e-05,477.5249999996866,3.196107e-05
477.5399999996866,0.0001910811,477.5399999996866,5.401408e-05,477.5399999996866,2.943398e-05,477.5399999996866,2.882954e-05
477.5549999996866,0.0001961867,477.5549999996866,5.776916e-05,477.5549999996866,2.810811e-05,477.5549999996866,2.82431e-05
477.56999999968656,0.000200582,477.56999999968656,5.921226e-05,477.56999999968656,2.433467e-05,477.56999999968656,2.866588e-05
477.58499999968654,0.0001970678,477.58499999968654,5.86104e-05,477.58499999968654,2.34725e-05,477.58499999968654,2.814667e-05
477.59999999968653,0.0001975377,477.59999999968653,5.819893e-05,477.59999999968653,2.409499e-05,477.59999999968653,2.741446e-05
477.6149999996865,0.0002011548,477.6149999996865,5.815995e-05,477.6149999996865,2.090784e-05,477.6149999996865,2.735788e-05
477.6299999996865,0.0002146704,477.6299999996865,5.809572e-05,477.6299999996865,2.17965e-05,477.6299999996865,2.785792e-05
477.6449999996865,0.0002196485,477.6449999996865,5.559536e-05,477.6449999996865,2.145386e-05,477.6449999996865,2.739493e-05
477.6599999996865,0.0002368134,477.6599999996865,5.528818e-05,477.6599999996865,2.266151e-05,477.6599999996865,2.933042e-05
477.67499999968646,0.0002475664,477.67499999968646,5.522648e-05,477.67499999968646,2.413821e-05,477.67499999968646,2.963431e-05
477.68999999968645,0.0002604547,477.68999999968645,5.634837e-05,477.68999999968645,2.506243e-05,477.68999999968645,3.036309e-05
477.70499999968644,0.0002736966,477.70499999968644,5.840334e-05,477.70499999968644,2.876644e-05,477.70499999968644,3.412751e-05
477.7199999996864,0.0002804173,477.7199999996864,5.662543e-05,477.7199999996864,3.347951e-05,477.7199999996864,3.290573e-05
477.7349999996864,0.000306969,477.7349999996864,5.712598e-05,477.7349999996864,3.445614e-05,477.7349999996864,3.366329e-05
477.7499999996864,0.0003278597,477.7499999996864,5.79921e-05,477.7499999996864,3.50821e-05,477.7499999996864,3.467661e-05
477.7649999996864,0.0003322012,477.7649999996864,5.657964e-05,477.7649999996864,3.585379e-05,477.7649999996864,3.509093e-05
477.77999999968637,0.0003532917,477.77999999968637,5.714151e-05,477.77999999968637,4.035684e-05,477.77999999968637,3.516872e-05
477.79499999968635,0.0003905825,477.79499999968635,5.696572e-05,477.79499999968635,4.207361e-05,477.79499999968635,3.530943e-05
477.80999999968634,0.0003954425,477.80999999968634,5.157945e-05,477.80999999968634,4.477424e-05,477.80999999968634,3.563191e-05
477.8249999996863,0.0004445437,477.8249999996863,4.987693e-05,477.8249999996863,4.529971e-05,477.8249999996863,3.545435e-05
477.8399999996863,0.0004714399,477.8399999996863,5.133526e-05,477.8399999996863,4.521785e-05,477.8399999996863,3.562795e-05
477.8549999996863,0.000476883,477.8549999996863,5.190614e-05,477.8549999996863,4.520476e-05,477.8549999996863,3.571601e-05
477.8699999996863,0.000475893,477.8699999996863,5.297339e-05,477.8699999996863,4.52854e-05,477.8699999996863,3.788823e-05
477.8849999996863,0.000475641,477.8849999996863,5.255745e-05,477.8849999996863,4.491622e-05,477.8849999996863,3.685084e-05
477.89999999968626,0.0004725525,477.89999999968626,5.273272e-05,477.89999999968626,5.065127e-05,477.89999999968626,3.553492e-05
477.91499999968624,0.00046042,477.91499999968624,5.074352e-05,477.91499999968624,5.057083e-05,477.91499999968624,3.710683e-05
477.92999999968623,0.0004596153,477.92999999968623,5.12482e-05,477.92999999968623,4.944834e-05,477.92999999968623,3.673829e-05
477.9449999996862,0.0004505435,477.9449999996862,5.32926e-05,477.9449999996862,4.90275e-05,477.9449999996862,3.773586e-05
477.9599999996862,0.0004467172,477.9599999996862,5.302097e-05,477.9599999996862,4.696031e-05,477.9599999996862,3.584436e-05
477.9749999996862,0.0004406608,477.9749999996862,5.425504e-05,477.9749999996862,4.522688e-05,477.9749999996862,3.579717e-05
477.9899999996862,0.00043029,477.9899999996862,5.8614e-05,477.9899999996862,4.66192e-05,477.9899999996862,3.852423e-05
478.00499999968616,0.0004207797,478.00499999968616,5.825118e-05,478.00499999968616,4.591651e-05,478.00499999968616,3.804739e-05
478.01999999968615,0.0004095777,478.01999999968615,5.934462e-05,478.01999999968615,4.584005e-05,478.01999999968615,3.825858e-05
478.03499999968614,0.000417104,478.03499999968614,6.153615e-05,478.03499999968614,4.162391e-05,478.03499999968614,3.999746e-05
478.0499999996861,0.0003790944,478.0499999996861,6.224831e-05,478.0499999996861,3.859292e-05,478.0499999996861,4.008681e-05
478.0649999996861,0.0003779819,478.0649999996861,6.313832e-05,478.0649999996861,3.81487e-05,478.0649999996861,4.020716e-05
478.0799999996861,0.0003378468,478.0799999996861,6.557645e-05,478.0799999996861,3.771831e-05,478.0799999996861,4.045376e-05
478.0949999996861,0.0002964585,478.0949999996861,6.521218e-05,478.0949999996861,3.737012e-05,478.0949999996861,4.140777e-05
478.10999999968607,0.000306361,478.10999999968607,6.513048e-05,478.10999999968607,3.742436e-05,478.10999999968607,4.095177e-05
478.12499999968605,0.0003192645,478.12499999968605,6.774333e-05,478.12499999968605,3.741118e-05,478.12499999968605,4.194284e-05
478.13999999968604,0.0003217921,478.13999999968604,6.756156e-05,478.13999999968604,3.713947e-05,478.13999999968604,4.191932e-05
478.154999999686,0.0003415389,478.154999999686,7.044211e-05,478.154999999686,2.812564e-05,478.154999999686,4.102257e-05
478.169999999686,0.00036133,478.169999999686,7.165079e-05,478.169999999686,2.805443e-05,478.169999999686,4.295465e-05
478.184999999686,0.0003770314,478.184999999686,7.214081e-05,478.184999999686,2.786247e-05,478.184999999686,4.26109e-05
478.199999999686,0.0004216129,478.199999999686,7.020634e-05,478.199999999686,2.764931e-05,478.199999999686,4.129466e-05
478.214999999686,0.0004552239,478.214999999686,7.077787e-05,478.214999999686,2.554012e-05,478.214999999686,4.240744e-05
478.22999999968596,0.0004544322,478.22999999968596,6.801582e-05,478.22999999968596,2.410084e-05,478.22999999968596,3.85268e-05
478.24499999968594,0.0004886173,478.24499999968594,6.581489e-05,478.24499999968594,2.147487e-05,478.24499999968594,3.907644e-05
478.25999999968593,0.0005045154,478.25999999968593,6.776059e-05,478.25999999968593,2.119292e-05,478.25999999968593,3.868078e-05
478.2749999996859,0.0005179796,478.2749999996859,6.72265e-05,478.2749999996859,2.154036e-05,478.2749999996859,3.852058e-05
478.2899999996859,0.0005197187,478.2899999996859,6.575107e-05,478.2899999996859,2.025002e-05,478.2899999996859,3.731844e-05
478.3049999996859,0.0005221089,478.3049999996859,6.579005e-05,478.3049999996859,2.380384e-05,478.3049999996859,3.697525e-05
478.3199999996859,0.000527413,478.3199999996859,6.471236e-05,478.3199999996859,2.436764e-05,478.3199999996859,3.703805e-05
478.33499999968586,0.0005282509,478.33499999968586,6.103138e-05,478.33499999968586,2.462641e-05,478.33499999968586,3.622317e-05
478.34999999968585,0.0005295893,478.34999999968585,6.094869e-05,478.34999999968585,2.620545e-05,478.34999999968585,3.725573e-05
478.36499999968584,0.0005256677,478.36499999968584,6.121621e-05,478.36499999968584,2.624681e-05,478.36499999968584,3.796956e-05
478.3799999996858,0.0005156205,478.3799999996858,5.758379e-05,478.3799999996858,2.593692e-05,478.3799999996858,3.567063e-05
478.3949999996858,0.0005003023,478.3949999996858,5.472838e-05,478.3949999996858,2.805142e-05,478.3949999996858,3.590797e-05
478.4099999996858,0.0004951412,478.4099999996858,5.409669e-05,478.4099999996858,2.750526e-05,478.4099999996858,3.731089e-05
478.4249999996858,0.000481702,478.4249999996858,5.138737e-05,478.4249999996858,2.733367e-05,478.4249999996858,3.314544e-05
478.43999999968577,0.0004476061,478.43999999968577,4.965586e-05,478.43999999968577,3.039045e-05,478.43999999968577,3.321677e-05
478.45499999968575,0.0004178968,478.45499999968575,4.994495e-05,478.45499999968575,3.117977e-05,478.45499999968575,3.278607e-05
478.46999999968574,0.0003861609,478.46999999968574,4.892741e-05,478.46999999968574,3.145058e-05,478.46999999968574,3.145506e-05
478.4849999996857,0.000370986,478.4849999996857,5.158109e-05,478.4849999996857,3.2203e-05,478.4849999996857,3.220038e-05
478.4999999996857,0.0003334205,478.4999999996857,4.858388e-05,478.4999999996857,3.212198e-05,478.4999999996857,3.134424e-05
478.5149999996857,0.0002817429,478.5149999996857,5.160702e-05,478.5149999996857,3.229212e-05,478.5149999996857,3.118158e-05
478.5299999996857,0.0002591593,478.5299999996857,5.115245e-05,478.5299999996857,3.319301e-05,478.5299999996857,3.061075e-05
478.5449999996857,0.0002231137,478.5449999996857,5.05137e-05,478.5449999996857,3.315437e-05,478.5449999996857,3.097626e-05
478.55999999968566,0.0002086877,478.55999999968566,5.032511e-05,478.55999999968566,2.998353e-05,478.55999999968566,3.11992e-05
478.57499999968564,0.0001888902,478.57499999968564,5.013862e-05,478.57499999968564,3.078055e-05,478.57499999968564,3.046313e-05
478.58999999968563,0.0001746543,478.58999999968563,5.004357e-05,478.58999999968563,3.10571e-05,478.58999999968563,2.98125e-05
478.6049999996856,0.0001753303,478.6049999996856,5.023574e-05,478.6049999996856,2.955386e-05,478.6049999996856,3.08911e-05
478.6199999996856,0.0001740002,478.6199999996856,5.072881e-05,478.6199999996856,2.917826e-05,478.6199999996856,3.149131e-05
478.6349999996856,0.0001719494,478.6349999996856,4.986761e-05,478.6349999996856,2.983187e-05,478.6349999996856,3.065673e-05
478.6499999996856,0.0002281103,478.6499999996856,4.960534e-05,478.6499999996856,2.748528e-05,478.6499999996856,3.000138e-05
478.66499999968556,0.0002438458,478.66499999968556,4.803803e-05,478.66499999968556,2.737024e-05,478.66499999968556,2.826852e-05
478.67999999968555,0.0002473193,478.67999999968555,4.808434e-05,478.67999999968555,2.737435e-05,478.67999999968555,2.776929e-05
478.69499999968554,0.0002553895,478.69499999968554,4.822709e-05,478.69499999968554,2.281206e-05,478.69499999968554,2.80715e-05
478.7099999996855,0.0002608094,478.7099999996855,4.829423e-05,478.7099999996855,2.250056e-05,478.7099999996855,2.788875e-05
478.7249999996855,0.0002724317,478.7249999996855,4.563895e-05,478.7249999996855,2.08802e-05,478.7249999996855,2.728931e-05
478.7399999996855,0.0002708195,478.7399999996855,4.097275e-05,478.7399999996855,2.007185e-05,478.7399999996855,2.705915e-05
478.7549999996855,0.0002714091,478.7549999996855,3.863378e-05,478.7549999996855,2.021242e-05,478.7549999996855,2.670333e-05
478.76999999968547,0.0002728915,478.76999999968547,3.435296e-05,478.76999999968547,2.022218e-05,478.76999999968547,2.825905e-05
478.78499999968545,0.0002742195,478.78499999968545,3.263146e-05,478.78499999968545,1.741754e-05,478.78499999968545,2.788319e-05
478.79999999968544,0.0002753597,478.79999999968544,3.638962e-05,478.79999999968544,1.919802e-05,478.79999999968544,2.896409e-05
478.8149999996854,0.0002751302,478.8149999996854,3.649399e-05,478.8149999996854,2.007325e-05,478.8149999996854,2.88139e-05
478.8299999996854,0.0002765476,478.8299999996854,3.684969e-05,478.8299999996854,2.00297e-05,478.8299999996854,2.921782e-05
478.8449999996854,0.0002713676,478.8449999996854,3.71516e-05,478.8449999996854,1.935877e-05,478.8449999996854,2.649308e-05
478.8599999996854,0.0002722173,478.8599999996854,3.696801e-05,478.8599999996854,2.059285e-05,478.8599999996854,2.627578e-05
478.8749999996854,0.0003131737,478.8749999996854,3.764054e-05,478.8749999996854,2.291004e-05,478.8749999996854,2.611283e-05
478.88999999968536,0.0003218544,478.88999999968536,4.013177e-05,478.88999999968536,2.241149e-05,478.88999999968536,2.618287e-05
478.90499999968534,0.0003141223,478.90499999968534,4.159547e-05,478.90499999968534,2.312546e-05,478.90499999968534,2.584115e-05
478.91999999968533,0.0003025985,478.91999999968533,4.104592e-05,478.91999999968533,2.507086e-05,478.91999999968533,2.560403e-05
478.9349999996853,0.0003032546,478.9349999996853,4.164894e-05,478.9349999996853,2.587983e-05,478.9349999996853,2.63395e-05
478.9499999996853,0.0003060648,478.9499999996853,4.52191e-05,478.9499999996853,2.716307e-05,478.9499999996853,2.672969e-05
478.9649999996853,0.0003059343,478.9649999996853,4.69693e-05,478.9649999996853,2.753188e-05,478.9649999996853,2.719883e-05
478.9799999996853,0.0002999025,478.9799999996853,4.657597e-05,478.9799999996853,3.540863e-05,478.9799999996853,2.858567e-05
478.99499999968526,0.0003005486,478.99499999968526,4.719609e-05,478.99499999968526,3.74428e-05,478.99499999968526,2.857975e-05
479.00999999968525,0.0003023621,479.00999999968525,4.764288e-05,479.00999999968525,4.174927e-05,479.00999999968525,2.889641e-05
479.02499999968524,0.0003032105,479.02499999968524,4.879796e-05,479.02499999968524,4.778371e-05,479.02499999968524,2.874342e-05
479.0399999996852,0.0003052684,479.0399999996852,4.892453e-05,479.0399999996852,5.055523e-05,479.0399999996852,2.86762e-05
479.0549999996852,0.0003066028,479.0549999996852,4.743605e-05,479.0549999996852,5.15677e-05,479.0549999996852,2.973017e-05
479.0699999996852,0.0003053827,479.0699999996852,4.900106e-05,479.0699999996852,5.195199e-05,479.0699999996852,3.019234e-05
479.0849999996852,0.0003067816,479.0849999996852,4.872603e-05,479.0849999996852,5.340429e-05,479.0849999996852,3.053057e-05
479.09999999968517,0.0003059909,479.09999999968517,4.990404e-05,479.09999999968517,5.578406e-05,479.09999999968517,3.084318e-05
479.11499999968515,0.000281271,479.11499999968515,5.078875e-05,479.11499999968515,5.507732e-05,479.11499999968515,3.081257e-05
479.12999999968514,0.0002579823,479.12999999968514,5.071714e-05,479.12999999968514,5.92006e-05,479.12999999968514,3.09353e-05
479.1449999996851,0.0002373955,479.1449999996851,4.871822e-05,479.1449999996851,6.033007e-05,479.1449999996851,3.165683e-05
479.1599999996851,0.0002074086,479.1599999996851,4.866297e-05,479.1599999996851,5.954628e-05,479.1599999996851,3.203459e-05
479.1749999996851,0.0002084037,479.1749999996851,4.849187e-05,479.1749999996851,5.981512e-05,479.1749999996851,3.225065e-05
479.1899999996851,0.0002109098,479.1899999996851,4.925138e-05,479.1899999996851,5.952522e-05,479.1899999996851,3.275985e-05
479.20499999968507,0.0002071995,479.20499999968507,4.6579e-05,479.20499999968507,5.951031e-05,479.20499999968507,3.357237e-05
479.21999999968506,0.0002163689,479.21999999968506,4.67863e-05,479.21999999968506,5.779111e-05,479.21999999968506,3.469245e-05
479.23499999968504,0.0002268823,479.23499999968504,4.616526e-05,479.23499999968504,5.854787e-05,479.23499999968504,3.431398e-05
479.24999999968503,0.0002450744,479.24999999968503,4.825629e-05,479.24999999968503,5.764711e-05,479.24999999968503,3.545356e-05
479.264999999685,0.0002622116,479.264999999685,4.936908e-05,479.264999999685,5.418776e-05,479.264999999685,3.525394e-05
479.279999999685,0.0002769908,479.279999999685,4.770227e-05,479.279999999685,4.979524e-05,479.279999999685,3.388227e-05
479.294999999685,0.000284196,479.294999999685,4.750519e-05,479.294999999685,5.070825e-05,479.294999999685,3.257832e-05
479.309999999685,0.00028953,479.309999999685,4.562166e-05,479.309999999685,5.080899e-05,479.309999999685,3.365283e-05
479.32499999968496,0.0002983292,479.32499999968496,4.532178e-05,479.32499999968496,5.058003e-05,479.32499999968496,3.668418e-05
479.33999999968495,0.0003165411,479.33999999968495,4.500301e-05,479.33999999968495,4.96272e-05,479.33999999968495,3.767458e-05
479.35499999968494,0.0003453554,479.35499999968494,4.442364e-05,479.35499999968494,4.786971e-05,479.35499999968494,4.155752e-05
479.3699999996849,0.000391335,479.3699999996849,4.149714e-05,479.3699999996849,4.580901e-05,479.3699999996849,4.613382e-05
479.3849999996849,0.0004120232,479.3849999996849,4.145231e-05,479.3849999996849,4.273239e-05,479.3849999996849,4.810748e-05
479.3999999996849,0.0004542563,479.3999999996849,4.115491e-05,479.3999999996849,4.190419e-05,479.3999999996849,4.830239e-05
479.4149999996849,0.0005389049,479.4149999996849,4.313334e-05,479.4149999996849,4.23333e-05,479.4149999996849,4.923594e-05
479.42999999968487,0.0005735141,479.42999999968487,5.066796e-05,479.42999999968487,4.292513e-05,479.42999999968487,4.979892e-05
479.44499999968485,0.0006963732,479.44499999968485,5.41836e-05,479.44499999968485,4.289e-05,479.44499999968485,5.022929e-05
479.45999999968484,0.0008032763,479.45999999968484,5.506913e-05,479.45999999968484,4.190117e-05,479.45999999968484,4.869914e-05
479.4749999996848,0.0008640391,479.4749999996848,5.778209e-05,479.4749999996848,4.594442e-05,479.4749999996848,4.869595e-05
479.4899999996848,0.0009471844,479.4899999996848,6.325022e-05,479.4899999996848,5.179094e-05,479.4899999996848,4.812943e-05
479.5049999996848,0.0009598943,479.5049999996848,6.558504e-05,479.5049999996848,5.803434e-05,479.5049999996848,4.834087e-05
479.5199999996848,0.0009705628,479.5199999996848,6.974414e-05,479.5199999996848,6.065027e-05,479.5199999996848,4.820196e-05
479.53499999968477,0.0009793929,479.53499999968477,7.419904e-05,479.53499999968477,6.016406e-05,479.53499999968477,4.807321e-05
479.54999999968476,0.0009934268,479.54999999968476,8.045058e-05,479.54999999968476,5.887849e-05,479.54999999968476,4.909468e-05
479.56499999968474,0.001005847,479.56499999968474,8.772913e-05,479.56499999968474,5.856952e-05,479.56499999968474,4.794675e-05
479.57999999968473,0.001009426,479.57999999968473,9.509944e-05,479.57999999968473,5.848047e-05,479.57999999968473,4.306732e-05
479.5949999996847,0.001008671,479.5949999996847,9.919095e-05,479.5949999996847,5.871078e-05,479.5949999996847,4.347425e-05
479.6099999996847,0.001001526,479.6099999996847,0.0001013798,479.6099999996847,5.834252e-05,479.6099999996847,3.977e-05
479.6249999996847,0.000998961,479.6249999996847,0.0001047203,479.6249999996847,5.858612e-05,479.6249999996847,3.483387e-05
479.6399999996847,0.0009909717,479.6399999996847,0.0001072032,479.6399999996847,6.325646e-05,479.6399999996847,3.205349e-05
479.65499999968466,0.0009861654,479.65499999968466,0.0001084902,479.65499999968466,6.338815e-05,479.65499999968466,3.137569e-05
479.66999999968465,0.0009397495,479.66999999968465,0.0001066716,479.66999999968465,6.33717e-05,479.66999999968465,3.044417e-05
479.68499999968463,0.0009062829,479.68499999968463,0.0001062307,479.68499999968463,6.315772e-05,479.68499999968463,2.897916e-05
479.6999999996846,0.0008561197,479.6999999996846,0.0001072425,479.6999999996846,6.266849e-05,479.6999999996846,2.867521e-05
479.7149999996846,0.0007732814,479.7149999996846,0.0001095683,479.7149999996846,6.263836e-05,479.7149999996846,2.838588e-05
479.7299999996846,0.0006808987,479.7299999996846,0.0001085337,479.7299999996846,5.795419e-05,479.7299999996846,3.169907e-05
479.7449999996846,0.0006337541,479.7449999996846,0.0001078362,479.7449999996846,5.370913e-05,479.7449999996846,3.158912e-05
479.75999999968457,0.000605522,479.75999999968457,0.0001055267,479.75999999968457,4.762809e-05,479.75999999968457,3.020074e-05
479.77499999968455,0.0005886692,479.77499999968455,0.0001035807,479.77499999968455,4.542579e-05,479.77499999968455,3.116532e-05
479.78999999968454,0.000559186,479.78999999968454,0.0001015409,479.78999999968454,4.615702e-05,479.78999999968454,3.105483e-05
479.8049999996845,0.000559276,479.8049999996845,9.543289e-05,479.8049999996845,4.695011e-05,479.8049999996845,2.906556e-05
479.8199999996845,0.0005412968,479.8199999996845,9.364032e-05,479.8199999996845,4.69504e-05,479.8199999996845,2.942201e-05
479.8349999996845,0.0005254018,479.8349999996845,8.698656e-05,479.8349999996845,4.826213e-05,479.8349999996845,2.930688e-05
479.8499999996845,0.0005141423,479.8499999996845,8.355285e-05,479.8499999996845,4.851482e-05,479.8499999996845,3.039045e-05
479.86499999968447,0.0005024368,479.86499999968447,8.034651e-05,479.86499999968447,4.833038e-05,479.86499999968447,2.891249e-05
479.87999999968446,0.0004844891,479.87999999968446,7.952335e-05,479.87999999968446,4.69294e-05,479.87999999968446,2.711791e-05
479.89499999968444,0.0004642212,479.89499999968444,7.740489e-05,479.89499999968444,4.051326e-05,479.89499999968444,2.693235e-05
479.90999999968443,0.0004503361,479.90999999968443,7.758449e-05,479.90999999968443,4.01265e-05,479.90999999968443,2.65446e-05
479.9249999996844,0.000439961,479.9249999996844,7.441857e-05,479.9249999996844,3.990296e-05,479.9249999996844,2.583679e-05
479.9399999996844,0.000420433,479.9399999996844,7.293354e-05,479.9399999996844,4.076007e-05,479.9399999996844,2.569684e-05
479.9549999996844,0.0003981778,479.9549999996844,7.098574e-05,479.9549999996844,4.050909e-05,479.9549999996844,2.619255e-05
479.9699999996844,0.0003277718,479.9699999996844,6.75553e-05,479.9699999996844,3.935555e-05,479.9699999996844,2.479969e-05
479.98499999968436,0.0003161256,479.98499999968436,6.62707e-05,479.98499999968436,3.861919e-05,479.98499999968436,2.201898e-05
479.99999999968435,0.0002926168,479.99999999968435,6.818523e-05,479.99999999968435,3.710076e-05,479.99999999968435,2.239891e-05
480.01499999968433,0.0002893015,480.01499999968433,6.84191e-05,480.01499999968433,3.582982e-05,480.01499999968433,2.269443e-05
480.0299999996843,0.0002790237,480.0299999996843,6.859389e-05,480.0299999996843,3.457409e-05,480.0299999996843,2.183202e-05
480.0449999996843,0.0002663987,480.0449999996843,6.783062e-05,480.0449999996843,3.180776e-05,480.0449999996843,2.186297e-05
480.0599999996843,0.0002326655,480.0599999996843,7.914835e-05,480.0599999996843,2.946746e-05,480.0599999996843,2.146634e-05
480.0749999996843,0.0002236321,480.0749999996843,8.155574e-05,480.0749999996843,2.744066e-05,480.0749999996843,2.125663e-05
480.08999999968427,0.0002138048,480.08999999968427,8.262054e-05,480.08999999968427,2.700235e-05,480.08999999968427,1.944662e-05
480.10499999968425,0.0002032898,480.10499999968425,8.671554e-05,480.10499999968425,2.617211e-05,480.10499999968425,1.932892e-05
480.11999999968424,0.0002049445,480.11999999968424,9.022986e-05,480.11999999968424,2.545283e-05,480.11999999968424,2.031114e-05
480.1349999996842,0.0002040317,480.1349999996842,8.80092e-05,480.1349999996842,2.541406e-05,480.1349999996842,2.035618e-05
480.1499999996842,0.000198951,480.1499999996842,8.79208e-05,480.1499999996842,2.534746e-05,480.1499999996842,2.03361e-05
480.1649999996842,0.0001907767,480.1649999996842,9.014583e-05,480.1649999996842,2.455537e-05,480.1649999996842,2.01013e-05
480.1799999996842,0.0001937783,480.1799999996842,9.425015e-05,480.1799999996842,2.431498e-05,480.1799999996842,2.108764e-05
480.19499999968417,0.0001692563,480.19499999968417,9.515275e-05,480.19499999968417,2.082548e-05,480.19499999968417,2.077605e-05
480.20999999968416,0.0001738075,480.20999999968416,9.442337e-05,480.20999999968416,2.00114e-05,480.20999999968416,2.066932e-05
480.22499999968414,0.0001942579,480.22499999968414,9.636082e-05,480.22499999968414,2.019429e-05,480.22499999968414,2.106291e-05
480.23999999968413,0.0002031609,480.23999999968413,9.38064e-05,480.23999999968413,1.975494e-05,480.23999999968413,2.074212e-05
480.2549999996841,0.0002086383,480.2549999996841,9.300862e-05,480.2549999996841,2.071154e-05,480.2549999996841,2.143416e-05
480.2699999996841,0.0002151637,480.2699999996841,9.141314e-05,480.2699999996841,2.22968e-05,480.2699999996841,2.084306e-05
480.2849999996841,0.0003042978,480.2849999996841,9.460341e-05,480.2849999996841,2.335036e-05,480.2849999996841,2.088088e-05
480.2999999996841,0.0004330566,480.2999999996841,0.0001002255,480.2999999996841,2.34689e-05,480.2999999996841,2.154363e-05
480.31499999968406,0.0004761367,480.31499999968406,0.0001019996,480.31499999968406,2.332319e-05,480.31499999968406,2.18346e-05
480.32999999968405,0.0005253218,480.32999999968405,0.0001036035,480.32999999968405,2.02368e-05,480.32999999968405,2.136899e-05
480.34499999968403,0.0005379391,480.34499999968403,0.0001029184,480.34499999968403,2.004165e-05,480.34499999968403,2.102274e-05
480.359999999684,0.0005621744,480.359999999684,9.897869e-05,480.359999999684,2.036586e-05,480.359999999684,2.034095e-05
480.374999999684,0.0006272417,480.374999999684,9.620119e-05,480.374999999684,2.603774e-05,480.374999999684,2.025767e-05
480.389999999684,0.0006531517,480.389999999684,9.697576e-05,480.389999999684,0.0001384393,480.389999999684,2.008869e-05
480.404999999684,0.0007123602,480.404999999684,9.737122e-05,480.404999999684,0.0001701631,480.404999999684,1.977133e-05
480.41999999968397,0.0007640409,480.41999999968397,9.880134e-05,480.41999999968397,0.0001830707,480.41999999968397,2.089437e-05
480.43499999968395,0.0007983205,480.43499999968395,9.794949e-05,480.43499999968395,0.0001842011,480.43499999968395,2.050648e-05
480.44999999968394,0.0008018055,480.44999999968394,9.92913e-05,480.44999999968394,0.0001870372,480.44999999968394,2.062156e-05
480.4649999996839,0.000850091,480.4649999996839,9.986451e-05,480.4649999996839,0.0001881437,480.4649999996839,2.012372e-05
480.4799999996839,0.0008518885,480.4799999996839,0.0001027028,480.4799999996839,0.0001883624,480.4799999996839,2.062293e-05
480.4949999996839,0.0008734573,480.4949999996839,0.0001039379,480.4949999996839,0.0001883487,480.4949999996839,2.017126e-05
480.5099999996839,0.0008796355,480.5099999996839,0.0001042448,480.5099999996839,0.0001882659,480.5099999996839,1.943938e-05
480.52499999968387,0.0009201505,480.52499999968387,0.000103844,480.52499999968387,0.0001880409,480.52499999968387,1.936823e-05
480.53999999968386,0.0008784563,480.53999999968386,9.38615e-05,480.53999999968386,0.0001879126,480.53999999968386,1.953047e-05
480.55499999968384,0.0008408694,480.55499999968384,9.146367e-05,480.55499999968384,0.0001879184,480.55499999968384,1.923541e-05
480.56999999968383,0.0008188946,480.56999999968383,7.835738e-05,480.56999999968383,0.0001879412,480.56999999968383,1.901888e-05
480.5849999996838,0.0008071229,480.5849999996838,7.710385e-05,480.5849999996838,0.0001879781,480.5849999996838,1.991756e-05
480.5999999996838,0.0008037962,480.5999999996838,7.715152e-05,480.5999999996838,0.0001879101,480.5999999996838,1.996418e-05
480.6149999996838,0.0007756207,480.6149999996838,7.697695e-05,480.6149999996838,0.0001879122,480.6149999996838,2.011601e-05
480.6299999996838,0.0007114454,480.6299999996838,7.638745e-05,480.6299999996838,0.0001855014,480.6299999996838,2.004376e-05
480.64499999968376,0.0006951271,480.64499999968376,7.454585e-05,480.64499999968376,0.0001161797,480.64499999968376,2.155474e-05
480.65999999968375,0.0006732968,480.65999999968375,7.155006e-05,480.65999999968375,6.938085e-05,480.65999999968375,2.121086e-05
480.67499999968373,0.0006261444,480.67499999968373,6.89223e-05,480.67499999968373,4.434779e-05,480.67499999968373,2.066114e-05
480.6899999996837,0.0005767607,480.6899999996837,6.727572e-05,480.6899999996837,4.094352e-05,480.6899999996837,2.097444e-05
480.7049999996837,0.0005774812,480.7049999996837,6.877703e-05,480.7049999996837,2.946029e-05,480.7049999996837,2.076384e-05
480.7199999996837,0.0005081626,480.7199999996837,6.826596e-05,480.7199999996837,2.526396e-05,480.7199999996837,2.055725e-05
480.7349999996837,0.0005285818,480.7349999996837,6.031326e-05,480.7349999996837,2.368162e-05,480.7349999996837,2.02681e-05
480.74999999968367,0.0005098515,480.74999999968367,5.950581e-05,480.74999999968367,2.364531e-05,480.74999999968367,2.073057e-05
480.76499999968365,0.0005242332,480.76499999968365,6.147294e-05,480.76499999968365,2.360058e-05,480.76499999968365,2.040594e-05
480.77999999968364,0.0004477585,480.77999999968364,6.097735e-05,480.77999999968364,2.336302e-05,480.77999999968364,2.007957e-05
480.7949999996836,0.0008823476,480.7949999996836,6.349118e-05,480.7949999996836,2.351268e-05,480.7949999996836,1.988854e-05
480.8099999996836,0.001056007,480.8099999996836,6.276843e-05,480.8099999996836,2.565294e-05,480.8099999996836,1.918261e-05
480.8249999996836,0.00117624,480.8249999996836,5.870814e-05,480.8249999996836,2.605775e-05,480.8249999996836,1.918848e-05
480.8399999996836,0.001181563,480.8399999996836,6.116556e-05,480.8399999996836,2.966329e-05,480.8399999996836,1.854032e-05
480.85499999968357,0.001194499,480.85499999968357,6.247037e-05,480.85499999968357,3.598556e-05,480.85499999968357,1.905514e-05
480.86999999968356,0.001208981,480.86999999968356,6.28801e-05,480.86999999968356,3.590444e-05,480.86999999968356,1.892682e-05
480.88499999968354,0.001214914,480.88499999968354,6.375908e-05,480.88499999968354,3.570379e-05,480.88499999968354,1.841911e-05
480.89999999968353,0.001216848,480.89999999968353,6.451615e-05,480.89999999968353,3.509414e-05,480.89999999968353,1.92559e-05
480.9149999996835,0.001219709,480.9149999996835,6.119089e-05,480.9149999996835,3.415969e-05,480.9149999996835,1.865242e-05
480.9299999996835,0.0012226,480.9299999996835,5.968876e-05,480.9299999996835,3.518114e-05,480.9299999996835,1.879612e-05
480.9449999996835,0.001222211,480.9449999996835,6.190407e-05,480.9449999996835,3.684549e-05,480.9449999996835,2.005149e-05
480.9599999996835,0.001220728,480.9599999996835,5.858323e-05,480.9599999996835,3.697258e-05,480.9599999996835,2.008378e-05
480.97499999968346,0.001219318,480.97499999968346,5.963043e-05,480.97499999968346,3.711746e-05,480.97499999968346,2.065091e-05
480.98999999968345,0.001211109,480.98999999968345,5.878151e-05,480.98999999968345,3.81088e-05,480.98999999968345,2.072513e-05
481.00499999968343,0.001194155,481.00499999968343,5.807293e-05,481.00499999968343,3.834795e-05,481.00499999968343,2.054148e-05
481.0199999996834,0.001184502,481.0199999996834,5.593008e-05,481.0199999996834,3.844554e-05,481.0199999996834,2.083631e-05
481.0349999996834,0.001062636,481.0349999996834,5.60835e-05,481.0349999996834,3.819004e-05,481.0349999996834,2.115699e-05
481.0499999996834,0.0008447432,481.0499999996834,5.266134e-05,481.0499999996834,3.83123e-05,481.0499999996834,2.18417e-05
481.0649999996834,0.0005708396,481.0649999996834,5.262522e-05,481.0649999996834,3.699734e-05,481.0649999996834,2.205414e-05
481.07999999968337,0.0003853283,481.07999999968337,5.300715e-05,481.07999999968337,3.680188e-05,481.07999999968337,2.30229e-05
481.09499999968335,0.0003661038,481.09499999968335,4.97001e-05,481.09499999968335,2.916764e-05,481.09499999968335,2.402708e-05
481.10999999968334,0.0003539589,481.10999999968334,4.869827e-05,481.10999999968334,2.843745e-05,481.10999999968334,2.461611e-05
481.1249999996833,0.0003217151,481.1249999996833,4.897489e-05,481.1249999996833,2.764319e-05,481.1249999996833,2.483261e-05
481.1399999996833,0.0003071239,481.1399999996833,4.731205e-05,481.1399999996833,2.761923e-05,481.1399999996833,2.449966e-05
481.1549999996833,0.0003015606,481.1549999996833,4.76065e-05,481.1549999996833,2.639826e-05,481.1549999996833,2.388478e-05
481.1699999996833,0.0002871128,481.1699999996833,4.732218e-05,481.1699999996833,2.441327e-05,481.1699999996833,2.403528e-05
481.18499999968327,0.0002779625,481.18499999968327,4.634159e-05,481.18499999968327,2.136438e-05,481.18499999968327,2.34911e-05
481.19999999968326,0.0002767627,481.19999999968326,4.164556e-05,481.19999999968326,2.057095e-05,481.19999999968326,2.273536e-05
481.21499999968324,0.0002721885,481.21499999968324,4.141695e-05,481.21499999968324,2.053325e-05,481.21499999968324,2.298922e-05
481.22999999968323,0.0002689009,481.22999999968323,4.074417e-05,481.22999999968323,1.944662e-05,481.22999999968323,2.330326e-05
481.2449999996832,0.000270361,481.2449999996832,4.080981e-05,481.2449999996832,1.838083e-05,481.2449999996832,2.341542e-05
481.2599999996832,0.000254832,481.2599999996832,4.177727e-05,481.2599999996832,1.83632e-05,481.2599999996832,2.341783e-05
481.2749999996832,0.0002363798,481.2749999996832,4.162458e-05,481.2749999996832,2.045558e-05,481.2749999996832,2.323909e-05
481.2899999996832,0.0002284049,481.2899999996832,4.28739e-05,481.2899999996832,2.065432e-05,481.2899999996832,2.28312e-05
481.30499999968316,0.0002045336,481.30499999968316,4.205319e-05,481.30499999968316,2.739801e-05,481.30499999968316,2.283182e-05
481.31999999968315,0.0001878693,481.31999999968315,4.165334e-05,481.31999999968315,2.969983e-05,481.31999999968315,2.264286e-05
481.33499999968313,0.0001814353,481.33499999968313,4.101467e-05,481.33499999968313,3.253852e-05,481.33499999968313,2.103949e-05
481.3499999996831,0.0001911849,481.3499999996831,4.108777e-05,481.3499999996831,3.249216e-05,481.3499999996831,1.97756e-05
481.3649999996831,0.0001970875,481.3649999996831,4.075247e-05,481.3649999996831,3.194211e-05,481.3649999996831,2.000648e-05
481.3799999996831,0.0001947966,481.3799999996831,4.049726e-05,481.3799999996831,3.166039e-05,481.3799999996831,1.959815e-05
481.3949999996831,0.0001957512,481.3949999996831,3.960211e-05,481.3949999996831,3.153422e-05,481.3949999996831,2.01496e-05
481.40999999968307,0.0002080306,481.40999999968307,3.836484e-05,481.40999999968307,3.209741e-05,481.40999999968307,1.917012e-05
481.42499999968305,0.0002241582,481.42499999968305,3.85458e-05,481.42499999968305,3.205745e-05,481.42499999968305,1.91164e-05
481.43999999968304,0.0002323754,481.43999999968304,3.945421e-05,481.43999999968304,3.235879e-05,481.43999999968304,2.116365e-05
481.454999999683,0.0002356122,481.454999999683,3.888455e-05,481.454999999683,3.317603e-05,481.454999999683,2.033956e-05
481.469999999683,0.0002329459,481.469999999683,4.000802e-05,481.469999999683,3.335726e-05,481.469999999683,2.194079e-05
481.484999999683,0.0002516778,481.484999999683,3.923761e-05,481.484999999683,3.484802e-05,481.484999999683,2.205478e-05
481.499999999683,0.0002528084,481.499999999683,3.948063e-05,481.499999999683,3.577985e-05,481.499999999683,2.205414e-05
481.51499999968297,0.0002544865,481.51499999968297,4.164556e-05,481.51499999968297,3.656957e-05,481.51499999968297,2.692032e-05
481.52999999968296,0.0002542316,481.52999999968296,4.00052e-05,481.52999999968296,3.519114e-05,481.52999999968296,2.735994e-05
481.54499999968294,0.0002566571,481.54499999968294,3.980894e-05,481.54499999968294,3.690699e-05,481.54499999968294,2.722937e-05
481.55999999968293,0.0002582798,481.55999999968293,3.973492e-05,481.55999999968293,3.265347e-05,481.55999999968293,2.832179e-05
481.5749999996829,0.0002532209,481.5749999996829,4.156972e-05,481.5749999996829,3.015546e-05,481.5749999996829,2.873852e-05
481.5899999996829,0.0002510395,481.5899999996829,4.039696e-05,481.5899999996829,2.818768e-05,481.5899999996829,2.866195e-05
481.6049999996829,0.0002413946,481.6049999996829,4.034043e-05,481.6049999996829,2.985264e-05,481.6049999996829,2.888324e-05
481.6199999996829,0.0002358339,481.6199999996829,3.967886e-05,481.6199999996829,2.987669e-05,481.6199999996829,2.986113e-05
481.63499999968286,0.0002371633,481.63499999968286,4.113368e-05,481.63499999968286,5.777526e-05,481.63499999968286,3.068154e-05
481.64999999968285,0.0002319254,481.64999999968285,4.077597e-05,481.64999999968285,7.456663e-05,481.64999999968285,3.024409e-05
481.66499999968283,0.0002181037,481.66499999968283,4.115046e-05,481.66499999968283,9.266099e-05,481.66499999968283,3.173416e-05
481.6799999996828,0.0001940867,481.6799999996828,4.32123e-05,481.6799999996828,9.92974e-05,481.6799999996828,3.204822e-05
481.6949999996828,0.000186421,481.6949999996828,4.255897e-05,481.6949999996828,9.906049e-05,481.6949999996828,3.13411e-05
481.7099999996828,0.0001775997,481.7099999996828,4.255036e-05,481.7099999996828,9.998956e-05,481.7099999996828,3.16684e-05
481.7249999996828,0.0001770094,481.7249999996828,4.208199e-05,481.7249999996828,0.0001011021,481.7249999996828,3.073246e-05
481.73999999968277,0.0001585121,481.73999999968277,4.397618e-05,481.73999999968277,0.0001006435,481.73999999968277,3.101262e-05
481.75499999968275,0.0001569391,481.75499999968275,4.432968e-05,481.75499999968275,0.0001001313,481.75499999968275,3.14461e-05
481.76999999968274,0.0001535443,481.76999999968274,4.224436e-05,481.76999999968274,0.0001001496,481.76999999968274,2.7006e-05
481.7849999996827,0.0001540998,481.7849999996827,4.214253e-05,481.7849999996827,9.990062e-05,481.7849999996827,2.708049e-05
481.7999999996827,0.0001455647,481.7999999996827,4.210374e-05,481.7999999996827,9.912602e-05,481.7999999996827,2.681704e-05
481.8149999996827,0.0001416316,481.8149999996827,4.208868e-05,481.8149999996827,9.900971e-05,481.8149999996827,2.512922e-05
481.8299999996827,0.0001398518,481.8299999996827,4.045515e-05,481.8299999996827,9.897514e-05,481.8299999996827,2.490172e-05
481.84499999968267,0.0001383174,481.84499999968267,4.110353e-05,481.84499999968267,9.868437e-05,481.84499999968267,2.479117e-05
481.85999999968266,0.0001446134,481.85999999968266,4.084845e-05,481.85999999968266,9.822394e-05,481.85999999968266,2.410493e-05
481.87499999968264,0.0001562262,481.87499999968264,4.049656e-05,481.87499999968264,9.819898e-05,481.87499999968264,2.319601e-05
481.88999999968263,0.0001543733,481.88999999968263,3.863049e-05,481.88999999968263,7.298972e-05,481.88999999968263,2.190738e-05
481.9049999996826,0.0001555137,481.9049999996826,3.793541e-05,481.9049999996826,6.184031e-05,481.9049999996826,2.185137e-05
481.9199999996826,0.0001546949,481.9199999996826,3.560383e-05,481.9199999996826,3.290102e-05,481.9199999996826,1.917379e-05
481.9349999996826,0.0001610968,481.9349999996826,3.534691e-05,481.9349999996826,2.152597e-05,481.9349999996826,1.927491e-05
481.9499999996826,0.0001676,481.9499999996826,3.55686e-05,481.9499999996826,2.053325e-05,481.9499999996826,1.864487e-05
481.96499999968256,0.0001698436,481.96499999968256,3.610593e-05,481.96499999968256,1.47421e-05,481.96499999968256,1.841529e-05
481.97999999968255,0.0001679023,481.97999999968255,3.489408e-05,481.97999999968255,1.076985e-05,481.97999999968255,1.820913e-05
481.99499999968253,0.0001758772,481.99499999968253,3.287661e-05,481.99499999968253,1.017809e-05,481.99499999968253,1.655167e-05
482.0099999996825,0.0001809577,482.0099999996825,3.32439e-05,482.0099999996825,9.506848e-06,482.0099999996825,1.703897e-05
482.0249999996825,0.000182794,482.0249999996825,3.861262e-05,482.0249999996825,8.864284e-06,482.0249999996825,1.755369e-05
482.0399999996825,0.0001833816,482.0399999996825,4.011948e-05,482.0399999996825,9.427989e-06,482.0399999996825,1.70398e-05
482.0549999996825,0.0001972923,482.0549999996825,4.011667e-05,482.0549999996825,9.700467e-06,482.0549999996825,1.751593e-05
482.06999999968247,0.000209135,482.06999999968247,4.252188e-05,482.06999999968247,1.003592e-05,482.06999999968247,1.781101e-05
482.08499999968245,0.0002160107,482.08499999968245,4.418231e-05,482.08499999968245,1.010168e-05,482.08499999968245,1.798495e-05
482.09999999968244,0.0002182941,482.09999999968244,4.411722e-05,482.09999999968244,9.457824e-06,482.09999999968244,1.880136e-05
482.1149999996824,0.0002133101,482.1149999996824,4.436176e-05,482.1149999996824,9.821691e-06,482.1149999996824,1.901962e-05
482.1299999996824,0.0002087901,482.1299999996824,4.549086e-05,482.1299999996824,1.002609e-05,482.1299999996824,1.93464e-05
482.1449999996824,0.0002105191,482.1449999996824,4.740634e-05,482.1449999996824,1.016978e-05,482.1449999996824,2.006694e-05
482.1599999996824,0.000213193,482.1599999996824,4.822855e-05,482.1599999996824,1.02704e-05,482.1599999996824,1.969137e-05
482.17499999968237,0.0002191049,482.17499999968237,4.99094e-05,482.17499999968237,1.040124e-05,482.17499999968237,1.980834e-05
482.18999999968236,0.0002175679,482.18999999968236,5.250463e-05,482.18999999968236,1.033875e-05,482.18999999968236,1.998111e-05
482.20499999968234,0.0002124566,482.20499999968234,5.239693e-05,482.20499999968234,1.034692e-05,482.20499999968234,2.003181e-05
482.21999999968233,0.0002200729,482.21999999968233,5.326589e-05,482.21999999968233,9.913058e-06,482.21999999968233,2.002266e-05
482.2349999996823,0.00022951,482.2349999996823,5.397443e-05,482.2349999996823,9.996546e-06,482.2349999996823,2.0095e-05
482.2499999996823,0.0002191193,482.2499999996823,5.399948e-05,482.2499999996823,1.053714e-05,482.2499999996823,2.083495e-05
482.2649999996823,0.0002188546,482.2649999996823,5.316451e-05,482.2649999996823,1.099765e-05,482.2649999996823,2.041905e-05
482.2799999996823,0.0002282707,482.2799999996823,5.135913e-05,482.2799999996823,1.156577e-05,482.2799999996823,2.042802e-05
482.29499999968226,0.0002255375,482.29499999968226,5.064098e-05,482.29499999968226,1.117049e-05,482.29499999968226,2.066183e-05
482.30999999968225,0.0002214219,482.30999999968225,5.118108e-05,482.30999999968225,1.282812e-05,482.30999999968225,2.180619e-05
482.32499999968223,0.0002047267,482.32499999968223,4.958575e-05,482.32499999968223,1.904922e-05,482.32499999968223,2.247112e-05
482.3399999996822,0.0002049675,482.3399999996822,5.028059e-05,482.3399999996822,2.077062e-05,482.3399999996822,2.213956e-05
482.3549999996822,0.0002066452,482.3549999996822,4.950215e-05,482.3549999996822,2.367745e-05,482.3549999996822,2.22443e-05
482.3699999996822,0.0002068716,482.3699999996822,4.950045e-05,482.3699999996822,2.408213e-05,482.3699999996822,2.289774e-05
482.3849999996822,0.0002075463,482.3849999996822,4.939133e-05,482.3849999996822,2.643772e-05,482.3849999996822,2.34647e-05
482.39999999968217,0.0002076229,482.39999999968217,4.809342e-05,482.39999999968217,2.708725e-05,482.39999999968217,2.39907e-05
482.41499999968215,0.0002090921,482.41499999968215,4.758548e-05,482.41499999968215,3.129027e-05,482.41499999968215,2.520087e-05
482.42999999968214,0.0002243255,482.42999999968214,4.767657e-05,482.42999999968214,3.161898e-05,482.42999999968214,2.704457e-05
482.4449999996821,0.000223783,482.4449999996821,4.653028e-05,482.4449999996821,3.272286e-05,482.4449999996821,2.783364e-05
482.4599999996821,0.0002278048,482.4599999996821,4.676492e-05,482.4599999996821,3.374229e-05,482.4599999996821,2.862506e-05
482.4749999996821,0.0002190575,482.4749999996821,4.517827e-05,482.4749999996821,3.408332e-05,482.4749999996821,2.926022e-05
482.4899999996821,0.0002100626,482.4899999996821,4.592602e-05,482.4899999996821,3.457083e-05,482.4899999996821,2.96267e-05
482.50499999968207,0.0002168208,482.50499999968207,4.726886e-05,482.50499999968207,3.455698e-05,482.50499999968207,3.050888e-05
482.51999999968206,0.0002121441,482.51999999968206,4.626919e-05,482.51999999968206,3.46758e-05,482.51999999968206,3.052411e-05
482.53499999968204,0.0002058567,482.53499999968204,4.529442e-05,482.53499999968204,3.500411e-05,482.53499999968204,3.07187e-05
482.54999999968203,0.0001998994,482.54999999968203,4.378292e-05,482.54999999968203,3.556978e-05,482.54999999968203,3.016527e-05
482.564999999682,0.0002000742,482.564999999682,4.273865e-05,482.564999999682,3.574598e-05,482.564999999682,2.992757e-05
482.579999999682,0.0002029857,482.579999999682,4.319632e-05,482.579999999682,3.348666e-05,482.579999999682,2.989602e-05
482.594999999682,0.0002032762,482.594999999682,4.239581e-05,482.594999999682,3.290487e-05,482.594999999682,2.975906e-05
482.609999999682,0.000202312,482.609999999682,4.31761e-05,482.609999999682,3.26211e-05,482.609999999682,3.104939e-05
482.62499999968196,0.0002021396,482.62499999968196,4.365887e-05,482.62499999968196,3.275942e-05,482.62499999968196,3.237185e-05
482.63999999968195,0.0002000971,482.63999999968195,4.376908e-05,482.63999999968195,3.202139e-05,482.63999999968195,3.198618e-05
482.65499999968193,0.0001961146,482.65499999968193,4.425335e-05,482.65499999968193,3.12682e-05,482.65499999968193,3.131952e-05
482.6699999996819,0.0001792523,482.6699999996819,4.420239e-05,482.6699999996819,2.82426e-05,482.6699999996819,3.07517e-05
482.6849999996819,0.0001745689,482.6849999996819,4.172126e-05,482.6849999996819,2.927033e-05,482.6849999996819,3.038164e-05
482.6999999996819,0.0001776229,482.6999999996819,4.157921e-05,482.6999999996819,2.816418e-05,482.6999999996819,3.033988e-05
482.7149999996819,0.0001745135,482.7149999996819,4.071166e-05,482.7149999996819,2.832876e-05,482.7149999996819,2.962527e-05
482.72999999968187,0.0001752385,482.72999999968187,4.083362e-05,482.72999999968187,2.916957e-05,482.72999999968187,2.953384e-05
482.74499999968185,0.0001979802,482.74499999968185,4.068259e-05,482.74499999968185,3.176256e-05,482.74499999968185,3.022265e-05
482.75999999968184,0.000192548,482.75999999968184,3.888636e-05,482.75999999968184,3.272974e-05,482.75999999968184,3.036309e-05
482.7749999996818,0.0001916815,482.7749999996818,4.031737e-05,482.7749999996818,3.317093e-05,482.7749999996818,3.041547e-05
482.7899999996818,0.0002009826,482.7899999996818,4.54323e-05,482.7899999996818,3.321889e-05,482.7899999996818,3.54889e-05
482.8049999996818,0.0002046715,482.8049999996818,4.563617e-05,482.8049999996818,3.237881e-05,482.8049999996818,3.773735e-05
482.8199999996818,0.0002031228,482.8199999996818,4.658867e-05,482.8199999996818,3.164125e-05,482.8199999996818,3.824201e-05
482.83499999968177,0.0002038252,482.83499999968177,4.766091e-05,482.83499999968177,3.041825e-05,482.83499999968177,4.001224e-05
482.84999999968176,0.0002085111,482.84999999968176,4.945973e-05,482.84999999968176,3.120371e-05,482.84999999968176,4.127146e-05
482.86499999968174,0.0002056381,482.86499999968174,4.909153e-05,482.86499999968174,3.897031e-05,482.86499999968174,3.950524e-05
482.87999999968173,0.0002119687,482.87999999968173,4.775893e-05,482.87999999968173,3.915747e-05,482.87999999968173,4.024638e-05
482.8949999996817,0.0002134283,482.8949999996817,4.824344e-05,482.8949999996817,3.907103e-05,482.8949999996817,4.05362e-05
482.9099999996817,0.0002120939,482.9099999996817,5.116402e-05,482.9099999996817,3.891099e-05,482.9099999996817,4.224202e-05
482.9249999996817,0.0002115649,482.9249999996817,5.363775e-05,482.9249999996817,3.872737e-05,482.9249999996817,4.34068e-05
482.9399999996817,0.0002089745,482.9399999996817,5.386836e-05,482.9399999996817,3.782795e-05,482.9399999996817,4.322468e-05
482.95499999968166,0.0002109467,482.95499999968166,5.444451e-05,482.95499999968166,3.779032e-05,482.95499999968166,4.264758e-05
482.96999999968165,0.0002187129,482.96999999968165,5.508576e-05,482.96999999968165,3.768132e-05,482.96999999968165,4.419761e-05
482.98499999968163,0.0002157727,482.98499999968163,5.582218e-05,482.98499999968163,3.706125e-05,482.98499999968163,4.50915e-05
482.9999999996816,0.0002144634,482.9999999996816,5.801323e-05,482.9999999996816,3.475047e-05,482.9999999996816,4.486413e-05
483.0149999996816,0.0002109155,483.0149999996816,5.766006e-05,483.0149999996816,3.41337e-05,483.0149999996816,4.403988e-05
483.0299999996816,0.0002096677,483.0299999996816,5.552919e-05,483.0299999996816,3.385524e-05,483.0299999996816,4.108777e-05
483.0449999996816,0.0002130144,483.0449999996816,5.607421e-05,483.0449999996816,3.393171e-05,483.0449999996816,4.088705e-05
483.05999999968157,0.0002080931,483.05999999968157,5.806007e-05,483.05999999968157,3.402209e-05,483.05999999968157,3.938954e-05
483.07499999968155,0.0002096172,483.07499999968155,5.872253e-05,483.07499999968155,3.411636e-05,483.07499999968155,3.968561e-05
483.08999999968154,0.000208629,483.08999999968154,6.147477e-05,483.08999999968154,3.392465e-05,483.08999999968154,3.918696e-05
483.1049999996815,0.000204859,483.1049999996815,6.576243e-05,483.1049999996815,2.273784e-05,483.1049999996815,4.043216e-05
483.1199999996815,0.0002130365,483.1199999996815,6.869198e-05,483.1199999996815,2.250432e-05,483.1199999996815,4.058482e-05
483.1349999996815,0.0002251335,483.1349999996815,7.020193e-05,483.1349999996815,2.025489e-05,483.1349999996815,3.930827e-05
483.1499999996815,0.0002213253,483.1499999996815,6.966229e-05,483.1499999996815,2.674392e-05,483.1499999996815,3.776421e-05
483.16499999968147,0.0002261062,483.16499999968147,7.11562e-05,483.16499999968147,2.662409e-05,483.16499999968147,4.048161e-05
483.17999999968146,0.0002215735,483.17999999968146,7.029618e-05,483.17999999968146,2.705394e-05,483.17999999968146,3.81088e-05
483.19499999968144,0.0002277093,483.19499999968144,7.088506e-05,483.19499999968144,2.701226e-05,483.19499999968144,3.802184e-05
483.20999999968143,0.000230626,483.20999999968143,7.502335e-05,483.20999999968143,2.794476e-05,483.20999999968143,3.841988e-05
483.2249999996814,0.0002357395,483.2249999996814,0.0001131205,483.2249999996814,2.708153e-05,483.2249999996814,3.981036e-05
483.2399999996814,0.0002232446,483.2399999996814,0.0001324082,483.2399999996814,2.713505e-05,483.2399999996814,3.829391e-05
483.2549999996814,0.0002218578,483.2549999996814,0.0001861189,483.2549999996814,2.953861e-05,483.2549999996814,3.901583e-05
483.2699999996814,0.0002212898,483.2699999996814,0.0002113652,483.2699999996814,2.868504e-05,483.2699999996814,3.864107e-05
483.28499999968136,0.0002087252,483.28499999968136,0.0002325669,483.28499999968136,2.821366e-05,483.28499999968136,3.709392e-05
483.29999999968135,0.0002086111,483.29999999968135,0.000254155,483.29999999968135,2.843051e-05,483.29999999968135,3.690012e-05
483.31499999968133,0.0002087993,483.31499999968133,0.0002620111,483.31499999968133,2.841515e-05,483.31499999968133,3.606885e-05
483.3299999996813,0.000204611,483.3299999996813,0.0002702908,483.3299999996813,2.818118e-05,483.3299999996813,3.533615e-05
483.3449999996813,0.0002007766,483.3449999996813,0.0002891382,483.3449999996813,2.759729e-05,483.3449999996813,3.095215e-05
483.3599999996813,0.0001955804,483.3599999996813,0.0003060557,483.3599999996813,2.723868e-05,483.3599999996813,3.044001e-05
483.3749999996813,0.0001837707,483.3749999996813,0.0003134726,483.3749999996813,2.696842e-05,483.3749999996813,3.088882e-05
483.38999999968127,0.0001602382,483.38999999968127,0.0003167839,483.38999999968127,2.589343e-05,483.38999999968127,3.079153e-05
483.40499999968125,0.0001525485,483.40499999968125,0.0003167031,483.40499999968125,1.999168e-05,483.40499999968125,2.756461e-05
483.41999999968124,0.0001486364,483.41999999968124,0.0003188491,483.41999999968124,1.98119e-05,483.41999999968124,2.672969e-05
483.4349999996812,0.0001431518,483.4349999996812,0.0003194627,483.4349999996812,1.894541e-05,483.4349999996812,2.672126e-05
483.4499999996812,0.0001327913,483.4499999996812,0.0003198688,483.4499999996812,1.82632e-05,483.4499999996812,2.65446e-05
483.4649999996812,0.000107586,483.4649999996812,0.0003091411,483.4649999996812,1.73584e-05,483.4649999996812,2.26727e-05
483.4799999996812,0.0001068197,483.4799999996812,0.0003086172,483.4799999996812,1.678576e-05,483.4799999996812,2.258493e-05
483.49499999968117,0.0001123858,483.49499999968117,0.000277892,483.49499999968117,1.340589e-05,483.49499999968117,2.312363e-05
483.50999999968116,0.000119123,483.50999999968116,0.000263818,483.50999999968116,1.120071e-05,483.50999999968116,2.188551e-05
483.52499999968114,0.0001172627,483.52499999968114,0.0002439884,483.52499999968114,1.111486e-05,483.52499999968114,2.228795e-05
483.53999999968113,0.00011776,483.53999999968113,0.0002305852,483.53999999968113,9.445902e-06,483.53999999968113,2.310535e-05
483.5549999996811,0.000218273,483.5549999996811,0.0002006352,483.5549999996811,1.15194e-05,483.5549999996811,2.303085e-05
483.5699999996811,0.0002575726,483.5699999996811,0.0001969745,483.5699999996811,1.148879e-05,483.5699999996811,2.499489e-05
483.5849999996811,0.0002900524,483.5849999996811,0.0001863166,483.5849999996811,1.204662e-05,483.5849999996811,2.795333e-05
483.5999999996811,0.0003183196,483.5999999996811,0.0001467615,483.5999999996811,1.746036e-05,483.5999999996811,2.897916e-05
483.61499999968106,0.0003252641,483.61499999968106,0.0001254557,483.61499999968106,2.006413e-05,483.61499999968106,3.143131e-05
483.62999999968105,0.0003259911,483.62999999968105,0.001146033,483.62999999968105,2.107628e-05,483.62999999968105,3.033895e-05
483.64499999968103,0.0003290358,483.64499999968103,0.001692678,483.64499999968103,2.138613e-05,483.64499999968103,3.078375e-05
483.659999999681,0.0003299406,483.659999999681,0.002165782,483.659999999681,2.32033e-05,483.659999999681,3.110107e-05
483.674999999681,0.0003358638,483.674999999681,0.002293223,483.674999999681,2.334734e-05,483.674999999681,3.17732e-05
483.689999999681,0.0003409009,483.689999999681,0.002306304,483.689999999681,2.829243e-05,483.689999999681,3.270477e-05
483.704999999681,0.0003435379,483.704999999681,0.002359047,483.704999999681,3.312929e-05,483.704999999681,3.314077e-05
483.71999999968097,0.0003440325,483.71999999968097,0.002388362,483.71999999968097,3.549327e-05,483.71999999968097,3.230084e-05
483.73499999968095,0.0003574775,483.73499999968095,0.00239397,483.73499999968095,3.592876e-05,483.73499999968095,3.212811e-05
483.74999999968094,0.0003581346,483.74999999968094,0.002394337,483.74999999968094,3.639272e-05,483.74999999968094,3.208687e-05
483.7649999996809,0.0003627311,483.7649999996809,0.002394502,483.7649999996809,3.739084e-05,483.7649999996809,3.212592e-05
483.7799999996809,0.0003781459,483.7799999996809,0.002394108,483.7799999996809,3.816384e-05,483.7799999996809,3.414319e-05
483.7949999996809,0.0003784136,483.7949999996809,0.002393978,483.7949999996809,3.944993e-05,483.7949999996809,3.40076e-05
483.8099999996809,0.000312317,483.8099999996809,0.002394368,483.8099999996809,4.003231e-05,483.8099999996809,3.358076e-05
483.82499999968087,0.0002999555,483.82499999968087,0.002395132,483.82499999968087,4.135296e-05,483.82499999968087,3.328497e-05
483.83999999968086,0.000270669,483.83999999968086,0.002395363,483.83999999968086,4.329697e-05,483.83999999968086,3.121184e-05
483.85499999968084,0.000254126,483.85499999968084,0.002532498,483.85499999968084,4.219164e-05,483.85499999968084,3.179004e-05
483.86999999968083,0.0002557496,483.86999999968083,0.002667228,483.86999999968083,4.19754e-05,483.86999999968083,2.972685e-05
483.8849999996808,0.0002565878,483.8849999996808,0.002592883,483.8849999996808,4.262644e-05,483.8849999996808,3.068613e-05
483.8999999996808,0.0002557859,483.8999999996808,0.002612218,483.8999999996808,4.303721e-05,483.8999999996808,3.073154e-05
483.9149999996808,0.0002591376,483.9149999996808,0.002437484,483.9149999996808,4.678781e-05,483.9149999996808,3.181175e-05
483.9299999996808,0.000259645,483.9299999996808,0.002461086,483.9299999996808,4.500895e-05,483.9299999996808,3.107931e-05
483.94499999968076,0.0002594637,483.94499999968076,0.00264137,483.94499999968076,4.494287e-05,483.94499999968076,3.174393e-05
483.95999999968075,0.000257714,483.95999999968075,0.002688725,483.95999999968075,4.143939e-05,483.95999999968075,3.177453e-05
483.97499999968073,0.000258668,483.97499999968073,0.002684591,483.97499999968073,3.982345e-05,483.97499999968073,3.26552e-05
483.9899999996807,0.0002409236,483.9899999996807,0.002685406,483.9899999996807,4.021242e-05,483.9899999996807,3.3535e-05
484.0049999996807,0.0002419192,484.0049999996807,0.00269573,484.0049999996807,4.013843e-05,484.0049999996807,3.36319e-05
484.0199999996807,0.0002344731,484.0199999996807,0.002704601,484.0199999996807,4.027228e-05,484.0199999996807,3.289845e-05
484.0349999996807,0.0002226299,484.0349999996807,0.002708182,484.0349999996807,4.109805e-05,484.0349999996807,3.231523e-05
484.04999999968067,0.0002191792,484.04999999968067,0.0027087,484.04999999968067,3.994036e-05,484.04999999968067,3.17164e-05
484.06499999968065,0.0002292162,484.06499999968065,0.002714229,484.06499999968065,3.896344e-05,484.06499999968065,3.291087e-05
484.07999999968064,0.0002415138,484.07999999968064,0.002720724,484.07999999968064,4.40098e-05,484.07999999968064,3.493765e-05
484.0949999996806,0.00023979,484.0949999996806,0.002720448,484.0949999996806,4.121476e-05,484.0949999996806,3.545475e-05
484.1099999996806,0.0002462609,484.1099999996806,0.002450261,484.1099999996806,4.082775e-05,484.1099999996806,3.818377e-05
484.1249999996806,0.0002425305,484.1249999996806,0.002331427,484.1249999996806,4.025618e-05,484.1249999996806,3.862721e-05
484.1399999996806,0.0002603401,484.1399999996806,0.001938631,484.1399999996806,4.028242e-05,484.1399999996806,3.896164e-05
484.15499999968057,0.0002596198,484.15499999968057,0.001503806,484.15499999968057,3.627369e-05,484.15499999968057,3.913336e-05
484.16999999968056,0.0002607214,484.16999999968056,0.001312447,484.16999999968056,3.530145e-05,484.16999999968056,4.075143e-05
484.18499999968054,0.0002562601,484.18499999968054,0.001150566,484.18499999968054,3.446432e-05,484.18499999968054,4.080601e-05
484.19999999968053,0.0002522757,484.19999999968053,0.0007084893,484.19999999968053,3.473182e-05,484.19999999968053,3.976433e-05
484.2149999996805,0.0002564186,484.2149999996805,0.0004944341,484.2149999996805,3.519635e-05,484.2149999996805,3.957186e-05
484.2299999996805,0.0002561079,484.2299999996805,0.0004651099,484.2299999996805,3.523315e-05,484.2299999996805,4.081499e-05
484.2449999996805,0.0002540025,484.2449999996805,0.0004480339,484.2449999996805,3.421408e-05,484.2449999996805,3.989237e-05
484.2599999996805,0.0002515306,484.2599999996805,0.0003953254,484.2599999996805,3.360466e-05,484.2599999996805,4.081395e-05
484.27499999968046,0.0002537187,484.27499999968046,0.0003237574,484.27499999968046,3.368505e-05,484.27499999968046,4.182512e-05
484.28999999968045,0.0002499461,484.28999999968045,0.0002952051,484.28999999968045,3.401588e-05,484.28999999968045,4.171282e-05
484.30499999968043,0.0002533763,484.30499999968043,0.0003046552,484.30499999968043,3.395205e-05,484.30499999968043,4.029361e-05
484.3199999996804,0.0002483943,484.3199999996804,0.0002477584,484.3199999996804,3.060753e-05,484.3199999996804,4.072273e-05
484.3349999996804,0.0002391073,484.3349999996804,0.0002203701,484.3349999996804,2.821366e-05,484.3349999996804,3.881529e-05
484.3499999996804,0.0002474021,484.3499999996804,0.0002622441,484.3499999996804,2.85398e-05,484.3499999996804,3.842465e-05
484.3649999996804,0.0002428991,484.3649999996804,0.0003448121,484.3649999996804,2.943829e-05,484.3649999996804,3.6754e-05
484.37999999968036,0.0002432674,484.37999999968036,0.0003900266,484.37999999968036,2.894609e-05,484.37999999968036,3.573889e-05
484.39499999968035,0.0002312515,484.39499999968035,0.00056491,484.39499999968035,2.884322e-05,484.39499999968035,3.600865e-05
484.40999999968034,0.0002317574,484.40999999968034,0.0005764437,484.40999999968034,2.943255e-05,484.40999999968034,3.572863e-05
484.4249999996803,0.000226685,484.4249999996803,0.0005904373,484.4249999996803,2.99887e-05,484.4249999996803,3.319938e-05
484.4399999996803,0.0002278625,484.4399999996803,0.0005915964,484.4399999996803,3.271338e-05,484.4399999996803,3.360592e-05
484.4549999996803,0.0002289705,484.4549999996803,0.00059409,484.4549999996803,3.19377e-05,484.4549999996803,3.312376e-05
484.4699999996803,0.0002285953,484.4699999996803,0.0005914114,484.4699999996803,3.23405e-05,484.4699999996803,3.274781e-05
484.48499999968027,0.0002259814,484.48499999968027,0.0005896412,484.48499999968027,3.20425e-05,484.48499999968027,3.091207e-05
484.49999999968026,0.0002270183,484.49999999968026,0.0005892453,484.49999999968026,3.260944e-05,484.49999999968026,3.151501e-05
484.51499999968024,0.0002255562,484.51499999968024,0.0005866636,484.51499999968024,3.247352e-05,484.51499999968024,2.962052e-05
484.52999999968023,0.0002187432,484.52999999968023,0.0005854725,484.52999999968023,3.247612e-05,484.52999999968023,2.922072e-05
484.5449999996802,0.0002159277,484.5449999996802,0.0005853352,484.5449999996802,3.273017e-05,484.5449999996802,2.940286e-05
484.5599999996802,0.0002122087,484.5599999996802,0.0005774889,484.5599999996802,3.334206e-05,484.5599999996802,3.050611e-05
484.5749999996802,0.0002079446,484.5749999996802,0.0005716669,484.5749999996802,3.181618e-05,484.5749999996802,3.020027e-05
484.5899999996802,0.0002106299,484.5899999996802,0.0005661655,484.5899999996802,3.113637e-05,484.5899999996802,3.009327e-05
484.60499999968016,0.0002022711,484.60499999968016,0.0005005641,484.60499999968016,3.089201e-05,484.60499999968016,2.747554e-05
484.61999999968015,0.0002055837,484.61999999968015,0.0004726292,484.61999999968015,3.137389e-05,484.61999999968015,2.983517e-05
484.63499999968013,0.0002197276,484.63499999968013,0.0004138433,484.63499999968013,3.113094e-05,484.63499999968013,3.029807e-05
484.6499999996801,0.0002252813,484.6499999996801,0.0001942047,484.6499999996801,3.12389e-05,484.6499999996801,2.925011e-05
484.6649999996801,0.000227033,484.6649999996801,0.0001439381,484.6649999996801,3.396822e-05,484.6649999996801,2.933427e-05
484.6799999996801,0.0002304906,484.6799999996801,0.0001125425,484.6799999996801,3.903063e-05,484.6799999996801,2.882954e-05
484.6949999996801,0.0002377458,484.6949999996801,0.0001004646,484.6949999996801,3.770299e-05,484.6949999996801,2.876399e-05
484.70999999968006,0.0002366708,484.70999999968006,6.574979e-05,484.70999999968006,3.777839e-05,484.70999999968006,2.790692e-05
484.72499999968005,0.0002413539,484.72499999968005,4.594871e-05,484.72499999968005,3.827294e-05,484.72499999968005,3.062547e-05
484.73999999968004,0.0002468314,484.73999999968004,4.543881e-05,484.73999999968004,4.69261e-05,484.73999999968004,3.315904e-05
484.75499999968,0.0002474127,484.75499999968,4.549674e-05,484.75499999968,4.653876e-05,484.75499999968,3.34079e-05
484.76999999968,0.0002488029,484.76999999968,4.448416e-05,484.76999999968,4.66473e-05,484.76999999968,3.280283e-05
484.78499999968,0.0002508925,484.78499999968,4.142443e-05,484.78499999968,4.624361e-05,484.78499999968,3.281184e-05
484.79999999968,0.0002447009,484.79999999968,3.698248e-05,484.79999999968,4.828927e-05,484.79999999968,3.2189e-05
484.81499999967997,0.0002314511,484.81499999967997,3.234791e-05,484.81499999967997,4.831085e-05,484.81499999967997,3.177719e-05
484.82999999967996,0.0002294769,484.82999999967996,3.270434e-05,484.82999999967996,4.994552e-05,484.82999999967996,3.197385e-05
484.84499999967994,0.0002261041,484.84499999967994,3.269141e-05,484.84499999967994,5.057613e-05,484.84499999967994,3.261203e-05
484.8599999996799,0.0002258565,484.8599999996799,3.29686e-05,484.8599999996799,5.206033e-05,484.8599999996799,3.321168e-05
484.8749999996799,0.0002183768,484.8749999996799,3.488398e-05,484.8749999996799,5.214549e-05,484.8749999996799,3.512624e-05
484.8899999996799,0.0002012029,484.8899999996799,3.41568e-05,484.8899999996799,5.426777e-05,484.8899999996799,3.453618e-05
484.9049999996799,0.0001855652,484.9049999996799,0.0003031397,484.9049999996799,5.404745e-05,484.9049999996799,3.4037e-05
484.9199999996799,0.0001823658,484.9199999996799,0.0003498681,484.9199999996799,5.006467e-05,484.9199999996799,3.458631e-05
484.93499999967986,0.0001783482,484.93499999967986,0.0003995412,484.93499999967986,4.946657e-05,484.93499999967986,3.503509e-05
484.94999999967985,0.0001795505,484.94999999967985,0.0004472674,484.94999999967985,5.133224e-05,484.94999999967985,3.487954e-05
484.96499999967983,0.0001766025,484.96499999967983,0.0004602963,484.96499999967983,5.161685e-05,484.96499999967983,3.347151e-05
484.9799999996798,0.0001696542,484.9799999996798,0.0004607399,484.9799999996798,4.359009e-05,484.9799999996798,3.244531e-05
484.9949999996798,0.0001580758,484.9949999996798,0.0009651653,484.9949999996798,4.320349e-05,484.9949999996798,2.918357e-05
485.0099999996798,0.0001503907,485.0099999996798,0.00132191,485.0099999996798,4.35225e-05,485.0099999996798,2.88481e-05
485.0249999996798,0.0001465172,485.0249999996798,0.001844456,485.0249999996798,4.332917e-05,485.0249999996798,2.878162e-05
485.03999999967976,0.0001468459,485.03999999967976,0.002103514,485.03999999967976,4.302346e-05,485.03999999967976,2.804841e-05
485.05499999967975,0.0001448223,485.05499999967975,0.002118134,485.05499999967975,4.029186e-05,485.05499999967975,2.743039e-05
485.06999999967974,0.0001544826,485.06999999967974,0.002131987,485.06999999967974,3.994636e-05,485.06999999967974,2.706227e-05
485.0849999996797,0.000197409,485.0849999996797,0.002163107,485.0849999996797,3.695581e-05,485.0849999996797,2.643612e-05
485.0999999996797,0.0002080025,485.0999999996797,0.002187231,485.0999999996797,3.520715e-05,485.0999999996797,2.560072e-05
485.1149999996797,0.0002044211,485.1149999996797,0.002199031,485.1149999996797,3.373436e-05,485.1149999996797,1.874358e-05
485.1299999996797,0.0002146739,485.1299999996797,0.002202812,485.1299999996797,3.265994e-05,485.1299999996797,1.806311e-05
485.14499999967967,0.0002252506,485.14499999967967,0.002203564,485.14499999967967,2.857827e-05,485.14499999967967,1.799591e-05
485.15999999967966,0.000228305,485.15999999967966,0.00216794,485.15999999967966,2.497233e-05,485.15999999967966,1.75545e-05
485.17499999967964,0.000227885,485.17499999967964,0.002176648,485.17499999967964,2.570999e-05,485.17499999967964,1.635475e-05
485.1899999996796,0.0002227182,485.1899999996796,0.00221129,485.1899999996796,2.454275e-05,485.1899999996796,1.438126e-05
485.2049999996796,0.0002191809,485.2049999996796,0.002215316,485.2049999996796,2.34941e-05,485.2049999996796,1.455941e-05
485.2199999996796,0.000219208,485.2199999996796,0.002246572,485.2199999996796,2.258929e-05,485.2199999996796,1.441257e-05
485.2349999996796,0.000219427,485.2349999996796,0.002275735,485.2349999996796,2.387298e-05,485.2349999996796,1.493387e-05
485.2499999996796,0.0002188781,485.2499999996796,0.001948916,485.2499999996796,2.327241e-05,485.2499999996796,1.511482e-05
485.26499999967956,0.0002171523,485.26499999967956,0.001786693,485.26499999967956,2.208414e-05,485.26499999967956,1.514741e-05
485.27999999967955,0.0002189804,485.27999999967955,0.001208233,485.27999999967955,2.07129e-05,485.27999999967955,1.574029e-05
485.29499999967953,0.0002227277,485.29499999967953,0.0008648712,485.29499999967953,2.024863e-05,485.29499999967953,1.681343e-05
485.3099999996795,0.0002193284,485.3099999996795,0.0008454348,485.3099999996795,1.982043e-05,485.3099999996795,1.746036e-05
485.3249999996795,0.0002024911,485.3249999996795,0.0008355691,485.3249999996795,2.008588e-05,485.3249999996795,1.698681e-05
485.3399999996795,0.0001627233,485.3399999996795,0.000801151,485.3399999996795,2.10863e-05,485.3399999996795,1.768879e-05
485.3549999996795,0.0001586077,485.3549999996795,0.0007742998,485.3549999996795,2.131487e-05,485.3549999996795,1.795673e-05
485.36999999967946,0.0001689336,485.36999999967946,0.0007633748,485.36999999967946,2.437631e-05,485.36999999967946,1.991332e-05
485.38499999967945,0.0001545654,485.38499999967945,0.0007609519,485.38499999967945,2.580024e-05,485.38499999967945,2.043422e-05
485.39999999967944,0.0001487097,485.39999999967944,0.0007609847,485.39999999967944,3.003329e-05,485.39999999967944,2.162847e-05
485.4149999996794,0.0001526108,485.4149999996794,0.0007604152,485.4149999996794,3.03227e-05,485.4149999996794,2.349949e-05
485.4299999996794,0.0001698391,485.4299999996794,0.0006170944,485.4299999996794,2.978887e-05,485.4299999996794,2.551805e-05
485.4449999996794,0.0001815515,485.4449999996794,0.0005174548,485.4449999996794,2.932082e-05,485.4449999996794,2.698878e-05
485.4599999996794,0.0001911389,485.4599999996794,0.0005034978,485.4599999996794,2.927947e-05,485.4599999996794,2.815117e-05
485.47499999967937,0.0001938399,485.47499999967937,0.0004331412,485.47499999967937,2.936067e-05,485.47499999967937,2.87635e-05
485.48999999967936,0.0002267118,485.48999999967936,0.001077795,485.48999999967936,3.00286e-05,485.48999999967936,3.100308e-05
485.50499999967934,0.0002328161,485.50499999967934,0.001428703,485.50499999967934,3.065857e-05,485.50499999967934,3.183565e-05
485.5199999996793,0.0002350837,485.5199999996793,0.001845056,485.5199999996793,3.364613e-05,485.5199999996793,3.358117e-05
485.5349999996793,0.0002489706,485.5349999996793,0.00226984,485.5349999996793,3.469448e-05,485.5349999996793,3.419514e-05
485.5499999996793,0.00024718,485.5499999996793,0.002406056,485.5499999996793,3.479584e-05,485.5499999996793,3.474155e-05
485.5649999996793,0.0002490655,485.5649999996793,0.002410877,485.5649999996793,3.488883e-05,485.5649999996793,3.585654e-05
485.5799999996793,0.0002556737,485.5799999996793,0.002438511,485.5799999996793,3.536484e-05,485.5799999996793,3.5688e-05
485.59499999967926,0.0002564904,485.59499999967926,0.002478401,485.59499999967926,3.487954e-05,485.59499999967926,3.626709e-05
485.60999999967925,0.0002667306,485.60999999967925,0.002502713,485.60999999967925,3.485126e-05,485.60999999967925,3.714174e-05
485.62499999967923,0.0002615598,485.62499999967923,0.002510066,485.62499999967923,3.3179e-05,485.62499999967923,3.730145e-05
485.6399999996792,0.000259551,485.6399999996792,0.002510493,485.6399999996792,3.157083e-05,485.6399999996792,3.743904e-05
485.6549999996792,0.0002617872,485.6549999996792,0.002511151,485.6549999996792,2.814367e-05,485.6549999996792,3.754949e-05
485.6699999996792,0.000254349,485.6699999996792,0.002511783,485.6699999996792,2.806497e-05,485.6699999996792,3.631522e-05
485.6849999996792,0.0002589281,485.6849999996792,0.002512015,485.6849999996792,2.954337e-05,485.6849999996792,3.548096e-05
485.69999999967916,0.0002524527,485.69999999967916,0.002501452,485.69999999967916,3.058957e-05,485.69999999967916,3.562479e-05
485.71499999967915,0.0002507571,485.71499999967915,0.002508998,485.71499999967915,3.162032e-05,485.71499999967915,3.522275e-05
485.72999999967914,0.0002263808,485.72999999967914,0.00250663,485.72999999967914,3.071962e-05,485.72999999967914,3.560343e-05
485.7449999996791,0.0002241594,485.7449999996791,0.002112975,485.7449999996791,2.981864e-05,485.7449999996791,3.396449e-05
485.7599999996791,0.0002266433,485.7599999996791,0.001966608,485.7599999996791,2.900103e-05,485.7599999996791,3.340537e-05
485.7749999996791,0.0002255698,485.7749999996791,0.001549893,485.7749999996791,2.68627e-05,485.7749999996791,3.250473e-05
485.7899999996791,0.0002119659,485.7899999996791,0.0009111115,485.7899999996791,2.661244e-05,485.7899999996791,3.19099e-05
485.80499999967907,0.0002111806,485.80499999967907,0.0006322269,485.80499999967907,2.652177e-05,485.80499999967907,3.165282e-05
485.81999999967906,0.000215592,485.81999999967906,0.0006481521,485.81999999967906,2.645051e-05,485.81999999967906,3.089429e-05
485.83499999967904,0.0002101196,485.83499999967904,0.0005990858,485.83499999967904,2.592877e-05,485.83499999967904,3.031201e-05
485.849999999679,0.000209762,485.849999999679,0.0005067604,485.849999999679,2.616188e-05,485.849999999679,2.991627e-05
485.864999999679,0.000227336,485.864999999679,0.0004462976,485.864999999679,2.573354e-05,485.864999999679,2.84622e-05
485.879999999679,0.0002426581,485.879999999679,0.0004354217,485.879999999679,2.76819e-05,485.879999999679,2.833572e-05
485.894999999679,0.0002436129,485.894999999679,0.000435718,485.894999999679,3.393545e-05,485.894999999679,2.896944e-05
485.909999999679,0.0002412241,485.909999999679,0.0004327028,485.909999999679,3.427702e-05,485.909999999679,2.858813e-05
485.92499999967896,0.0002411255,485.92499999967896,0.0004297703,485.92499999967896,3.40283e-05,485.92499999967896,3.304542e-05
485.93999999967895,0.0002404056,485.93999999967895,0.0004154628,485.93999999967895,3.1173e-05,485.93999999967895,3.416382e-05
485.95499999967893,0.0002402887,485.95499999967893,0.0004143712,485.95499999967893,3.168841e-05,485.95499999967893,3.393379e-05
485.9699999996789,0.0002479154,485.9699999996789,0.0003505894,485.9699999996789,3.208117e-05,485.9699999996789,3.305054e-05
485.9849999996789,0.000258598,485.9849999996789,0.0003220243,485.9849999996789,3.257616e-05,485.9849999996789,3.224497e-05
485.9999999996789,0.000257733,485.9999999996789,0.0002984014,485.9999999996789,3.450802e-05,485.9999999996789,3.252899e-05
486.0149999996789,0.00026125,486.0149999996789,0.0002761007,486.0149999996789,3.457939e-05,486.0149999996789,3.195226e-05
486.02999999967886,0.0002693529,486.02999999967886,0.0002355658,486.02999999967886,3.430618e-05,486.02999999967886,3.191211e-05
486.04499999967885,0.0002741777,486.04499999967885,0.000166427,486.04499999967885,3.510779e-05,486.04499999967885,3.091025e-05
486.05999999967884,0.0002880877,486.05999999967884,0.0001514681,486.05999999967884,3.53226e-05,486.05999999967884,2.973586e-05
486.0749999996788,0.0003063953,486.0749999996788,9.507708e-05,486.0749999996788,3.603563e-05,486.0749999996788,3.032316e-05
486.0899999996788,0.0003237033,486.0899999996788,8.428589e-05,486.0899999996788,3.636639e-05,486.0899999996788,3.114859e-05
486.1049999996788,0.0003309663,486.1049999996788,8.278065e-05,486.1049999996788,3.623134e-05,486.1049999996788,3.143176e-05
486.1199999996788,0.000320296,486.1199999996788,7.031221e-05,486.1199999996788,3.586008e-05,486.1199999996788,3.106572e-05
486.13499999967877,0.0003207184,486.13499999967877,5.188768e-05,486.13499999967877,3.258092e-05,486.13499999967877,3.062731e-05
486.14999999967876,0.0003248958,486.14999999967876,4.376361e-05,486.14999999967876,2.919612e-05,486.14999999967876,2.961814e-05
486.16499999967874,0.0003287062,486.16499999967874,4.492657e-05,486.16499999967874,2.955338e-05,486.16499999967874,3.079885e-05
486.1799999996787,0.0003253669,486.1799999996787,4.403828e-05,486.1799999996787,3.043075e-05,486.1799999996787,2.368876e-05
486.1949999996787,0.0003475485,486.1949999996787,0.0001786703,486.1949999996787,3.047331e-05,486.1949999996787,2.484679e-05
486.2099999996787,0.0003402745,486.2099999996787,0.0001836479,486.2099999996787,2.977846e-05,486.2099999996787,2.474168e-05
486.2249999996787,0.000338064,486.2249999996787,0.0002275326,486.2249999996787,3.115356e-05,486.2249999996787,2.473884e-05
486.2399999996787,0.0003365753,486.2399999996787,0.0003402863,486.2399999996787,2.918309e-05,486.2399999996787,2.520032e-05
486.25499999967866,0.0003400331,486.25499999967866,0.0003825949,486.25499999967866,3.790198e-05,486.25499999967866,2.607612e-05
486.26999999967865,0.000340972,486.26999999967865,0.0004539806,486.26999999967865,3.977212e-05,486.26999999967865,2.697573e-05
486.28499999967863,0.0003384045,486.28499999967863,0.0004730513,486.28499999967863,4.066215e-05,486.28499999967863,2.770275e-05
486.2999999996786,0.0003314728,486.2999999996786,0.0004892394,486.2999999996786,4.326833e-05,486.2999999996786,3.180511e-05
486.3149999996786,0.000316442,486.3149999996786,0.0005308263,486.3149999996786,4.442713e-05,486.3149999996786,3.143714e-05
486.3299999996786,0.0003021869,486.3299999996786,0.0005460958,486.3299999996786,4.719579e-05,486.3299999996786,3.068154e-05
486.3449999996786,0.0002808788,486.3449999996786,0.0006083331,486.3449999996786,5.00247e-05,486.3449999996786,3.239099e-05
486.35999999967856,0.0002776708,486.35999999967856,0.0006467042,486.35999999967856,5.147775e-05,486.35999999967856,3.267503e-05
486.37499999967855,0.000267382,486.37499999967855,0.0006576831,486.37499999967855,5.255263e-05,486.37499999967855,3.550557e-05
486.38999999967854,0.0002581383,486.38999999967854,0.0006582987,486.38999999967854,5.385816e-05,486.38999999967854,3.565759e-05
486.4049999996785,0.0002549939,486.4049999996785,0.0006587594,486.4049999996785,5.564601e-05,486.4049999996785,3.724098e-05
