X[s],a: EMG RMS 1-1,X[s].1,a: EMG RMS 1-2,X[s].2,a: EMG RMS 1-3,X[s].3,a: EMG RMS 1-4
132.00000000000082,0.0004632988,132.00000000000082,6.589018e-06,132.00000000000082,1.068977e-05,132.00000000000082,3.104077e-06
132.0150000000008,0.0004533239,132.0150000000008,6.667651e-06,132.0150000000008,1.079598e-05,132.0150000000008,3.197958e-06
132.0300000000008,0.0003723688,132.0300000000008,6.304968e-06,132.0300000000008,1.073448e-05,132.0300000000008,3.104077e-06
132.04500000000078,0.0003119892,132.04500000000078,6.459471e-06,132.04500000000078,1.102707e-05,132.04500000000078,2.887788e-06
132.06000000000077,0.000282257,132.06000000000077,6.589018e-06,132.06000000000077,1.091278e-05,132.06000000000077,2.921734e-06
132.07500000000076,0.0002441363,132.07500000000076,6.485587e-06,132.07500000000076,9.091791e-06,132.07500000000076,2.916909e-06
132.09000000000074,0.0002444941,132.09000000000074,6.455107e-06,132.09000000000074,8.750726e-06,132.09000000000074,2.926552e-06
132.10500000000073,0.0002426833,132.10500000000073,6.446372e-06,132.10500000000073,8.832443e-06,132.10500000000073,2.873116e-06
132.12000000000072,0.0002345677,132.12000000000072,6.327271e-06,132.12000000000072,8.350395e-06,132.12000000000072,2.916909e-06
132.1350000000007,0.0002347367,132.1350000000007,6.395915e-06,132.1350000000007,7.63668e-06,132.1350000000007,2.979029e-06
132.1500000000007,0.0002347459,132.1500000000007,6.102884e-06,132.1500000000007,7.697311e-06,132.1500000000007,3.081303e-06
132.16500000000067,0.0002420135,132.16500000000067,6.098266e-06,132.16500000000067,7.333686e-06,132.16500000000067,3.171418e-06
132.18000000000066,0.0002523789,132.18000000000066,6.174023e-06,132.18000000000066,6.79323e-06,132.18000000000066,3.211145e-06
132.19500000000065,0.0002537788,132.19500000000065,5.760922e-06,132.19500000000065,6.682424e-06,132.19500000000065,3.175857e-06
132.21000000000063,0.0002343999,132.21000000000063,5.785323e-06,132.21000000000063,6.684531e-06,132.21000000000063,3.189136e-06
132.22500000000062,0.0002287316,132.22500000000062,5.629835e-06,132.22500000000062,6.65708e-06,132.22500000000062,3.263362e-06
132.2400000000006,0.0002211208,132.2400000000006,5.561867e-06,132.2400000000006,6.732826e-06,132.2400000000006,3.327482e-06
132.2550000000006,0.0002085154,132.2550000000006,5.704405e-06,132.2550000000006,6.552573e-06,132.2550000000006,3.352786e-06
132.27000000000058,0.0002003539,132.27000000000058,5.841057e-06,132.27000000000058,6.69506e-06,132.27000000000058,3.301983e-06
132.28500000000057,0.0001935164,132.28500000000057,5.929618e-06,132.28500000000057,6.300498e-06,132.28500000000057,3.323245e-06
132.30000000000055,0.0001529399,132.30000000000055,5.948592e-06,132.30000000000055,6.19907e-06,132.30000000000055,3.276286e-06
132.31500000000054,0.0001421332,132.31500000000054,5.920107e-06,132.31500000000054,6.08439e-06,132.31500000000054,3.241707e-06
132.33000000000052,0.0001415546,132.33000000000052,5.967507e-06,132.33000000000052,5.984008e-06,132.33000000000052,3.189136e-06
132.3450000000005,0.0001376156,132.3450000000005,6.026232e-06,132.3450000000005,6.327271e-06,132.3450000000005,3.197958e-06
132.3600000000005,0.000144656,132.3600000000005,6.070483e-06,132.3600000000005,6.745368e-06,132.3600000000005,3.140172e-06
132.37500000000048,0.0001453426,132.37500000000048,5.981653e-06,132.37500000000048,6.805661e-06,132.37500000000048,3.094987e-06
132.39000000000047,0.0001451756,132.39000000000047,6.014533e-06,132.39000000000047,6.450741e-06,132.39000000000047,3.094987e-06
132.40500000000046,0.0001458056,132.40500000000046,6.016875e-06,132.40500000000046,6.768301e-06,132.40500000000046,3.025945e-06
132.42000000000044,0.0001351841,132.42000000000044,6.11211e-06,132.42000000000044,7.851327e-06,132.42000000000044,3.030597e-06
132.43500000000043,0.0001505943,132.43500000000043,5.960421e-06,132.43500000000043,1.204077e-05,132.43500000000043,2.95052e-06
132.45000000000041,0.0002569018,132.45000000000041,5.838645e-06,132.45000000000041,1.231835e-05,132.45000000000041,2.843547e-06
132.4650000000004,0.0003813989,132.4650000000004,5.775575e-06,132.4650000000004,1.240382e-05,132.4650000000004,2.788521e-06
132.4800000000004,0.0006143294,132.4800000000004,5.917727e-06,132.4800000000004,1.238905e-05,132.4800000000004,2.675077e-06
132.49500000000037,0.001044741,132.49500000000037,5.838645e-06,132.49500000000037,1.356259e-05,132.49500000000037,2.897527e-06
132.51000000000036,0.001195972,132.51000000000036,5.775575e-06,132.51000000000036,1.368254e-05,132.51000000000036,2.926552e-06
132.52500000000035,0.001201812,132.52500000000035,5.649817e-06,132.52500000000035,1.668475e-05,132.52500000000035,3.044509e-06
132.54000000000033,0.001219092,132.54000000000033,5.428567e-06,132.54000000000033,2.160696e-05,132.54000000000033,3.011947e-06
132.55500000000032,0.001241919,132.55500000000032,5.360675e-06,132.55500000000032,2.731614e-05,132.55500000000032,3.067557e-06
132.5700000000003,0.001252419,132.5700000000003,5.214144e-06,132.5700000000003,3.637452e-05,132.5700000000003,3.062961e-06
132.5850000000003,0.001253702,132.5850000000003,5.22494e-06,132.5850000000003,3.733127e-05,132.5850000000003,3.108612e-06
132.60000000000028,0.001254064,132.60000000000028,5.243778e-06,132.60000000000028,3.790644e-05,132.60000000000028,3.044509e-06
132.61500000000026,0.001253002,132.61500000000026,5.113207e-06,132.61500000000026,3.79536e-05,132.61500000000026,3.099535e-06
132.63000000000025,0.001252392,132.63000000000025,5.173461e-06,132.63000000000025,3.801776e-05,132.63000000000025,3.189136e-06
132.64500000000024,0.001250647,132.64500000000024,5.254512e-06,132.64500000000024,3.814944e-05,132.64500000000024,3.259043e-06
132.66000000000022,0.001250597,132.66000000000022,5.371176e-06,132.66000000000022,3.81295e-05,132.66000000000022,3.24605e-06
132.6750000000002,0.001248689,132.6750000000002,5.399948e-06,132.6750000000002,3.715615e-05,132.6750000000002,3.263362e-06
132.6900000000002,0.001245967,132.6900000000002,5.642331e-06,132.6900000000002,3.696344e-05,132.6900000000002,3.4111e-06
132.70500000000018,0.001212699,132.70500000000018,5.724127e-06,132.70500000000018,3.689439e-05,132.70500000000018,3.406967e-06
132.72000000000017,0.001141348,132.72000000000017,5.733962e-06,132.72000000000017,3.68688e-05,132.72000000000017,3.536803e-06
132.73500000000016,0.0009892973,132.73500000000016,5.61731e-06,132.73500000000016,3.684243e-05,132.73500000000016,3.464369e-06
132.75000000000014,0.0005496918,132.75000000000014,5.662269e-06,132.75000000000014,3.647585e-05,132.75000000000014,3.271984e-06
132.76500000000013,0.0003009385,132.76500000000013,5.579567e-06,132.76500000000013,3.622939e-05,132.76500000000013,3.166973e-06
132.78000000000011,0.0002865548,132.78000000000011,5.602244e-06,132.78000000000011,3.373895e-05,132.78000000000011,3.184716e-06
132.7950000000001,0.0002218242,132.7950000000001,5.48022e-06,132.7950000000001,3.142145e-05,132.7950000000001,3.162522e-06
132.8100000000001,0.000134208,132.8100000000001,5.652309e-06,132.8100000000001,2.017336e-05,132.8100000000001,3.158065e-06
132.82500000000007,8.853105e-05,132.82500000000007,5.667242e-06,132.82500000000007,1.290257e-05,132.82500000000007,3.144655e-06
132.84000000000006,8.618662e-05,132.84000000000006,5.612292e-06,132.84000000000006,1.049024e-05,132.84000000000006,3.153601e-06
132.85500000000005,8.85285e-05,132.85500000000005,5.672212e-06,132.85500000000005,8.326743e-06,132.85500000000005,3.206755e-06
132.87000000000003,8.641335e-05,132.87000000000003,5.821732e-06,132.87000000000003,8.231461e-06,132.87000000000003,3.162522e-06
132.88500000000002,8.450155e-05,132.88500000000002,5.768253e-06,132.88500000000002,7.95825e-06,132.88500000000002,3.007266e-06
132.9,8.08408e-05,132.9,5.528843e-06,132.9,7.168558e-06,132.9,2.974296e-06
132.915,8.298206e-05,132.915,5.785323e-06,132.915,6.745368e-06,132.915,2.868209e-06
132.92999999999998,8.334792e-05,132.92999999999998,5.967507e-06,132.92999999999998,6.248863e-06,132.92999999999998,3.058359e-06
132.94499999999996,7.627894e-05,132.94499999999996,5.848288e-06,132.94499999999996,6.237581e-06,132.94499999999996,3.039879e-06
132.95999999999995,7.389199e-05,132.95999999999995,5.941484e-06,132.95999999999995,6.026232e-06,132.95999999999995,3.01662e-06
132.97499999999994,7.206853e-05,132.97499999999994,5.972226e-06,132.97499999999994,5.998116e-06,132.97499999999994,2.868209e-06
132.98999999999992,7.193412e-05,132.98999999999992,5.953326e-06,132.98999999999992,5.773135e-06,132.98999999999992,2.838588e-06
133.0049999999999,7.293412e-05,133.0049999999999,5.986361e-06,133.0049999999999,5.584614e-06,133.0049999999999,2.858369e-06
133.0199999999999,7.264266e-05,133.0199999999999,6.210422e-06,133.0199999999999,5.469929e-06,133.0199999999999,2.878015e-06
133.03499999999988,7.201691e-05,133.03499999999988,6.318359e-06,133.03499999999988,4.68176e-06,133.03499999999988,2.887788e-06
133.04999999999987,7.623239e-05,133.04999999999987,6.351713e-06,133.04999999999987,4.615091e-06,133.04999999999987,2.907234e-06
133.06499999999986,7.662699e-05,133.06499999999986,6.384893e-06,133.06499999999986,4.456705e-06,133.06499999999986,2.916909e-06
133.07999999999984,7.41244e-05,133.07999999999984,6.452925e-06,133.07999999999984,4.354386e-06,133.07999999999984,2.955291e-06
133.09499999999983,6.828226e-05,133.09499999999983,6.369431e-06,133.09499999999983,4.657627e-06,133.09499999999983,2.945742e-06
133.10999999999981,6.307782e-05,133.10999999999981,6.331722e-06,133.10999999999981,4.777073e-06,133.10999999999981,2.940956e-06
133.1249999999998,6.354041e-05,133.1249999999998,6.189974e-06,133.1249999999998,4.882076e-06,133.1249999999998,3.011947e-06
133.1399999999998,6.341881e-05,133.1399999999998,6.061194e-06,133.1399999999998,5.001795e-06,133.1399999999998,2.974296e-06
133.15499999999977,6.464114e-05,133.15499999999977,5.960421e-06,133.15499999999977,5.132455e-06,133.15499999999977,2.969556e-06
133.16999999999976,6.60322e-05,133.16999999999976,5.860319e-06,133.16999999999976,5.315815e-06,133.16999999999976,3.002579e-06
133.18499999999975,6.455304e-05,133.18499999999975,5.934367e-06,133.18499999999975,5.342249e-06,133.18499999999975,2.711688e-06
133.19999999999973,6.662579e-05,133.19999999999973,5.934367e-06,133.19999999999973,5.797484e-06,133.19999999999973,2.823661e-06
133.21499999999972,6.799863e-05,133.21499999999972,5.814468e-06,133.21499999999972,5.785323e-06,133.21499999999972,2.838588e-06
133.2299999999997,6.882515e-05,133.2299999999997,5.988714e-06,133.2299999999997,6.185421e-06,133.2299999999997,2.838588e-06
133.2449999999997,6.704668e-05,133.2449999999997,6.19907e-06,133.2449999999997,6.107498e-06,133.2449999999997,2.843547e-06
133.25999999999968,6.626135e-05,133.25999999999968,6.224016e-06,133.25999999999968,6.114414e-06,133.25999999999968,2.858369e-06
133.27499999999966,6.577549e-05,133.27499999999966,5.924864e-06,133.27499999999966,6.109804e-06,133.27499999999966,2.858369e-06
133.28999999999965,6.527156e-05,133.28999999999965,6.026232e-06,133.28999999999965,6.01219e-06,133.28999999999965,2.793568e-06
133.30499999999964,5.770939e-05,133.30499999999964,6.051891e-06,133.30499999999964,6.128222e-06,133.30499999999964,2.722057e-06
133.31999999999962,5.813572e-05,133.31999999999962,5.931993e-06,133.31999999999962,6.128222e-06,133.31999999999962,2.788521e-06
133.3349999999996,5.803119e-05,133.3349999999996,5.943854e-06,133.3349999999996,5.979298e-06,133.3349999999996,2.798606e-06
133.3499999999996,5.771525e-05,133.3499999999996,5.946224e-06,133.3499999999996,5.877121e-06,133.3499999999996,2.783465e-06
133.36499999999958,5.749198e-05,133.36499999999958,5.802342e-06,133.36499999999958,5.824151e-06,133.36499999999958,2.818668e-06
133.37999999999957,5.603903e-05,133.37999999999957,5.853103e-06,133.37999999999957,5.797484e-06,133.37999999999957,2.788521e-06
133.39499999999956,5.619842e-05,133.39499999999956,6.068162e-06,133.39499999999956,5.602244e-06,133.39499999999956,2.773325e-06
133.40999999999954,5.245604e-05,133.40999999999954,6.185421e-06,133.40999999999954,5.787757e-06,133.40999999999954,2.833621e-06
133.42499999999953,4.843781e-05,133.42499999999953,6.19225e-06,133.42499999999953,5.785323e-06,133.42499999999953,2.983753e-06
133.43999999999951,4.143599e-05,133.43999999999951,5.986361e-06,133.43999999999951,6.016875e-06,133.43999999999951,2.960054e-06
133.4549999999995,4.020471e-05,133.4549999999995,8.277538e-06,133.4549999999995,5.614802e-06,133.4549999999995,2.902385e-06
133.4699999999995,3.754424e-05,133.4699999999995,9.052973e-06,133.4699999999995,5.60727e-06,133.4699999999995,2.897527e-06
133.48499999999947,3.661192e-05,133.48499999999947,1.102451e-05,133.48499999999947,5.368553e-06,133.48499999999947,2.902385e-06
133.49999999999946,3.680035e-05,133.49999999999946,1.213516e-05,133.49999999999946,5.604757e-06,133.49999999999946,2.931361e-06
133.51499999999945,3.796622e-05,133.51499999999945,1.339433e-05,133.51499999999945,5.629835e-06,133.51499999999945,2.983753e-06
133.52999999999943,4.181973e-05,133.52999999999943,1.445551e-05,133.52999999999943,5.672212e-06,133.52999999999943,3.067557e-06
133.54499999999942,4.11881e-05,133.54499999999942,1.465488e-05,133.54499999999942,5.634837e-06,133.54499999999942,3.184716e-06
133.5599999999994,4.13676e-05,133.5599999999994,1.465296e-05,133.5599999999994,5.541568e-06,133.5599999999994,3.189136e-06
133.5749999999994,4.185138e-05,133.5749999999994,1.771267e-05,133.5749999999994,5.551726e-06,133.5749999999994,3.126685e-06
133.58999999999938,4.390822e-05,133.58999999999938,1.820062e-05,133.58999999999938,5.53139e-06,133.58999999999938,3.131187e-06
133.60499999999936,4.407281e-05,133.60499999999936,1.90581e-05,133.60499999999936,5.642331e-06,133.60499999999936,3.11314e-06
133.61999999999935,4.953657e-05,133.61999999999935,1.910829e-05,133.61999999999935,5.778013e-06,133.61999999999935,3.085871e-06
133.63499999999934,5.661996e-05,133.63499999999934,1.916938e-05,133.63499999999934,5.75603e-06,133.63499999999934,3.076727e-06
133.64999999999932,5.661548e-05,133.64999999999932,1.96699e-05,133.64999999999932,6.176305e-06,133.64999999999932,3.072146e-06
133.6649999999993,5.620193e-05,133.6649999999993,2.03264e-05,133.6649999999993,5.869926e-06,133.6649999999993,2.931361e-06
133.6799999999993,5.633162e-05,133.6799999999993,2.058464e-05,133.6799999999993,5.674694e-06,133.6799999999993,2.803635e-06
133.69499999999928,5.650863e-05,133.69499999999928,2.061131e-05,133.69499999999928,5.753582e-06,133.69499999999928,2.955291e-06
133.70999999999927,5.634462e-05,133.70999999999927,1.9443e-05,133.70999999999927,5.939112e-06,133.70999999999927,2.882905e-06
133.72499999999926,5.677995e-05,133.72499999999926,1.904922e-05,133.72499999999926,5.896265e-06,133.72499999999926,2.882905e-06
133.73999999999924,7.072013e-05,133.73999999999924,1.826166e-05,133.73999999999924,6.180865e-06,133.73999999999924,2.838588e-06
133.75499999999923,8.465977e-05,133.75499999999923,1.693698e-05,133.75499999999923,5.955692e-06,133.75499999999923,2.763147e-06
133.76999999999921,8.84989e-05,133.76999999999921,1.64843e-05,133.76999999999921,5.962784e-06,133.76999999999921,2.813666e-06
133.7849999999992,9.580266e-05,133.7849999999992,1.563162e-05,133.7849999999992,5.709342e-06,133.7849999999992,2.675077e-06
133.7999999999992,9.978718e-05,133.7999999999992,1.585531e-05,133.7999999999992,5.814468e-06,133.7999999999992,2.621889e-06
133.81499999999917,0.0001006268,133.81499999999917,1.551766e-05,133.81499999999917,5.833818e-06,133.81499999999917,2.621889e-06
133.82999999999916,9.951762e-05,133.82999999999916,1.286212e-05,133.82999999999916,5.824151e-06,133.82999999999916,2.621889e-06
133.84499999999915,9.903347e-05,133.84499999999915,1.242198e-05,133.84499999999915,5.833818e-06,133.84499999999915,2.664524e-06
133.85999999999913,9.939056e-05,133.85999999999913,1.245708e-05,133.85999999999913,5.689569e-06,133.85999999999913,2.803635e-06
133.87499999999912,9.684581e-05,133.87499999999912,1.251912e-05,133.87499999999912,5.687093e-06,133.87499999999912,2.863294e-06
133.8899999999991,9.600844e-05,133.8899999999991,1.236401e-05,133.8899999999991,5.682137e-06,133.8899999999991,2.868209e-06
133.9049999999991,9.627745e-05,133.9049999999991,1.042559e-05,133.9049999999991,5.394728e-06,133.9049999999991,2.902385e-06
133.91999999999908,9.683345e-05,133.91999999999908,1.034011e-05,133.91999999999908,5.528843e-06,133.91999999999908,2.912075e-06
133.93499999999906,9.668539e-05,133.93499999999906,9.851764e-06,133.93499999999906,5.381656e-06,133.93499999999906,2.926552e-06
133.94999999999905,9.642833e-05,133.94999999999905,9.844612e-06,133.94999999999905,5.162558e-06,133.94999999999905,2.838588e-06
133.96499999999904,9.654104e-05,133.96499999999904,9.913058e-06,133.96499999999904,5.34752e-06,133.96499999999904,2.868209e-06
133.97999999999902,9.661062e-05,133.97999999999902,9.930095e-06,133.97999999999902,5.459618e-06,133.97999999999902,2.853437e-06
133.994999999999,7.744347e-05,133.994999999999,9.828859e-06,133.994999999999,5.389503e-06,133.994999999999,2.887788e-06
134.009999999999,7.146496e-05,134.009999999999,9.94002e-06,134.009999999999,5.654801e-06,134.009999999999,2.936162e-06
134.02499999999898,6.501813e-05,134.02499999999898,1.004434e-05,134.02499999999898,6.079758e-06,134.02499999999898,2.979029e-06
134.03999999999897,5.062874e-05,134.03999999999897,9.995137e-06,134.03999999999897,6.608231e-06,134.03999999999897,3.035241e-06
134.05499999999896,4.204582e-05,134.05499999999896,9.39506e-06,134.05499999999896,6.550423e-06,134.05499999999896,3.011947e-06
134.06999999999894,4.534726e-05,134.06999999999894,8.474309e-06,134.06999999999894,6.705572e-06,134.06999999999894,3.117661e-06
134.08499999999893,4.778695e-05,134.08499999999893,8.079462e-06,134.08499999999893,6.795303e-06,134.08499999999893,3.131187e-06
134.09999999999891,5.182575e-05,134.09999999999891,6.307202e-06,134.09999999999891,6.881819e-06,134.09999999999891,3.039879e-06
134.1149999999989,5.513995e-05,134.1149999999989,5.972226e-06,134.1149999999989,6.928738e-06,134.1149999999989,2.988471e-06
134.1299999999989,6.68061e-05,134.1299999999989,5.674694e-06,134.1299999999989,6.904299e-06,134.1299999999989,3.011947e-06
134.14499999999887,7.409931e-05,134.14499999999887,5.195198e-06,134.14499999999887,6.838698e-06,134.14499999999887,3.122176e-06
134.15999999999886,7.520676e-05,134.15999999999886,5.159829e-06,134.15999999999886,6.728641e-06,134.15999999999886,3.135683e-06
134.17499999999885,7.631069e-05,134.17499999999885,5.066156e-06,134.17499999999885,6.811867e-06,134.17499999999885,3.215529e-06
134.18999999999883,7.968261e-05,134.18999999999883,5.052234e-06,134.18999999999883,7.025649e-06,134.18999999999883,3.158065e-06
134.20499999999882,8.17729e-05,134.20499999999882,5.381656e-06,134.20499999999882,6.908378e-06,134.20499999999882,3.250386e-06
134.2199999999988,8.292194e-05,134.2199999999988,5.412975e-06,134.2199999999988,6.875675e-06,134.2199999999988,3.263362e-06
134.2349999999988,8.258678e-05,134.2349999999988,5.659781e-06,134.2349999999988,6.759971e-06,134.2349999999988,3.254718e-06
134.24999999999878,8.302958e-05,134.24999999999878,5.706874e-06,134.24999999999878,6.640129e-06,134.24999999999878,3.233005e-06
134.26499999999876,8.312741e-05,134.26499999999876,5.493057e-06,134.26499999999876,6.437625e-06,134.26499999999876,3.267676e-06
134.27999999999875,8.335384e-05,134.27999999999875,5.363302e-06,134.27999999999875,5.649817e-06,134.27999999999875,3.386231e-06
134.29499999999874,8.368897e-05,134.29499999999874,5.410373e-06,134.29499999999874,5.528843e-06,134.29499999999874,3.435788e-06
134.30999999999872,8.286451e-05,134.30999999999872,5.399948e-06,134.30999999999872,5.360675e-06,134.30999999999872,3.431686e-06
134.3249999999987,8.206901e-05,134.3249999999987,5.436346e-06,134.3249999999987,5.329048e-06,134.3249999999987,3.352786e-06
134.3399999999987,8.049977e-05,134.3399999999987,5.770695e-06,134.3399999999987,5.246463e-06,134.3399999999987,3.57641e-06
134.35499999999868,7.601125e-05,134.35499999999868,5.782887e-06,134.35499999999868,5.195198e-06,134.35499999999868,3.584279e-06
134.36999999999867,7.4533e-05,134.36999999999867,5.910582e-06,134.36999999999867,5.104936e-06,134.36999999999867,3.540784e-06
134.38499999999866,6.545819e-05,134.38499999999866,6.03324e-06,134.38499999999866,5.102175e-06,134.38499999999866,3.464369e-06
134.39999999999864,6.677362e-05,134.39999999999864,6.180865e-06,134.39999999999864,5.227635e-06,134.39999999999864,3.431686e-06
134.41499999999863,7.110392e-05,134.41499999999863,6.25337e-06,134.41499999999863,5.038274e-06,134.41499999999863,3.377901e-06
134.4299999999986,7.14476e-05,134.4299999999986,6.255622e-06,134.4299999999986,4.800605e-06,134.4299999999986,3.29344e-06
134.4449999999986,7.34595e-05,134.4449999999986,6.155743e-06,134.4449999999986,4.663672e-06,134.4449999999986,3.319004e-06
134.4599999999986,8.386384e-05,134.4599999999986,5.802342e-06,134.4599999999986,4.66971e-06,134.4599999999986,3.280583e-06
134.47499999999857,9.384754e-05,134.47499999999857,5.821732e-06,134.47499999999857,4.596741e-06,134.47499999999857,3.254718e-06
134.48999999999856,9.526771e-05,134.48999999999856,5.546649e-06,134.48999999999856,6.487759e-06,134.48999999999856,3.28916e-06
134.50499999999855,0.000112722,134.50499999999855,5.60727e-06,134.50499999999855,7.364355e-06,134.50499999999855,3.228645e-06
134.51999999999853,0.000123841,134.51999999999853,5.662269e-06,134.51999999999853,8.397496e-06,134.51999999999853,3.108612e-06
134.53499999999852,0.0001239969,134.53499999999852,5.533936e-06,134.53499999999852,1.000077e-05,134.53499999999852,2.907234e-06
134.5499999999985,0.0001317398,134.5499999999985,5.536481e-06,134.5499999999985,1.073711e-05,134.5499999999985,3.007266e-06
134.5649999999985,0.0001339279,134.5649999999985,5.577042e-06,134.5649999999985,1.092181e-05,134.5649999999985,3.002579e-06
134.57999999999848,0.0001699472,134.57999999999848,5.48022e-06,134.57999999999848,1.202672e-05,134.57999999999848,3.053749e-06
134.59499999999846,0.0001788058,134.59499999999846,5.291911e-06,134.59499999999846,1.213516e-05,134.59499999999846,2.945742e-06
134.60999999999845,0.0001957396,134.60999999999845,5.302549e-06,134.60999999999845,1.242425e-05,134.60999999999845,2.983753e-06
134.62499999999844,0.0002043504,134.62499999999844,4.984868e-06,134.62499999999844,1.289602e-05,134.62499999999844,3.117661e-06
134.63999999999842,0.0002220524,134.63999999999842,5.077266e-06,134.63999999999842,1.350222e-05,134.63999999999842,3.180289e-06
134.6549999999984,0.0002375887,134.6549999999984,4.902232e-06,134.6549999999984,1.396885e-05,134.6549999999984,3.29344e-06
134.6699999999984,0.0003264771,134.6699999999984,4.858938e-06,134.6699999999984,1.472871e-05,134.6699999999984,3.271984e-06
134.68499999999838,0.0003586503,134.68499999999838,5.027078e-06,134.68499999999838,1.542661e-05,134.68499999999838,3.237359e-06
134.69999999999837,0.0003772406,134.69999999999837,5.085583e-06,134.69999999999837,1.546583e-05,134.69999999999837,3.267676e-06
134.71499999999835,0.0004088199,134.71499999999835,5.074491e-06,134.71499999999835,1.550949e-05,134.71499999999835,3.233005e-06
134.72999999999834,0.0004129285,134.72999999999834,5.018664e-06,134.72999999999834,1.552492e-05,134.72999999999834,3.211145e-06
134.74499999999833,0.00041699,134.74499999999833,4.982041e-06,134.74499999999833,1.449347e-05,134.74499999999833,3.237359e-06
134.7599999999983,0.0004552584,134.7599999999983,4.939447e-06,134.7599999999983,1.450804e-05,134.7599999999983,3.219907e-06
134.7749999999983,0.0004910309,134.7749999999983,4.942298e-06,134.7749999999983,1.372366e-05,134.7749999999983,3.215529e-06
134.7899999999983,0.000497832,134.7899999999983,5.010237e-06,134.7899999999983,1.286212e-05,134.7899999999983,3.158065e-06
134.80499999999827,0.0005253543,134.80499999999827,5.055022e-06,134.80499999999827,1.33659e-05,134.80499999999827,3.189136e-06
134.81999999999826,0.0005466771,134.81999999999826,5.032679e-06,134.81999999999826,1.420782e-05,134.81999999999826,3.135683e-06
134.83499999999825,0.0008011917,134.83499999999825,4.893604e-06,134.83499999999825,1.37175e-05,134.83499999999825,3.035241e-06
134.84999999999823,0.0009928722,134.84999999999823,4.841512e-06,134.84999999999823,1.385341e-05,134.84999999999823,2.983753e-06
134.86499999999822,0.001073396,134.86499999999822,4.982041e-06,134.86499999999822,1.401918e-05,134.86499999999822,3.072146e-06
134.8799999999982,0.001077133,134.8799999999982,5.046655e-06,134.8799999999982,1.330252e-05,134.8799999999982,3.090432e-06
134.8949999999982,0.001081159,134.8949999999982,4.856038e-06,134.8949999999982,1.356675e-05,134.8949999999982,2.979029e-06
134.90999999999818,0.001068455,134.90999999999818,4.984868e-06,134.90999999999818,1.32122e-05,134.90999999999818,2.955291e-06
134.92499999999816,0.001062244,134.92499999999816,5.313164e-06,134.92499999999816,1.410034e-05,134.92499999999816,3.044509e-06
134.93999999999815,0.00105177,134.93999999999815,5.046655e-06,134.93999999999815,1.387982e-05,134.93999999999815,3.104077e-06
134.95499999999814,0.001038875,134.95499999999814,5.206033e-06,134.95499999999814,1.48819e-05,134.95499999999814,3.158065e-06
134.96999999999812,0.001032966,134.96999999999812,5.523745e-06,134.96999999999812,1.548131e-05,134.96999999999812,3.259043e-06
134.9849999999981,0.001032447,134.9849999999981,5.582091e-06,134.9849999999981,1.575728e-05,134.9849999999981,3.263362e-06
134.9999999999981,0.001029135,134.9999999999981,5.536481e-06,134.9999999999981,1.601532e-05,134.9999999999981,3.250386e-06
135.01499999999808,0.001009983,135.01499999999808,5.559333e-06,135.01499999999808,1.780864e-05,135.01499999999808,3.323245e-06
135.02999999999807,0.0009936015,135.02999999999807,5.751133e-06,135.02999999999807,1.806467e-05,135.02999999999807,3.319004e-06
135.04499999999805,0.0009897342,135.04499999999805,5.729046e-06,135.04499999999805,1.840993e-05,135.04499999999805,3.327482e-06
135.05999999999804,0.0009778392,135.05999999999804,5.701935e-06,135.05999999999804,1.798103e-05,135.05999999999804,3.352786e-06
135.07499999999803,0.0008378667,135.07499999999803,5.760922e-06,135.07499999999803,1.745551e-05,135.07499999999803,3.386231e-06
135.089999999998,0.0006897132,135.089999999998,5.869926e-06,135.089999999998,1.715843e-05,135.089999999998,3.4111e-06
135.104999999998,0.0003791528,135.104999999998,5.967507e-06,135.104999999998,1.716253e-05,135.104999999998,3.352786e-06
135.119999999998,0.0002094882,135.119999999998,5.948592e-06,135.119999999998,1.79324e-05,135.119999999998,3.237359e-06
135.13499999999797,0.0002017985,135.13499999999797,5.93674e-06,135.13499999999797,1.839309e-05,135.13499999999797,3.36955e-06
135.14999999999796,0.0001715102,135.14999999999796,5.967507e-06,135.14999999999796,1.803345e-05,135.14999999999796,3.344373e-06
135.16499999999795,0.0001381905,135.16499999999795,5.898653e-06,135.16499999999795,1.739569e-05,135.16499999999795,3.29344e-06
135.17999999999793,0.0001272433,135.17999999999793,5.780451e-06,135.17999999999793,1.660266e-05,135.17999999999793,3.259043e-06
135.19499999999792,0.0001284329,135.19499999999792,5.836232e-06,135.19499999999792,1.607677e-05,135.19499999999792,3.233005e-06
135.2099999999979,0.0001285018,135.2099999999979,5.662269e-06,135.2099999999979,1.544395e-05,135.2099999999979,3.271984e-06
135.2249999999979,0.0001262859,135.2249999999979,5.326404e-06,135.2249999999979,1.471244e-05,135.2249999999979,3.254718e-06
135.23999999999788,0.0001251466,135.23999999999788,5.487926e-06,135.23999999999788,1.456038e-05,135.23999999999788,3.306247e-06
135.25499999999786,0.0001192616,135.25499999999786,5.619817e-06,135.25499999999786,1.409834e-05,135.25499999999786,3.28916e-06
135.26999999999785,0.0001172642,135.26999999999785,5.462197e-06,135.26999999999785,1.119442e-05,135.26999999999785,3.271984e-06
135.28499999999784,0.0001036005,135.28499999999784,5.407768e-06,135.28499999999784,1.114271e-05,135.28499999999784,3.284874e-06
135.29999999999782,9.927314e-05,135.29999999999782,5.462197e-06,135.29999999999782,1.035509e-05,135.29999999999782,3.24605e-06
135.3149999999978,9.591215e-05,135.3149999999978,5.423375e-06,135.3149999999978,9.857482e-06,135.3149999999978,3.241707e-06
135.3299999999978,9.851292e-05,135.3299999999978,5.554263e-06,135.3299999999978,9.454845e-06,135.3299999999978,3.19355e-06
135.34499999999778,8.451255e-05,135.34499999999778,5.493057e-06,135.34499999999778,9.605612e-06,135.34499999999778,3.140172e-06
135.35999999999777,0.0001028686,135.35999999999777,5.420777e-06,135.35999999999777,8.716856e-06,135.35999999999777,3.162522e-06
135.37499999999775,0.0001089383,135.37499999999775,5.472503e-06,135.37499999999775,7.262268e-06,135.37499999999775,2.95052e-06
135.38999999999774,0.0001299052,135.38999999999774,5.459618e-06,135.38999999999774,6.296025e-06,135.38999999999774,2.945742e-06
135.40499999999773,0.0001594026,135.40499999999773,5.446701e-06,135.40499999999773,5.802342e-06,135.40499999999773,3.011947e-06
135.4199999999977,0.000172464,135.4199999999977,5.371176e-06,135.4199999999977,5.828986e-06,135.4199999999977,3.140172e-06
135.4349999999977,0.0001741356,135.4349999999977,5.493057e-06,135.4349999999977,5.836232e-06,135.4349999999977,3.122176e-06
135.4499999999977,0.0001730955,135.4499999999977,5.574516e-06,135.4499999999977,5.891484e-06,135.4499999999977,3.171418e-06
135.46499999999767,0.0001744519,135.46499999999767,5.574516e-06,135.46499999999767,6.233063e-06,135.46499999999767,3.044509e-06
135.47999999999766,0.0001758727,135.47999999999766,5.549188e-06,135.47999999999766,6.178585e-06,135.47999999999766,3.007266e-06
135.49499999999765,0.00017593,135.49499999999765,5.365928e-06,135.49499999999765,6.520246e-06,135.49499999999765,2.960054e-06
135.50999999999763,0.0001759968,135.50999999999763,5.310512e-06,135.50999999999763,6.535352e-06,135.50999999999763,2.974296e-06
135.52499999999762,0.0001762399,135.52499999999762,5.386888e-06,135.52499999999762,6.569749e-06,135.52499999999762,3.099535e-06
135.5399999999976,0.0001768088,135.5399999999976,5.305204e-06,135.5399999999976,6.528882e-06,135.5399999999976,3.094987e-06
135.5549999999976,0.0001778712,135.5549999999976,5.457037e-06,135.5549999999976,6.520246e-06,135.5549999999976,3.144655e-06
135.56999999999758,0.0001768013,135.56999999999758,5.475077e-06,135.56999999999758,6.42229e-06,135.56999999999758,3.162522e-06
135.58499999999756,0.0001731945,135.58499999999756,5.289249e-06,135.58499999999756,6.226279e-06,135.58499999999756,3.135683e-06
135.59999999999755,0.0001696713,135.59999999999755,5.192486e-06,135.59999999999755,5.991066e-06,135.59999999999755,3.162522e-06
135.61499999999754,0.000146504,135.61499999999754,5.281253e-06,135.61499999999754,6.282586e-06,135.61499999999754,3.135683e-06
135.62999999999752,0.0001437001,135.62999999999752,5.446701e-06,135.62999999999752,6.153455e-06,135.62999999999752,3.081303e-06
135.6449999999975,0.0001254642,135.6449999999975,5.546649e-06,135.6449999999975,6.153455e-06,135.6449999999975,3.007266e-06
135.6599999999975,8.910344e-05,135.6599999999975,5.56946e-06,135.6599999999975,6.08439e-06,135.6599999999975,3.007266e-06
135.67499999999748,6.834907e-05,135.67499999999748,5.654801e-06,135.67499999999748,6.072803e-06,135.67499999999748,2.969556e-06
135.68999999999747,6.638942e-05,135.68999999999747,5.644828e-06,135.68999999999747,5.889093e-06,135.68999999999747,3.002579e-06
135.70499999999745,6.65818e-05,135.70499999999745,5.642331e-06,135.70499999999745,5.614802e-06,135.70499999999745,2.878015e-06
135.71999999999744,6.503287e-05,135.71999999999744,5.857914e-06,135.71999999999744,5.790191e-06,135.71999999999744,2.983753e-06
135.73499999999743,6.380501e-05,135.73499999999743,5.850696e-06,135.73499999999743,5.972226e-06,135.73499999999743,2.931361e-06
135.7499999999974,6.374913e-05,135.7499999999974,5.853103e-06,135.7499999999974,6.42229e-06,135.7499999999974,2.882905e-06
135.7649999999974,6.3771e-05,135.7649999999974,5.998116e-06,135.7649999999974,6.57832e-06,135.7649999999974,2.793568e-06
135.7799999999974,6.792276e-05,135.7799999999974,6.098266e-06,135.7799999999974,7.197973e-06,135.7799999999974,2.758045e-06
135.79499999999737,6.702063e-05,135.79499999999737,6.132817e-06,135.79499999999737,7.485775e-06,135.79499999999737,2.611121e-06
135.80999999999736,7.297601e-05,135.80999999999736,6.019215e-06,135.80999999999736,7.904969e-06,135.80999999999736,2.643292e-06
135.82499999999735,8.565329e-05,135.82499999999735,6.171741e-06,135.82499999999735,7.919212e-06,135.82499999999735,2.653929e-06
135.83999999999733,8.692468e-05,135.83999999999733,6.264623e-06,135.83999999999733,8.098617e-06,135.83999999999733,2.632612e-06
135.85499999999732,8.581972e-05,135.85499999999732,6.244353e-06,135.85499999999732,8.238303e-06,135.85499999999732,2.605721e-06
135.8699999999973,0.0001028997,135.8699999999973,6.224016e-06,135.8699999999973,8.745896e-06,135.8699999999973,2.921734e-06
135.8849999999973,0.0001277457,135.8849999999973,6.030905e-06,135.8849999999973,8.913411e-06,135.8849999999973,3.049133e-06
135.89999999999728,0.0001305151,135.89999999999728,6.302733e-06,135.89999999999728,8.929201e-06,135.89999999999728,3.166973e-06
135.91499999999726,0.0001398666,135.91499999999726,6.19225e-06,135.91499999999726,9.021799e-06,135.91499999999726,3.280583e-06
135.92999999999725,0.0001436979,135.92999999999725,6.158032e-06,135.92999999999725,9.010862e-06,135.92999999999725,3.267676e-06
135.94499999999724,0.0001440761,135.94499999999724,5.941484e-06,135.94499999999724,8.998348e-06,135.94499999999724,3.241707e-06
135.95999999999722,0.0001453007,135.95999999999722,6.028569e-06,135.95999999999722,8.990517e-06,135.95999999999722,3.306247e-06
135.9749999999972,0.0001579172,135.9749999999972,5.765811e-06,135.9749999999972,9.787209e-06,135.9749999999972,3.219907e-06
135.9899999999972,0.0001611762,135.9899999999972,5.770695e-06,135.9899999999972,9.540868e-06,135.9899999999972,3.215529e-06
136.00499999999718,0.0001889595,136.00499999999718,5.714275e-06,136.00499999999718,1.018362e-05,136.00499999999718,3.250386e-06
136.01999999999717,0.0001936472,136.01999999999717,5.634837e-06,136.01999999999717,1.071609e-05,136.01999999999717,3.280583e-06
136.03499999999715,0.0001945027,136.03499999999715,5.716739e-06,136.03499999999715,1.187467e-05,136.03499999999715,3.263362e-06
136.04999999999714,0.0002082513,136.04999999999714,5.763367e-06,136.04999999999714,1.195506e-05,136.04999999999714,3.259043e-06
136.06499999999713,0.000211864,136.06499999999713,5.719203e-06,136.06499999999713,1.181401e-05,136.06499999999713,3.215529e-06
136.0799999999971,0.0002084102,136.0799999999971,5.826569e-06,136.0799999999971,1.179611e-05,136.0799999999971,3.24605e-06
136.0949999999971,0.0002099957,136.0949999999971,5.831403e-06,136.0949999999971,1.180805e-05,136.0949999999971,3.29344e-06
136.1099999999971,0.0002148535,136.1099999999971,5.814468e-06,136.1099999999971,1.153162e-05,136.1099999999971,3.314757e-06
136.12499999999707,0.000202041,136.12499999999707,5.657291e-06,136.12499999999707,1.122709e-05,136.12499999999707,2.997883e-06
136.13999999999706,0.0001944741,136.13999999999706,5.379038e-06,136.13999999999706,1.121077e-05,136.13999999999706,2.945742e-06
136.15499999999705,0.0001931754,136.15499999999705,5.331691e-06,136.15499999999705,1.119191e-05,136.15499999999705,2.945742e-06
136.16999999999703,0.0001886905,136.16999999999703,5.433755e-06,136.16999999999703,1.145809e-05,136.16999999999703,2.783465e-06
136.18499999999702,0.0002119355,136.18499999999702,5.420777e-06,136.18499999999702,1.267234e-05,136.18499999999702,2.803635e-06
136.199999999997,0.0006239238,136.199999999997,5.379038e-06,136.199999999997,1.313628e-05,136.199999999997,2.964809e-06
136.214999999997,0.0008088495,136.214999999997,5.639834e-06,136.214999999997,1.307825e-05,136.214999999997,2.912075e-06
136.22999999999698,0.001067462,136.22999999999698,5.765811e-06,136.22999999999698,1.307178e-05,136.22999999999698,2.955291e-06
136.24499999999696,0.001121857,136.24499999999696,5.934367e-06,136.24499999999696,1.460578e-05,136.24499999999696,2.964809e-06
136.25999999999695,0.001121864,136.25999999999695,5.898653e-06,136.25999999999695,1.437342e-05,136.25999999999695,2.95052e-06
136.27499999999694,0.001131752,136.27499999999694,5.891484e-06,136.27499999999694,1.432139e-05,136.27499999999694,3.021286e-06
136.28999999999692,0.001142357,136.28999999999692,5.962784e-06,136.28999999999692,1.335852e-05,136.28999999999692,3.076727e-06
136.3049999999969,0.001145823,136.3049999999969,5.792623e-06,136.3049999999969,1.335852e-05,136.3049999999969,3.085871e-06
136.3199999999969,0.001145883,136.3199999999969,5.867525e-06,136.3199999999969,1.34489e-05,136.3199999999969,3.108612e-06
136.33499999999688,0.001146192,136.33499999999688,5.689569e-06,136.33499999999688,1.355844e-05,136.33499999999688,3.094987e-06
136.34999999999687,0.001145751,136.34999999999687,6.11902e-06,136.34999999999687,1.431647e-05,136.34999999999687,3.058359e-06
136.36499999999685,0.00114538,136.36499999999685,6.187698e-06,136.36499999999685,1.479836e-05,136.36499999999685,2.983753e-06
136.37999999999684,0.001145326,136.37999999999684,6.217223e-06,136.37999999999684,1.564693e-05,136.37999999999684,2.945742e-06
136.39499999999683,0.00114516,136.39499999999683,6.42229e-06,136.39499999999683,1.552492e-05,136.39499999999683,2.931361e-06
136.4099999999968,0.001145102,136.4099999999968,6.676097e-06,136.4099999999968,1.635734e-05,136.4099999999968,3.053749e-06
136.4249999999968,0.001145001,136.4249999999968,1.017255e-05,136.4249999999968,1.638487e-05,136.4249999999968,3.099535e-06
136.4399999999968,0.001129648,136.4399999999968,1.543209e-05,136.4399999999968,1.614409e-05,136.4399999999968,3.175857e-06
136.45499999999677,0.0008668185,136.45499999999677,1.959599e-05,136.45499999999677,1.640721e-05,136.45499999999677,3.104077e-06
136.46999999999676,0.0007030391,136.46999999999676,2.140127e-05,136.46999999999676,1.887614e-05,136.46999999999676,3.56062e-06
136.48499999999675,0.000350918,136.48499999999675,2.316441e-05,136.48499999999675,1.939875e-05,136.48499999999675,3.568524e-06
136.49999999999673,0.0002536864,136.49999999999673,3.340622e-05,136.49999999999673,1.900406e-05,136.49999999999673,3.658189e-06
136.51499999999672,0.0002461266,136.51499999999672,3.834574e-05,136.51499999999672,1.895954e-05,136.51499999999672,3.603876e-06
136.5299999999967,0.0002113239,136.5299999999967,3.886897e-05,136.5299999999967,1.964553e-05,136.5299999999967,3.838577e-06
136.5449999999967,0.000162358,136.5449999999967,3.992378e-05,136.5449999999967,2.107294e-05,136.5449999999967,3.82387e-06
136.55999999999668,0.0001780041,136.55999999999668,4.109291e-05,136.55999999999668,2.144598e-05,136.55999999999668,3.885991e-06
136.57499999999666,0.0001970072,136.57499999999666,4.145706e-05,136.57499999999666,2.318569e-05,136.57499999999666,3.939991e-06
136.58999999999665,0.0002056481,136.58999999999665,4.151954e-05,136.58999999999665,2.481275e-05,136.58999999999665,4.196231e-06
136.60499999999664,0.0002070458,136.60499999999664,4.149375e-05,136.60499999999664,2.472061e-05,136.60499999999664,4.279333e-06
136.61999999999662,0.0002849876,136.61999999999662,4.14822e-05,136.61999999999662,2.620008e-05,136.61999999999662,4.289197e-06
136.6349999999966,0.0003570169,136.6349999999966,4.148933e-05,136.6349999999966,2.914976e-05,136.6349999999966,4.299038e-06
136.6499999999966,0.0003603621,136.6499999999966,4.143429e-05,136.6499999999966,2.927033e-05,136.6499999999966,4.249604e-06
136.66499999999658,0.0003966567,136.66499999999658,4.128307e-05,136.66499999999658,2.906168e-05,136.66499999999658,4.169289e-06
136.67999999999657,0.0004566046,136.67999999999657,4.063824e-05,136.67999999999657,2.89777e-05,136.67999999999657,4.066665e-06
136.69499999999655,0.0007946847,136.69499999999655,3.795917e-05,136.69499999999655,2.972591e-05,136.69499999999655,4.010859e-06
136.70999999999654,0.0008918484,136.70999999999654,3.596442e-05,136.70999999999654,2.946746e-05,136.70999999999654,4.010859e-06
136.72499999999653,0.001049825,136.72499999999653,3.439026e-05,136.72499999999653,2.745656e-05,136.72499999999653,3.688867e-06
136.7399999999965,0.001074902,136.7399999999965,3.243098e-05,136.7399999999965,2.739544e-05,136.7399999999965,3.741947e-06
136.7549999999965,0.001077106,136.7549999999965,2.172076e-05,136.7549999999965,2.691456e-05,136.7549999999965,3.726858e-06
136.7699999999965,0.001084374,136.7699999999965,1.381574e-05,136.7699999999965,2.644358e-05,136.7699999999965,3.715501e-06
136.78499999999647,0.001089854,136.78499999999647,1.364543e-05,136.78499999999647,2.629186e-05,136.78499999999647,3.496747e-06
136.79999999999646,0.001092654,136.79999999999646,1.070557e-05,136.79999999999646,2.585478e-05,136.79999999999646,3.452149e-06
136.81499999999645,0.001086465,136.81499999999645,7.538281e-06,136.81499999999645,2.532188e-05,136.81499999999645,3.382069e-06
136.82999999999643,0.001081419,136.82999999999643,6.485587e-06,136.82999999999643,2.39719e-05,136.82999999999643,3.271984e-06
136.84499999999642,0.001080927,136.84499999999642,6.513761e-06,136.84499999999642,2.252747e-05,136.84499999999642,2.853437e-06
136.8599999999964,0.001079949,136.8599999999964,7.383459e-06,136.8599999999964,2.26055e-05,136.8599999999964,2.873116e-06
136.8749999999964,0.001052011,136.8749999999964,8.998348e-06,136.8749999999964,1.684441e-05,136.8749999999964,2.945742e-06
136.88999999999638,0.001036445,136.88999999999638,8.948112e-06,136.88999999999638,1.627445e-05,136.88999999999638,3.007266e-06
136.90499999999636,0.001035658,136.90499999999636,9.073179e-06,136.90499999999636,1.587485e-05,136.90499999999636,3.215529e-06
136.91999999999635,0.001021199,136.91999999999635,9.401056e-06,136.91999999999635,1.558921e-05,136.91999999999635,3.524834e-06
136.93499999999634,0.0009515007,136.93499999999634,9.561515e-06,136.93499999999634,1.46106e-05,136.93499999999634,3.536803e-06
136.94999999999632,0.0007102176,136.94999999999632,9.817387e-06,136.94999999999632,1.332051e-05,136.94999999999632,3.54476e-06
136.9649999999963,0.0005230229,136.9649999999963,9.92016e-06,136.9649999999963,1.337433e-05,136.9649999999963,3.536803e-06
136.9799999999963,0.0002576614,136.9799999999963,9.898837e-06,136.9799999999963,1.317162e-05,136.9799999999963,3.572469e-06
136.99499999999628,0.0002120323,136.99499999999628,9.880319e-06,136.99499999999628,1.332685e-05,136.99499999999628,3.723076e-06
137.00999999999627,0.0001983495,137.00999999999627,9.798716e-06,137.00999999999627,1.372264e-05,137.00999999999627,3.681221e-06
137.02499999999625,0.0001656521,137.02499999999625,9.191949e-06,137.02499999999625,1.382899e-05,137.02499999999625,3.715501e-06
137.03999999999624,0.0001308178,137.03999999999624,9.110365e-06,137.03999999999624,1.326434e-05,137.03999999999624,3.771943e-06
137.05499999999623,0.0001108391,137.05499999999623,9.173541e-06,137.05499999999623,1.148143e-05,137.05499999999623,3.775675e-06
137.0699999999962,0.0001089106,137.0699999999962,9.142777e-06,137.0699999999962,1.073711e-05,137.0699999999962,3.745709e-06
137.0849999999962,0.000109511,137.0849999999962,9.090241e-06,137.0849999999962,1.085324e-05,137.0849999999962,3.745709e-06
137.0999999999962,0.0001096174,137.0999999999962,8.838821e-06,137.0999999999962,1.031283e-05,137.0999999999962,3.78313e-06
137.11499999999617,0.0001121639,137.11499999999617,8.489256e-06,137.11499999999617,9.20267e-06,137.11499999999617,3.764466e-06
137.12999999999616,0.0001136311,137.12999999999616,7.497057e-06,137.12999999999616,1.003873e-05,137.12999999999616,3.73441e-06
137.14499999999614,0.0001131594,137.14499999999614,7.48201e-06,137.14499999999614,1.220923e-05,137.14499999999614,3.922073e-06
137.15999999999613,0.000114539,137.15999999999613,7.702799e-06,137.15999999999613,1.247403e-05,137.15999999999613,3.681221e-06
137.17499999999612,0.0001105688,137.17499999999612,7.842351e-06,137.17499999999612,1.26278e-05,137.17499999999612,3.631134e-06
137.1899999999961,0.0001095703,137.1899999999961,9.589467e-06,137.1899999999961,1.26144e-05,137.1899999999961,3.57641e-06
137.2049999999961,0.0001092586,137.2049999999961,1.134939e-05,137.2049999999961,1.382797e-05,137.2049999999961,3.627253e-06
137.21999999999608,0.0001138575,137.21999999999608,1.225414e-05,137.21999999999608,1.377694e-05,137.21999999999608,3.572469e-06
137.23499999999606,0.000114659,137.23499999999606,1.247516e-05,137.23499999999606,1.414024e-05,137.23499999999606,3.335938e-06
137.24999999999605,0.0001100738,137.24999999999605,1.452648e-05,137.24999999999605,1.500538e-05,137.24999999999605,3.184716e-06
137.26499999999604,0.0001255052,137.26499999999604,1.598626e-05,137.26499999999604,1.579746e-05,137.26499999999604,3.202359e-06
137.27999999999602,0.0001433948,137.27999999999602,1.735191e-05,137.27999999999602,1.572058e-05,137.27999999999602,3.072146e-06
137.294999999996,0.0001758389,137.294999999996,1.865922e-05,137.294999999996,1.569188e-05,137.294999999996,3.058359e-06
137.309999999996,0.0001834281,137.309999999996,1.884851e-05,137.309999999996,1.615718e-05,137.309999999996,3.206755e-06
137.32499999999598,0.0001960542,137.32499999999598,1.885224e-05,137.32499999999598,1.632976e-05,137.32499999999598,3.327482e-06
137.33999999999597,0.0001981229,137.33999999999597,1.894318e-05,137.33999999999597,1.625627e-05,137.33999999999597,3.323245e-06
137.35499999999595,0.0002018501,137.35499999999595,1.915027e-05,137.35499999999595,1.619462e-05,137.35499999999595,3.29344e-06
137.36999999999594,0.0002046044,137.36999999999594,1.877512e-05,137.36999999999594,1.615543e-05,137.36999999999594,3.267676e-06
137.38499999999593,0.0002421301,137.38499999999593,1.86728e-05,137.38499999999593,1.553852e-05,137.38499999999593,3.224279e-06
137.3999999999959,0.0002625317,137.3999999999959,1.868261e-05,137.3999999999959,1.41502e-05,137.3999999999959,3.035241e-06
137.4149999999959,0.0002670819,137.4149999999959,1.848248e-05,137.4149999999959,1.39517e-05,137.4149999999959,2.964809e-06
137.42999999999589,0.0002675233,137.42999999999589,1.807012e-05,137.42999999999589,1.375442e-05,137.42999999999589,2.902385e-06
137.44499999999587,0.0002748533,137.44499999999587,1.678492e-05,137.44499999999587,1.337854e-05,137.44499999999587,2.979029e-06
137.45999999999586,0.0002815831,137.45999999999586,1.648003e-05,137.45999999999586,1.244237e-05,137.45999999999586,2.997883e-06
137.47499999999584,0.0002931776,137.47499999999584,1.565863e-05,137.47499999999584,1.227482e-05,137.47499999999584,3.025945e-06
137.48999999999583,0.0002919093,137.48999999999583,1.508404e-05,137.48999999999583,1.04053e-05,137.48999999999583,3.035241e-06
137.50499999999582,0.0003000456,137.50499999999582,1.252025e-05,137.50499999999582,9.351477e-06,137.50499999999582,3.025945e-06
137.5199999999958,0.0002997844,137.5199999999958,1.124339e-05,137.5199999999958,7.897837e-06,137.5199999999958,3.021286e-06
137.5349999999958,0.0002884002,137.5349999999958,8.365563e-06,137.5349999999958,7.590424e-06,137.5349999999958,3.067557e-06
137.54999999999578,0.0002758194,137.54999999999578,6.997522e-06,137.54999999999578,7.025649e-06,137.54999999999578,3.039879e-06
137.56499999999576,0.0002882648,137.56499999999576,6.690851e-06,137.56499999999576,6.194524e-06,137.56499999999576,2.897527e-06
137.57999999999575,0.000339381,137.57999999999575,6.627389e-06,137.57999999999575,5.721665e-06,137.57999999999575,2.993181e-06
137.59499999999574,0.0003405099,137.59499999999574,6.635885e-06,137.59499999999574,5.571988e-06,137.59499999999574,3.076727e-06
137.60999999999572,0.0003438321,137.60999999999572,6.180865e-06,137.60999999999572,5.521194e-06,137.60999999999572,3.035241e-06
137.6249999999957,0.0003610142,137.6249999999957,6.196798e-06,137.6249999999957,5.498184e-06,137.6249999999957,2.974296e-06
137.6399999999957,0.0003635112,137.6399999999957,6.05887e-06,137.6399999999957,5.571988e-06,137.6399999999957,2.974296e-06
137.65499999999568,0.0003519011,137.65499999999568,6.196798e-06,137.65499999999568,5.574516e-06,137.65499999999568,2.945742e-06
137.66999999999567,0.0003535522,137.66999999999567,6.187698e-06,137.66999999999567,5.865124e-06,137.66999999999567,2.887788e-06
137.68499999999565,0.000355172,137.68499999999565,6.322817e-06,137.68499999999565,6.009847e-06,137.68499999999565,2.887788e-06
137.69999999999564,0.0003461023,137.69999999999564,6.329497e-06,137.69999999999564,5.836232e-06,137.69999999999564,2.823661e-06
137.71499999999563,0.0003393976,137.71499999999563,6.369431e-06,137.71499999999563,5.95096e-06,137.71499999999563,2.955291e-06
137.7299999999956,0.0003329454,137.7299999999956,6.505105e-06,137.7299999999956,5.898653e-06,137.7299999999956,2.912075e-06
137.7449999999956,0.0003374383,137.7449999999956,6.4921e-06,137.7449999999956,5.865124e-06,137.7449999999956,2.926552e-06
137.75999999999559,0.0004389995,137.75999999999559,6.33617e-06,137.75999999999559,6.01219e-06,137.75999999999559,2.931361e-06
137.77499999999557,0.0004764959,137.77499999999557,6.239839e-06,137.77499999999557,5.943854e-06,137.77499999999557,2.993181e-06
137.78999999999556,0.0007348132,137.78999999999556,6.244353e-06,137.78999999999556,6.244353e-06,137.78999999999556,2.940956e-06
137.80499999999554,0.001165543,137.80499999999554,6.19225e-06,137.80499999999554,6.333946e-06,137.80499999999554,2.955291e-06
137.81999999999553,0.001270771,137.81999999999553,6.224016e-06,137.81999999999553,7.83696e-06,137.81999999999553,2.892662e-06
137.83499999999552,0.001269041,137.83499999999552,6.347276e-06,137.83499999999552,8.044515e-06,137.83499999999552,2.828646e-06
137.8499999999955,0.001289978,137.8499999999955,6.248863e-06,137.8499999999955,9.144318e-06,137.8499999999955,2.969556e-06
137.8649999999955,0.001309812,137.8649999999955,6.11211e-06,137.8649999999955,9.468245e-06,137.8649999999955,2.931361e-06
137.87999999999548,0.001311567,137.87999999999548,6.028569e-06,137.87999999999548,9.690296e-06,137.87999999999548,3.007266e-06
137.89499999999546,0.001309098,137.89499999999546,6.107498e-06,137.89499999999546,1.092439e-05,137.89499999999546,3.072146e-06
137.90999999999545,0.001309144,137.90999999999545,6.162605e-06,137.90999999999545,1.095144e-05,137.90999999999545,3.090432e-06
137.92499999999544,0.00130869,137.92499999999544,5.901041e-06,137.92499999999544,1.086103e-05,137.92499999999544,3.241707e-06
137.93999999999542,0.001308853,137.93999999999542,6.086705e-06,137.93999999999542,1.082075e-05,137.93999999999542,3.224279e-06
137.9549999999954,0.001308998,137.9549999999954,6.230803e-06,137.9549999999954,1.085454e-05,137.9549999999954,3.171418e-06
137.9699999999954,0.001309305,137.9699999999954,7.436688e-06,137.9699999999954,1.085324e-05,137.9699999999954,3.025945e-06
137.98499999999538,0.001309652,137.98499999999538,7.542018e-06,137.98499999999538,1.08025e-05,137.98499999999538,3.002579e-06
137.99999999999537,0.001295757,137.99999999999537,7.590424e-06,137.99999999999537,1.078031e-05,137.99999999999537,3.002579e-06
138.01499999999535,0.001253543,138.01499999999535,7.908532e-06,138.01499999999535,1.07266e-05,138.01499999999535,3.126685e-06
138.02999999999534,0.001160128,138.02999999999534,7.820766e-06,138.02999999999534,1.082205e-05,138.02999999999534,3.094987e-06
138.04499999999533,0.0009935144,138.04499999999533,7.775606e-06,138.04499999999533,1.083636e-05,138.04499999999533,3.076727e-06
138.0599999999953,0.0005246591,138.0599999999953,7.896054e-06,138.0599999999953,1.085065e-05,138.0599999999953,3.039879e-06
138.0749999999953,0.0003173763,138.0749999999953,7.90675e-06,138.0749999999953,9.777128e-06,138.0749999999953,3.030597e-06
138.08999999999529,0.0003043101,138.08999999999529,7.860292e-06,138.08999999999529,8.547137e-06,138.08999999999529,2.988471e-06
138.10499999999527,0.0002424076,138.10499999999527,7.922768e-06,138.10499999999527,8.461e-06,138.10499999999527,2.887788e-06
138.11999999999526,0.000150522,138.11999999999526,8.960697e-06,138.11999999999526,7.910313e-06,138.11999999999526,2.945742e-06
138.13499999999524,9.916197e-05,138.13499999999524,9.778569e-06,138.13499999999524,7.645896e-06,138.13499999999524,2.902385e-06
138.14999999999523,8.832778e-05,138.14999999999523,1.00275e-05,138.14999999999523,5.539025e-06,138.14999999999523,3.062961e-06
138.16499999999522,8.588519e-05,138.16499999999522,1.004434e-05,138.16499999999522,5.48022e-06,138.16499999999522,3.030597e-06
138.1799999999952,8.047317e-05,138.1799999999952,1.011562e-05,138.1799999999952,5.184341e-06,138.1799999999952,2.945742e-06
138.1949999999952,6.950114e-05,138.1949999999952,9.874615e-06,138.1949999999952,5.093886e-06,138.1949999999952,3.108612e-06
138.20999999999518,6.78628e-05,138.20999999999518,9.468245e-06,138.20999999999518,5.148897e-06,138.20999999999518,3.085871e-06
138.22499999999516,6.171491e-05,138.22499999999516,8.848378e-06,138.22499999999516,5.102175e-06,138.22499999999516,3.062961e-06
138.23999999999515,5.552665e-05,138.23999999999515,8.694202e-06,138.23999999999515,5.211442e-06,138.23999999999515,3.126685e-06
138.25499999999514,5.187275e-05,138.25499999999514,8.720087e-06,138.25499999999514,5.368553e-06,138.25499999999514,3.058359e-06
138.26999999999512,4.959285e-05,138.26999999999512,8.827657e-06,138.26999999999512,5.624828e-06,138.26999999999512,2.964809e-06
138.2849999999951,4.964735e-05,138.2849999999951,8.814882e-06,138.2849999999951,5.235713e-06,138.2849999999951,2.945742e-06
138.2999999999951,4.877111e-05,138.2999999999951,8.808488e-06,138.2999999999951,5.339611e-06,138.2999999999951,2.988471e-06
138.31499999999508,4.825133e-05,138.31499999999508,8.664989e-06,138.31499999999508,5.659781e-06,138.31499999999508,3.01662e-06
138.32999999999507,4.905421e-05,138.32999999999507,8.739451e-06,138.32999999999507,5.984008e-06,138.32999999999507,3.058359e-06
138.34499999999505,4.933483e-05,138.34499999999505,8.89601e-06,138.34499999999505,6.132817e-06,138.34499999999505,3.044509e-06
138.35999999999504,5.031587e-05,138.35999999999504,8.370614e-06,138.35999999999504,6.302733e-06,138.35999999999504,3.002579e-06
138.37499999999503,5.162804e-05,138.37499999999503,7.525189e-06,138.37499999999503,8.415928e-06,138.37499999999503,2.940956e-06
138.389999999995,5.281253e-05,138.389999999995,6.48993e-06,138.389999999995,1.01684e-05,138.389999999995,2.955291e-06
138.404999999995,5.251804e-05,138.404999999995,6.635885e-06,138.404999999995,1.124089e-05,138.404999999995,2.848496e-06
138.41999999999499,5.307726e-05,138.41999999999499,6.640129e-06,138.41999999999499,1.338486e-05,138.41999999999499,2.878015e-06
138.43499999999497,5.669926e-05,138.43499999999497,6.99148e-06,138.43499999999497,1.536806e-05,138.43499999999497,2.887788e-06
138.44999999999496,6.528861e-05,138.44999999999496,7.201887e-06,138.44999999999496,1.606099e-05,138.44999999999496,2.793568e-06
138.46499999999494,6.748374e-05,138.46499999999494,7.322153e-06,138.46499999999494,1.63099e-05,138.46499999999494,2.897527e-06
138.47999999999493,7.024185e-05,138.47999999999493,7.383459e-06,138.47999999999493,1.634355e-05,138.47999999999493,2.858369e-06
138.49499999999492,7.588029e-05,138.49499999999492,7.404416e-06,138.49499999999492,1.648088e-05,138.49499999999492,2.848496e-06
138.5099999999949,7.838398e-05,138.5099999999949,7.653262e-06,138.5099999999949,1.646549e-05,138.5099999999949,2.974296e-06
138.5249999999949,8.110454e-05,138.5249999999949,7.412022e-06,138.5249999999949,1.654912e-05,138.5249999999949,3.01662e-06
138.53999999999488,8.32671e-05,138.53999999999488,7.485775e-06,138.53999999999488,1.655082e-05,138.53999999999488,3.076727e-06
138.55499999999486,8.606641e-05,138.55499999999486,8.392462e-06,138.55499999999486,1.674712e-05,138.55499999999486,3.090432e-06
138.56999999999485,9.23662e-05,138.56999999999485,8.752336e-06,138.56999999999485,1.703567e-05,138.56999999999485,3.049133e-06
138.58499999999484,9.252346e-05,138.58499999999484,8.92131e-06,138.58499999999484,1.70885e-05,138.58499999999484,2.997883e-06
138.59999999999482,9.265719e-05,138.59999999999482,9.009299e-06,138.59999999999482,1.732347e-05,138.59999999999482,3.01662e-06
138.6149999999948,9.466489e-05,138.6149999999948,9.188883e-06,138.6149999999948,1.725258e-05,138.6149999999948,3.025945e-06
138.6299999999948,9.726672e-05,138.6299999999948,9.121181e-06,138.6299999999948,1.642437e-05,138.6299999999948,3.030597e-06
138.64499999999478,9.798098e-05,138.64499999999478,8.861105e-06,138.64499999999478,1.519291e-05,138.64499999999478,3.108612e-06
138.65999999999477,9.819726e-05,138.65999999999477,8.707154e-06,138.65999999999477,1.392744e-05,138.65999999999477,3.099535e-06
138.67499999999475,0.0001024968,138.67499999999475,8.5108e-06,138.67499999999475,1.101812e-05,138.67499999999475,3.072146e-06
138.68999999999474,0.000117733,138.68999999999474,8.21433e-06,138.68999999999474,9.958426e-06,138.68999999999474,3.081303e-06
138.70499999999473,0.0001340747,138.70499999999473,8.11252e-06,138.70499999999473,9.122726e-06,138.70499999999473,3.131187e-06
138.7199999999947,0.0001495347,138.7199999999947,7.97063e-06,138.7199999999947,9.068521e-06,138.7199999999947,3.211145e-06
138.7349999999947,0.0001618926,138.7349999999947,7.871038e-06,138.7349999999947,8.792481e-06,138.7349999999947,3.189136e-06
138.74999999999469,0.0002127886,138.74999999999469,7.775606e-06,138.74999999999469,9.06075e-06,138.74999999999469,3.184716e-06
138.76499999999467,0.0002379153,138.76499999999467,7.72289e-06,138.76499999999467,8.827657e-06,138.76499999999467,3.072146e-06
138.77999999999466,0.000248588,138.77999999999466,7.689987e-06,138.77999999999466,8.45767e-06,138.77999999999466,3.044509e-06
138.79499999999464,0.0002658404,138.79499999999464,7.809951e-06,138.79499999999464,8.499207e-06,138.79499999999464,3.030597e-06
138.80999999999463,0.0002706111,138.80999999999463,6.665538e-06,138.80999999999463,7.582997e-06,138.80999999999463,2.964809e-06
138.82499999999462,0.0003025818,138.82499999999462,6.468188e-06,138.82499999999462,6.612493e-06,138.82499999999462,2.945742e-06
138.8399999999946,0.0003177524,138.8399999999946,6.153455e-06,138.8399999999946,7.057657e-06,138.8399999999946,3.002579e-06
138.8549999999946,0.0003190349,138.8549999999946,6.009847e-06,138.8549999999946,6.584741e-06,138.8549999999946,3.076727e-06
138.86999999999458,0.0003211348,138.86999999999458,5.719203e-06,138.86999999999458,6.690851e-06,138.86999999999458,3.122176e-06
138.88499999999456,0.0003235306,138.88499999999456,5.729046e-06,138.88499999999456,6.822199e-06,138.88499999999456,3.099535e-06
138.89999999999455,0.0003240967,138.89999999999455,6.187698e-06,138.89999999999455,7.083556e-06,138.89999999999455,3.11314e-06
138.91499999999454,0.0003243252,138.91499999999454,6.246608e-06,138.91499999999454,7.270023e-06,138.91499999999454,3.094987e-06
138.92999999999452,0.0003209764,138.92999999999452,6.2781e-06,138.92999999999452,6.942956e-06,138.92999999999452,3.331712e-06
138.9449999999945,0.0003113413,138.9449999999945,6.151165e-06,138.9449999999945,7.137048e-06,138.9449999999945,3.297714e-06
138.9599999999945,0.0003024964,138.9599999999945,6.079758e-06,138.9599999999945,7.16266e-06,138.9599999999945,3.197958e-06
138.97499999999448,0.0002957064,138.97499999999448,6.116717e-06,138.97499999999448,6.997522e-06,138.97499999999448,3.140172e-06
138.98999999999447,0.0002845283,138.98999999999447,6.148874e-06,138.98999999999447,7.021637e-06,138.98999999999447,3.166973e-06
139.00499999999445,0.0002515039,139.00499999999445,5.958057e-06,139.00499999999445,6.528882e-06,139.00499999999445,3.166973e-06
139.01999999999444,0.0002379954,139.01999999999444,5.924864e-06,139.01999999999444,6.535352e-06,139.01999999999444,3.197958e-06
139.03499999999443,0.0002166632,139.03499999999443,5.724127e-06,139.03499999999443,6.53104e-06,139.03499999999443,3.284874e-06
139.0499999999944,0.0002024545,139.0499999999944,5.513535e-06,139.0499999999944,6.550423e-06,139.0499999999944,3.219907e-06
139.0649999999944,0.0001855696,139.0649999999944,5.371176e-06,139.0649999999944,6.513761e-06,139.0649999999944,3.319004e-06
139.07999999999439,0.0001216636,139.07999999999439,5.467352e-06,139.07999999999439,6.273611e-06,139.07999999999439,3.335938e-06
139.09499999999437,8.49488e-05,139.09499999999437,5.405162e-06,139.09499999999437,5.738873e-06,139.09499999999437,3.352786e-06
139.10999999999436,8.109325e-05,139.10999999999436,5.449287e-06,139.10999999999436,5.931993e-06,139.10999999999436,3.206755e-06
139.12499999999434,7.518747e-05,139.12499999999434,5.467352e-06,139.12499999999434,5.974584e-06,139.12499999999434,3.228645e-06
139.13999999999433,6.879342e-05,139.13999999999433,5.498184e-06,139.13999999999433,5.768253e-06,139.13999999999433,3.140172e-06
139.15499999999432,6.703239e-05,139.15499999999432,5.462197e-06,139.15499999999432,5.652309e-06,139.15499999999432,3.099535e-06
139.1699999999943,6.614922e-05,139.1699999999943,5.457037e-06,139.1699999999943,5.677176e-06,139.1699999999943,2.993181e-06
139.1849999999943,6.480133e-05,139.1849999999943,6.08439e-06,139.1849999999943,5.765811e-06,139.1849999999943,2.823661e-06
139.19999999999428,5.644154e-05,139.19999999999428,6.135114e-06,139.19999999999428,5.642331e-06,139.19999999999428,2.793568e-06
139.21499999999426,4.756031e-05,139.21499999999426,6.203613e-06,139.21499999999426,5.785323e-06,139.21499999999426,2.868209e-06
139.22999999999425,4.679202e-05,139.22999999999425,6.25337e-06,139.22999999999425,5.726587e-06,139.22999999999425,3.01662e-06
139.24499999999423,4.478556e-05,139.24499999999423,6.2781e-06,139.24499999999423,5.917727e-06,139.24499999999423,3.039879e-06
139.25999999999422,4.043774e-05,139.25999999999422,6.479067e-06,139.25999999999422,6.11211e-06,139.25999999999422,3.135683e-06
139.2749999999942,3.97452e-05,139.2749999999942,6.686639e-06,139.2749999999942,6.65708e-06,139.2749999999942,3.049133e-06
139.2899999999942,3.978027e-05,139.2899999999942,6.747456e-06,139.2899999999942,6.803591e-06,139.2899999999942,2.988471e-06
139.30499999999418,3.824054e-05,139.30499999999418,6.774542e-06,139.30499999999418,6.803591e-06,139.30499999999418,2.955291e-06
139.31999999999417,3.800257e-05,139.31999999999417,6.961192e-06,139.31999999999417,6.887957e-06,139.31999999999417,2.863294e-06
139.33499999999415,3.953197e-05,139.33499999999415,7.03967e-06,139.33499999999415,6.836638e-06,139.33499999999415,3.021286e-06
139.34999999999414,4.190117e-05,139.34999999999414,7.033664e-06,139.34999999999414,6.869526e-06,139.34999999999414,3.049133e-06
139.36499999999413,4.14591e-05,139.36499999999413,7.069622e-06,139.36499999999413,6.842817e-06,139.36499999999413,3.175857e-06
139.3799999999941,4.153209e-05,139.3799999999941,7.12124e-06,139.3799999999941,6.625263e-06,139.3799999999941,3.135683e-06
139.3949999999941,4.067774e-05,139.3949999999941,7.091506e-06,139.3949999999941,6.635885e-06,139.3949999999941,3.162522e-06
139.40999999999408,3.956118e-05,139.40999999999408,6.79323e-06,139.40999999999408,7.52706e-06,139.40999999999408,3.108612e-06
139.42499999999407,4.019735e-05,139.42499999999407,6.795303e-06,139.42499999999407,7.71011e-06,139.42499999999407,3.099535e-06
139.43999999999406,4.13785e-05,139.43999999999406,6.569749e-06,139.43999999999406,7.688155e-06,139.43999999999406,3.171418e-06
139.45499999999404,4.094386e-05,139.45499999999404,6.709772e-06,139.45499999999404,7.569982e-06,139.45499999999404,3.310505e-06
139.46999999999403,4.150121e-05,139.46999999999403,6.871577e-06,139.46999999999403,7.569982e-06,139.46999999999403,3.104077e-06
139.48499999999402,4.346355e-05,139.48499999999402,7.015617e-06,139.48499999999402,7.523317e-06,139.48499999999402,3.076727e-06
139.499999999994,4.449746e-05,139.499999999994,6.96726e-06,139.499999999994,7.799122e-06,139.499999999994,3.202359e-06
139.514999999994,4.84288e-05,139.514999999994,6.932803e-06,139.514999999994,8.016449e-06,139.514999999994,3.140172e-06
139.52999999999398,5.353391e-05,139.52999999999398,6.916529e-06,139.52999999999398,8.475971e-06,139.52999999999398,3.108612e-06
139.54499999999396,6.358673e-05,139.54499999999396,6.869526e-06,139.54499999999396,9.719326e-06,139.54499999999396,3.117661e-06
139.55999999999395,8.525073e-05,139.55999999999395,6.774542e-06,139.55999999999395,1.033057e-05,139.55999999999395,3.122176e-06
139.57499999999393,0.0001055111,139.57499999999393,6.435437e-06,139.57499999999393,1.045931e-05,139.57499999999393,3.049133e-06
139.58999999999392,0.0001320415,139.58999999999392,6.444187e-06,139.58999999999392,1.053045e-05,139.58999999999392,2.983753e-06
139.6049999999939,0.0001433143,139.6049999999939,6.631638e-06,139.6049999999939,1.047546e-05,139.6049999999939,2.921734e-06
139.6199999999939,0.0001802854,139.6199999999939,6.610363e-06,139.6199999999939,1.03904e-05,139.6199999999939,2.818668e-06
139.63499999999388,0.001031252,139.63499999999388,6.485587e-06,139.63499999999388,1.0505e-05,139.63499999999388,2.828646e-06
139.64999999999387,0.001275719,139.64999999999387,6.481242e-06,139.64999999999387,1.051706e-05,139.64999999999387,2.813666e-06
139.66499999999385,0.001571272,139.66499999999385,6.481242e-06,139.66499999999385,1.023605e-05,139.66499999999385,2.783465e-06
139.67999999999384,0.001603954,139.67999999999384,6.485587e-06,139.67999999999384,1.119568e-05,139.67999999999384,2.758045e-06
139.69499999999383,0.001610142,139.69499999999383,6.713969e-06,139.69499999999383,1.169055e-05,139.69499999999383,2.912075e-06
139.7099999999938,0.001626286,139.7099999999938,6.650728e-06,139.7099999999938,1.261329e-05,139.7099999999938,2.74781e-06
139.7249999999938,0.00163332,139.7249999999938,6.686639e-06,139.7249999999938,1.347925e-05,139.7249999999938,2.659232e-06
139.73999999999378,0.001635227,139.73999999999378,7.194059e-06,139.73999999999378,1.541291e-05,139.73999999999378,2.887788e-06
139.75499999999377,0.001635689,139.75499999999377,7.231167e-06,139.75499999999377,1.557565e-05,139.75499999999377,2.964809e-06
139.76999999999376,0.001636905,139.76999999999376,7.341366e-06,139.76999999999376,1.537539e-05,139.76999999999376,2.974296e-06
139.78499999999374,0.001637202,139.78499999999374,7.638524e-06,139.78499999999374,1.508777e-05,139.78499999999374,3.011947e-06
139.79999999999373,0.001637383,139.79999999999373,7.68449e-06,139.79999999999373,1.496967e-05,139.79999999999373,3.030597e-06
139.81499999999372,0.00163628,139.81499999999372,7.678988e-06,139.81499999999372,1.474592e-05,139.81499999999372,3.062961e-06
139.8299999999937,0.001636208,139.8299999999937,8.102095e-06,139.8299999999937,1.484399e-05,139.8299999999937,3.049133e-06
139.8449999999937,0.001634479,139.8449999999937,8.140256e-06,139.8449999999937,1.483639e-05,139.8449999999937,3.108612e-06
139.85999999999368,0.001634437,139.85999999999368,8.044515e-06,139.85999999999368,1.487243e-05,139.85999999999368,3.319004e-06
139.87499999999366,0.00159641,139.87499999999366,8.02523e-06,139.87499999999366,1.494989e-05,139.87499999999366,3.319004e-06
139.88999999999365,0.001211994,139.88999999999365,8.018206e-06,139.88999999999365,1.514927e-05,139.88999999999365,3.331712e-06
139.90499999999363,0.0008253107,139.90499999999363,8.311504e-06,139.90499999999363,1.514089e-05,139.90499999999363,3.335938e-06
139.91999999999362,0.0003392472,139.91999999999362,8.399174e-06,139.91999999999362,1.471436e-05,139.91999999999362,3.361178e-06
139.9349999999936,0.0002509624,139.9349999999936,8.373978e-06,139.9349999999936,1.429283e-05,139.9349999999936,3.390388e-06
139.9499999999936,0.0002244488,139.9499999999936,8.198881e-06,139.9499999999936,1.41492e-05,139.9499999999936,3.297714e-06
139.96499999999358,0.0001557825,139.96499999999358,8.081204e-06,139.96499999999358,1.328874e-05,139.96499999999358,3.468433e-06
139.97999999999357,0.000143538,139.97999999999357,8.074229e-06,139.97999999999357,1.120323e-05,139.97999999999357,3.314757e-06
139.99499999999355,0.0005430604,139.99499999999355,7.417721e-06,139.99499999999355,1.014759e-05,139.99499999999355,3.197958e-06
140.00999999999354,0.0005920542,140.00999999999354,7.337527e-06,140.00999999999354,9.895991e-06,140.00999999999354,3.233005e-06
140.02499999999353,0.0007677746,140.02499999999353,7.067629e-06,140.02499999999353,9.44441e-06,140.02499999999353,3.180289e-06
140.0399999999935,0.0008754602,140.0399999999935,6.730734e-06,140.0399999999935,9.101082e-06,140.0399999999935,3.162522e-06
140.0549999999935,0.0008873534,140.0549999999935,6.703471e-06,140.0549999999935,8.992083e-06,140.0549999999935,3.19355e-06
140.06999999999348,0.0008907181,140.06999999999348,6.571893e-06,140.06999999999348,8.996782e-06,140.06999999999348,3.206755e-06
140.08499999999347,0.0008988461,140.08499999999347,6.561167e-06,140.08499999999347,8.687718e-06,140.08499999999347,3.241707e-06
140.09999999999346,0.000905237,140.09999999999346,6.500773e-06,140.09999999999346,9.611476e-06,140.09999999999346,2.887788e-06
140.11499999999344,0.0009063866,140.11499999999344,6.526725e-06,140.11499999999344,1.2518e-05,140.11499999999344,2.988471e-06
140.12999999999343,0.0009073482,140.12999999999343,6.99148e-06,140.12999999999343,1.603729e-05,140.12999999999343,3.039879e-06
140.14499999999342,0.0009070884,140.14499999999342,7.144938e-06,140.14499999999342,1.741593e-05,140.14499999999342,3.081303e-06
140.1599999999934,0.00090705,140.1599999999934,7.077588e-06,140.1599999999934,1.764095e-05,140.1599999999934,3.067557e-06
140.1749999999934,0.0009072801,140.1749999999934,7.372003e-06,140.1749999999934,1.753603e-05,140.1749999999934,3.025945e-06
140.18999999999338,0.0009585699,140.18999999999338,7.632989e-06,140.18999999999338,1.726809e-05,140.18999999999338,2.964809e-06
140.20499999999336,0.001387617,140.20499999999336,7.827967e-06,140.20499999999336,1.724605e-05,140.20499999999336,2.960054e-06
140.21999999999335,0.001725558,140.21999999999335,7.634834e-06,140.21999999999335,1.705054e-05,140.21999999999335,2.752932e-06
140.23499999999333,0.001954839,140.23499999999333,7.686323e-06,140.23499999999333,1.713707e-05,140.23499999999333,2.803635e-06
140.24999999999332,0.001902113,140.24999999999332,7.764728e-06,140.24999999999332,1.70885e-05,140.24999999999332,2.798606e-06
140.2649999999933,0.001894407,140.2649999999933,7.717415e-06,140.2649999999933,1.709839e-05,140.2649999999933,2.711688e-06
140.2799999999933,0.001842315,140.2799999999933,7.71559e-06,140.2799999999933,1.704972e-05,140.2799999999933,2.778399e-06
140.29499999999328,0.001819935,140.29499999999328,7.72289e-06,140.29499999999328,1.694779e-05,140.29499999999328,2.793568e-06
140.30999999999327,0.001819767,140.30999999999327,7.721065e-06,140.30999999999327,1.680757e-05,140.30999999999327,2.768241e-06
140.32499999999325,0.001819363,140.32499999999325,7.651422e-06,140.32499999999325,1.707366e-05,140.32499999999325,2.783465e-06
140.33999999999324,0.0018172,140.33999999999324,1.083115e-05,140.33999999999324,1.711157e-05,140.33999999999324,2.783465e-06
140.35499999999323,0.001815515,140.35499999999323,1.125341e-05,140.35499999999323,1.701912e-05,140.35499999999323,2.833621e-06
140.3699999999932,0.001814798,140.3699999999932,1.329404e-05,140.3699999999932,1.356778e-05,140.3699999999932,2.74781e-06
140.3849999999932,0.001814768,140.3849999999932,1.322392e-05,140.3849999999932,1.156212e-05,140.3849999999932,2.711688e-06
140.39999999999318,0.001814914,140.39999999999318,1.310192e-05,140.39999999999318,1.325584e-05,140.39999999999318,2.727227e-06
140.41499999999317,0.001814896,140.41499999999317,1.289602e-05,140.41499999999317,1.443211e-05,140.41499999999317,2.818668e-06
140.42999999999316,0.001813959,140.42999999999316,1.250336e-05,140.42999999999316,1.46106e-05,140.42999999999316,2.838588e-06
140.44499999999314,0.0016688,140.44499999999314,1.248419e-05,140.44499999999314,1.477169e-05,140.44499999999314,2.931361e-06
140.45999999999313,0.00137653,140.45999999999313,1.245821e-05,140.45999999999313,1.468465e-05,140.45999999999313,2.892662e-06
140.47499999999312,0.0008390627,140.47499999999312,1.267234e-05,140.47499999999312,1.461638e-05,140.47499999999312,2.95052e-06
140.4899999999931,0.0003987443,140.4899999999931,1.267345e-05,140.4899999999931,1.453617e-05,140.4899999999931,2.95052e-06
140.5049999999931,0.0003661476,140.5049999999931,1.270343e-05,140.5049999999931,1.457971e-05,140.5049999999931,2.931361e-06
140.51999999999308,0.0002931995,140.51999999999308,1.314807e-05,140.51999999999308,1.474114e-05,140.51999999999308,2.95052e-06
140.53499999999306,0.0001778271,140.53499999999306,1.487906e-05,140.53499999999306,1.609691e-05,140.53499999999306,3.030597e-06
140.54999999999305,0.0001120043,140.54999999999305,1.55657e-05,140.54999999999305,1.679164e-05,140.54999999999305,2.993181e-06
140.56499999999303,0.0001042856,140.56499999999303,1.586952e-05,140.56499999999303,1.759457e-05,140.56499999999303,3.053749e-06
140.57999999999302,0.0001067245,140.57999999999302,1.590056e-05,140.57999999999302,1.865922e-05,140.57999999999302,3.025945e-06
140.594999999993,0.0001098481,140.594999999993,1.483259e-05,140.594999999993,1.989208e-05,140.594999999993,3.01662e-06
140.609999999993,0.0001136695,140.609999999993,1.584198e-05,140.609999999993,2.105755e-05,140.609999999993,2.974296e-06
140.62499999999298,0.0001235235,140.62499999999298,1.520866e-05,140.62499999999298,2.097578e-05,140.62499999999298,3.131187e-06
140.63999999999297,0.000145027,140.63999999999297,1.61659e-05,140.63999999999297,2.183976e-05,140.63999999999297,3.153601e-06
140.65499999999295,0.000148136,140.65499999999295,1.6245e-05,140.65499999999295,2.195812e-05,140.65499999999295,3.301983e-06
140.66999999999294,0.0001484761,140.66999999999294,1.640721e-05,140.66999999999294,2.197928e-05,140.66999999999294,3.331712e-06
140.68499999999293,0.0001516146,140.68499999999293,1.645522e-05,140.68499999999293,2.299963e-05,140.68499999999293,3.323245e-06
140.6999999999929,0.0001518598,140.6999999999929,1.646036e-05,140.6999999999929,2.307118e-05,140.6999999999929,3.267676e-06
140.7149999999929,0.0001528864,140.7149999999929,1.641408e-05,140.7149999999929,2.434682e-05,140.7149999999929,3.314757e-06
140.72999999999288,0.0001570194,140.72999999999288,1.628397e-05,140.72999999999288,2.698513e-05,140.72999999999288,3.310505e-06
140.74499999999287,0.0001617387,140.74499999999287,1.630299e-05,140.74499999999287,2.735222e-05,140.74499999999287,3.29344e-06
140.75999999999286,0.000165772,140.75999999999286,1.628916e-05,140.75999999999286,2.730944e-05,140.75999999999286,3.28916e-06
140.77499999999284,0.0001805103,140.77499999999284,1.539096e-05,140.77499999999284,2.72795e-05,140.77499999999284,3.301983e-06
140.78999999999283,0.0002178641,140.78999999999283,1.375442e-05,140.78999999999283,2.627363e-05,140.78999999999283,3.206755e-06
140.80499999999282,0.0002257426,140.80499999999282,1.348029e-05,140.80499999999282,2.604261e-05,140.80499999999282,3.206755e-06
140.8199999999928,0.0002231475,140.8199999999928,1.326965e-05,140.8199999999928,2.538189e-05,140.8199999999928,3.180289e-06
140.8349999999928,0.0002446469,140.8349999999928,1.270121e-05,140.8349999999928,2.545615e-05,140.8349999999928,3.224279e-06
140.84999999999278,0.0002834931,140.84999999999278,1.046604e-05,140.84999999999278,2.521764e-05,140.84999999999278,3.301983e-06
140.86499999999276,0.0002982149,140.86499999999276,8.974835e-06,140.86499999999276,2.409733e-05,140.86499999999276,3.365367e-06
140.87999999999275,0.0002954042,140.87999999999275,6.865424e-06,140.87999999999275,2.30388e-05,140.87999999999275,3.250386e-06
140.89499999999273,0.0002870971,140.89499999999273,6.446372e-06,140.89499999999273,2.176546e-05,140.89499999999273,3.090432e-06
140.90999999999272,0.0002966804,140.90999999999272,6.242096e-06,140.90999999999272,2.083428e-05,140.90999999999272,2.993181e-06
140.9249999999927,0.0003033791,140.9249999999927,5.908198e-06,140.9249999999927,2.046866e-05,140.9249999999927,2.892662e-06
140.9399999999927,0.0003041579,140.9399999999927,5.814468e-06,140.9399999999927,1.978842e-05,140.9399999999927,2.907234e-06
140.95499999999268,0.0003039817,140.95499999999268,5.881913e-06,140.95499999999268,2.007887e-05,140.95499999999268,2.838588e-06
140.96999999999267,0.0003029079,140.96999999999267,5.984008e-06,140.96999999999267,1.792218e-05,140.96999999999267,2.685588e-06
140.98499999999265,0.0002985492,140.98499999999265,6.333946e-06,140.98499999999265,1.609078e-05,140.98499999999265,2.727227e-06
140.99999999999264,0.0002928948,140.99999999999264,6.981399e-06,140.99999999999264,1.590587e-05,140.99999999999264,2.768241e-06
141.01499999999263,0.0002904703,141.01499999999263,7.590424e-06,141.01499999999263,1.707283e-05,141.01499999999263,2.833621e-06
141.0299999999926,0.0002729701,141.0299999999926,7.827967e-06,141.0299999999926,1.70555e-05,141.0299999999926,2.833621e-06
141.0449999999926,0.0002397314,141.0449999999926,7.711938e-06,141.0449999999926,1.699758e-05,141.0449999999926,2.773325e-06
141.05999999999258,0.000231857,141.05999999999258,7.786468e-06,141.05999999999258,1.674459e-05,141.05999999999258,2.669806e-06
141.07499999999257,0.0002309738,141.07499999999257,7.897837e-06,141.07499999999257,1.627705e-05,141.07499999999257,2.680338e-06
141.08999999999256,0.0002079165,141.08999999999256,8.216045e-06,141.08999999999256,1.402119e-05,141.08999999999256,2.798606e-06
141.10499999999254,0.0001616048,141.10499999999254,8.31828e-06,141.10499999999254,1.636853e-05,141.10499999999254,2.706488e-06
141.11999999999253,0.0001354255,141.11999999999253,8.490915e-06,141.11999999999253,2.383873e-05,141.11999999999253,2.74781e-06
141.13499999999252,0.0001405127,141.13499999999252,8.591521e-06,141.13499999999252,2.584715e-05,141.13499999999252,2.727227e-06
141.1499999999925,0.0001389783,141.1499999999925,8.512456e-06,141.1499999999925,2.687056e-05,141.1499999999925,2.758045e-06
141.1649999999925,0.0001316713,141.1649999999925,8.547137e-06,141.1649999999925,2.812715e-05,141.1649999999925,2.828646e-06
141.17999999999248,0.0001320693,141.17999999999248,8.470984e-06,141.17999999999248,3.003001e-05,141.17999999999248,2.955291e-06
141.19499999999246,0.0001412651,141.19499999999246,8.432649e-06,141.19499999999246,3.14564e-05,141.19499999999246,3.01662e-06
141.20999999999245,0.0001445191,141.20999999999245,8.074229e-06,141.20999999999245,3.100399e-05,141.20999999999245,3.062961e-06
141.22499999999243,0.0001454304,141.22499999999243,7.998858e-06,141.22499999999243,3.074621e-05,141.22499999999243,3.108612e-06
141.23999999999242,0.0001548273,141.23999999999242,7.689987e-06,141.23999999999242,3.016293e-05,141.23999999999242,3.058359e-06
141.2549999999924,0.0001603834,141.2549999999924,6.94904e-06,141.2549999999924,3.010918e-05,141.2549999999924,3.01662e-06
141.2699999999924,0.0001607036,141.2699999999924,6.782854e-06,141.2699999999924,2.983659e-05,141.2699999999924,2.983753e-06
141.28499999999238,0.0001601587,141.28499999999238,6.709772e-06,141.28499999999238,3.103441e-05,141.28499999999238,3.007266e-06
141.29999999999237,0.0001618725,141.29999999999237,6.724452e-06,141.29999999999237,3.13402e-05,141.29999999999237,3.335938e-06
141.31499999999235,0.000172796,141.31499999999235,6.690851e-06,141.31499999999235,3.191387e-05,141.31499999999235,3.406967e-06
141.32999999999234,0.0001725538,141.32999999999234,6.697164e-06,141.32999999999234,3.195887e-05,141.32999999999234,3.476546e-06
141.34499999999233,0.0001704652,141.34499999999233,6.180865e-06,141.34499999999233,3.224322e-05,141.34499999999233,3.327482e-06
141.3599999999923,0.000188908,141.3599999999923,6.141998e-06,141.3599999999923,2.927225e-05,141.3599999999923,3.259043e-06
141.3749999999923,0.0002455883,141.3749999999923,5.753582e-06,141.3749999999923,2.695117e-05,141.3749999999923,3.284874e-06
141.38999999999228,0.0002725947,141.38999999999228,5.682137e-06,141.38999999999228,2.513763e-05,141.38999999999228,3.297714e-06
141.40499999999227,0.0003143653,141.40499999999227,5.464775e-06,141.40499999999227,2.34076e-05,141.40499999999227,3.301983e-06
141.41999999999226,0.0003187141,141.41999999999226,5.433755e-06,141.41999999999226,2.241714e-05,141.41999999999226,3.122176e-06
141.43499999999224,0.0003237854,141.43499999999224,5.627332e-06,141.43499999999224,1.984529e-05,141.43499999999224,3.144655e-06
141.44999999999223,0.0003399133,141.44999999999223,5.679657e-06,141.44999999999223,1.730964e-05,141.44999999999223,3.058359e-06
141.46499999999222,0.0003561217,141.46499999999222,5.701935e-06,141.46499999999222,1.726727e-05,141.46499999999222,3.090432e-06
141.4799999999922,0.0003903786,141.4799999999922,5.828986e-06,141.4799999999922,1.731697e-05,141.4799999999922,3.062961e-06
141.4949999999922,0.0003981758,141.4949999999922,5.824151e-06,141.4949999999922,1.731046e-05,141.4949999999922,3.058359e-06
141.50999999999217,0.0003979432,141.50999999999217,6.169459e-06,141.50999999999217,1.723951e-05,141.50999999999217,3.058359e-06
141.52499999999216,0.0003993598,141.52499999999216,5.991066e-06,141.52499999999216,1.615979e-05,141.52499999999216,3.058359e-06
141.53999999999215,0.0004008807,141.53999999999215,6.000464e-06,141.53999999999215,1.418699e-05,141.53999999999215,2.892662e-06
141.55499999999213,0.0003983578,141.55499999999213,5.979298e-06,141.55499999999213,1.377182e-05,141.55499999999213,2.737538e-06
141.56999999999212,0.0003957788,141.56999999999212,6.014533e-06,141.56999999999212,1.201969e-05,141.56999999999212,2.813666e-06
141.5849999999921,0.0004125083,141.5849999999921,6.000464e-06,141.5849999999921,1.187229e-05,141.5849999999921,2.778399e-06
141.5999999999921,0.0004436316,141.5999999999921,6.047233e-06,141.5999999999921,1.003592e-05,141.5999999999921,2.783465e-06
141.61499999999208,0.0004419184,141.61499999999208,6.095956e-06,141.61499999999208,7.465047e-06,141.61499999999208,2.843547e-06
141.62999999999207,0.0004583702,141.62999999999207,6.086705e-06,141.62999999999207,6.48993e-06,141.62999999999207,2.788521e-06
141.64499999999205,0.0004528302,141.64499999999205,6.079758e-06,141.64499999999205,6.105191e-06,141.64499999999205,2.808655e-06
141.65999999999204,0.0004384216,141.65999999999204,5.969867e-06,141.65999999999204,5.642331e-06,141.65999999999204,2.853437e-06
141.67499999999202,0.0004344595,141.67499999999202,5.872325e-06,141.67499999999202,5.684616e-06,141.67499999999202,2.907234e-06
141.689999999992,0.0004306677,141.689999999992,5.696992e-06,141.689999999992,5.637336e-06,141.689999999992,2.936162e-06
141.704999999992,0.0004053435,141.704999999992,5.795054e-06,141.704999999992,5.664756e-06,141.704999999992,2.979029e-06
141.71999999999198,0.0003894238,141.71999999999198,5.624828e-06,141.71999999999198,5.709342e-06,141.71999999999198,3.01662e-06
141.73499999999197,0.0003607314,141.73499999999197,5.731505e-06,141.73499999999197,5.644828e-06,141.73499999999197,3.025945e-06
141.74999999999196,0.0003514048,141.74999999999196,5.554263e-06,141.74999999999196,5.684616e-06,141.74999999999196,3.01662e-06
141.76499999999194,0.0003520995,141.76499999999194,5.257193e-06,141.76499999999194,5.889093e-06,141.76499999999194,3.044509e-06
141.77999999999193,0.0003504577,141.77999999999193,5.140683e-06,141.77999999999193,5.924864e-06,141.77999999999193,3.002579e-06
141.79499999999192,0.0003499372,141.79499999999192,5.055022e-06,141.79499999999192,5.787757e-06,141.79499999999192,3.007266e-06
141.8099999999919,0.0003496964,141.8099999999919,5.041069e-06,141.8099999999919,5.748683e-06,141.8099999999919,2.813666e-06
141.8249999999919,0.0003467076,141.8249999999919,4.83569e-06,141.8249999999919,5.667242e-06,141.8249999999919,2.818668e-06
141.83999999999187,0.0002971778,141.83999999999187,5.013047e-06,141.83999999999187,5.657291e-06,141.83999999999187,2.95052e-06
141.85499999999186,0.000261054,141.85499999999186,5.135199e-06,141.85499999999186,5.490492e-06,141.85499999999186,2.916909e-06
141.86999999999185,0.0002248314,141.86999999999185,5.066156e-06,141.86999999999185,5.56946e-06,141.86999999999185,2.926552e-06
141.88499999999183,0.0001261426,141.88499999999183,5.068936e-06,141.88499999999183,5.584614e-06,141.88499999999183,2.940956e-06
141.89999999999182,6.167631e-05,141.89999999999182,5.135199e-06,141.89999999999182,5.694519e-06,141.89999999999182,2.882905e-06
141.9149999999918,4.774832e-05,141.9149999999918,5.137942e-06,141.9149999999918,5.719203e-06,141.9149999999918,2.858369e-06
141.9299999999918,4.836709e-05,141.9299999999918,5.230329e-06,141.9299999999918,5.733962e-06,141.9299999999918,2.892662e-06
141.94499999999178,4.849536e-05,141.94499999999178,5.046655e-06,141.94499999999178,5.644828e-06,141.94499999999178,2.873116e-06
141.95999999999177,4.813148e-05,141.95999999999177,5.074491e-06,141.95999999999177,5.612292e-06,141.95999999999177,2.892662e-06
141.97499999999175,4.787295e-05,141.97499999999175,4.996159e-06,141.97499999999175,5.797484e-06,141.97499999999175,2.931361e-06
141.98999999999174,4.66977e-05,141.98999999999174,4.945147e-06,141.98999999999174,5.809621e-06,141.98999999999174,2.964809e-06
142.00499999999172,4.153209e-05,142.00499999999172,4.902232e-06,142.00499999999172,5.674694e-06,142.00499999999172,3.011947e-06
142.0199999999917,3.997385e-05,142.0199999999917,4.965048e-06,142.0199999999917,5.469929e-06,142.0199999999917,3.011947e-06
142.0349999999917,3.821142e-05,142.0349999999917,5.181623e-06,142.0349999999917,5.425972e-06,142.0349999999917,2.969556e-06
142.04999999999168,5.392194e-05,142.04999999999168,5.187057e-06,142.04999999999168,5.063375e-06,142.04999999999168,2.993181e-06
142.06499999999167,5.753019e-05,142.06499999999167,5.151632e-06,142.06499999999167,5.326404e-06,142.06499999999167,3.035241e-06
142.07999999999166,0.000154689,142.07999999999166,5.371176e-06,142.07999999999166,5.991066e-06,142.07999999999166,3.058359e-06
142.09499999999164,0.0001917879,142.09499999999164,5.334332e-06,142.09499999999164,6.03324e-06,142.09499999999164,2.964809e-06
142.10999999999163,0.0002580582,142.10999999999163,5.373798e-06,142.10999999999163,5.850696e-06,142.10999999999163,2.988471e-06
142.12499999999162,0.0002771428,142.12499999999162,5.407768e-06,142.12499999999162,5.821732e-06,142.12499999999162,3.01662e-06
142.1399999999916,0.0003597431,142.1399999999916,5.257193e-06,142.1399999999916,5.765811e-06,142.1399999999916,3.007266e-06
142.1549999999916,0.0003655557,142.1549999999916,5.612292e-06,142.1549999999916,5.941484e-06,142.1549999999916,2.988471e-06
142.16999999999157,0.0003860691,142.16999999999157,5.634837e-06,142.16999999999157,5.905813e-06,142.16999999999157,2.974296e-06
142.18499999999156,0.0003925358,142.18499999999156,5.602244e-06,142.18499999999156,6.13052e-06,142.18499999999156,2.960054e-06
142.19999999999155,0.0003928062,142.19999999999155,5.627332e-06,142.19999999999155,6.040241e-06,142.19999999999155,2.983753e-06
142.21499999999153,0.000393516,142.21499999999153,5.694519e-06,142.21499999999153,6.116717e-06,142.21499999999153,2.878015e-06
142.22999999999152,0.0003936308,142.22999999999152,5.736418e-06,142.22999999999152,6.187698e-06,142.22999999999152,2.848496e-06
142.2449999999915,0.0003945175,142.2449999999915,5.743781e-06,142.2449999999915,6.116717e-06,142.2449999999915,2.813666e-06
142.2599999999915,0.0003946747,142.2599999999915,5.765811e-06,142.2599999999915,6.079758e-06,142.2599999999915,2.853437e-06
142.27499999999148,0.0004003724,142.27499999999148,5.855509e-06,142.27499999999148,6.19225e-06,142.27499999999148,2.843547e-06
142.28999999999147,0.0004180866,142.28999999999147,5.721665e-06,142.28999999999147,6.266871e-06,142.28999999999147,2.823661e-06
142.30499999999145,0.0004476192,142.30499999999145,5.743781e-06,142.30499999999145,6.271365e-06,142.30499999999145,2.783465e-06
142.31999999999144,0.0004916937,142.31999999999144,5.716739e-06,142.31999999999144,5.841057e-06,142.31999999999144,2.752932e-06
142.33499999999142,0.0004858943,142.33499999999142,5.647323e-06,142.33499999999142,5.521194e-06,142.33499999999142,2.696058e-06
142.3499999999914,0.0004556318,142.3499999999914,5.637336e-06,142.3499999999914,5.449287e-06,142.3499999999914,2.732388e-06
142.3649999999914,0.0004482026,142.3649999999914,5.533936e-06,142.3649999999914,5.467352e-06,142.3649999999914,2.823661e-06
142.37999999999138,0.0004295101,142.37999999999138,5.632336e-06,142.37999999999138,5.510979e-06,142.37999999999138,2.793568e-06
142.39499999999137,0.0003778116,142.39499999999137,5.597212e-06,142.39499999999137,5.587136e-06,142.39499999999137,2.727227e-06
142.40999999999136,0.0003738145,142.40999999999136,5.243778e-06,142.40999999999136,5.438937e-06,142.40999999999136,2.737538e-06
142.42499999999134,0.0003546391,142.42499999999134,5.251831e-06,142.42499999999134,5.467352e-06,142.42499999999134,2.653929e-06
142.43999999999133,0.0003537623,142.43999999999133,5.208738e-06,142.43999999999133,5.672212e-06,142.43999999999133,2.742679e-06
142.45499999999132,0.0003535858,142.45499999999132,5.273245e-06,142.45499999999132,9.520175e-06,142.45499999999132,2.732388e-06
142.4699999999913,0.000353504,142.4699999999913,5.34752e-06,142.4699999999913,1.073579e-05,142.4699999999913,2.763147e-06
142.4849999999913,0.0003536409,142.4849999999913,5.310512e-06,142.4849999999913,1.163499e-05,142.4849999999913,2.763147e-06
142.49999999999127,0.0003528239,142.49999999999127,5.358047e-06,142.49999999999127,1.161803e-05,142.49999999999127,2.701278e-06
142.51499999999126,0.0003490883,142.51499999999126,5.241091e-06,142.51499999999126,1.166643e-05,142.51499999999126,2.696058e-06
142.52999999999125,0.000345017,142.52999999999125,5.241091e-06,142.52999999999125,1.256517e-05,142.52999999999125,2.793568e-06
142.54499999999123,0.0003046921,142.54499999999123,5.392116e-06,142.54499999999123,1.321433e-05,142.54499999999123,3.007266e-06
142.55999999999122,0.0002479586,142.55999999999122,5.368553e-06,142.55999999999122,1.373905e-05,142.55999999999122,3.081303e-06
142.5749999999912,0.0001668284,142.5749999999912,5.758477e-06,142.5749999999912,1.384731e-05,142.5749999999912,3.11314e-06
142.5899999999912,0.0001532429,142.5899999999912,5.510979e-06,142.5899999999912,1.394463e-05,142.5899999999912,3.197958e-06
142.60499999999118,0.0001365998,142.60499999999118,5.469929e-06,142.60499999999118,1.435283e-05,142.60499999999118,3.162522e-06
142.61999999999117,0.0001103611,142.61999999999117,5.612292e-06,142.61999999999117,1.60829e-05,142.61999999999117,3.259043e-06
142.63499999999115,0.0001108378,142.63499999999115,5.597212e-06,142.63499999999115,1.651674e-05,142.63499999999115,3.382069e-06
142.64999999999114,0.0001107458,142.64999999999114,5.669728e-06,142.64999999999114,1.697685e-05,142.64999999999114,3.435788e-06
142.66499999999112,0.0001113913,142.66499999999112,5.674694e-06,142.66499999999112,1.708356e-05,142.66499999999112,3.635012e-06
142.6799999999911,0.0001112039,142.6799999999911,5.748683e-06,142.6799999999911,1.709427e-05,142.6799999999911,3.599965e-06
142.6949999999911,0.0001122778,142.6949999999911,5.792623e-06,142.6949999999911,1.705963e-05,142.6949999999911,3.57641e-06
142.70999999999108,0.0001158144,142.70999999999108,5.984008e-06,142.70999999999108,1.591119e-05,142.70999999999108,3.580347e-06
142.72499999999107,0.0001187739,142.72499999999107,5.922486e-06,142.72499999999107,1.498848e-05,142.72499999999107,3.599965e-06
142.73999999999106,0.0001189644,142.73999999999106,5.898653e-06,142.73999999999106,1.525675e-05,142.73999999999106,3.603876e-06
142.75499999999104,0.0001199908,142.75499999999104,5.838645e-06,142.75499999999104,1.555846e-05,142.75499999999104,3.603876e-06
142.76999999999103,0.0001229577,142.76999999999103,6.11902e-06,142.76999999999103,1.549586e-05,142.76999999999103,3.67356e-06
142.78499999999102,0.0001171815,142.78499999999102,6.235322e-06,142.78499999999102,1.586153e-05,142.78499999999102,3.607783e-06
142.799999999991,0.0001146356,142.799999999991,6.353931e-06,142.799999999991,2.240206e-05,142.799999999991,3.556662e-06
142.814999999991,0.0001118639,142.814999999991,6.307202e-06,142.814999999991,2.337628e-05,142.814999999991,3.516832e-06
142.82999999999097,0.0001107735,142.82999999999097,6.007502e-06,142.82999999999097,2.364411e-05,142.82999999999097,3.484641e-06
142.84499999999096,0.000108765,142.84499999999096,6.194524e-06,142.84499999999096,2.360953e-05,142.84499999999096,3.406967e-06
142.85999999999095,0.0001091038,142.85999999999095,6.051891e-06,142.85999999999095,2.329116e-05,142.85999999999095,3.394541e-06
142.87499999999093,0.0001124701,142.87499999999093,6.320588e-06,142.87499999999093,2.211728e-05,142.87499999999093,3.224279e-06
142.88999999999092,0.0001039173,142.88999999999092,6.347276e-06,142.88999999999092,2.211728e-05,142.88999999999092,3.131187e-06
142.9049999999909,0.0001100603,142.9049999999909,6.507271e-06,142.9049999999909,2.175057e-05,142.9049999999909,3.117661e-06
142.9199999999909,0.0001139924,142.9199999999909,6.625263e-06,142.9199999999909,2.179521e-05,142.9199999999909,3.007266e-06
142.93499999999088,0.0001140223,142.93499999999088,6.722357e-06,142.93499999999088,2.172789e-05,142.93499999999088,3.058359e-06
142.94999999999087,0.0001138528,142.94999999999087,6.699267e-06,142.94999999999087,2.16935e-05,142.94999999999087,3.011947e-06
142.96499999999085,0.0001086178,142.96499999999085,6.54612e-06,142.96499999999085,2.116166e-05,142.96499999999085,2.997883e-06
142.97999999999084,0.0001050573,142.97999999999084,6.673986e-06,142.97999999999084,2.088493e-05,142.97999999999084,3.002579e-06
142.99499999999082,0.000105537,142.99499999999082,6.830453e-06,142.99499999999082,2.043422e-05,142.99499999999082,2.988471e-06
143.0099999999908,0.0001088783,143.0099999999908,7.029658e-06,143.0099999999908,2.050442e-05,143.0099999999908,3.189136e-06
143.0249999999908,0.0001092942,143.0249999999908,6.912455e-06,143.0249999999908,2.04356e-05,143.0249999999908,3.039879e-06
143.03999999999078,0.000112072,143.03999999999078,6.684531e-06,143.03999999999078,1.536806e-05,143.03999999999078,3.067557e-06
143.05499999999077,0.000110481,143.05499999999077,6.69506e-06,143.05499999999077,9.178147e-06,143.05499999999077,2.940956e-06
143.06999999999076,0.0001149462,143.06999999999076,6.7391e-06,143.06999999999076,9.478654e-06,143.06999999999076,2.926552e-06
143.08499999999074,0.0001152841,143.08499999999074,6.684531e-06,143.08499999999074,9.430977e-06,143.08499999999074,3.007266e-06
143.09999999999073,0.0001145028,143.09999999999073,6.567604e-06,143.09999999999073,9.487566e-06,143.09999999999073,3.035241e-06
143.11499999999072,0.0001141852,143.11499999999072,6.57832e-06,143.11499999999072,9.680115e-06,143.11499999999072,3.035241e-06
143.1299999999907,0.00011158,143.1299999999907,6.260124e-06,143.1299999999907,1.067394e-05,143.1299999999907,3.007266e-06
143.1449999999907,0.0001281706,143.1449999999907,6.16489e-06,143.1449999999907,1.081814e-05,143.1449999999907,3.049133e-06
143.15999999999067,0.0001284796,143.15999999999067,6.54612e-06,143.15999999999067,1.071215e-05,143.15999999999067,3.219907e-06
143.17499999999066,0.0001252835,143.17499999999066,6.631638e-06,143.17499999999066,1.164225e-05,143.17499999999066,3.099535e-06
143.18999999999065,0.0001285708,143.18999999999065,6.505105e-06,143.18999999999065,1.420485e-05,143.18999999999065,3.171418e-06
143.20499999999063,0.0001274473,143.20499999999063,6.424483e-06,143.20499999999063,1.447304e-05,143.20499999999063,3.206755e-06
143.21999999999062,0.0001298572,143.21999999999062,6.300498e-06,143.21999999999062,1.511203e-05,143.21999999999062,3.153601e-06
143.2349999999906,0.0001315699,143.2349999999906,6.409116e-06,143.2349999999906,1.511762e-05,143.2349999999906,3.171418e-06
143.2499999999906,0.0001352953,143.2499999999906,6.289309e-06,143.2499999999906,1.506722e-05,143.2499999999906,3.215529e-06
143.26499999999058,0.0001446647,143.26499999999058,5.988714e-06,143.26499999999058,1.489703e-05,143.26499999999058,3.007266e-06
143.27999999999057,0.0001574976,143.27999999999057,5.901041e-06,143.27999999999057,1.490554e-05,143.27999999999057,3.049133e-06
143.29499999999055,0.0001576301,143.29499999999055,5.891484e-06,143.29499999999055,1.493009e-05,143.29499999999055,3.094987e-06
143.30999999999054,0.0001575963,143.30999999999054,5.917727e-06,143.30999999999054,1.412629e-05,143.30999999999054,3.117661e-06
143.32499999999052,0.0001622583,143.32499999999052,5.931993e-06,143.32499999999052,1.405631e-05,143.32499999999052,3.122176e-06
143.3399999999905,0.0001618981,143.3399999999905,5.941484e-06,143.3399999999905,1.387069e-05,143.3399999999905,3.090432e-06
143.3549999999905,0.0001610921,143.3549999999905,5.828986e-06,143.3549999999905,1.372674e-05,143.3549999999905,3.094987e-06
143.36999999999048,0.0001591016,143.36999999999048,6.023894e-06,143.36999999999048,1.356467e-05,143.36999999999048,3.122176e-06
143.38499999999047,0.0001504676,143.38499999999047,6.056544e-06,143.38499999999047,1.255508e-05,143.38499999999047,3.108612e-06
143.39999999999046,0.0001409484,143.39999999999046,5.948592e-06,143.39999999999046,1.244803e-05,143.39999999999046,3.025945e-06
143.41499999999044,0.0001373343,143.41499999999044,5.704405e-06,143.41499999999044,1.232635e-05,143.41499999999044,2.887788e-06
143.42999999999043,0.0001372489,143.42999999999043,5.612292e-06,143.42999999999043,8.959125e-06,143.42999999999043,2.969556e-06
143.44499999999042,0.0001333253,143.44499999999042,5.612292e-06,143.44499999999042,8.270727e-06,143.44499999999042,2.868209e-06
143.4599999999904,0.0001322466,143.4599999999904,5.652309e-06,143.4599999999904,7.170523e-06,143.4599999999904,2.833621e-06
143.4749999999904,0.0001287835,143.4749999999904,5.828986e-06,143.4749999999904,6.569749e-06,143.4749999999904,2.945742e-06
143.48999999999037,0.0001267765,143.48999999999037,5.584614e-06,143.48999999999037,9.848904e-06,143.48999999999037,3.01662e-06
143.50499999999036,0.0001241935,143.50499999999036,5.577042e-06,143.50499999999036,9.853194e-06,143.50499999999036,3.030597e-06
143.51999999999035,0.0001090569,143.51999999999035,5.738873e-06,143.51999999999035,9.937185e-06,143.51999999999035,3.002579e-06
143.53499999999033,9.043399e-05,143.53499999999033,5.652309e-06,143.53499999999033,9.856052e-06,143.53499999999033,2.969556e-06
143.54999999999032,9.091652e-05,143.54999999999032,5.674694e-06,143.54999999999032,9.74827e-06,143.54999999999032,3.049133e-06
143.5649999999903,8.891131e-05,143.5649999999903,5.632336e-06,143.5649999999903,9.704822e-06,143.5649999999903,3.081303e-06
143.5799999999903,8.548933e-05,143.5799999999903,5.905813e-06,143.5799999999903,9.401056e-06,143.5799999999903,3.131187e-06
143.59499999999028,8.336009e-05,143.59499999999028,6.028569e-06,143.59499999999028,9.401056e-06,143.59499999999028,3.158065e-06
143.60999999999026,8.463464e-05,143.60999999999026,5.893875e-06,143.60999999999026,9.401056e-06,143.60999999999026,3.166973e-06
143.62499999999025,8.555357e-05,143.62499999999025,5.748683e-06,143.62499999999025,9.475681e-06,143.62499999999025,3.211145e-06
143.63999999999024,8.515665e-05,143.63999999999024,5.716739e-06,143.63999999999024,9.549722e-06,143.63999999999024,3.356985e-06
143.65499999999022,8.797766e-05,143.65499999999022,5.679657e-06,143.65499999999022,1.058648e-05,143.65499999999022,3.406967e-06
143.6699999999902,8.896073e-05,143.6699999999902,5.541568e-06,143.6699999999902,1.051573e-05,143.6699999999902,3.361178e-06
143.6849999999902,8.89924e-05,143.6849999999902,5.528843e-06,143.6849999999902,1.042424e-05,143.6849999999902,3.382069e-06
143.69999999999018,9.049503e-05,143.69999999999018,5.597212e-06,143.69999999999018,1.04889e-05,143.69999999999018,3.480596e-06
143.71499999999017,9.197863e-05,143.71499999999017,5.770695e-06,143.71499999999017,1.043909e-05,143.71499999999017,3.496747e-06
143.72999999999016,8.879256e-05,143.72999999999016,5.692045e-06,143.72999999999016,1.012953e-05,143.72999999999016,3.406967e-06
143.74499999999014,8.89129e-05,143.74499999999014,5.748683e-06,143.74499999999014,7.337527e-06,143.74499999999014,3.377901e-06
143.75999999999013,8.604152e-05,143.75999999999013,5.775575e-06,143.75999999999013,7.320229e-06,143.75999999999013,3.386231e-06
143.77499999999011,8.169362e-05,143.77499999999011,5.599728e-06,143.77499999999011,7.1921e-06,143.77499999999011,3.406967e-06
143.7899999999901,9.606183e-05,143.7899999999901,5.672212e-06,143.7899999999901,7.160693e-06,143.7899999999901,3.344373e-06
143.8049999999901,0.0001006197,143.8049999999901,5.684616e-06,143.8049999999901,7.1823e-06,143.8049999999901,3.394541e-06
143.81999999999007,0.0001131862,143.81999999999007,5.438937e-06,143.81999999999007,7.373913e-06,143.81999999999007,3.415227e-06
143.83499999999006,0.000120745,143.83499999999006,5.371176e-06,143.83499999999006,7.358615e-06,143.83499999999006,3.373728e-06
143.84999999999005,0.0001234292,143.84999999999005,5.291911e-06,143.84999999999005,7.629297e-06,143.84999999999005,3.394541e-06
143.86499999999003,0.0001229793,143.86499999999003,5.48022e-06,143.86499999999003,8.17996e-06,143.86499999999003,3.373728e-06
143.87999999999002,0.0001222536,143.87999999999002,5.554263e-06,143.87999999999002,7.917432e-06,143.87999999999002,3.386231e-06
143.89499999999,0.0001206364,143.89499999999,5.493057e-06,143.89499999999,7.528932e-06,143.89499999999,3.259043e-06
143.90999999999,0.0001207281,143.90999999999,5.602244e-06,143.90999999999,6.466009e-06,143.90999999999,3.28916e-06
143.92499999998998,0.0001209662,143.92499999998998,5.579567e-06,143.92499999998998,6.533196e-06,143.92499999998998,3.211145e-06
143.93999999998996,0.0001203587,143.93999999998996,5.682137e-06,143.93999999998996,6.565459e-06,143.93999999998996,3.202359e-06
143.95499999998995,0.0001188176,143.95499999998995,5.706874e-06,143.95499999998995,6.584741e-06,143.95499999998995,3.149131e-06
143.96999999998994,0.0001181405,143.96999999998994,5.444114e-06,143.96999999998994,7.285508e-06,143.96999999998994,3.189136e-06
143.98499999998992,0.0001173476,143.98499999998992,5.365928e-06,143.98499999998992,7.865667e-06,143.98499999998992,3.237359e-06
143.9999999999899,0.0001160786,143.9999999999899,5.313164e-06,143.9999999999899,7.766543e-06,143.9999999999899,3.237359e-06
144.0149999999899,0.0001152838,144.0149999999899,5.352786e-06,144.0149999999899,7.917432e-06,144.0149999999899,3.280583e-06
144.02999999998988,0.0001117865,144.02999999998988,5.299891e-06,144.02999999998988,8.014691e-06,144.02999999998988,3.284874e-06
144.04499999998987,9.2059e-05,144.04499999998987,5.2679e-06,144.04499999998987,8.1264e-06,144.04499999998987,3.19355e-06
144.05999999998986,8.690069e-05,144.05999999998986,5.151632e-06,144.05999999998986,8.699061e-06,144.05999999998986,3.122176e-06
144.07499999998984,6.826389e-05,144.07499999998984,5.077266e-06,144.07499999998984,8.922889e-06,144.07499999998984,3.171418e-06
144.08999999998983,5.04805e-05,144.08999999998983,5.192486e-06,144.08999999998983,9.09334e-06,144.08999999998983,3.153601e-06
144.10499999998981,4.713158e-05,144.10499999998981,5.233022e-06,144.10499999998981,8.570179e-06,144.10499999998981,3.090432e-06
144.1199999999898,5.662742e-05,144.1199999999898,5.151632e-06,144.1199999999898,8.390783e-06,144.1199999999898,3.067557e-06
144.1349999999898,6.0422e-05,144.1349999999898,5.074491e-06,144.1349999999898,8.425965e-06,144.1349999999898,3.104077e-06
144.14999999998977,7.634908e-05,144.14999999998977,5.071714e-06,144.14999999998977,8.669864e-06,144.14999999998977,3.053749e-06
144.16499999998976,0.0001093604,144.16499999998976,5.08004e-06,144.16499999998976,8.829253e-06,144.16499999998976,3.158065e-06
144.17999999998975,0.0001485028,144.17999999998975,4.967884e-06,144.17999999998975,8.930779e-06,144.17999999998975,3.233005e-06
144.19499999998973,0.000155706,144.19499999998973,4.902232e-06,144.19499999998973,8.876988e-06,144.19499999998973,3.340158e-06
144.20999999998972,0.0001566791,144.20999999998972,4.711753e-06,144.20999999998972,8.89601e-06,144.20999999998972,3.435788e-06
144.2249999999897,0.0001588546,144.2249999999897,4.690778e-06,144.2249999999897,8.76681e-06,144.2249999999897,3.406967e-06
144.2399999999897,0.0001588945,144.2399999999897,4.768218e-06,144.2399999999897,9.138154e-06,144.2399999999897,3.476546e-06
144.25499999998968,0.000159436,144.25499999998968,5.235713e-06,144.25499999998968,1.183069e-05,144.25499999998968,3.492716e-06
144.26999999998966,0.0001601189,144.26999999998966,5.449287e-06,144.26999999998966,1.416612e-05,144.26999999998966,3.456227e-06
144.28499999998965,0.000161882,144.28499999998965,6.121322e-06,144.28499999998965,1.50803e-05,144.28499999998965,3.488681e-06
144.29999999998964,0.0001744516,144.29999999998964,6.906339e-06,144.29999999998964,1.487338e-05,144.29999999998964,3.484641e-06
144.31499999998962,0.0001788608,144.31499999998962,7.568121e-06,144.31499999998962,1.48658e-05,144.31499999998962,3.512824e-06
144.3299999999896,0.0005312665,144.3299999999896,7.656943e-06,144.3299999999896,1.462216e-05,144.3299999999896,3.398688e-06
144.3449999999896,0.0005848925,144.3449999999896,7.640368e-06,144.3449999999896,1.460192e-05,144.3449999999896,3.361178e-06
144.35999999998958,0.0006804758,144.35999999998958,7.689987e-06,144.35999999998958,1.460192e-05,144.35999999998958,3.508812e-06
144.37499999998957,0.0006945339,144.37499999998957,7.711938e-06,144.37499999998957,1.461638e-05,144.37499999998957,3.56062e-06
144.38999999998956,0.0006981625,144.38999999998956,7.799122e-06,144.38999999998956,1.459903e-05,144.38999999998956,3.552699e-06
144.40499999998954,0.0006986479,144.40499999998954,7.860292e-06,144.40499999998954,1.460578e-05,144.40499999998954,3.552699e-06
144.41999999998953,0.0006984339,144.41999999998953,7.824367e-06,144.41999999998953,1.448375e-05,144.41999999998953,3.448066e-06
144.43499999998951,0.0006931854,144.43499999998951,7.689987e-06,144.43499999998951,1.44672e-05,144.43499999998951,3.348582e-06
144.4499999999895,0.000692152,144.4499999999895,7.766543e-06,144.4499999999895,1.441257e-05,144.4499999999895,3.158065e-06
144.4649999999895,0.0006924253,144.4649999999895,7.938755e-06,144.4649999999895,1.422962e-05,144.4649999999895,3.076727e-06
144.47999999998947,0.0006926684,144.47999999998947,8.088174e-06,144.47999999998947,1.399001e-05,144.47999999998947,3.002579e-06
144.49499999998946,0.0006927399,144.49499999998946,7.935205e-06,144.49499999998946,1.364543e-05,144.49499999998946,2.833621e-06
144.50999999998945,0.0006925029,144.50999999998945,8.117728e-06,144.50999999998945,8.69096e-06,144.50999999998945,2.838588e-06
144.52499999998943,0.0006924526,144.52499999998943,8.757163e-06,144.52499999998943,7.413922e-06,144.52499999998943,2.798606e-06
144.53999999998942,0.0006919691,144.53999999998942,8.442667e-06,144.53999999998942,6.257873e-06,144.53999999998942,2.838588e-06
144.5549999999894,0.0006878945,144.5549999999894,8.965412e-06,144.5549999999894,5.879517e-06,144.5549999999894,2.833621e-06
144.5699999999894,0.0006841787,144.5699999999894,9.062304e-06,144.5699999999894,5.898653e-06,144.5699999999894,2.778399e-06
144.58499999998938,0.000422122,144.58499999998938,9.167396e-06,144.58499999998938,5.738873e-06,144.58499999998938,2.752932e-06
144.59999999998936,0.0003400162,144.59999999998936,9.164322e-06,144.59999999998936,5.706874e-06,144.59999999998936,2.706488e-06
144.61499999998935,0.0001616624,144.61499999998935,9.275854e-06,144.61499999998935,5.587136e-06,144.61499999998935,2.611121e-06
144.62999999998934,0.0001322038,144.62999999998934,9.228656e-06,144.62999999998934,5.454455e-06,144.62999999998934,2.621889e-06
144.64499999998932,0.0001133918,144.64499999998932,9.188883e-06,144.64499999998932,5.233022e-06,144.64499999998932,2.659232e-06
144.6599999999893,7.989553e-05,144.6599999999893,9.116548e-06,144.6599999999893,4.987693e-06,144.6599999999893,2.722057e-06
144.6749999999893,6.611812e-05,144.6749999999893,9.195013e-06,144.6749999999893,5.344885e-06,144.6749999999893,2.706488e-06
144.68999999998928,6.894151e-05,144.68999999998928,9.263696e-06,144.68999999998928,5.334332e-06,144.68999999998928,2.722057e-06
144.70499999998927,8.000249e-05,144.70499999998927,9.402554e-06,144.70499999998927,5.795054e-06,144.70499999998927,2.742679e-06
144.71999999998926,8.498378e-05,144.71999999998926,9.368033e-06,144.71999999998926,5.838645e-06,144.71999999998926,2.752932e-06
144.73499999998924,8.343931e-05,144.73499999998924,9.199609e-06,144.73499999998924,5.920107e-06,144.73499999998924,2.878015e-06
144.74999999998923,9.3415e-05,144.74999999998923,9.20267e-06,144.74999999998923,5.694519e-06,144.74999999998923,2.902385e-06
144.76499999998921,9.701599e-05,144.76499999998921,8.333508e-06,144.76499999998921,5.500745e-06,144.76499999998921,2.926552e-06
144.7799999999892,9.91148e-05,144.7799999999892,7.815361e-06,144.7799999999892,5.692045e-06,144.7799999999892,2.988471e-06
144.7949999999892,9.953686e-05,144.7949999999892,6.877724e-06,144.7949999999892,5.799914e-06,144.7949999999892,3.202359e-06
144.80999999998917,9.820787e-05,144.80999999998917,6.373853e-06,144.80999999998917,5.792623e-06,144.80999999998917,3.202359e-06
144.82499999998916,9.864396e-05,144.82499999998916,5.915346e-06,144.82499999998916,5.763367e-06,144.82499999998916,3.250386e-06
144.83999999998915,0.0001003574,144.83999999998915,5.694519e-06,144.83999999998915,5.768253e-06,144.83999999998915,3.228645e-06
144.85499999998913,9.772502e-05,144.85499999998913,5.726587e-06,144.85499999998913,5.795054e-06,144.85499999998913,3.197958e-06
144.86999999998912,9.606961e-05,144.86999999998912,5.546649e-06,144.86999999998912,5.729046e-06,144.86999999998912,3.166973e-06
144.8849999999891,9.574913e-05,144.8849999999891,5.510979e-06,144.8849999999891,5.682137e-06,144.8849999999891,3.149131e-06
144.8999999999891,9.5099e-05,144.8999999999891,5.451871e-06,144.8999999999891,5.669728e-06,144.8999999999891,3.062961e-06
144.91499999998908,9.363415e-05,144.91499999998908,5.410373e-06,144.91499999998908,5.773135e-06,144.91499999998908,3.081303e-06
144.92999999998906,9.236956e-05,144.92999999998906,5.352786e-06,144.92999999998906,5.307859e-06,144.92999999998906,3.058359e-06
144.94499999998905,8.713995e-05,144.94499999998905,5.165286e-06,144.94499999998905,5.157098e-06,144.94499999998905,3.122176e-06
144.95999999998904,7.490271e-05,144.95999999998904,5.259872e-06,144.95999999998904,4.841512e-06,144.95999999998904,3.131187e-06
144.97499999998902,6.838472e-05,144.97499999998902,5.189773e-06,144.97499999998902,4.791795e-06,144.97499999998902,3.094987e-06
144.989999999989,6.597671e-05,144.989999999989,5.2679e-06,144.989999999989,4.699779e-06,144.989999999989,3.144655e-06
145.004999999989,5.53755e-05,145.004999999989,5.195198e-06,145.004999999989,4.687774e-06,145.004999999989,3.085871e-06
145.01999999998898,4.955989e-05,145.01999999998898,5.137942e-06,145.01999999998898,4.729657e-06,145.01999999998898,3.035241e-06
145.03499999998897,4.53252e-05,145.03499999998897,5.189773e-06,145.03499999998897,4.334932e-06,145.03499999998897,2.926552e-06
145.04999999998896,4.548776e-05,145.04999999998896,5.137942e-06,145.04999999998896,4.229668e-06,145.04999999998896,2.858369e-06
145.06499999998894,4.476039e-05,145.06499999998894,5.077266e-06,145.06499999998894,4.29248e-06,145.06499999998894,2.882905e-06
145.07999999998893,4.035614e-05,145.07999999998893,4.922306e-06,145.07999999998893,4.20629e-06,145.07999999998893,2.838588e-06
145.09499999998891,4.029361e-05,145.09499999998891,4.899358e-06,145.09499999998891,4.252917e-06,145.09499999998891,2.823661e-06
145.1099999999889,4.026213e-05,145.1099999999889,4.844421e-06,145.1099999999889,4.4377e-06,145.1099999999889,2.783465e-06
145.1249999999889,4.265716e-05,145.1249999999889,4.922306e-06,145.1249999999889,4.494475e-06,145.1249999999889,2.878015e-06
145.13999999998887,4.274722e-05,145.13999999998887,5.001795e-06,145.13999999998887,4.506994e-06,145.13999999998887,2.912075e-06
145.15499999998886,4.228668e-05,145.15499999998886,5.137942e-06,145.15499999998886,4.405843e-06,145.15499999998886,2.955291e-06
145.16999999998885,4.37327e-05,145.16999999998885,5.063375e-06,145.16999999998885,4.29248e-06,145.16999999998885,2.940956e-06
145.18499999998883,4.317577e-05,145.18499999998883,5.066156e-06,145.18499999998883,4.165909e-06,145.18499999998883,2.931361e-06
145.19999999998882,4.44886e-05,145.19999999998882,5.052234e-06,145.19999999998882,4.101159e-06,145.19999999998882,2.974296e-06
145.2149999999888,4.594994e-05,145.2149999999888,4.861837e-06,145.2149999999888,4.29576e-06,145.2149999999888,3.058359e-06
145.2299999999888,4.555553e-05,145.2299999999888,4.824024e-06,145.2299999999888,4.405843e-06,145.2299999999888,3.011947e-06
145.24499999998878,4.637806e-05,145.24499999998878,4.913713e-06,145.24499999998878,4.522595e-06,145.24499999998878,2.95052e-06
145.25999999998876,4.753809e-05,145.25999999998876,4.899358e-06,145.25999999998876,4.575239e-06,145.25999999998876,3.002579e-06
145.27499999998875,4.859141e-05,145.27499999998875,4.93374e-06,145.27499999998875,4.70577e-06,145.27499999998875,3.049133e-06
145.28999999998874,4.878699e-05,145.28999999998874,4.953686e-06,145.28999999998874,4.624239e-06,145.28999999998874,3.162522e-06
145.30499999998872,4.813909e-05,145.30499999998872,4.925167e-06,145.30499999998872,4.759348e-06,145.30499999998872,3.122176e-06
145.3199999999887,4.861286e-05,145.3199999999887,4.95937e-06,145.3199999999887,4.815255e-06,145.3199999999887,3.122176e-06
145.3349999999887,4.76278e-05,145.3349999999887,4.950841e-06,145.3349999999887,4.867628e-06,145.3349999999887,3.166973e-06
145.34999999998868,4.680406e-05,145.34999999998868,4.95937e-06,145.34999999998868,4.723696e-06,145.34999999998868,3.162522e-06
145.36499999998867,4.849594e-05,145.36499999998867,4.982041e-06,145.36499999998867,4.525708e-06,145.36499999998867,3.149131e-06
145.37999999998866,4.715548e-05,145.37999999998866,4.965048e-06,145.37999999998866,4.497608e-06,145.37999999998866,3.053749e-06
145.39499999998864,4.619301e-05,145.39499999998864,4.809401e-06,145.39499999998864,4.720713e-06,145.39499999998864,3.039879e-06
145.40999999998863,4.553481e-05,145.40999999998863,5.049445e-06,145.40999999998863,5.074491e-06,145.40999999998863,3.002579e-06
145.42499999998861,4.419123e-05,145.42499999998861,5.077266e-06,145.42499999998861,5.544109e-06,145.42499999998861,3.039879e-06
145.4399999999886,4.430139e-05,145.4399999999886,5.379038e-06,145.4399999999886,5.682137e-06,145.4399999999886,3.072146e-06
145.4549999999886,4.49388e-05,145.4549999999886,5.222243e-06,145.4549999999886,5.891484e-06,145.4549999999886,3.039879e-06
145.46999999998857,4.516174e-05,145.46999999998857,5.262549e-06,145.46999999998857,5.946224e-06,145.46999999998857,2.921734e-06
145.48499999998856,4.653664e-05,145.48499999998856,5.305204e-06,145.48499999998856,5.920107e-06,145.48499999998856,2.892662e-06
145.49999999998855,4.56957e-05,145.49999999998855,5.273245e-06,145.49999999998855,5.831403e-06,145.49999999998855,2.873116e-06
145.51499999998853,4.497796e-05,145.51499999998853,5.397339e-06,145.51499999998853,5.877121e-06,145.51499999998853,2.711688e-06
145.52999999998852,4.326898e-05,145.52999999998852,5.373798e-06,145.52999999998852,5.807196e-06,145.52999999998852,2.611121e-06
145.5449999999885,4.616465e-05,145.5449999999885,5.355417e-06,145.5449999999885,5.948592e-06,145.5449999999885,2.54002e-06
145.5599999999885,4.683415e-05,145.5599999999885,5.289249e-06,145.5599999999885,5.877121e-06,145.5599999999885,2.455423e-06
145.57499999998848,4.649363e-05,145.57499999998848,5.342249e-06,145.57499999998848,5.948592e-06,145.57499999998848,2.46687e-06
145.58999999998846,4.842065e-05,145.58999999998846,5.334332e-06,145.58999999998846,5.972226e-06,145.58999999998846,2.506524e-06
145.60499999998845,4.781877e-05,145.60499999998845,5.329048e-06,145.60499999998845,6.026232e-06,145.60499999998845,2.54556e-06
145.61999999998844,4.837001e-05,145.61999999998844,5.281253e-06,145.61999999998844,6.360578e-06,145.61999999998844,2.562108e-06
145.63499999998842,5.271134e-05,145.63499999998842,5.56946e-06,145.63499999998842,6.21269e-06,145.63499999998842,2.556603e-06
145.6499999999884,5.580173e-05,145.6499999999884,6.393712e-06,145.6499999999884,6.19907e-06,145.6499999999884,2.54002e-06
145.6649999999884,6.204113e-05,145.6649999999884,6.53104e-06,145.6649999999884,6.028569e-06,145.6649999999884,2.500897e-06
145.67999999998838,6.687102e-05,145.67999999998838,8.430979e-06,145.67999999998838,5.751133e-06,145.67999999998838,2.495258e-06
145.69499999998837,7.252292e-05,145.69499999998837,9.155096e-06,145.69499999998837,5.741327e-06,145.69499999998837,2.379674e-06
145.70999999998836,7.708905e-05,145.70999999998836,9.996546e-06,145.70999999998836,5.53139e-06,145.70999999998836,2.40909e-06
145.72499999998834,7.982409e-05,145.72499999998834,9.941437e-06,145.72499999998834,5.528843e-06,145.72499999998834,2.449679e-06
145.73999999998833,7.975489e-05,145.73999999998833,1.027314e-05,145.73999999998833,5.719203e-06,145.73999999998833,2.46687e-06
145.7549999999883,9.235675e-05,145.7549999999883,1.052911e-05,145.7549999999883,6.009847e-06,145.7549999999883,2.495258e-06
145.7699999999883,9.974356e-05,145.7699999999883,1.06779e-05,145.7699999999883,5.972226e-06,145.7699999999883,2.500897e-06
145.7849999999883,0.0001041209,145.7849999999883,1.10933e-05,145.7849999999883,6.016875e-06,145.7849999999883,2.54556e-06
145.79999999998827,0.0001080069,145.79999999998827,1.115913e-05,145.79999999998827,6.151165e-06,145.79999999998827,2.5676e-06
145.81499999998826,0.0001100299,145.81499999998826,1.206298e-05,145.81499999998826,6.047233e-06,145.81499999998826,2.742679e-06
145.82999999998825,0.0001105329,145.82999999998825,1.234576e-05,145.82999999998825,5.941484e-06,145.82999999998825,2.838588e-06
145.84499999998823,0.0001159103,145.84499999998823,1.54549e-05,145.84499999998823,7.125195e-06,145.84499999998823,2.778399e-06
145.85999999998822,0.0001263525,145.85999999998822,1.70067e-05,145.85999999998822,9.13507e-06,145.85999999998822,2.838588e-06
145.8749999999882,0.0001287212,145.8749999999882,1.930193e-05,145.8749999999882,9.821691e-06,145.8749999999882,2.902385e-06
145.8899999999882,0.0001292343,145.8899999999882,1.935877e-05,145.8899999999882,1.053847e-05,145.8899999999882,2.936162e-06
145.90499999998818,0.0001297932,145.90499999998818,1.920022e-05,145.90499999998818,1.128342e-05,145.90499999998818,2.964809e-06
145.91999999998816,0.0001344139,145.91999999998816,1.921489e-05,145.91999999998816,1.161318e-05,145.91999999998816,2.974296e-06
145.93499999998815,0.0001344004,145.93499999998815,1.840381e-05,145.93499999998815,1.205597e-05,145.93499999998815,2.979029e-06
145.94999999998814,0.0001351984,145.94999999998814,1.82524e-05,145.94999999998814,1.253487e-05,145.94999999998814,2.95052e-06
145.96499999998812,0.0001363589,145.96499999998812,1.815179e-05,145.96499999998812,1.296574e-05,145.96499999998812,2.955291e-06
145.9799999999881,0.0001443463,145.9799999999881,1.942778e-05,145.9799999999881,1.301995e-05,145.9799999999881,2.960054e-06
145.9949999999881,0.0001583257,145.9949999999881,1.92559e-05,145.9949999999881,1.291567e-05,145.9949999999881,2.997883e-06
146.00999999998808,0.0002236746,146.00999999998808,1.93085e-05,146.00999999998808,1.375033e-05,146.00999999998808,2.993181e-06
146.02499999998807,0.0002281389,146.02499999998807,1.909871e-05,146.02499999998807,1.382287e-05,146.02499999998807,2.916909e-06
146.03999999998805,0.0002495668,146.03999999998805,1.896993e-05,146.03999999998805,1.380248e-05,146.03999999998805,3.002579e-06
146.05499999998804,0.0002515197,146.05499999998804,1.952542e-05,146.05499999998804,1.385341e-05,146.05499999998804,3.049133e-06
146.06999999998803,0.0002531029,146.06999999998803,2.072513e-05,146.06999999998803,1.39325e-05,146.06999999998803,2.921734e-06
146.084999999988,0.000255563,146.084999999988,2.089571e-05,146.084999999988,1.397792e-05,146.084999999988,2.828646e-06
146.099999999988,0.0002551735,146.099999999988,1.966059e-05,146.099999999988,1.309224e-05,146.099999999988,2.843547e-06
146.114999999988,0.0002643095,146.114999999988,1.834171e-05,146.114999999988,1.206298e-05,146.114999999988,2.742679e-06
146.12999999998797,0.0002723089,146.12999999998797,1.668222e-05,146.12999999998797,1.156456e-05,146.12999999998797,2.675077e-06
146.14499999998796,0.0002749325,146.14499999998796,1.680841e-05,146.14499999998796,1.09797e-05,146.14499999998796,2.632612e-06
146.15999999998795,0.0002788448,146.15999999998795,1.660351e-05,146.15999999998795,1.023743e-05,146.15999999998795,2.653929e-06
146.17499999998793,0.000286485,146.17499999998793,1.676477e-05,146.17499999998793,9.752604e-06,146.17499999998793,2.732388e-06
146.18999999998792,0.000292916,146.18999999998792,1.746762e-05,146.18999999998792,9.420515e-06,146.18999999998792,2.727227e-06
146.2049999999879,0.0002940405,146.2049999999879,1.747165e-05,146.2049999999879,8.938661e-06,146.2049999999879,2.833621e-06
146.2199999999879,0.0002907322,146.2199999999879,1.711651e-05,146.2199999999879,9.687388e-06,146.2199999999879,2.878015e-06
146.23499999998788,0.0002876715,146.23499999998788,1.628397e-05,146.23499999998788,9.90595e-06,146.23499999998788,2.813666e-06
