X[s],a: EMG RMS 1-1,X[s].1,a: EMG RMS 1-2,X[s].2,a: EMG RMS 1-3,X[s].3,a: EMG RMS 1-4
312.01499999983713,0.003108292,312.01499999983713,0.0007228934,312.01499999983713,0.0002152719,312.01499999983713,1.355324e-05
312.0299999998371,0.003439499,312.0299999998371,0.0007548006,312.0299999998371,0.0001849555,312.0299999998371,1.326859e-05
312.0449999998371,0.003662596,312.0449999998371,0.0008081045,312.0449999998371,0.0001815217,312.0449999998371,1.33659e-05
312.0599999998371,0.003701841,312.0599999998371,0.000835097,312.0599999998371,0.0001808688,312.0599999998371,1.276096e-05
312.0749999998371,0.003713692,312.0749999998371,0.0008385741,312.0749999998371,0.0001780751,312.0749999998371,1.225529e-05
312.08999999983706,0.003884967,312.08999999983706,0.000842894,312.08999999983706,0.0001778414,312.08999999983706,1.093857e-05
312.10499999983705,0.003952941,312.10499999983705,0.0007887225,312.10499999983705,0.0002723626,312.10499999983705,1.050902e-05
312.11999999983703,0.004057683,312.11999999983703,0.0007820295,312.11999999983703,0.0003206762,312.11999999983703,1.027725e-05
312.134999999837,0.00419094,312.134999999837,0.0007608016,312.134999999837,0.000355761,312.134999999837,9.593873e-06
312.149999999837,0.004226196,312.149999999837,0.0007432731,312.149999999837,0.0003574923,312.149999999837,9.292544e-06
312.164999999837,0.004080727,312.164999999837,0.0007263642,312.164999999837,0.0003642257,312.164999999837,8.007658e-06
312.179999999837,0.003929141,312.179999999837,0.0006957265,312.179999999837,0.000368478,312.179999999837,7.638524e-06
312.19499999983697,0.003976088,312.19499999983697,0.0006861194,312.19499999983697,0.0003503371,312.19499999983697,7.766543e-06
312.20999999983695,0.003908623,312.20999999983695,0.0006749496,312.20999999983695,0.0003446979,312.20999999983695,6.834577e-06
312.22499999983694,0.003855799,312.22499999983694,0.0006581037,312.22499999983694,0.0003310811,312.22499999983694,6.518086e-06
312.2399999998369,0.003648265,312.2399999998369,0.0006550726,312.2399999998369,0.0003287322,312.2399999998369,6.879772e-06
312.2549999998369,0.003400145,312.2549999998369,0.0006651976,312.2549999998369,0.0003287587,312.2549999998369,6.826328e-06
312.2699999998369,0.003315955,312.2699999998369,0.0004493759,312.2699999998369,0.0003279543,312.2699999998369,7.354785e-06
312.2849999998369,0.003136756,312.2849999998369,0.0005462566,312.2849999998369,0.00032671,312.2849999998369,7.343284e-06
312.29999999983687,0.002947781,312.29999999983687,0.0004848332,312.29999999983687,0.0003269549,312.29999999983687,7.790086e-06
312.31499999983686,0.003046772,312.31499999983686,0.000489435,312.31499999983686,0.0003269772,312.31499999983686,7.928101e-06
312.32999999983684,0.00305395,312.32999999983684,0.0005589951,312.32999999983684,0.000326919,312.32999999983684,8.299631e-06
312.34499999983683,0.00277879,312.34499999983683,0.0006253836,312.34499999983683,0.000327103,312.34499999983683,8.446003e-06
312.3599999998368,0.002928063,312.3599999998368,0.0008055426,312.3599999998368,0.0002444426,312.3599999998368,8.98895e-06
312.3749999998368,0.002761727,312.3749999998368,0.0008144474,312.3749999998368,0.00014986,312.3749999998368,9.196546e-06
312.3899999998368,0.002485145,312.3899999998368,0.0009207368,312.3899999998368,9.910997e-05,312.3899999998368,9.454845e-06
312.4049999998368,0.002657845,312.4049999998368,0.000964655,312.4049999998368,9.37092e-05,312.4049999998368,9.771364e-06
312.41999999983676,0.002910932,312.41999999983676,0.0009809043,312.41999999983676,6.852033e-05,312.41999999983676,1.026765e-05
312.43499999983675,0.003119589,312.43499999983675,0.001049415,312.43499999983675,5.584387e-05,312.43499999983675,1.122709e-05
312.44999999983673,0.003229164,312.44999999983673,0.001089078,312.44999999983673,6.307001e-05,312.44999999983673,1.186755e-05
312.4649999998367,0.003366498,312.4649999998367,0.001105672,312.4649999998367,6.738849e-05,312.4649999998367,1.281603e-05
312.4799999998367,0.003655282,312.4799999998367,0.001108943,312.4799999998367,7.063183e-05,312.4799999998367,1.326115e-05
312.4949999998367,0.00381731,312.4949999998367,0.001159083,312.4949999998367,7.101253e-05,312.4949999998367,1.307932e-05
312.5099999998367,0.003871015,312.5099999998367,0.001185752,312.5099999998367,7.083875e-05,312.5099999998367,1.279073e-05
312.52499999983667,0.003856873,312.52499999983667,0.001174049,312.52499999983667,7.022239e-05,312.52499999983667,1.302644e-05
312.53999999983665,0.003836062,312.53999999983665,0.001112847,312.53999999983665,6.951087e-05,312.53999999983665,1.293202e-05
312.55499999983664,0.003748602,312.55499999983664,0.001112254,312.55499999983664,6.746224e-05,312.55499999983664,1.266456e-05
312.5699999998366,0.003655406,312.5699999998366,0.001106264,312.5699999998366,6.74004e-05,312.5699999998366,1.328556e-05
312.5849999998366,0.003610545,312.5849999998366,0.001372965,312.5849999998366,6.742444e-05,312.5849999998366,1.43263e-05
312.5999999998366,0.003618072,312.5999999998366,0.001819852,312.5999999998366,6.60322e-05,312.5999999998366,1.501665e-05
312.6149999998366,0.003480835,312.6149999998366,0.002243265,312.6149999998366,6.456918e-05,312.6149999998366,1.495178e-05
312.62999999983657,0.003430473,312.62999999983657,0.002566734,312.62999999983657,6.423957e-05,312.62999999983657,1.489987e-05
312.64499999983656,0.003472044,312.64499999983656,0.00281059,312.64499999983656,6.355881e-05,312.64499999983656,1.610303e-05
312.65999999983654,0.003195843,312.65999999983654,0.003089426,312.65999999983654,6.359161e-05,312.65999999983654,1.651589e-05
312.67499999983653,0.002803521,312.67499999983653,0.003222724,312.67499999983653,6.247938e-05,312.67499999983653,1.646891e-05
312.6899999998365,0.002741492,312.6899999998365,0.003496648,312.6899999998365,8.323664e-05,312.6899999998365,1.664079e-05
312.7049999998365,0.003046461,312.7049999998365,0.003757387,312.7049999998365,8.984247e-05,312.7049999998365,1.638659e-05
312.7199999998365,0.003005798,312.7199999998365,0.003987454,312.7199999998365,8.437309e-05,312.7199999998365,1.604783e-05
312.7349999998365,0.002882046,312.7349999998365,0.004154972,312.7349999998365,0.000111906,312.7349999998365,1.622678e-05
312.74999999983646,0.002873638,312.74999999983646,0.004340183,312.74999999983646,0.0001175104,312.74999999983646,1.619376e-05
312.76499999983645,0.002888624,312.76499999983645,0.004372117,312.76499999983645,0.0001176582,312.76499999983645,1.638831e-05
312.77999999983643,0.002902351,312.77999999983643,0.004420757,312.77999999983643,0.0001183362,312.77999999983643,1.622938e-05
312.7949999998364,0.002982884,312.7949999998364,0.004541482,312.7949999998364,0.0001207427,312.7949999998364,1.633234e-05
312.8099999998364,0.003077069,312.8099999998364,0.00469168,312.8099999998364,0.0001220299,312.8099999998364,1.633579e-05
312.8249999998364,0.003075824,312.8249999998364,0.004831367,312.8249999998364,0.0001222047,312.8249999998364,1.490176e-05
312.8399999998364,0.003055094,312.8399999998364,0.004708102,312.8399999998364,0.0001221972,312.8399999998364,1.448277e-05
312.85499999983637,0.003008991,312.85499999983637,0.004573531,312.85499999983637,0.0001220194,312.85499999983637,1.387373e-05
312.86999999983635,0.00304193,312.86999999983635,0.004465071,312.86999999983635,0.0001221388,312.86999999983635,1.359786e-05
312.88499999983634,0.00312018,312.88499999983634,0.004273764,312.88499999983634,0.0001336314,312.88499999983634,1.330146e-05
312.8999999998363,0.003120522,312.8999999998363,0.004134976,312.8999999998363,0.0001361783,312.8999999998363,1.174345e-05
312.9149999998363,0.003114104,312.9149999998363,0.003969264,312.9149999998363,0.0001401861,312.9149999998363,1.042424e-05
312.9299999998363,0.003070947,312.9299999998363,0.003809739,312.9299999998363,0.000140042,312.9299999998363,9.792964e-06
312.9449999998363,0.002722862,312.9449999998363,0.0035492,312.9449999998363,0.0001185916,312.9449999998363,8.397496e-06
312.95999999983627,0.002318706,312.95999999983627,0.003233846,312.95999999983627,0.0001161514,312.95999999983627,8.143716e-06
312.97499999983626,0.002286594,312.97499999983626,0.002877103,312.97499999983626,0.0001110794,312.97499999983626,7.308674e-06
312.98999999983624,0.002091065,312.98999999983624,0.002690315,312.98999999983624,8.443818e-05,312.98999999983624,6.576178e-06
313.00499999983623,0.001820154,313.00499999983623,0.002486024,313.00499999983623,8.170259e-05,313.00499999983623,6.221753e-06
313.0199999998362,0.00190212,313.0199999998362,0.002468759,313.0199999998362,8.133279e-05,313.0199999998362,5.48022e-06
313.0349999998362,0.001845562,313.0349999998362,0.002230345,313.0349999998362,8.021315e-05,313.0349999998362,5.536481e-06
313.0499999998362,0.001697412,313.0499999998362,0.002059281,313.0499999998362,7.705524e-05,313.0499999998362,5.323759e-06
313.0649999998362,0.001933376,313.0649999998362,0.001681795,313.0649999998362,7.598919e-05,313.0649999998362,5.352786e-06
313.07999999983616,0.002408837,313.07999999983616,0.00125359,313.07999999983616,7.588011e-05,313.07999999983616,5.373798e-06
313.09499999983615,0.002640743,313.09499999983615,0.001093158,313.09499999983615,7.580136e-05,313.09499999983615,5.533936e-06
313.10999999983613,0.002632684,313.10999999983613,0.001098933,313.10999999983613,7.581883e-05,313.10999999983613,5.879517e-06
313.1249999998361,0.002809272,313.1249999998361,0.001075345,313.1249999998361,7.572011e-05,313.1249999998361,6.597564e-06
313.1399999998361,0.002903578,313.1399999998361,0.001038667,313.1399999998361,5.116897e-05,313.1399999998361,6.716067e-06
313.1549999998361,0.002856995,313.1549999998361,0.001148311,313.1549999998361,4.206055e-05,313.1549999998361,7.160693e-06
313.1699999998361,0.002864126,313.1699999998361,0.001167442,313.1699999998361,3.075399e-05,313.1699999998361,7.878193e-06
313.18499999983607,0.002918389,313.18499999983607,0.001181929,313.18499999983607,2.633896e-05,313.18499999983607,8.399174e-06
313.19999999983605,0.002985709,313.19999999983605,0.001233922,313.19999999983605,2.654566e-05,313.19999999983605,8.686096e-06
313.21499999983604,0.003002628,313.21499999983604,0.001251435,313.21499999983604,2.43844e-05,313.21499999983604,8.856334e-06
313.229999999836,0.003005739,313.229999999836,0.001305558,313.229999999836,2.180813e-05,313.229999999836,9.90595e-06
313.244999999836,0.003029661,313.244999999836,0.001313196,313.244999999836,2.06918e-05,313.244999999836,1.042424e-05
313.259999999836,0.002973624,313.259999999836,0.001312771,313.259999999836,2.03354e-05,313.259999999836,1.254273e-05
313.274999999836,0.00289711,313.274999999836,0.001322693,313.274999999836,2.183073e-05,313.274999999836,1.310085e-05
313.28999999983597,0.002897178,313.28999999983597,0.001333118,313.28999999983597,2.447838e-05,313.28999999983597,1.316199e-05
313.30499999983596,0.002864446,313.30499999983596,0.001338192,313.30499999983596,2.548602e-05,313.30499999983596,1.308471e-05
313.31999999983594,0.002663871,313.31999999983594,0.001129523,313.31999999983594,2.581497e-05,313.31999999983594,1.31277e-05
313.33499999983593,0.002423202,313.33499999983593,0.00103369,313.33499999983593,2.685745e-05,313.33499999983593,1.314593e-05
313.3499999998359,0.002362744,313.3499999998359,0.0009471033,313.3499999998359,2.712726e-05,313.3499999998359,1.332051e-05
313.3649999998359,0.002310339,313.3649999998359,0.0009420242,313.3649999998359,2.76228e-05,313.3649999998359,1.304913e-05
313.3799999998359,0.002096139,313.3799999998359,0.0009372111,313.3799999998359,2.71501e-05,313.3799999998359,1.292112e-05
313.3949999998359,0.001972456,313.3949999998359,0.000894808,313.3949999998359,2.421338e-05,313.3949999998359,1.289821e-05
313.40999999983586,0.001962769,313.40999999983586,0.0007387497,313.40999999983586,2.378845e-05,313.40999999983586,1.286321e-05
313.42499999983585,0.002030599,313.42499999983585,0.0007330061,313.42499999983585,2.34659e-05,313.42499999983585,1.269233e-05
313.43999999983583,0.002282577,313.43999999983583,0.0007646664,313.43999999983583,2.54932e-05,313.43999999983583,1.293746e-05
313.4549999998358,0.002593705,313.4549999998358,0.001057208,313.4549999998358,4.173949e-05,313.4549999998358,1.37493e-05
313.4699999998358,0.002781317,313.4699999998358,0.00110058,313.4699999998358,7.900281e-05,313.4699999998358,1.378614e-05
313.4849999998358,0.002998358,313.4849999998358,0.001284523,313.4849999998358,9.426823e-05,313.4849999998358,1.445746e-05
313.4999999998358,0.003229108,313.4999999998358,0.00148214,313.4999999998358,0.0001187949,313.4999999998358,1.47755e-05
313.51499999983577,0.003293844,313.51499999983577,0.001644382,313.51499999983577,0.0001292445,313.51499999983577,1.39749e-05
313.52999999983575,0.003443415,313.52999999983575,0.001682499,313.52999999983575,0.0001315746,313.52999999983575,1.411531e-05
313.54499999983574,0.003637971,313.54499999983574,0.001896127,313.54499999983574,0.0001333939,313.54499999983574,1.444381e-05
313.5599999998357,0.00370881,313.5599999998357,0.002261436,313.5599999998357,0.0001341772,313.5599999998357,1.465969e-05
313.5749999998357,0.003878492,313.5749999998357,0.002298696,313.5749999998357,0.0001342465,313.5749999998357,1.476692e-05
313.5899999998357,0.003889865,313.5899999998357,0.002422872,313.5899999998357,0.0001361515,313.5899999998357,1.465296e-05
313.6049999998357,0.003865864,313.6049999998357,0.002450578,313.6049999998357,0.0001366393,313.6049999998357,1.446525e-05
313.61999999983567,0.003841523,313.61999999983567,0.002453863,313.61999999983567,0.0001365904,313.61999999983567,1.442234e-05
313.63499999983566,0.003814405,313.63499999983566,0.002453836,313.63499999983566,0.0001366676,313.63499999983566,1.436558e-05
313.64999999983564,0.003807654,313.64999999983564,0.002460232,313.64999999983564,0.0001366238,313.64999999983564,1.409534e-05
313.66499999983563,0.003791883,313.66499999983563,0.002462292,313.66499999983563,0.0001366375,313.66499999983563,1.412429e-05
313.6799999998356,0.003692023,313.6799999998356,0.002453369,313.6799999998356,0.0001370332,313.6799999998356,1.392744e-05
313.6949999998356,0.003451164,313.6949999998356,0.00234944,313.6949999998356,0.0001455334,313.6949999998356,1.276537e-05
313.7099999998356,0.003155928,313.7099999998356,0.002248252,313.7099999998356,0.0001363691,313.7099999998356,1.239132e-05
313.7249999998356,0.003028707,313.7249999998356,0.002205311,313.7249999998356,0.0001240624,313.7249999998356,1.198566e-05
313.73999999983556,0.002756008,313.73999999983556,0.002100428,313.73999999983556,0.0001043065,313.73999999983556,9.736703e-06
313.75499999983555,0.002511809,313.75499999983555,0.00189374,313.75499999983555,8.746685e-05,313.75499999983555,8.930779e-06
313.76999999983553,0.002408765,313.76999999983553,0.001814842,313.76999999983553,7.316244e-05,313.76999999983553,7.1823e-06
313.7849999998355,0.002147051,313.7849999998355,0.001780698,313.7849999998355,7.031541e-05,313.7849999998355,6.183143e-06
313.7999999998355,0.00177984,313.7999999998355,0.001451248,313.7999999998355,6.850471e-05,313.7999999998355,5.48022e-06
313.8149999998355,0.001616036,313.8149999998355,0.001045112,313.8149999998355,6.947803e-05,313.8149999998355,5.438937e-06
313.8299999998355,0.001402501,313.8299999998355,0.0009148576,313.8299999998355,6.858609e-05,313.8299999998355,5.716739e-06
313.84499999983547,0.001494867,313.84499999983547,0.0006117988,313.84499999983547,6.59216e-05,313.84499999983547,6.089019e-06
313.85999999983545,0.001579224,313.85999999983545,0.0005604724,313.85999999983545,6.65818e-05,313.85999999983545,6.360578e-06
313.87499999983544,0.001579223,313.87499999983544,0.0006903327,313.87499999983544,6.745096e-05,313.87499999983544,6.342836e-06
313.8899999998354,0.001695012,313.8899999998354,0.0007588836,313.8899999998354,7.266903e-05,313.8899999998354,6.644371e-06
313.9049999998354,0.001876364,313.9049999998354,0.0007536762,313.9049999998354,7.349593e-05,313.9049999998354,8.34702e-06
313.9199999998354,0.001956004,313.9199999998354,0.000858332,313.9199999998354,7.419012e-05,313.9199999998354,8.720087e-06
313.9349999998354,0.00194932,313.9349999998354,0.0009105014,313.9349999998354,6.930406e-05,313.9349999998354,8.888089e-06
313.94999999983537,0.001978025,313.94999999983537,0.0009273583,313.94999999983537,5.301273e-05,313.94999999983537,9.52757e-06
313.96499999983536,0.002030129,313.96499999983536,0.0009408073,313.96499999983536,5.302416e-05,313.96499999983536,9.772805e-06
313.97999999983534,0.002087652,313.97999999983534,0.0009421378,313.97999999983534,5.351522e-05,313.97999999983534,1.019745e-05
313.99499999983533,0.002081586,313.99499999983533,0.0009568585,313.99499999983533,5.235874e-05,313.99499999983533,1.127217e-05
314.0099999998353,0.002044952,314.0099999998353,0.0009605501,314.0099999998353,5.352943e-05,314.0099999998353,1.129215e-05
314.0249999998353,0.002007284,314.0249999998353,0.0009612583,314.0249999998353,5.343962e-05,314.0249999998353,1.184854e-05
314.0399999998353,0.001950182,314.0399999998353,0.0009190231,314.0399999998353,5.373326e-05,314.0399999998353,1.187348e-05
314.0549999998353,0.001898824,314.0549999998353,0.0008934768,314.0549999998353,4.87971e-05,314.0549999998353,1.155237e-05
314.06999999983526,0.001862872,314.06999999983526,0.0008918848,314.06999999983526,4.765884e-05,314.06999999983526,1.147652e-05
314.08499999983525,0.001740267,314.08499999983525,0.0008931797,314.08499999983525,4.830939e-05,314.08499999983525,1.175065e-05
314.09999999983523,0.00153093,314.09999999983523,0.0009486608,314.09999999983523,5.086331e-05,314.09999999983523,1.153284e-05
314.1149999998352,0.001529313,314.1149999998352,0.0009818168,314.1149999998352,5.213685e-05,314.1149999998352,1.281274e-05
314.1299999998352,0.001615731,314.1299999998352,0.0008620821,314.1299999998352,4.874713e-05,314.1299999998352,1.311482e-05
314.1449999998352,0.001587183,314.1449999998352,0.000847592,314.1449999998352,4.091668e-05,314.1449999998352,1.314486e-05
314.1599999998352,0.001636113,314.1599999998352,0.0007977036,314.1599999998352,4.049204e-05,314.1599999998352,1.225529e-05
314.17499999983517,0.001632924,314.17499999983517,0.0006998144,314.17499999983517,4.025548e-05,314.17499999983517,1.208165e-05
314.18999999983515,0.001631949,314.18999999983515,0.0006610184,314.18999999983515,4.072065e-05,314.18999999983515,1.221615e-05
314.20499999983514,0.001748871,314.20499999983514,0.0006245636,314.20499999983514,4.131854e-05,314.20499999983514,1.183426e-05
314.2199999998351,0.002176475,314.2199999998351,0.000611289,314.2199999998351,7.56302e-05,314.2199999998351,1.233092e-05
314.2349999998351,0.002204129,314.2349999998351,0.0006083941,314.2349999998351,0.0001409191,314.2349999998351,1.198331e-05
314.2499999998351,0.002234539,314.2499999998351,0.0007773121,314.2499999998351,0.0001582765,314.2499999998351,1.19173e-05
314.2649999998351,0.00248427,314.2649999998351,0.0007895293,314.2649999998351,0.0001713557,314.2649999998351,1.20513e-05
314.27999999983507,0.00280018,314.27999999983507,0.0008857333,314.27999999983507,0.0001709028,314.27999999983507,1.18628e-05
314.29499999983506,0.002932166,314.29499999983506,0.0009488174,314.29499999983506,0.0001931997,314.29499999983506,1.21896e-05
314.30999999983504,0.003121983,314.30999999983504,0.0009566947,314.30999999983504,0.0001947929,314.30999999983504,1.216994e-05
314.32499999983503,0.003409515,314.32499999983503,0.0009550336,314.32499999983503,0.0001978816,314.32499999983503,1.234234e-05
314.339999999835,0.003620847,314.339999999835,0.0009177045,314.339999999835,0.000197949,314.339999999835,1.237084e-05
314.354999999835,0.003771498,314.354999999835,0.0008613885,314.354999999835,0.0001984861,314.354999999835,1.168332e-05
314.369999999835,0.003773797,314.369999999835,0.0008237964,314.369999999835,0.000198455,314.369999999835,1.099637e-05
314.384999999835,0.003766444,314.384999999835,0.0008127679,314.384999999835,0.0001987279,314.384999999835,1.089857e-05
314.39999999983496,0.003766648,314.39999999983496,0.0008123831,314.39999999983496,0.0001987784,314.39999999983496,1.081163e-05
314.41499999983495,0.003697397,314.41499999983495,0.0008126637,314.41499999983495,0.0001997069,314.41499999983495,1.068713e-05
314.42999999983493,0.003688785,314.42999999983493,0.0008117881,314.42999999983493,0.000199657,314.42999999983493,1.041612e-05
314.4449999998349,0.003687243,314.4449999998349,0.000808669,314.4449999998349,0.0001996169,314.4449999998349,1.01767e-05
314.4599999998349,0.003548992,314.4599999998349,0.000802721,314.4599999998349,0.0001983999,314.4599999998349,9.716427e-06
314.4749999998349,0.003316672,314.4749999998349,0.0008017268,314.4749999998349,0.0001600441,314.4749999998349,9.09334e-06
314.4899999998349,0.003309831,314.4899999998349,0.0007689865,314.4899999998349,0.0001432897,314.4899999998349,8.207468e-06
314.50499999983487,0.003306615,314.50499999983487,0.0005768162,314.50499999983487,0.000118037,314.50499999983487,7.981227e-06
314.51999999983485,0.003020934,314.51999999983485,0.0005429058,314.51999999983485,0.0001080529,314.51999999983485,7.750201e-06
314.53499999983484,0.002602984,314.53499999983484,0.0003600261,314.53499999983484,6.568098e-05,314.53499999983484,7.275834e-06
314.5499999998348,0.002529576,314.5499999998348,0.0002158398,314.5499999998348,5.808142e-05,314.5499999998348,6.840758e-06
314.5649999998348,0.002413556,314.5649999998348,0.0002009483,314.5649999998348,4.806412e-05,314.5649999998348,6.844875e-06
314.5799999998348,0.002461112,314.5799999998348,0.0001995672,314.5799999998348,3.963482e-05,314.5799999998348,6.749543e-06
314.5949999998348,0.00223826,314.5949999998348,0.0004550644,314.5949999998348,4.385429e-05,314.5949999998348,6.444187e-06
314.60999999983477,0.001992269,314.60999999983477,0.0005336934,314.60999999983477,4.198983e-05,314.60999999983477,6.327271e-06
314.62499999983476,0.001970447,314.62499999983476,0.0006980856,314.62499999983476,4.992069e-05,314.62499999983476,6.257873e-06
314.63999999983474,0.001955441,314.63999999983474,0.0007298667,314.63999999983474,6.202932e-05,314.63999999983474,6.03324e-06
314.65499999983473,0.002090827,314.65499999983473,0.0007302082,314.65499999983473,6.248186e-05,314.65499999983473,6.273611e-06
314.6699999998347,0.002203065,314.6699999998347,0.0007323491,314.6699999998347,6.135779e-05,314.6699999998347,7.057657e-06
314.6849999998347,0.002200254,314.6849999998347,0.0007430448,314.6849999998347,6.571228e-05,314.6849999998347,7.16266e-06
314.6999999998347,0.002200189,314.6999999998347,0.0007508811,314.6999999998347,6.760992e-05,314.6999999998347,7.335607e-06
314.7149999998347,0.00224078,314.7149999998347,0.0007517939,314.7149999998347,6.742715e-05,314.7149999998347,7.497057e-06
314.72999999983466,0.002282811,314.72999999983466,0.0007624344,314.72999999983466,6.724536e-05,314.72999999983466,7.457495e-06
314.74499999983465,0.002305182,314.74499999983465,0.0007647556,314.74499999983465,6.67348e-05,314.74499999983465,7.545752e-06
314.75999999983463,0.002296831,314.75999999983463,0.000784066,314.75999999983463,6.65672e-05,314.75999999983463,7.998858e-06
314.7749999998346,0.002316475,314.7749999998346,0.0008033138,314.7749999998346,6.65437e-05,314.7749999998346,9.298606e-06
314.7899999998346,0.002308268,314.7899999998346,0.0008106308,314.7899999998346,6.658011e-05,314.7899999998346,9.392062e-06
314.8049999998346,0.00211726,314.8049999998346,0.0008114435,314.8049999998346,6.686006e-05,314.8049999998346,9.389061e-06
314.8199999998346,0.001982081,314.8199999998346,0.0008314145,314.8199999998346,6.785554e-05,314.8199999998346,9.552672e-06
314.83499999983457,0.001790264,314.83499999983457,0.0008333692,314.83499999983457,6.61392e-05,314.83499999983457,9.383058e-06
314.84999999983455,0.001777665,314.84999999983455,0.0006745285,314.84999999983455,6.578641e-05,314.84999999983455,9.18275e-06
314.86499999983454,0.001816637,314.86499999983454,0.0006376199,314.86499999983454,6.487585e-05,314.86499999983454,9.263696e-06
314.8799999998345,0.001836294,314.8799999998345,0.000457765,314.8799999998345,5.388797e-05,314.8799999998345,9.339419e-06
314.8949999998345,0.001787772,314.8949999998345,0.0004349949,314.8949999998345,4.175163e-05,314.8949999998345,9.31223e-06
314.9099999998345,0.001572013,314.9099999998345,0.0004344199,314.9099999998345,4.149714e-05,314.9099999998345,9.195013e-06
314.9249999998345,0.001625012,314.9249999998345,0.0004278202,314.9249999998345,3.829869e-05,314.9249999998345,9.007736e-06
314.93999999983447,0.001746896,314.93999999983447,0.0004032648,314.93999999983447,3.245442e-05,314.93999999983447,8.941813e-06
314.95499999983446,0.002141138,314.95499999983446,0.000406946,314.95499999983446,3.174215e-05,314.95499999983446,9.330365e-06
314.96999999983444,0.002447822,314.96999999983444,0.0003971282,314.96999999983444,3.761733e-05,314.96999999983444,9.620266e-06
314.98499999983443,0.002550432,314.98499999983443,0.0003803476,314.98499999983443,8.679851e-05,314.98499999983443,1.012675e-05
314.9999999998344,0.002566146,314.9999999998344,0.0003771398,314.9999999998344,9.451671e-05,314.9999999998344,1.066734e-05
315.0149999998344,0.002569778,315.0149999998344,0.0003418605,315.0149999998344,9.782631e-05,315.0149999998344,1.024156e-05
315.0299999998344,0.002558582,315.0299999998344,0.000310423,315.0299999998344,0.0001072716,315.0299999998344,9.073179e-06
315.0449999998344,0.002613725,315.0449999998344,0.0002984289,315.0449999998344,0.0001304056,315.0449999998344,9.227129e-06
315.05999999983436,0.002791421,315.05999999983436,0.0002958091,315.05999999983436,0.0001315654,315.05999999983436,9.077836e-06
315.07499999983435,0.003007639,315.07499999983435,0.0002352297,315.07499999983435,0.000134795,315.07499999983435,9.246955e-06
315.08999999983433,0.003068723,315.08999999983433,0.000198743,315.08999999983433,0.0001431334,315.08999999983433,9.523133e-06
315.1049999998343,0.003118725,315.1049999998343,0.000210352,315.1049999998343,0.0001465054,315.1049999998343,9.453355e-06
315.1199999998343,0.003299257,315.1199999998343,0.0002108527,315.1199999998343,0.0001468278,315.1199999998343,9.321302e-06
315.1349999998343,0.003390672,315.1349999998343,0.0002141183,315.1349999998343,0.0001479932,315.1349999998343,9.216436e-06
315.1499999998343,0.003406804,315.1499999998343,0.0002159926,315.1499999998343,0.0001489774,315.1499999998343,9.198077e-06
315.16499999983427,0.003389701,315.16499999983427,0.0002170092,315.16499999983427,0.0001492655,315.16499999983427,8.914992e-06
315.17999999983425,0.00332807,315.17999999983425,0.0002160651,315.17999999983425,0.0001493707,315.17999999983425,8.70068e-06
315.19499999983424,0.003261884,315.19499999983424,0.0002015669,315.19499999983424,0.0001491478,315.19499999983424,8.663363e-06
315.2099999998342,0.002987778,315.2099999998342,0.0001888858,315.2099999998342,0.0001492431,315.2099999998342,8.02523e-06
315.2249999998342,0.002630768,315.2249999998342,0.0001833866,315.2249999998342,0.0001434068,315.2249999998342,7.536412e-06
315.2399999998342,0.002562037,315.2399999998342,0.0001518009,315.2399999998342,0.0001239587,315.2399999998342,6.616753e-06
315.2549999998342,0.002558785,315.2549999998342,0.0001495937,315.2549999998342,0.000116621,315.2549999998342,6.269119e-06
315.26999999983417,0.002503417,315.26999999983417,0.0001452585,315.26999999983417,0.0001156754,315.26999999983417,6.351713e-06
315.28499999983416,0.002522886,315.28499999983416,0.0001395489,315.28499999983416,9.969199e-05,315.28499999983416,6.417902e-06
315.29999999983414,0.002458509,315.29999999983414,0.0001404829,315.29999999983414,7.450975e-05,315.29999999983414,6.174023e-06
315.31499999983413,0.002430205,315.31499999983413,0.0001432103,315.31499999983413,7.39343e-05,315.31499999983413,6.389304e-06
315.3299999998341,0.002487066,315.3299999998341,0.0001426278,315.3299999998341,7.232706e-05,315.3299999998341,5.546649e-06
315.3449999998341,0.002498817,315.3449999998341,0.0001183725,315.3449999998341,6.255689e-05,315.3449999998341,5.371176e-06
315.3599999998341,0.002442712,315.3599999998341,0.0001065355,315.3599999998341,5.559384e-05,315.3599999998341,5.657291e-06
315.3749999998341,0.002281583,315.3749999998341,0.0001237256,315.3749999998341,6.431627e-05,315.3749999998341,5.845879e-06
315.38999999983406,0.002183928,315.38999999983406,0.0001226894,315.38999999983406,6.419789e-05,315.38999999983406,5.804769e-06
315.40499999983405,0.002181628,315.40499999983405,0.000228819,315.40499999983405,7.748729e-05,315.40499999983405,5.93674e-06
315.41999999983403,0.002184253,315.41999999983403,0.000239212,315.41999999983403,7.956231e-05,315.41999999983403,6.035575e-06
315.434999999834,0.002198749,315.434999999834,0.0002585362,315.434999999834,8.704986e-05,315.434999999834,6.734918e-06
315.449999999834,0.002204601,315.449999999834,0.000258553,315.449999999834,8.713898e-05,315.449999999834,6.969281e-06
315.464999999834,0.002218323,315.464999999834,0.0002588823,315.464999999834,8.77545e-05,315.464999999834,7.166593e-06
315.479999999834,0.002210891,315.479999999834,0.0002625953,315.479999999834,8.969355e-05,315.479999999834,7.231167e-06
315.49499999983396,0.00219912,315.49499999983396,0.0002635971,315.49499999983396,8.919746e-05,315.49499999983396,7.019631e-06
315.50999999983395,0.002196314,315.50999999983395,0.0002638077,315.50999999983395,8.882429e-05,315.50999999983395,8.655229e-06
315.52499999983394,0.002149243,315.52499999983394,0.0002651839,315.52499999983394,8.889499e-05,315.52499999983394,8.822869e-06
315.5399999998339,0.002041755,315.5399999998339,0.0002667606,315.5399999998339,9.052133e-05,315.5399999998339,8.637307e-06
315.5549999998339,0.001961352,315.5549999998339,0.0002710368,315.5549999998339,9.092349e-05,315.5549999998339,8.932356e-06
315.5699999998339,0.001686348,315.5699999998339,0.0002731344,315.5699999998339,9.112606e-05,315.5699999998339,8.922889e-06
315.5849999998339,0.001324573,315.5849999998339,0.0002727362,315.5849999998339,8.39033e-05,315.5849999998339,9.21338e-06
315.59999999983387,0.001243859,315.59999999983387,0.0002807234,315.59999999983387,8.171121e-05,315.59999999983387,9.236285e-06
315.61499999983386,0.001285088,315.61499999983386,0.0002803059,315.61499999983386,8.047246e-05,315.61499999983386,9.456335e-06
315.62999999983384,0.001272308,315.62999999983384,0.0002677925,315.62999999983384,7.292562e-05,315.62999999983384,9.614407e-06
315.64499999983383,0.001310144,315.64499999983383,0.0002633015,315.64499999983383,6.651681e-05,315.64499999983383,9.803028e-06
315.6599999998338,0.001425595,315.6599999998338,0.0001656298,315.6599999998338,5.162039e-05,315.6599999998338,1.069767e-05
315.6749999998338,0.001713212,315.6749999998338,0.0001631891,315.6749999998338,4.780728e-05,315.6749999998338,1.210843e-05
315.6899999998338,0.002175464,315.6899999998338,0.0001491866,315.6899999998338,4.046037e-05,315.6899999998338,1.251575e-05
315.7049999998338,0.002422214,315.7049999998338,0.0001561791,315.7049999998338,5.089348e-05,315.7049999998338,1.293311e-05
315.71999999983376,0.002394462,315.71999999983376,0.0001580308,315.71999999983376,7.24998e-05,315.71999999983376,1.31545e-05
315.73499999983375,0.002391184,315.73499999983375,0.0001525663,315.73499999983375,0.0001120569,315.73499999983375,1.334797e-05
315.74999999983373,0.002398534,315.74999999983373,0.0001518407,315.74999999983373,0.0001132537,315.74999999983373,1.339012e-05
315.7649999998337,0.002397299,315.7649999998337,0.0001517779,315.7649999998337,0.0001250727,315.7649999998337,1.248532e-05
315.7799999998337,0.002417482,315.7799999998337,0.0001514471,315.7799999998337,0.0001303262,315.7799999998337,1.260211e-05
315.7949999998337,0.002526986,315.7949999998337,0.0001475832,315.7949999998337,0.0001352593,315.7949999998337,1.287197e-05
315.8099999998337,0.002536598,315.8099999998337,0.0001382524,315.8099999998337,0.0001397645,315.8099999998337,1.276979e-05
315.82499999983366,0.002547164,315.82499999983366,0.0001439362,315.82499999983366,0.0001401242,315.82499999983366,1.255844e-05
315.83999999983365,0.002556995,315.83999999983365,0.0001492694,315.83999999983365,0.0001420355,315.83999999983365,1.242651e-05
315.85499999983364,0.002546508,315.85499999983364,0.0001577097,315.85499999983364,0.0001441363,315.85499999983364,1.230805e-05
315.8699999998336,0.002529492,315.8699999998336,0.0001691641,315.8699999998336,0.0001448313,315.8699999998336,1.191375e-05
315.8849999998336,0.002495305,315.8849999998336,0.0001806792,315.8849999998336,0.0001449399,315.8849999998336,1.168091e-05
315.8999999998336,0.002469345,315.8999999998336,0.0001825795,315.8999999998336,0.0001465169,315.8999999998336,1.156821e-05
315.9149999998336,0.002257943,315.9149999998336,0.00018293,315.9149999998336,0.0001493492,315.9149999998336,1.004715e-05
315.92999999983357,0.002017623,315.92999999983357,0.0001676033,315.92999999983357,0.0001577806,315.92999999983357,7.802733e-06
315.94499999983356,0.001620475,315.94499999983356,0.0001653708,315.94499999983356,0.0001569757,315.94499999983356,7.680822e-06
315.95999999983354,0.001495587,315.95999999983354,0.0001583958,315.95999999983354,0.0001570598,315.95999999983354,6.614623e-06
315.9749999998335,0.00155891,315.9749999998335,0.0001566636,315.9749999998335,0.000166326,315.9749999998335,6.007502e-06
315.9899999998335,0.00158541,315.9899999998335,0.0001559809,315.9899999998335,0.0001520983,315.9899999998335,5.872325e-06
316.0049999998335,0.001634217,316.0049999998335,0.0001558507,316.0049999998335,0.0001522174,316.0049999998335,6.316129e-06
316.0199999998335,0.001863065,316.0199999998335,0.0001542254,316.0199999998335,0.0001467418,316.0199999998335,6.997522e-06
316.0349999998335,0.002341755,316.0349999998335,0.0001533485,316.0349999998335,0.0001537766,316.0349999998335,7.27777e-06
316.04999999983346,0.002465334,316.04999999983346,0.0001532791,316.04999999983346,0.000148714,316.04999999983346,7.093493e-06
316.06499999983345,0.002468677,316.06499999983345,0.0001545084,316.06499999983345,0.0001586323,316.06499999983345,7.493299e-06
316.07999999983343,0.002487148,316.07999999983343,0.0001412475,316.07999999983343,0.0001715045,316.07999999983343,7.62745e-06
316.0949999998334,0.002576381,316.0949999998334,0.0001386437,316.0949999998334,0.0001962005,316.0949999998334,8.243432e-06
316.1099999998334,0.002672327,316.1099999998334,0.0001097538,316.1099999998334,0.0001992493,316.1099999998334,8.837226e-06
316.1249999998334,0.002703914,316.1249999998334,0.000115008,316.1249999998334,0.0002090828,316.1249999998334,8.941813e-06
316.1399999998334,0.002799466,316.1399999998334,0.00011857,316.1399999998334,0.0002116936,316.1399999998334,9.496471e-06
316.15499999983336,0.002878987,316.15499999983336,0.0001321438,316.15499999983336,0.0002114777,316.15499999983336,1.045796e-05
316.16999999983335,0.00288231,316.16999999983335,0.0001476827,316.16999999983335,0.0002056786,316.16999999983335,1.063825e-05
316.18499999983334,0.00294443,316.18499999983334,0.0001525329,316.18499999983334,0.0002026105,316.18499999983334,1.069241e-05
316.1999999998333,0.002963242,316.1999999998333,0.0001902708,316.1999999998333,0.0002023524,316.1999999998333,1.093857e-05
316.2149999998333,0.002882964,316.2149999998333,0.0002556606,316.2149999998333,0.0001908966,316.2149999998333,1.120323e-05
316.2299999998333,0.002832963,316.2299999998333,0.0002759994,316.2299999998333,0.0001763651,316.2299999998333,1.147652e-05
316.2449999998333,0.002752355,316.2449999998333,0.0002844262,316.2449999998333,0.0001738138,316.2449999998333,1.143594e-05
316.25999999983327,0.002660603,316.25999999983327,0.0003187501,316.25999999983327,0.000175747,316.25999999983327,1.140511e-05
316.27499999983326,0.002473497,316.27499999983326,0.0003408747,316.27499999983326,0.0001753021,316.27499999983326,1.046604e-05
316.28999999983324,0.002136432,316.28999999983324,0.0003609054,316.28999999983324,0.00016964,316.28999999983324,1.026491e-05
316.3049999998332,0.002055891,316.3049999998332,0.0003615571,316.3049999998332,0.0001669914,316.3049999998332,1.021539e-05
316.3199999998332,0.002066144,316.3199999998332,0.0005802077,316.3199999998332,0.0001518667,316.3199999998332,9.979622e-06
316.3349999998332,0.001987334,316.3349999998332,0.00139215,316.3349999998332,0.000131764,316.3349999998332,9.739596e-06
316.3499999998332,0.002076859,316.3499999998332,0.001706389,316.3499999998332,9.997138e-05,316.3499999998332,9.557095e-06
316.3649999998332,0.00229354,316.3649999998332,0.002067203,316.3649999998332,9.535373e-05,316.3649999998332,9.079387e-06
316.37999999983316,0.002328988,316.37999999983316,0.002384945,316.37999999983316,7.021939e-05,316.37999999983316,9.231709e-06
316.39499999983315,0.002433428,316.39499999983315,0.002704043,316.39499999983315,6.785325e-05,316.39499999983315,9.187351e-06
316.40999999983313,0.002633526,316.40999999983313,0.002991759,316.40999999983313,6.747832e-05,316.40999999983313,8.805288e-06
316.4249999998331,0.002630361,316.4249999998331,0.003220436,316.4249999998331,6.886157e-05,316.4249999998331,8.907087e-06
316.4399999998331,0.002595885,316.4399999998331,0.003253106,316.4399999998331,7.105695e-05,316.4399999998331,9.221021e-06
316.4549999998331,0.002815037,316.4549999998331,0.003421341,316.4549999998331,7.215136e-05,316.4549999998331,9.173541e-06
316.4699999998331,0.002936003,316.4699999998331,0.003599472,316.4699999998331,6.976514e-05,316.4699999998331,9.013988e-06
316.48499999983306,0.003026969,316.48499999983306,0.003655593,316.48499999983306,6.726442e-05,316.48499999983306,8.892842e-06
316.49999999983305,0.003199384,316.49999999983305,0.003693291,316.49999999983305,6.692008e-05,316.49999999983305,8.604628e-06
316.51499999983304,0.003243698,316.51499999983304,0.003728747,316.51499999983304,5.530677e-05,316.51499999983304,8.380704e-06
316.529999999833,0.003224316,316.529999999833,0.003744384,316.529999999833,5.059924e-05,316.529999999833,8.21433e-06
316.544999999833,0.003180854,316.544999999833,0.00374579,316.544999999833,5.032483e-05,316.544999999833,8.287742e-06
316.559999999833,0.003155162,316.559999999833,0.003743193,316.559999999833,4.714084e-05,316.559999999833,8.25709e-06
316.574999999833,0.003155532,316.574999999833,0.003607825,316.574999999833,0.0002021838,316.574999999833,8.150632e-06
316.58999999983297,0.003145716,316.58999999983297,0.003335091,316.58999999983297,0.0002237677,316.58999999983297,8.070739e-06
316.60499999983296,0.002947481,316.60499999983296,0.003110019,316.60499999983296,0.0002692651,316.60499999983296,7.724713e-06
316.61999999983294,0.002720173,316.61999999983294,0.003017347,316.61999999983294,0.0002797801,316.61999999983294,7.483893e-06
316.6349999998329,0.002594298,316.6349999998329,0.00277471,316.6349999998329,0.0003211314,316.6349999998329,7.22142e-06
316.6499999998329,0.002317738,316.6499999998329,0.002483233,316.6499999998329,0.0003496186,316.6499999998329,5.838645e-06
316.6649999998329,0.002171066,316.6649999998329,0.001980357,316.6649999998329,0.0003510785,316.6649999998329,5.677176e-06
316.6799999998329,0.00230616,316.6799999998329,0.001358562,316.6799999998329,0.0003636072,316.6799999998329,5.241091e-06
316.6949999998329,0.002278483,316.6949999998329,0.001328365,316.6949999998329,0.0003681242,316.6949999998329,6.25337e-06
316.70999999983286,0.001784634,316.70999999983286,0.001067601,316.70999999983286,0.0003721458,316.70999999983286,5.862722e-06
316.72499999983285,0.001809017,316.72499999983285,0.0008304322,316.72499999983285,0.0003727578,316.72499999983285,6.526725e-06
316.73999999983283,0.001787095,316.73999999983283,0.0007361893,316.73999999983283,0.0003747555,316.73999999983283,7.043671e-06
316.7549999998328,0.002111356,316.7549999998328,0.0006216297,316.7549999998328,0.0003756209,316.7549999998328,7.708283e-06
316.7699999998328,0.002339169,316.7699999998328,0.0004376326,316.7699999998328,0.0003757348,316.7699999998328,7.903186e-06
316.7849999998328,0.002495568,316.7849999998328,0.0002940579,316.7849999998328,0.0003768751,316.7849999998328,8.62425e-06
316.7999999998328,0.002854098,316.7999999998328,0.0002869582,316.7999999998328,0.0003799169,316.7999999998328,8.771629e-06
316.81499999983276,0.003162514,316.81499999983276,0.0003140672,316.81499999983276,0.0003808083,316.81499999983276,9.179681e-06
316.82999999983275,0.003183435,316.82999999983275,0.000419926,316.82999999983275,0.0003150214,316.82999999983275,9.260655e-06
316.84499999983274,0.003223615,316.84499999983274,0.0004395337,316.84499999983274,0.0002966471,316.84499999983274,9.355996e-06
316.8599999998327,0.003253217,316.8599999998327,0.0004393575,316.8599999998327,0.0002702358,316.8599999998327,9.484596e-06
316.8749999998327,0.003258173,316.8749999998327,0.000427846,316.8749999998327,0.000248194,316.8749999998327,9.780009e-06
316.8899999998327,0.003314048,316.8899999998327,0.0004216868,316.8899999998327,0.0002140433,316.8899999998327,1.001063e-05
316.9049999998327,0.003545488,316.9049999998327,0.0004223808,316.9049999998327,0.0001936522,316.9049999998327,9.981033e-06
316.91999999983267,0.00372635,316.91999999983267,0.0004249832,316.91999999983267,0.0001836852,316.91999999983267,1.016008e-05
316.93499999983266,0.003650021,316.93499999983266,0.000428999,316.93499999983266,0.0001729543,316.93499999983266,1.03714e-05
316.94999999983264,0.003771694,316.94999999983264,0.0004285382,316.94999999983264,0.0001545509,316.94999999983264,9.800154e-06
316.9649999998326,0.003861129,316.9649999998326,0.0004268613,316.9649999998326,0.0001515705,316.9649999998326,9.555621e-06
316.9799999998326,0.003748316,316.9799999998326,0.0004284121,316.9799999998326,0.0001498836,316.9799999998326,9.250001e-06
316.9949999998326,0.003658426,316.9949999998326,0.0004269244,316.9949999998326,0.0001465269,316.9949999998326,8.558665e-06
317.0099999998326,0.003439714,317.0099999998326,0.0004170521,317.0099999998326,0.000145646,317.0099999998326,8.229749e-06
317.0249999998326,0.003388257,317.0249999998326,0.0009586496,317.0249999998326,0.0001448725,317.0249999998326,8.193725e-06
317.03999999983256,0.003276671,317.03999999983256,0.001534576,317.03999999983256,0.0001417172,317.03999999983256,6.993494e-06
317.05499999983255,0.002951459,317.05499999983255,0.002045446,317.05499999983255,0.0001429936,317.05499999983255,6.861319e-06
317.06999999983253,0.002800096,317.06999999983253,0.002360426,317.06999999983253,0.0001467317,317.06999999983253,6.720261e-06
317.0849999998325,0.002863813,317.0849999998325,0.002606163,317.0849999998325,0.0001472679,317.0849999998325,7.033664e-06
317.0999999998325,0.003144413,317.0999999998325,0.002957172,317.0999999998325,0.0001458424,317.0999999998325,9.37104e-06
317.1149999998325,0.003418101,317.1149999998325,0.003224765,317.1149999998325,0.0001455122,317.1149999998325,9.537914e-06
317.1299999998325,0.003543108,317.1299999998325,0.003364335,317.1299999998325,0.0001301043,317.1299999998325,9.474194e-06
317.14499999983246,0.003497682,317.14499999983246,0.003378618,317.14499999983246,0.0001289952,317.14499999983246,9.794402e-06
317.15999999983245,0.003288841,317.15999999983245,0.003395926,317.15999999983245,0.0001057357,317.15999999983245,9.964083e-06
317.17499999983244,0.00315954,317.17499999983244,0.00340039,317.17499999983244,0.0001065057,317.17499999983244,9.500919e-06
317.1899999998324,0.003122475,317.1899999998324,0.003408899,317.1899999998324,0.0001107448,317.1899999998324,9.46378e-06
317.2049999998324,0.003007494,317.2049999998324,0.003413956,317.2049999998324,0.0001099104,317.2049999998324,9.830293e-06
317.2199999998324,0.002911545,317.2199999998324,0.003415009,317.2199999998324,0.0001126188,317.2199999998324,9.706273e-06
317.2349999998324,0.002917971,317.2349999998324,0.003420473,317.2349999998324,0.0001151237,317.2349999998324,9.836022e-06
317.24999999983237,0.002903045,317.24999999983237,0.003421514,317.24999999983237,0.0001155778,317.24999999983237,9.935768e-06
317.26499999983236,0.002925524,317.26499999983236,0.003520469,317.26499999983236,0.0001154079,317.26499999983236,9.964083e-06
317.27999999983234,0.002886712,317.27999999983234,0.00332822,317.27999999983234,0.0001123574,317.27999999983234,9.897414e-06
317.2949999998323,0.002878491,317.2949999998323,0.003151075,317.2949999998323,0.0001057168,317.2949999998323,9.880319e-06
317.3099999998323,0.002853551,317.3099999998323,0.002888641,317.3099999998323,9.943251e-05,317.3099999998323,9.853194e-06
317.3249999998323,0.002637887,317.3249999998323,0.002630258,317.3249999998323,9.344365e-05,317.3249999998323,9.589467e-06
317.3399999998323,0.002527931,317.3399999998323,0.002349278,317.3399999998323,9.257202e-05,317.3399999998323,9.250001e-06
317.3549999998323,0.002149951,317.3549999998323,0.001913886,317.3549999998323,9.314438e-05,317.3549999998323,6.300498e-06
317.36999999983226,0.001692471,317.36999999983226,0.001426418,317.36999999983226,9.197434e-05,317.36999999983226,6.513761e-06
317.38499999983225,0.001585248,317.38499999983225,0.001257432,317.38499999983225,8.790574e-05,317.38499999983225,6.224016e-06
317.39999999983223,0.001528115,317.39999999983223,0.001226881,317.39999999983223,8.27226e-05,317.39999999983223,5.896265e-06
317.4149999998322,0.001357221,317.4149999998322,0.001206699,317.4149999998322,8.218633e-05,317.4149999998322,6.567604e-06
317.4299999998322,0.00181111,317.4299999998322,0.00120275,317.4299999998322,7.573554e-05,317.4299999998322,6.75163e-06
317.4449999998322,0.002116301,317.4449999998322,0.001178293,317.4449999998322,8.172483e-05,317.4449999998322,6.582601e-06
317.4599999998322,0.002271536,317.4599999998322,0.001177551,317.4599999998322,8.125446e-05,317.4599999998322,7.555081e-06
317.47499999983216,0.002557053,317.47499999983216,0.001166569,317.47499999983216,7.71117e-05,317.47499999983216,8.472646e-06
317.48999999983215,0.00276878,317.48999999983215,0.001142591,317.48999999983215,7.590517e-05,317.48999999983215,9.43695e-06
317.50499999983214,0.003049926,317.50499999983214,0.001140667,317.50499999983214,7.617065e-05,317.50499999983214,9.456335e-06
317.5199999998321,0.003217916,317.5199999998321,0.0007605386,317.5199999998321,8.477317e-05,317.5199999998321,9.447393e-06
317.5349999998321,0.003387456,317.5349999998321,0.0004405253,317.5349999998321,8.589552e-05,317.5349999998321,9.521654e-06
317.5499999998321,0.003483125,317.5499999998321,0.0003198469,317.5499999998321,8.745703e-05,317.5499999998321,9.907371e-06
317.5649999998321,0.003489729,317.5649999998321,0.0003950257,317.5649999998321,8.723802e-05,317.5649999998321,1.000218e-05
317.57999999983207,0.003610983,317.57999999983207,0.0003913517,317.57999999983207,8.766568e-05,317.57999999983207,1.0005e-05
317.59499999983205,0.00382852,317.59499999983205,0.0003933859,317.59499999983205,8.787401e-05,317.59499999983205,9.997955e-06
317.60999999983204,0.004071861,317.60999999983204,0.00039187,317.60999999983204,8.67701e-05,317.60999999983204,9.931514e-06
317.624999999832,0.004090976,317.624999999832,0.0003902508,317.624999999832,8.633784e-05,317.624999999832,1.005416e-05
317.639999999832,0.004112806,317.639999999832,0.0003962179,317.639999999832,8.630732e-05,317.639999999832,9.928676e-06
317.654999999832,0.004088336,317.654999999832,0.0003965631,317.654999999832,7.671573e-05,317.654999999832,9.811646e-06
317.669999999832,0.004022249,317.669999999832,0.0003908321,317.669999999832,7.36753e-05,317.669999999832,9.372543e-06
317.684999999832,0.003827102,317.684999999832,0.0003836094,317.684999999832,6.410083e-05,317.684999999832,9.101082e-06
317.69999999983196,0.0036277,317.69999999983196,0.0003841623,317.69999999983196,5.349995e-05,317.69999999983196,9.287995e-06
317.71499999983195,0.003525001,317.71499999983195,0.000364806,317.71499999983195,5.253038e-05,317.71499999983195,7.542018e-06
317.72999999983193,0.003367636,317.72999999983193,0.0003632423,317.72999999983193,5.031363e-05,317.72999999983193,6.597564e-06
317.7449999998319,0.003226566,317.7449999998319,0.0003593618,317.7449999998319,4.988004e-05,317.7449999998319,5.763367e-06
317.7599999998319,0.003022985,317.7599999998319,0.0003483314,317.7599999998319,4.436494e-05,317.7599999998319,5.770695e-06
317.7749999998319,0.002970068,317.7749999998319,0.0003411803,317.7749999998319,3.468108e-05,317.7749999998319,5.867525e-06
317.7899999998319,0.002840054,317.7899999998319,0.0003324966,317.7899999998319,2.887397e-05,317.7899999998319,5.56946e-06
317.80499999983186,0.002871005,317.80499999983186,0.0002509939,317.80499999983186,3.058359e-05,317.80499999983186,5.299891e-06
317.81999999983185,0.002973631,317.81999999983185,0.0001323183,317.81999999983185,3.270606e-05,317.81999999983185,5.363302e-06
317.83499999983184,0.00309074,317.83499999983184,0.0001537235,317.83499999983184,3.172972e-05,317.83499999983184,5.682137e-06
317.8499999998318,0.003079004,317.8499999998318,0.0001566831,317.8499999998318,3.025293e-05,317.8499999998318,6.999535e-06
317.8649999998318,0.003055835,317.8649999998318,0.0001562905,317.8649999998318,2.94201e-05,317.8649999998318,7.135074e-06
317.8799999998318,0.003068068,317.8799999998318,0.000145761,317.8799999998318,3.224847e-05,317.8799999998318,7.616361e-06
317.8949999998318,0.003084939,317.8949999998318,0.0001407476,317.8949999998318,3.442588e-05,317.8949999998318,7.699141e-06
317.90999999983177,0.003089915,317.90999999983177,0.0001492469,317.90999999983177,3.50588e-05,317.90999999983177,7.96002e-06
317.92499999983175,0.003059548,317.92499999983175,0.0001503899,317.92499999983175,3.534412e-05,317.92499999983175,7.979462e-06
317.93999999983174,0.003000314,317.93999999983174,0.000152026,317.93999999983174,3.791201e-05,317.93999999983174,7.940529e-06
317.9549999998317,0.002996638,317.9549999998317,0.0001482128,317.9549999998317,3.821659e-05,317.9549999998317,7.755652e-06
317.9699999998317,0.002988187,317.9699999998317,0.0002428964,317.9699999998317,3.798254e-05,317.9699999998317,7.724713e-06
317.9849999998317,0.002991121,317.9849999998317,0.0003336409,317.9849999998317,3.801776e-05,317.9849999998317,7.528932e-06
317.9999999998317,0.002958847,317.9999999998317,0.0004066051,317.9999999998317,3.777055e-05,317.9999999998317,7.528932e-06
318.0149999998317,0.00293115,318.0149999998317,0.000427482,318.0149999998317,3.80248e-05,318.0149999998317,7.434793e-06
318.02999999983166,0.002785603,318.02999999983166,0.0004278762,318.02999999983166,3.536644e-05,318.02999999983166,7.41962e-06
318.04499999983165,0.002726569,318.04499999983165,0.0004299846,318.04499999983165,3.396905e-05,318.04499999983165,7.262268e-06
318.05999999983163,0.002565379,318.05999999983163,0.0004316267,318.05999999983163,2.782199e-05,318.05999999983163,7.186222e-06
318.0749999998316,0.002452447,318.0749999998316,0.0004275626,318.0749999998316,2.759117e-05,318.0749999998316,7.00959e-06
318.0899999998316,0.00223282,318.0899999998316,0.0004218109,318.0899999998316,2.913961e-05,318.0899999998316,6.811867e-06
318.1049999998316,0.001828679,318.1049999998316,0.0004210017,318.1049999998316,2.96091e-05,318.1049999998316,5.469929e-06
318.1199999998316,0.001866199,318.1199999998316,0.0004199051,318.1199999998316,3.0602e-05,318.1199999998316,5.113207e-06
318.13499999983156,0.001938198,318.13499999983156,0.0004197787,318.13499999983156,2.969461e-05,318.13499999983156,4.675739e-06
318.14999999983155,0.001916343,318.14999999983155,0.0004180078,318.14999999983155,2.767833e-05,318.14999999983155,4.602866e-06
318.16499999983154,0.001920356,318.16499999983154,0.0004162853,318.16499999983154,4.016405e-05,318.16499999983154,4.15914e-06
318.1799999998315,0.00209632,318.1799999998315,0.0004168001,318.1799999998315,4.391047e-05,318.1799999998315,4.118297e-06
318.1949999998315,0.002180774,318.1949999998315,0.00041632,318.1949999998315,5.272497e-05,318.1949999998315,4.39624e-06
318.2099999998315,0.002219743,318.2099999998315,0.0004163313,318.2099999998315,5.697412e-05,318.2099999998315,4.456705e-06
318.2249999998315,0.002503721,318.2249999998315,0.0003066841,318.2249999998315,5.731333e-05,318.2249999998315,7.097463e-06
318.23999999983147,0.002918516,318.23999999983147,0.0002705807,318.23999999983147,6.076583e-05,318.23999999983147,8.830848e-06
318.25499999983145,0.003243771,318.25499999983145,0.0001654757,318.25499999983145,6.500426e-05,318.25499999983145,9.06075e-06
318.26999999983144,0.003415335,318.26999999983144,0.0001462677,318.26999999983144,7.338046e-05,318.26999999983144,1.022779e-05
318.2849999998314,0.003475622,318.2849999998314,0.0001474811,318.2849999998314,7.575135e-05,318.2849999998314,1.03714e-05
318.2999999998314,0.003648152,318.2999999998314,0.0001425608,318.2999999998314,7.575656e-05,318.2999999998314,1.068054e-05
318.3149999998314,0.003758722,318.3149999998314,0.0001394829,318.3149999998314,7.624089e-05,318.3149999998314,1.08714e-05
318.3299999998314,0.003738511,318.3299999998314,0.0001381231,318.3299999998314,7.58047e-05,318.3299999998314,1.103345e-05
318.3449999998314,0.003784138,318.3449999998314,0.0001399061,318.3449999998314,7.680382e-05,318.3449999998314,1.115787e-05
318.35999999983136,0.003926879,318.35999999983136,0.00014139,318.35999999983136,7.64258e-05,318.35999999983136,1.136055e-05
318.37499999983135,0.003942766,318.37499999983135,0.0001421527,318.37499999983135,7.575321e-05,318.37499999983135,1.141992e-05
318.38999999983133,0.004077757,318.38999999983133,0.0001453713,318.38999999983133,7.532972e-05,318.38999999983133,1.172184e-05
318.4049999998313,0.004137701,318.4049999998313,0.0001468038,318.4049999998313,7.507347e-05,318.4049999998313,1.176981e-05
318.4199999998313,0.004169286,318.4199999998313,0.0001480834,318.4199999998313,6.589467e-05,318.4199999998313,1.192793e-05
318.4349999998313,0.004184776,318.4349999998313,0.0001466041,318.4349999998313,6.403289e-05,318.4349999998313,1.205013e-05
318.4499999998313,0.004202636,318.4499999998313,0.000145216,318.4499999998313,5.626331e-05,318.4499999998313,1.204194e-05
318.46499999983126,0.004202772,318.46499999983126,0.0001443063,318.46499999983126,5.390574e-05,318.46499999983126,1.214329e-05
318.47999999983125,0.004125128,318.47999999983125,0.0001233735,318.47999999983125,5.293695e-05,318.47999999983125,1.044853e-05
318.49499999983124,0.003998812,318.49499999983124,0.0001176657,318.49499999983124,4.760353e-05,318.49499999983124,9.627584e-06
318.5099999998312,0.003881476,318.5099999998312,0.0001111801,318.5099999998312,3.873755e-05,318.5099999998312,9.611476e-06
318.5249999998312,0.003929091,318.5249999998312,9.769086e-05,318.5249999998312,2.562987e-05,318.5249999998312,8.830848e-06
318.5399999998312,0.00384266,318.5399999998312,9.454875e-05,318.5399999998312,2.094554e-05,318.5399999998312,8.490915e-06
318.5549999998312,0.003697982,318.5549999998312,9.61508e-05,318.5549999998312,2.065978e-05,318.5549999998312,8.515764e-06
318.56999999983117,0.003621281,318.56999999983117,9.05011e-05,318.56999999983117,2.028616e-05,318.56999999983117,8.432649e-06
318.58499999983115,0.00355656,318.58499999983115,8.720717e-05,318.58499999983115,1.861689e-05,318.58499999983115,8.517419e-06
318.59999999983114,0.003594574,318.59999999983114,8.603678e-05,318.59999999983114,1.484588e-05,318.59999999983114,8.414254e-06
318.6149999998311,0.003545951,318.6149999998311,8.432048e-05,318.6149999998311,1.860933e-05,318.6149999998311,8.262207e-06
318.6299999998311,0.003469746,318.6299999998311,8.325238e-05,318.6299999998311,8.158544e-05,318.6299999998311,8.121197e-06
318.6449999998311,0.003436692,318.6449999998311,8.159787e-05,318.6449999998311,9.028401e-05,318.6449999998311,8.367247e-06
318.6599999998311,0.003341784,318.6599999998311,7.47864e-05,318.6599999998311,0.0001043632,318.6599999998311,8.459336e-06
318.6749999998311,0.003366623,318.6749999998311,8.313978e-05,318.6749999998311,0.0001088638,318.6749999998311,8.275836e-06
318.68999999983106,0.003295517,318.68999999983106,8.109099e-05,318.68999999983106,0.0001090906,318.68999999983106,8.425965e-06
318.70499999983105,0.003466702,318.70499999983105,0.0001049517,318.70499999983105,0.0001108951,318.70499999983105,9.500919e-06
318.71999999983103,0.003688706,318.71999999983103,0.0001061264,318.71999999983103,0.0001153918,318.71999999983103,9.650967e-06
318.734999999831,0.003762515,318.734999999831,0.0001282419,318.734999999831,0.0001184218,318.734999999831,9.442919e-06
318.749999999831,0.003761986,318.749999999831,0.0001351221,318.749999999831,0.0001248373,318.749999999831,9.886021e-06
318.764999999831,0.003862706,318.764999999831,0.0001354225,318.764999999831,0.0001256683,318.764999999831,1.004995e-05
318.779999999831,0.003868156,318.779999999831,0.0001370642,318.779999999831,0.0001255876,318.779999999831,1.029916e-05
318.79499999983096,0.003922465,318.79499999983096,0.0001371559,318.79499999983096,0.000126144,318.79499999983096,1.044044e-05
318.80999999983095,0.003921391,318.80999999983095,0.0001365146,318.80999999983095,0.000126794,318.80999999983095,1.06197e-05
318.82499999983094,0.003869739,318.82499999983094,0.0001377129,318.82499999983094,0.000126827,318.82499999983094,1.052777e-05
318.8399999998309,0.0038526,318.8399999998309,0.0001369685,318.8399999998309,0.0001269049,318.8399999998309,1.04053e-05
318.8549999998309,0.003846956,318.8549999998309,0.0001366489,318.8549999998309,0.0001269794,318.8549999998309,1.05184e-05
318.8699999998309,0.003825464,318.8699999998309,0.0001358892,318.8699999998309,0.0001262718,318.8699999998309,1.052108e-05
318.8849999998309,0.003889006,318.8849999998309,0.0001354997,318.8849999998309,9.164184e-05,318.8849999998309,1.034147e-05
318.89999999983087,0.004021128,318.89999999983087,0.0001357111,318.89999999983087,8.477982e-05,318.89999999983087,1.010726e-05
318.91499999983085,0.004060376,318.91499999983085,0.000133984,318.91499999983085,6.935607e-05,318.91499999983085,9.985267e-06
318.92999999983084,0.004128501,318.92999999983084,0.0001314991,318.92999999983084,6.608039e-05,318.92999999983084,9.866052e-06
318.9449999998308,0.004171162,318.9449999998308,0.0001259212,318.9449999998308,6.515016e-05,318.9449999998308,9.348464e-06
318.9599999998308,0.004145917,318.9599999998308,0.0001101829,318.9599999998308,6.352113e-05,318.9599999998308,8.661737e-06
318.9749999998308,0.004170782,318.9749999998308,0.0001041819,318.9749999998308,7.469273e-05,318.9749999998308,8.309809e-06
318.9899999998308,0.004189439,318.9899999998308,7.946665e-05,318.9899999998308,7.799266e-05,318.9899999998308,8.297934e-06
319.0049999998308,0.004248069,319.0049999998308,6.861114e-05,319.0049999998308,7.844523e-05,319.0049999998308,7.506446e-06
319.01999999983076,0.004197835,319.01999999983076,6.873564e-05,319.01999999983076,7.749111e-05,319.01999999983076,6.80773e-06
319.03499999983075,0.004216368,319.03499999983075,6.482893e-05,319.03499999983075,7.783989e-05,319.03499999983075,6.64861e-06
319.04999999983073,0.004170881,319.04999999983073,6.421172e-05,319.04999999983073,8.207588e-05,319.04999999983073,6.021555e-06
319.0649999998307,0.004098612,319.0649999998307,6.267253e-05,319.0649999998307,8.868812e-05,319.0649999998307,6.06584e-06
319.0799999998307,0.004144575,319.0799999998307,6.179976e-05,319.0799999998307,9.71212e-05,319.0799999998307,5.988714e-06
319.0949999998307,0.004198503,319.0949999998307,6.138465e-05,319.0949999998307,0.0001030767,319.0949999998307,5.946224e-06
319.1099999998307,0.004199392,319.1099999998307,6.126704e-05,319.1099999998307,0.0001090085,319.1099999998307,5.719203e-06
319.12499999983066,0.004332905,319.12499999983066,6.057846e-05,319.12499999983066,0.0001108405,319.12499999983066,5.719203e-06
319.13999999983065,0.004345375,319.13999999983065,6.11628e-05,319.13999999983065,0.0001110641,319.13999999983065,5.619817e-06
319.15499999983064,0.004266988,319.15499999983064,6.028756e-05,319.15499999983064,0.0001124005,319.15499999983064,5.609782e-06
319.1699999998306,0.00425251,319.1699999998306,5.963728e-05,319.1699999998306,0.0001125939,319.1699999998306,6.132817e-06
319.1849999998306,0.004100187,319.1849999998306,6.026536e-05,319.1849999998306,0.0001126115,319.1849999998306,6.089019e-06
319.1999999998306,0.003920333,319.1999999998306,5.993746e-05,319.1999999998306,0.0001127755,319.1999999998306,5.981653e-06
319.2149999998306,0.00378708,319.2149999998306,5.920464e-05,319.2149999998306,0.0001145108,319.2149999998306,6.239839e-06
319.22999999983057,0.003784066,319.22999999983057,5.799477e-05,319.22999999983057,0.000102849,319.22999999983057,6.415707e-06
319.24499999983055,0.003697617,319.24499999983055,5.598168e-05,319.24499999983055,9.910342e-05,319.24499999983055,6.533196e-06
319.25999999983054,0.003692316,319.25999999983054,5.750349e-05,319.25999999983054,9.705969e-05,319.25999999983054,6.922637e-06
319.2749999998305,0.003636167,319.2749999998305,5.671815e-05,319.2749999998305,9.7277e-05,319.2749999998305,7.057657e-06
319.2899999998305,0.003660779,319.2899999998305,5.76432e-05,319.2899999998305,9.711975e-05,319.2899999998305,6.99148e-06
319.3049999998305,0.003608417,319.3049999998305,5.918965e-05,319.3049999998305,9.486052e-05,319.3049999998305,7.201887e-06
319.3199999998305,0.003667071,319.3199999998305,5.983443e-05,319.3199999998305,8.109916e-05,319.3199999998305,7.213613e-06
319.3349999998305,0.003742603,319.3349999998305,5.918061e-05,319.3349999998305,7.767522e-05,319.3349999998305,7.474476e-06
319.34999999983046,0.003746177,319.34999999983046,5.66207e-05,319.34999999983046,6.991097e-05,319.34999999983046,7.459384e-06
319.36499999983045,0.003843247,319.36499999983045,5.72393e-05,319.36499999983045,6.133346e-05,319.36499999983045,7.822567e-06
319.37999999983043,0.003849925,319.37999999983043,5.682856e-05,319.37999999983043,5.983984e-05,319.37999999983043,7.851327e-06
319.3949999998304,0.003737738,319.3949999998304,5.538847e-05,319.3949999998304,6.041267e-05,319.3949999998304,7.949394e-06
319.4099999998304,0.003724441,319.4099999998304,5.518974e-05,319.4099999998304,5.909795e-05,319.4099999998304,7.997096e-06
319.4249999998304,0.003701312,319.4249999998304,5.577446e-05,319.4249999998304,7.762097e-05,319.4249999998304,7.770169e-06
319.4399999998304,0.003610439,319.4399999998304,6.239478e-05,319.4399999998304,8.981409e-05,319.4399999998304,7.95825e-06
319.45499999983036,0.003585645,319.45499999983036,6.915124e-05,319.45499999983036,9.27388e-05,319.45499999983036,8.390783e-06
319.46999999983035,0.00348474,319.46999999983035,7.427988e-05,319.46999999983035,9.191949e-05,319.46999999983035,8.533942e-06
319.48499999983034,0.003376535,319.48499999983034,7.458156e-05,319.48499999983034,0.0001346465,319.48499999983034,8.708772e-06
319.4999999998303,0.00327452,319.4999999998303,7.484665e-05,319.4999999998303,0.0001464452,319.4999999998303,8.830848e-06
319.5149999998303,0.003231908,319.5149999998303,7.563913e-05,319.5149999998303,0.0001476894,319.5149999998303,9.360511e-06
319.5299999998303,0.003109474,319.5299999998303,7.549411e-05,319.5299999998303,0.0001488639,319.5299999998303,9.365025e-06
319.5449999998303,0.003031651,319.5449999998303,7.36556e-05,319.5449999998303,0.0001489585,319.5449999998303,9.384559e-06
319.55999999983027,0.002892477,319.55999999983027,7.073965e-05,319.55999999983027,0.0001485651,319.55999999983027,9.576237e-06
319.57499999983025,0.002820442,319.57499999983025,7.134619e-05,319.57499999983025,0.0001483649,319.57499999983025,9.416029e-06
319.58999999983024,0.002713911,319.58999999983024,7.407345e-05,319.58999999983024,0.0001482064,319.58999999983024,9.529049e-06
319.6049999998302,0.002626558,319.6049999998302,7.45313e-05,319.6049999998302,0.0001482023,319.6049999998302,9.355996e-06
319.6199999998302,0.002645059,319.6199999998302,0.0001135793,319.6199999998302,0.0001480605,319.6199999998302,9.248478e-06
319.6349999998302,0.002686857,319.6349999998302,0.0001357092,319.6349999998302,0.0001476639,319.6349999998302,9.1289e-06
319.6499999998302,0.002770011,319.6499999998302,0.0001364015,319.6499999998302,0.0001473381,319.6499999998302,9.497953e-06
319.6649999998302,0.002707703,319.6649999998302,0.0001399602,319.6649999998302,0.0001429725,319.6649999998302,9.642205e-06
319.67999999983016,0.002626922,319.67999999983016,0.0001423284,319.67999999983016,0.0001369499,319.67999999983016,9.658262e-06
319.69499999983015,0.002735169,319.69499999983015,0.000144035,319.69499999983015,0.0001286992,319.69499999983015,9.876042e-06
319.70999999983013,0.002775611,319.70999999983013,0.000144068,319.70999999983013,0.0001272034,319.70999999983013,9.462292e-06
319.7249999998301,0.002805328,319.7249999998301,0.0001539985,319.7249999998301,0.0001174133,319.7249999998301,9.456335e-06
319.7399999998301,0.002756198,319.7399999998301,0.0001644499,319.7399999998301,5.445124e-05,319.7399999998301,9.445902e-06
319.7549999998301,0.00283476,319.7549999998301,0.0001825881,319.7549999998301,3.657881e-05,319.7549999998301,9.191949e-06
319.7699999998301,0.00283317,319.7699999998301,0.0002905078,319.7699999998301,2.477525e-05,319.7699999998301,8.578393e-06
319.78499999983006,0.002899257,319.78499999983006,0.0003298307,319.78499999983006,1.811606e-05,319.78499999983006,8.494233e-06
319.79999999983005,0.003085961,319.79999999983005,0.000342418,319.79999999983005,1.72485e-05,319.79999999983005,9.243908e-06
319.81499999983004,0.003078496,319.81499999983004,0.0003439364,319.81499999983004,1.605485e-05,319.81499999983004,9.0374e-06
319.82999999983,0.003076428,319.82999999983,0.0003487144,319.82999999983,1.73649e-05,319.82999999983,9.05764e-06
319.84499999983,0.003018103,319.84499999983,0.0003550693,319.84499999983,1.733242e-05,319.84499999983,9.153557e-06
319.85999999983,0.003064668,319.85999999983,0.00035933,319.85999999983,1.858357e-05,319.85999999983,1.168814e-05
319.87499999983,0.002825114,319.87499999983,0.0003416305,319.87499999983,1.83632e-05,319.87499999983,1.206648e-05
319.88999999982997,0.002512073,319.88999999982997,0.0003367465,319.88999999982997,1.893277e-05,319.88999999982997,1.224034e-05
319.90499999982995,0.002386436,319.90499999982995,0.0003426509,319.90499999982995,1.994159e-05,319.90499999982995,1.266011e-05
319.91999999982994,0.002340209,319.91999999982994,0.0003477941,319.91999999982994,1.995148e-05,319.91999999982994,1.270454e-05
319.9349999998299,0.002321215,319.9349999998299,0.000348527,319.9349999998299,2.019918e-05,319.9349999998299,1.330463e-05
319.9499999998299,0.002262297,319.9499999998299,0.0003462447,319.9499999998299,2.248679e-05,319.9499999998299,1.342479e-05
319.9649999998299,0.002159893,319.9649999998299,0.0003457635,319.9649999998299,2.223036e-05,319.9649999998299,1.345205e-05
319.9799999998299,0.002230207,319.9799999998299,0.0003399146,319.9799999998299,2.215292e-05,319.9799999998299,1.369592e-05
319.9949999998299,0.002595061,319.9949999998299,0.0003373452,319.9949999998299,3.748529e-05,319.9949999998299,1.388185e-05
320.00999999982986,0.002569146,320.00999999982986,0.0002607339,320.00999999982986,3.915999e-05,320.00999999982986,1.391631e-05
320.02499999982984,0.002521498,320.02499999982984,0.0002200303,320.02499999982984,4.611824e-05,320.02499999982984,1.397591e-05
320.03999999982983,0.00258279,320.03999999982983,0.0001708305,320.03999999982983,4.852556e-05,320.03999999982983,1.528534e-05
320.0549999998298,0.002434846,320.0549999998298,0.0001511178,320.0549999998298,4.831143e-05,320.0549999998298,1.506348e-05
320.0699999998298,0.002428078,320.0699999998298,0.0001487535,320.0699999998298,4.887671e-05,320.0699999998298,1.497343e-05
320.0849999998298,0.002421036,320.0849999998298,0.0001336465,320.0849999998298,5.00095e-05,320.0849999998298,1.481073e-05
320.0999999998298,0.002402256,320.0999999998298,0.0001140577,320.0999999998298,5.04403e-05,320.0999999998298,1.496214e-05
320.11499999982976,0.002375669,320.11499999982976,9.511766e-05,320.11499999982976,5.027946e-05,320.11499999982976,1.3103e-05
320.12999999982975,0.002391525,320.12999999982975,8.743238e-05,320.12999999982975,5.046906e-05,320.12999999982975,1.279844e-05
320.14499999982974,0.002393703,320.14499999982974,8.391152e-05,320.14499999982974,5.137119e-05,320.14499999982974,1.304265e-05
320.1599999998297,0.002400665,320.1599999998297,7.357581e-05,320.1599999998297,5.18445e-05,320.1599999998297,1.233092e-05
320.1749999998297,0.002511994,320.1749999998297,6.086312e-05,320.1749999998297,5.201891e-05,320.1749999998297,1.241517e-05
320.1899999998297,0.002695389,320.1899999998297,5.902163e-05,320.1899999998297,5.214765e-05,320.1899999998297,1.144825e-05
320.2049999998297,0.002727069,320.2049999998297,5.772428e-05,320.2049999998297,5.170247e-05,320.2049999998297,1.179133e-05
320.21999999982967,0.002753724,320.21999999982967,5.650141e-05,320.21999999982967,5.19837e-05,320.21999999982967,1.188297e-05
320.23499999982965,0.002638075,320.23499999982965,5.371779e-05,320.23499999982965,5.274207e-05,320.23499999982965,1.227597e-05
320.24999999982964,0.002369647,320.24999999982964,5.343093e-05,320.24999999982964,4.491622e-05,320.24999999982964,1.217804e-05
320.2649999998296,0.002325665,320.2649999998296,5.203516e-05,320.2649999998296,4.32211e-05,320.2649999998296,1.213981e-05
320.2799999998296,0.002242435,320.2799999998296,4.935881e-05,320.2799999998296,3.92473e-05,320.2799999998296,1.183069e-05
320.2949999998296,0.0020638,320.2949999998296,4.902779e-05,320.2949999998296,4.41686e-05,320.2949999998296,1.113512e-05
320.3099999998296,0.002002548,320.3099999998296,4.865776e-05,320.3099999998296,4.572375e-05,320.3099999998296,1.116418e-05
320.3249999998296,0.002003801,320.3249999998296,4.765825e-05,320.3249999998296,4.705979e-05,320.3249999998296,1.188534e-05
320.33999999982956,0.002008745,320.33999999982956,4.501647e-05,320.33999999982956,4.788677e-05,320.33999999982956,1.27134e-05
320.35499999982954,0.002010154,320.35499999982954,4.467313e-05,320.35499999982954,5.443286e-05,320.35499999982954,1.313521e-05
320.36999999982953,0.001977135,320.36999999982953,4.380158e-05,320.36999999982953,6.223111e-05,320.36999999982953,1.350535e-05
320.3849999998295,0.002027616,320.3849999998295,4.295924e-05,320.3849999998295,7.073845e-05,320.3849999998295,1.385341e-05
320.3999999998295,0.002138591,320.3999999998295,3.722206e-05,320.3999999998295,8.03337e-05,320.3999999998295,1.371031e-05
320.4149999998295,0.002190654,320.4149999998295,3.012508e-05,320.4149999998295,8.720669e-05,320.4149999998295,1.442137e-05
320.4299999998295,0.002050725,320.4299999998295,2.875616e-05,320.4299999998295,9.097274e-05,320.4299999998295,1.611003e-05
320.44499999982946,0.001821077,320.44499999982946,2.077944e-05,320.44499999982946,9.605406e-05,320.44499999982946,1.961324e-05
320.45999999982945,0.001748278,320.45999999982945,1.467985e-05,320.45999999982945,0.0001024111,320.45999999982945,2.116565e-05
320.47499999982944,0.00172481,320.47499999982944,1.480312e-05,320.47499999982944,0.0001299859,320.47499999982944,2.14473e-05
320.4899999998294,0.001622456,320.4899999998294,1.443991e-05,320.4899999998294,0.0001432552,320.4899999998294,2.227088e-05
320.5049999998294,0.001520476,320.5049999998294,1.258422e-05,320.5049999998294,0.0001470019,320.5049999998294,2.507254e-05
320.5199999998294,0.001512922,320.5199999998294,1.270232e-05,320.5199999998294,0.0001539865,320.5199999998294,2.874097e-05
320.5349999998294,0.001557709,320.5349999998294,1.280944e-05,320.5349999998294,0.0001616191,320.5349999998294,2.90922e-05
320.54999999982937,0.001634903,320.54999999982937,1.292221e-05,320.54999999982937,0.000166169,320.54999999982937,2.949756e-05
320.56499999982935,0.001639721,320.56499999982935,1.29614e-05,320.56499999982935,0.000170013,320.56499999982935,3.003423e-05
320.57999999982934,0.001643284,320.57999999982934,1.301238e-05,320.57999999982934,0.0001746396,320.57999999982934,3.022778e-05
320.5949999998293,0.001620598,320.5949999998293,1.348029e-05,320.5949999998293,0.0001753544,320.5949999998293,3.015359e-05
320.6099999998293,0.001582808,320.6099999998293,1.362063e-05,320.6099999998293,0.000172483,320.6099999998293,2.975291e-05
320.6249999998293,0.00157854,320.6249999998293,1.311589e-05,320.6249999998293,0.0001686183,320.6249999998293,2.979454e-05
320.6399999998293,0.001480694,320.6399999998293,1.311267e-05,320.6399999998293,0.0001679311,320.6399999998293,2.976474e-05
320.6549999998293,0.001340138,320.6549999998293,1.316199e-05,320.6549999998293,0.0001631782,320.6549999998293,2.966946e-05
320.66999999982926,0.001264624,320.66999999982926,1.303509e-05,320.66999999982926,0.0001597201,320.66999999982926,2.906168e-05
320.68499999982924,0.001267857,320.68499999982924,1.30707e-05,320.68499999982924,0.000157724,320.68499999982924,2.763504e-05
320.69999999982923,0.001164017,320.69999999982923,1.310085e-05,320.69999999982923,0.0001548409,320.69999999982923,2.607882e-05
320.7149999998292,0.001138883,320.7149999998292,1.240836e-05,320.7149999998292,0.0001466293,320.7149999998292,2.480366e-05
320.7299999998292,0.001162892,320.7299999998292,1.187348e-05,320.7299999998292,0.0001284352,320.7299999998292,2.422385e-05
320.7449999998292,0.00115115,320.7449999998292,1.145194e-05,320.7449999998292,0.0001114499,320.7449999998292,2.269319e-05
320.7599999998292,0.001139718,320.7599999998292,1.130213e-05,320.7599999998292,0.0001012704,320.7599999998292,1.974281e-05
320.77499999982916,0.001119444,320.77499999982916,1.082335e-05,320.77499999982916,8.930494e-05,320.77499999982916,1.477169e-05
320.78999999982915,0.001029737,320.78999999982915,9.863196e-06,320.78999999982915,8.163083e-05,320.78999999982915,1.350952e-05
320.80499999982914,0.0009827688,320.80499999982914,9.957012e-06,320.80499999982914,6.714578e-05,320.80499999982914,1.339433e-05
320.8199999998291,0.0009660314,320.8199999998291,9.927257e-06,320.8199999998291,4.718355e-05,320.8199999998291,1.078684e-05
320.8349999998291,0.0009544133,320.8349999998291,9.94852e-06,320.8349999998291,3.816938e-05,320.8349999998291,1.047277e-05
320.8499999998291,0.0009383194,320.8499999998291,8.800488e-06,320.8499999998291,3.353878e-05,320.8499999998291,1.004575e-05
320.8649999998291,0.0008707934,320.8649999998291,8.798887e-06,320.8649999998291,3.102034e-05,320.8649999998291,1.018362e-05
320.87999999982907,0.0007955473,320.87999999982907,8.952834e-06,320.87999999982907,3.018581e-05,320.87999999982907,9.596809e-06
320.89499999982905,0.0007611683,320.89499999982905,9.374045e-06,320.89499999982905,3.024269e-05,320.89499999982905,9.697562e-06
320.90999999982904,0.0007572044,320.90999999982904,9.480139e-06,320.90999999982904,3.023058e-05,320.90999999982904,9.387561e-06
320.924999999829,0.0007523578,320.924999999829,9.539391e-06,320.924999999829,2.96324e-05,320.924999999829,9.607078e-06
320.939999999829,0.0007317265,320.939999999829,9.006171e-06,320.939999999829,2.790642e-05,320.939999999829,9.536437e-06
320.954999999829,0.0007012914,320.954999999829,9.178147e-06,320.954999999829,2.408973e-05,320.954999999829,9.310717e-06
320.969999999829,0.000650472,320.969999999829,8.990517e-06,320.969999999829,1.938786e-05,320.969999999829,8.673113e-06
320.984999999829,0.0005580541,320.984999999829,9.0374e-06,320.984999999829,1.682516e-05,320.984999999829,8.742674e-06
320.99999999982896,0.000398354,320.99999999982896,8.932356e-06,320.99999999982896,1.485158e-05,320.99999999982896,8.913411e-06
321.01499999982894,0.0003067261,321.01499999982894,8.933933e-06,321.01499999982894,1.469807e-05,321.01499999982894,8.821272e-06
321.02999999982893,0.0003082043,321.02999999982893,8.609537e-06,321.02999999982893,1.467313e-05,321.02999999982893,8.311504e-06
321.0449999998289,0.000376157,321.0449999998289,8.414254e-06,321.0449999998289,1.476024e-05,321.0449999998289,8.002378e-06
321.0599999998289,0.0005174233,321.0599999998289,8.197163e-06,321.0599999998289,1.341954e-05,321.0599999998289,8.08469e-06
321.0749999998289,0.000555395,321.0749999998289,7.699141e-06,321.0749999998289,1.233207e-05,321.0749999998289,7.831566e-06
321.0899999998289,0.000851893,321.0899999998289,7.465047e-06,321.0899999998289,1.1705e-05,321.0899999998289,8.122932e-06
321.10499999982886,0.001033005,321.10499999982886,7.764728e-06,321.10499999982886,1.23697e-05,321.10499999982886,8.363879e-06
321.11999999982885,0.001038914,321.11999999982885,7.984756e-06,321.11999999982885,1.281384e-05,321.11999999982885,8.048017e-06
321.13499999982884,0.001043816,321.13499999982884,7.656943e-06,321.13499999982884,1.274992e-05,321.13499999982884,7.935205e-06
321.1499999998288,0.001048832,321.1499999998288,7.631143e-06,321.1499999998288,1.273997e-05,321.1499999998288,7.849532e-06
321.1649999998288,0.001044739,321.1649999998288,7.601551e-06,321.1649999998288,1.302969e-05,321.1649999998288,7.883556e-06
321.1799999998288,0.001044946,321.1799999998288,7.840554e-06,321.1799999998288,1.39072e-05,321.1799999998288,7.673483e-06
321.1949999998288,0.001051395,321.1949999998288,7.862084e-06,321.1949999998288,1.453617e-05,321.1949999998288,7.623756e-06
321.20999999982877,0.00107197,321.20999999982877,7.827967e-06,321.20999999982877,1.46106e-05,321.20999999982877,8.096878e-06
321.22499999982875,0.001144685,321.22499999982875,7.746566e-06,321.22499999982875,1.452454e-05,321.22499999982875,8.294538e-06
321.23999999982874,0.001199035,321.23999999982874,7.71559e-06,321.23999999982874,1.403023e-05,321.23999999982874,8.205751e-06
321.2549999998287,0.001220652,321.2549999998287,7.863876e-06,321.2549999998287,1.41203e-05,321.2549999998287,8.274134e-06
321.2699999998287,0.001308521,321.2699999998287,8.129866e-06,321.2699999998287,1.411431e-05,321.2699999998287,8.314893e-06
321.2849999998287,0.001358728,321.2849999998287,8.210899e-06,321.2849999998287,1.466353e-05,321.2849999998287,8.229749e-06
321.2999999998287,0.001312884,321.2999999998287,8.467658e-06,321.2999999998287,1.454005e-05,321.2999999998287,8.50749e-06
321.3149999998287,0.001245269,321.3149999998287,8.987383e-06,321.3149999998287,1.38412e-05,321.3149999998287,8.367247e-06
321.32999999982866,0.001253647,321.32999999982866,8.974835e-06,321.32999999982866,1.379737e-05,321.32999999982866,8.451005e-06
321.34499999982864,0.001114555,321.34499999982864,8.712006e-06,321.34499999982864,1.436754e-05,321.34499999982864,8.002378e-06
321.35999999982863,0.001001268,321.35999999982863,8.741063e-06,321.35999999982863,1.416115e-05,321.35999999982863,7.972397e-06
321.3749999998286,0.001010647,321.3749999998286,8.677985e-06,321.3749999998286,1.379533e-05,321.3749999998286,7.938755e-06
321.3899999998286,0.001013003,321.3899999998286,8.721702e-06,321.3899999998286,1.373085e-05,321.3899999998286,7.928101e-06
321.4049999998286,0.001012204,321.4049999998286,8.745896e-06,321.4049999998286,1.377489e-05,321.4049999998286,7.919212e-06
321.4199999998286,0.001012443,321.4199999998286,8.355453e-06,321.4199999998286,1.351265e-05,321.4199999998286,7.788277e-06
321.43499999982856,0.001025562,321.43499999982856,8.072484e-06,321.43499999982856,1.279623e-05,321.43499999982856,8.062008e-06
321.44999999982855,0.00103479,321.44999999982855,8.082948e-06,321.44999999982855,1.296683e-05,321.44999999982855,8.091657e-06
321.46499999982854,0.0009995654,321.46499999982854,8.124666e-06,321.46499999982854,1.321113e-05,321.46499999982854,7.603404e-06
321.4799999998285,0.0008787306,321.4799999998285,8.234882e-06,321.4799999998285,1.309977e-05,321.4799999998285,7.059652e-06
321.4949999998285,0.0008977593,321.4949999998285,8.070739e-06,321.4949999998285,1.271451e-05,321.4949999998285,7.087532e-06
321.5099999998285,0.0009196856,321.5099999998285,7.879981e-06,321.5099999998285,1.189008e-05,321.5099999998285,6.922637e-06
321.5249999998285,0.0008166009,321.5249999998285,7.70097e-06,321.5249999998285,1.149492e-05,321.5249999998285,6.951067e-06
321.53999999982847,0.0007182789,321.53999999982847,7.549485e-06,321.53999999982847,1.081423e-05,321.53999999982847,7.131124e-06
321.55499999982845,0.0006966165,321.55499999982845,6.789081e-06,321.55499999982845,1.104111e-05,321.55499999982845,6.816002e-06
321.56999999982844,0.0007114217,321.56999999982844,6.552573e-06,321.56999999982844,1.116923e-05,321.56999999982844,6.942956e-06
321.5849999998284,0.0007071053,321.5849999998284,6.543968e-06,321.5849999998284,1.113765e-05,321.5849999998284,6.922637e-06
321.5999999998284,0.0007016019,321.5999999998284,6.524566e-06,321.5999999998284,9.880319e-06,321.5999999998284,7.033664e-06
321.6149999998284,0.000700799,321.6149999998284,6.66131e-06,321.6149999998284,1.0005e-05,321.6149999998284,7.1823e-06
321.6299999998284,0.0006751436,321.6299999998284,6.720261e-06,321.6299999998284,1.00289e-05,321.6299999998284,7.27777e-06
321.64499999982837,0.0006802831,321.64499999982837,6.726546e-06,321.64499999982837,9.938602e-06,321.64499999982837,7.358615e-06
321.65999999982836,0.0006752796,321.65999999982836,6.826328e-06,321.65999999982836,9.634898e-06,321.65999999982836,7.201887e-06
321.67499999982834,0.0006755937,321.67499999982834,6.981399e-06,321.67499999982834,9.433964e-06,321.67499999982834,7.237009e-06
321.68999999982833,0.0006502445,321.68999999982833,6.857212e-06,321.68999999982833,8.666614e-06,321.68999999982833,6.959168e-06
321.7049999998283,0.0006401532,321.7049999998283,7.15282e-06,321.7049999998283,8.343643e-06,321.7049999998283,6.834577e-06
321.7199999998283,0.0006448756,321.7199999998283,7.113323e-06,321.7199999998283,7.766543e-06,321.7199999998283,6.834577e-06
321.7349999998283,0.0006213333,321.7349999998283,7.238955e-06,321.7349999998283,7.820766e-06,321.7349999998283,6.863372e-06
321.7499999998283,0.0005091468,321.7499999998283,7.343284e-06,321.7499999998283,7.917432e-06,321.7499999998283,6.969281e-06
321.76499999982826,0.000406413,321.76499999982826,7.478244e-06,321.76499999982826,7.995334e-06,321.76499999982826,7.15282e-06
321.77999999982825,0.0004090928,321.77999999982825,7.614512e-06,321.77999999982825,8.048017e-06,321.77999999982825,7.935205e-06
321.79499999982824,0.0004136587,321.79499999982824,7.515824e-06,321.79499999982824,8.173069e-06,321.79499999982824,7.72289e-06
321.8099999998282,0.0004342285,321.8099999998282,7.822567e-06,321.8099999998282,7.759284e-06,321.8099999998282,8.105571e-06
321.8249999998282,0.0004706558,321.8249999998282,7.944076e-06,321.8249999998282,7.70097e-06,321.8249999998282,8.379024e-06
321.8399999998282,0.0005681351,321.8399999998282,7.967094e-06,321.8399999998282,7.988284e-06,321.8399999998282,8.560311e-06
321.8549999998282,0.0006650232,321.8549999998282,7.737468e-06,321.8549999998282,8.018206e-06,321.8549999998282,8.570179e-06
321.86999999982817,0.0006865283,321.86999999982817,7.677153e-06,321.86999999982817,8.425965e-06,321.86999999982817,8.821272e-06
321.88499999982815,0.0006872468,321.88499999982815,7.63668e-06,321.88499999982815,8.716856e-06,321.88499999982815,8.710389e-06
321.89999999982814,0.0007455414,321.89999999982814,7.528932e-06,321.89999999982814,1.016147e-05,321.89999999982814,9.004607e-06
321.9149999998281,0.000771247,321.9149999998281,7.632989e-06,321.9149999998281,1.231034e-05,321.9149999998281,9.024921e-06
321.9299999998281,0.0007971316,321.9299999998281,7.440475e-06,321.9299999998281,1.305129e-05,321.9299999998281,9.47122e-06
321.9449999998281,0.0008683752,321.9449999998281,8.102095e-06,321.9449999998281,1.342164e-05,321.9449999998281,9.546771e-06
321.9599999998281,0.0008658259,321.9599999998281,7.942303e-06,321.9599999998281,1.348447e-05,321.9599999998281,9.696108e-06
321.97499999982807,0.0008590345,321.97499999982807,7.929877e-06,321.97499999982807,1.402018e-05,321.97499999982807,9.720776e-06
321.98999999982806,0.0009314234,321.98999999982806,8.619349e-06,321.98999999982806,1.47631e-05,321.98999999982806,9.986677e-06
322.00499999982804,0.001096133,322.00499999982804,9.511293e-06,322.00499999982804,1.513066e-05,322.00499999982804,9.989498e-06
322.01999999982803,0.00112065,322.01999999982803,1.141868e-05,322.01999999982803,1.506348e-05,322.01999999982803,9.784329e-06
322.034999999828,0.001088668,322.034999999828,1.294073e-05,322.034999999828,1.485158e-05,322.034999999828,9.236285e-06
322.049999999828,0.001098682,322.049999999828,1.325797e-05,322.049999999828,1.482214e-05,322.049999999828,9.230183e-06
322.064999999828,0.001136199,322.064999999828,1.643809e-05,322.064999999828,1.481454e-05,322.064999999828,8.749116e-06
322.079999999828,0.001149401,322.079999999828,1.741754e-05,322.079999999828,1.482214e-05,322.079999999828,8.489256e-06
322.09499999982796,0.001114216,322.09499999982796,1.768641e-05,322.09499999982796,1.470766e-05,322.09499999982796,8.147174e-06
322.10999999982795,0.001075858,322.10999999982795,1.778331e-05,322.10999999982795,1.459999e-05,322.10999999982795,8.02874e-06
322.12499999982793,0.001077339,322.12499999982793,1.784183e-05,322.12499999982793,1.44282e-05,322.12499999982793,7.664298e-06
322.1399999998279,0.001120011,322.1399999998279,1.79426e-05,322.1399999998279,1.415518e-05,322.1399999998279,7.597844e-06
322.1549999998279,0.001126679,322.1549999998279,1.786313e-05,322.1549999998279,1.297443e-05,322.1549999998279,7.423416e-06
322.1699999998279,0.0011352,322.1699999998279,1.801782e-05,322.1699999998279,1.175424e-05,322.1699999998279,7.27196e-06
322.1849999998279,0.001089478,322.1849999998279,1.78655e-05,322.1849999998279,1.018362e-05,322.1849999998279,6.603967e-06
322.19999999982787,0.00102522,322.19999999982787,1.755931e-05,322.19999999982787,1.001766e-05,322.19999999982787,6.505105e-06
322.21499999982785,0.00102552,322.21499999982785,1.753764e-05,322.21499999982785,9.972562e-06,322.21499999982785,6.518086e-06
322.22999999982784,0.001025419,322.22999999982784,2.049067e-05,322.22999999982784,9.046747e-06,322.22999999982784,6.331722e-06
322.2449999998278,0.0009363181,322.2449999998278,2.175834e-05,322.2449999998278,7.649581e-06,322.2449999998278,5.860319e-06
322.2599999998278,0.0007991443,322.2599999998278,2.310413e-05,322.2599999998278,7.455606e-06,322.2599999998278,5.672212e-06
322.2749999998278,0.0007762315,322.2749999998278,2.494863e-05,322.2749999998278,7.525189e-06,322.2749999998278,5.107694e-06
322.2899999998278,0.000775373,322.2899999998278,2.450082e-05,322.2899999998278,7.656943e-06,322.2899999998278,5.124215e-06
322.30499999982777,0.0007442947,322.30499999982777,2.395074e-05,322.30499999982777,7.629297e-06,322.30499999982777,4.870521e-06
322.31999999982776,0.0006613174,322.31999999982776,2.25087e-05,322.31999999982776,7.759284e-06,322.31999999982776,4.936594e-06
322.33499999982774,0.0006207509,322.33499999982774,2.257806e-05,322.33499999982774,7.623756e-06,322.33499999982774,4.867628e-06
322.34999999982773,0.0006004185,322.34999999982773,2.259428e-05,322.34999999982773,7.461272e-06,322.34999999982773,4.945147e-06
322.3649999998277,0.0006031436,322.3649999998277,2.264348e-05,322.3649999998277,7.201887e-06,322.3649999998277,5.027078e-06
322.3799999998277,0.0006237377,322.3799999998277,2.264721e-05,322.3799999998277,6.902258e-06,322.3799999998277,4.967884e-06
322.3949999998277,0.0005698327,322.3949999998277,2.255309e-05,322.3949999998277,6.582601e-06,322.3949999998277,4.630328e-06
322.4099999998277,0.0004614767,322.4099999998277,2.278302e-05,322.4099999998277,6.271365e-06,322.4099999998277,4.73561e-06
322.42499999982766,0.000546695,322.42499999982766,2.280033e-05,322.42499999982766,5.436346e-06,322.42499999982766,4.75046e-06
322.43999999982765,0.0007022618,322.43999999982765,2.285278e-05,322.43999999982765,5.438937e-06,322.43999999982765,4.660651e-06
322.45499999982763,0.0007760752,322.45499999982763,2.299351e-05,322.45499999982763,5.438937e-06,322.45499999982763,4.630328e-06
322.4699999998276,0.0007885891,322.4699999998276,2.332803e-05,322.4699999998276,5.438937e-06,322.4699999998276,4.4377e-06
322.4849999998276,0.0008479367,322.4849999998276,2.020894e-05,322.4849999998276,5.425972e-06,322.4849999998276,4.399444e-06
322.4999999998276,0.0009181814,322.4999999998276,1.918921e-05,322.4999999998276,5.321112e-06,322.4999999998276,4.266145e-06
322.5149999998276,0.0009392203,322.5149999998276,1.588017e-05,322.5149999998276,5.187057e-06,322.5149999998276,4.347911e-06
322.52999999982757,0.000943355,322.52999999982757,1.630558e-05,322.52999999982757,5.14616e-06,322.52999999982757,4.651575e-06
322.54499999982755,0.0009474138,322.54499999982755,1.85957e-05,322.54499999982755,4.887844e-06,322.54499999982755,4.714741e-06
322.55999999982754,0.0009559549,322.55999999982754,2.106358e-05,322.55999999982754,5.143422e-06,322.55999999982754,4.753424e-06
322.5749999998275,0.0009547437,322.5749999998275,2.478492e-05,322.5749999998275,5.007424e-06,322.5749999998275,4.841512e-06
322.5899999998275,0.0009527876,322.5899999998275,2.58046e-05,322.5899999998275,5.262549e-06,322.5899999998275,4.738583e-06
322.6049999998275,0.0009693677,322.6049999998275,2.595646e-05,322.6049999998275,5.222243e-06,322.6049999998275,4.841512e-06
322.6199999998275,0.0009705136,322.6199999998275,2.616834e-05,322.6199999998275,5.257193e-06,322.6199999998275,4.70577e-06
322.63499999982747,0.0009386126,322.63499999982747,2.63721e-05,322.63499999982747,5.34752e-06,322.63499999982747,4.654602e-06
322.64999999982746,0.0009097267,322.64999999982746,2.647233e-05,322.64999999982746,5.579567e-06,322.64999999982746,4.615091e-06
322.66499999982744,0.0009044012,322.66499999982744,2.626934e-05,322.66499999982744,5.642331e-06,322.66499999982744,4.575239e-06
322.67999999982743,0.0008507856,322.67999999982743,2.634057e-05,322.67999999982743,5.649817e-06,322.67999999982743,4.556728e-06
322.6949999998274,0.0007406414,322.6949999998274,2.647978e-05,322.6949999998274,5.551726e-06,322.6949999998274,4.550541e-06
322.7099999998274,0.000673992,322.7099999998274,2.618448e-05,322.7099999998274,5.498184e-06,322.7099999998274,4.553636e-06
322.7249999998274,0.0006626251,322.7249999998274,2.598575e-05,322.7249999998274,5.692045e-06,322.7249999998274,4.612038e-06
322.7399999998274,0.0005638296,322.7399999998274,2.57598e-05,322.7399999998274,5.797484e-06,322.7399999998274,4.599804e-06
322.75499999982736,0.0004755121,322.75499999982736,2.555391e-05,322.75499999982736,5.862722e-06,322.75499999982736,4.581393e-06
322.76999999982735,0.0004781442,322.76999999982735,2.544287e-05,322.76999999982735,5.972226e-06,322.76999999982735,4.485062e-06
322.78499999982733,0.0004569098,322.78499999982733,2.140588e-05,322.78499999982733,5.95096e-06,322.78499999982733,4.20294e-06
322.7999999998273,0.0004641446,322.7999999998273,2.000295e-05,322.7999999998273,5.908198e-06,322.7999999998273,4.186148e-06
322.8149999998273,0.0004658914,322.8149999998273,1.678912e-05,322.8149999998273,5.464775e-06,322.8149999998273,4.223002e-06
322.8299999998273,0.0004667043,322.8299999998273,1.164588e-05,322.8299999998273,5.551726e-06,322.8299999998273,3.961384e-06
322.8449999998273,0.0004519038,322.8449999998273,9.640744e-06,322.8449999998273,5.612292e-06,322.8449999998273,4.017877e-06
322.85999999982727,0.000436336,322.85999999982727,9.318279e-06,322.85999999982727,5.853103e-06,322.85999999982727,3.871464e-06
322.87499999982725,0.0004298555,322.87499999982725,8.861105e-06,322.87499999982725,5.773135e-06,322.87499999982725,4.256228e-06
322.88999999982724,0.0004248953,322.88999999982724,9.052973e-06,322.88999999982724,5.901041e-06,322.88999999982724,4.383405e-06
322.9049999998272,0.0004268947,322.9049999998272,8.960697e-06,322.9049999998272,5.674694e-06,322.9049999998272,4.684768e-06
322.9199999998272,0.0004713314,322.9199999998272,9.291028e-06,322.9199999998272,5.716739e-06,322.9199999998272,4.666692e-06
322.9349999998272,0.0004624224,322.9349999998272,8.851561e-06,322.9349999998272,5.687093e-06,322.9349999998272,4.720713e-06
322.9499999998272,0.0004931153,322.9499999998272,8.482616e-06,322.9499999998272,5.701935e-06,322.9499999998272,4.68176e-06
322.96499999982717,0.0005304227,322.96499999982717,8.873813e-06,322.96499999982717,5.8867e-06,322.96499999982717,4.593675e-06
322.97999999982716,0.0005568491,322.97999999982716,9.853194e-06,322.97999999982716,5.824151e-06,322.97999999982716,4.485062e-06
322.99499999982714,0.0005632825,322.99499999982714,1.076855e-05,322.99499999982714,5.597212e-06,322.99499999982714,4.459865e-06
323.00999999982713,0.0005295423,323.00999999982713,1.174345e-05,323.00999999982713,5.654801e-06,323.00999999982713,4.312125e-06
323.0249999998271,0.0004872142,323.0249999998271,1.225184e-05,323.0249999998271,5.554263e-06,323.0249999998271,4.269446e-06
323.0399999998271,0.0004940868,323.0399999998271,1.318124e-05,323.0399999998271,5.602244e-06,323.0399999998271,4.128545e-06
323.0549999998271,0.0004770484,323.0549999998271,1.366915e-05,323.0549999998271,5.758477e-06,323.0549999998271,4.152361e-06
323.0699999998271,0.0004707347,323.0699999998271,1.390213e-05,323.0699999998271,5.809621e-06,323.0699999998271,4.101159e-06
323.08499999982706,0.0004703349,323.08499999982706,1.565233e-05,323.08499999982706,5.716739e-06,323.08499999982706,4.090841e-06
323.09999999982705,0.0004737074,323.09999999982705,1.559734e-05,323.09999999982705,5.203327e-06,323.09999999982705,3.975583e-06
323.11499999982703,0.0004813634,323.11499999982703,1.652782e-05,323.11499999982703,5.043863e-06,323.11499999982703,3.904074e-06
323.129999999827,0.0004862909,323.129999999827,1.785919e-05,323.129999999827,4.982041e-06,323.129999999827,3.390388e-06
323.144999999827,0.0004881131,323.144999999827,2.386412e-05,323.144999999827,4.867628e-06,323.144999999827,3.081303e-06
323.159999999827,0.0004531952,323.159999999827,2.663625e-05,323.159999999827,4.930884e-06,323.159999999827,2.887788e-06
323.174999999827,0.0004005995,323.174999999827,3.573573e-05,323.174999999827,5.024275e-06,323.174999999827,2.788521e-06
323.18999999982697,0.0004037876,323.18999999982697,4.170268e-05,323.18999999982697,4.979213e-06,323.18999999982697,2.701278e-06
323.20499999982695,0.0003636645,323.20499999982695,4.26499e-05,323.20499999982695,5.035477e-06,323.20499999982695,2.868209e-06
323.21999999982694,0.000304416,323.21999999982694,4.383629e-05,323.21999999982694,5.060592e-06,323.21999999982694,2.828646e-06
323.2349999998269,0.000264799,323.2349999998269,4.389185e-05,323.2349999998269,5.477649e-06,323.2349999998269,2.873116e-06
323.2499999998269,0.0002635261,323.2499999998269,4.373302e-05,323.2499999998269,5.485359e-06,323.2499999998269,2.960054e-06
323.2649999998269,0.0002605793,323.2649999998269,4.359656e-05,323.2649999998269,5.469929e-06,323.2649999998269,2.969556e-06
323.2799999998269,0.0002642575,323.2799999998269,4.35348e-05,323.2799999998269,6.000464e-06,323.2799999998269,2.993181e-06
323.29499999982687,0.0002693118,323.29499999982687,4.39326e-05,323.29499999982687,5.986361e-06,323.29499999982687,3.122176e-06
323.30999999982686,0.0002825055,323.30999999982686,4.920131e-05,323.30999999982686,5.958057e-06,323.30999999982686,3.117661e-06
323.32499999982684,0.0002866735,323.32499999982684,6.840181e-05,323.32499999982684,5.910582e-06,323.32499999982684,3.090432e-06
323.33999999982683,0.0002882211,323.33999999982683,7.20611e-05,323.33999999982683,5.967507e-06,323.33999999982683,3.108612e-06
323.3549999998268,0.000277317,323.3549999998268,7.329575e-05,323.3549999998268,6.042573e-06,323.3549999998268,3.067557e-06
323.3699999998268,0.0002595834,323.3699999998268,7.609589e-05,323.3699999998268,6.235322e-06,323.3699999998268,3.180289e-06
323.3849999998268,0.0002526351,323.3849999998268,7.715572e-05,323.3849999998268,6.264623e-06,323.3849999998268,3.327482e-06
323.3999999998268,0.0002519973,323.3999999998268,7.559591e-05,323.3999999998268,6.428867e-06,323.3999999998268,3.352786e-06
323.41499999982676,0.0002607684,323.41499999982676,7.520321e-05,323.41499999982676,6.448557e-06,323.41499999982676,3.36955e-06
323.42999999982675,0.0003082476,323.42999999982675,6.902115e-05,323.42999999982675,6.353931e-06,323.42999999982675,3.365367e-06
323.44499999982673,0.0004817149,323.44499999982673,6.8033e-05,323.44499999982673,6.362793e-06,323.44499999982673,3.456227e-06
323.4599999998267,0.0006264626,323.4599999998267,6.799614e-05,323.4599999998267,6.439814e-06,323.4599999998267,3.431686e-06
323.4749999998267,0.0007510062,323.4749999998267,6.725897e-05,323.4749999998267,6.487759e-06,323.4749999998267,3.512824e-06
323.4899999998267,0.0007550439,323.4899999998267,6.70221e-05,323.4899999998267,6.135114e-06,323.4899999998267,3.603876e-06
323.5049999998267,0.0007545903,323.5049999998267,6.690998e-05,323.5049999998267,6.125922e-06,323.5049999998267,3.619477e-06
323.51999999982667,0.0008022175,323.51999999982667,6.692661e-05,323.51999999982667,6.158032e-06,323.51999999982667,3.70411e-06
323.53499999982665,0.001115253,323.53499999982665,6.701222e-05,323.53499999982665,5.889093e-06,323.53499999982665,3.73441e-06
323.54999999982664,0.001227653,323.54999999982664,6.585105e-05,323.54999999982664,6.019215e-06,323.54999999982664,4.017877e-06
323.5649999998266,0.001284852,323.5649999998266,5.711883e-05,323.5649999998266,6.005157e-06,323.5649999998266,4.246287e-06
323.5799999998266,0.0014497,323.5799999998266,3.525114e-05,323.5799999998266,5.927241e-06,323.5799999998266,4.256228e-06
323.5949999998266,0.001518108,323.5949999998266,3.260641e-05,323.5949999998266,6.144291e-06,323.5949999998266,4.272744e-06
323.6099999998266,0.001526797,323.6099999998266,3.016247e-05,323.6099999998266,1.250561e-05,323.6099999998266,4.34467e-06
323.62499999982657,0.001533133,323.62499999982657,2.421687e-05,323.62499999982657,1.613624e-05,323.62499999982657,4.29248e-06
323.63999999982656,0.001532866,323.63999999982656,2.101001e-05,323.63999999982656,2.422036e-05,323.63999999982656,4.192873e-06
323.65499999982654,0.001535196,323.65499999982654,2.034441e-05,323.65499999982654,6.280545e-05,323.65499999982654,4.17604e-06
323.66999999982653,0.00154585,323.66999999982653,1.969209e-05,323.66999999982653,6.83266e-05,323.66999999982653,4.196231e-06
323.6849999998265,0.001575618,323.6849999998265,2.010761e-05,323.6849999998265,7.934584e-05,323.6849999998265,4.155752e-06
323.6999999998265,0.001588508,323.6999999998265,1.935222e-05,323.6999999998265,8.154744e-05,323.6999999998265,4.431347e-06
323.7149999998265,0.001548653,323.7149999998265,1.81921e-05,323.7149999998265,8.160719e-05,323.7149999998265,4.618143e-06
323.7299999998265,0.001515943,323.7299999998265,1.814558e-05,323.7299999998265,8.180219e-05,323.7299999998265,4.535037e-06
323.74499999982646,0.001542163,323.74499999982646,1.808571e-05,323.74499999982646,8.185366e-05,323.74499999982646,4.412233e-06
323.75999999982645,0.001624943,323.75999999982645,1.806622e-05,323.75999999982645,8.186484e-05,323.75999999982645,4.35115e-06
323.77499999982643,0.001639866,323.77499999982643,1.7466e-05,323.77499999982643,8.186949e-05,323.77499999982643,4.259536e-06
323.7899999998264,0.001441389,323.7899999998264,1.717648e-05,323.7899999998264,8.193691e-05,323.7899999998264,4.20294e-06
323.8049999998264,0.001409084,323.8049999998264,1.451775e-05,323.8049999998264,8.205219e-05,323.8049999998264,3.932833e-06
323.8199999998264,0.001350589,323.8199999998264,1.280284e-05,323.8199999998264,8.222694e-05,323.8199999998264,3.83123e-06
323.8349999998264,0.001242971,323.8349999998264,1.358957e-05,323.8349999998264,8.225229e-05,323.8349999998264,3.838577e-06
323.84999999982637,0.001242543,323.84999999982637,1.114903e-05,323.84999999982637,8.219336e-05,323.84999999982637,3.816494e-06
323.86499999982635,0.001225162,323.86499999982635,1.128092e-05,323.86499999982635,8.06482e-05,323.86499999982635,3.775675e-06
323.87999999982634,0.001227758,323.87999999982634,1.154017e-05,323.87999999982634,8.042466e-05,323.87999999982634,3.726858e-06
323.8949999998263,0.001241908,323.8949999998263,1.112753e-05,323.8949999998263,7.116709e-05,323.8949999998263,3.696496e-06
323.9099999998263,0.001238315,323.9099999998263,1.131583e-05,323.9099999998263,4.574777e-05,323.9099999998263,3.715501e-06
323.9249999998263,0.001212379,323.9249999998263,1.064355e-05,323.9249999998263,3.630164e-05,323.9249999998263,3.67356e-06
323.9399999998263,0.001162195,323.9399999998263,1.021125e-05,323.9399999998263,1.69951e-05,323.9399999998263,3.54476e-06
323.95499999982627,0.00114426,323.95499999982627,1.026354e-05,323.95499999982627,1.246161e-05,323.95499999982627,3.456227e-06
323.96999999982626,0.00109318,323.96999999982626,1.033194e-05,323.96999999982626,1.14802e-05,323.96999999982626,3.162522e-06
323.98499999982624,0.001093278,323.98499999982624,1.063693e-05,323.98499999982624,9.814517e-06,323.98499999982624,3.189136e-06
323.99999999982623,0.001048927,323.99999999982623,1.070031e-05,323.99999999982623,8.770023e-06,323.99999999982623,3.219907e-06
324.0149999998262,0.0009194115,324.0149999998262,1.071215e-05,324.0149999998262,8.710389e-06,324.0149999998262,3.271984e-06
324.0299999998262,0.0007827132,324.0299999998262,1.05745e-05,324.0299999998262,8.771629e-06,324.0299999998262,3.377901e-06
324.0449999998262,0.0007303352,324.0449999998262,1.065016e-05,324.0449999998262,8.377342e-06,324.0449999998262,3.4111e-06
324.0599999998262,0.0007247904,324.0599999998262,1.103473e-05,324.0599999998262,7.41962e-06,324.0599999998262,3.4111e-06
324.07499999982616,0.0006763001,324.07499999982616,1.073579e-05,324.07499999982616,6.114414e-06,324.07499999982616,3.373728e-06
324.08999999982615,0.0005939603,324.08999999982615,9.62173e-06,324.08999999982615,5.93674e-06,324.08999999982615,3.646619e-06
324.10499999982613,0.0005636195,324.10499999982613,9.432471e-06,324.10499999982613,5.407768e-06,324.10499999982613,3.611685e-06
324.1199999998261,0.0005544559,324.1199999998261,8.28094e-06,324.1199999998261,5.48279e-06,324.1199999998261,3.665883e-06
324.1349999998261,0.0005324638,324.1349999998261,8.341955e-06,324.1349999998261,5.399948e-06,324.1349999998261,3.73818e-06
324.1499999998261,0.0005158541,324.1499999998261,8.200599e-06,324.1499999998261,5.418178e-06,324.1499999998261,3.816494e-06
324.1649999998261,0.0005175074,324.1649999998261,7.92099e-06,324.1649999998261,5.22494e-06,324.1649999998261,3.856882e-06
324.17999999982607,0.0004958478,324.17999999982607,7.863876e-06,324.17999999982607,5.200618e-06,324.17999999982607,3.856882e-06
324.19499999982605,0.0004064778,324.19499999982605,7.952937e-06,324.19499999982605,5.151632e-06,324.19499999982605,3.797995e-06
324.20999999982604,0.0003499892,324.20999999982604,7.892485e-06,324.20999999982604,5.444114e-06,324.20999999982604,3.631134e-06
324.224999999826,0.0003746365,324.224999999826,7.682656e-06,324.224999999826,5.454455e-06,324.224999999826,3.627253e-06
324.239999999826,0.0003541765,324.239999999826,7.329844e-06,324.239999999826,5.510979e-06,324.239999999826,3.662038e-06
324.254999999826,0.0003394082,324.254999999826,7.196016e-06,324.254999999826,5.299891e-06,324.254999999826,3.57641e-06
324.269999999826,0.0003895158,324.269999999826,7.413922e-06,324.269999999826,5.392116e-06,324.269999999826,3.406967e-06
324.28499999982597,0.0004350991,324.28499999982597,7.352869e-06,324.28499999982597,5.773135e-06,324.28499999982597,3.443979e-06
324.29999999982596,0.0004401813,324.29999999982596,6.787006e-06,324.29999999982596,6.026232e-06,324.29999999982596,3.335938e-06
324.31499999982594,0.0004401652,324.31499999982594,6.435437e-06,324.31499999982594,5.667242e-06,324.31499999982594,3.306247e-06
324.32999999982593,0.0004377285,324.32999999982593,6.554722e-06,324.32999999982593,5.706874e-06,324.32999999982593,3.373728e-06
324.3449999998259,0.0004403029,324.3449999998259,6.692956e-06,324.3449999998259,6.132817e-06,324.3449999998259,3.206755e-06
324.3599999998259,0.0004421654,324.3599999998259,6.654963e-06,324.3599999998259,6.75163e-06,324.3599999998259,3.215529e-06
324.3749999998259,0.0004408144,324.3749999998259,6.569749e-06,324.3749999998259,6.682424e-06,324.3749999998259,3.224279e-06
324.3899999998259,0.0004290282,324.3899999998259,6.550423e-06,324.3899999998259,7.421518e-06,324.3899999998259,3.135683e-06
324.40499999982586,0.0004274638,324.40499999982586,6.873626e-06,324.40499999982586,7.364355e-06,324.40499999982586,2.983753e-06
324.41999999982585,0.0004249699,324.41999999982585,7.186222e-06,324.41999999982585,7.273898e-06,324.41999999982585,3.140172e-06
324.43499999982583,0.0004204547,324.43499999982583,7.838757e-06,324.43499999982583,7.28164e-06,324.43499999982583,3.166973e-06
324.4499999998258,0.0004222728,324.4499999998258,7.901403e-06,324.4499999998258,7.231167e-06,324.4499999998258,3.215529e-06
324.4649999998258,0.0003897717,324.4649999998258,8.062008e-06,324.4649999998258,7.209706e-06,324.4649999998258,3.344373e-06
324.4799999998258,0.000364661,324.4799999998258,8.15236e-06,324.4799999998258,7.242846e-06,324.4799999998258,3.344373e-06
324.4949999998258,0.0003745873,324.4949999998258,8.062008e-06,324.4949999998258,7.500814e-06,324.4949999998258,3.327482e-06
324.50999999982577,0.0003719003,324.50999999982577,8.169621e-06,324.50999999982577,7.508323e-06,324.50999999982577,3.361178e-06
324.52499999982575,0.0003337895,324.52499999982575,8.499207e-06,324.52499999982575,7.3106e-06,324.52499999982575,3.439886e-06
324.53999999982574,0.0002825242,324.53999999982574,9.188883e-06,324.53999999982574,7.021637e-06,324.53999999982574,3.540784e-06
324.5549999998257,0.0003058048,324.5549999998257,9.497953e-06,324.5549999998257,6.776621e-06,324.5549999998257,3.508812e-06
324.5699999998257,0.0003433864,324.5699999998257,9.554146e-06,324.5699999998257,6.896133e-06,324.5699999998257,3.568524e-06
324.5849999998257,0.0003501752,324.5849999998257,9.623194e-06,324.5849999998257,6.916529e-06,324.5849999998257,3.524834e-06
324.5999999998257,0.0003475698,324.5999999998257,9.694656e-06,324.5999999998257,6.349495e-06,324.5999999998257,3.572469e-06
324.61499999982567,0.0003464414,324.61499999982567,9.74827e-06,324.61499999982567,6.178585e-06,324.61499999982567,3.627253e-06
324.62999999982566,0.0003656735,324.62999999982566,9.846043e-06,324.62999999982566,5.809621e-06,324.62999999982566,3.662038e-06
324.64499999982564,0.0003831258,324.64499999982564,9.648047e-06,324.64499999982564,5.238403e-06,324.64499999982564,3.65048e-06
324.65999999982563,0.0003937783,324.65999999982563,9.642205e-06,324.65999999982563,5.692045e-06,324.65999999982563,3.669723e-06
324.6749999998256,0.0003919695,324.6749999998256,9.363521e-06,324.6749999998256,5.828986e-06,324.6749999998256,3.572469e-06
324.6899999998256,0.0003945071,324.6899999998256,8.643829e-06,324.6899999998256,5.850696e-06,324.6899999998256,3.480596e-06
324.7049999998256,0.0003809223,324.7049999998256,8.69096e-06,324.7049999998256,5.807196e-06,324.7049999998256,3.460301e-06
324.7199999998256,0.0003877575,324.7199999998256,8.494233e-06,324.7199999998256,5.860319e-06,324.7199999998256,3.40283e-06
324.73499999982556,0.0003952949,324.73499999982556,8.550433e-06,324.73499999982556,5.696992e-06,324.73499999982556,3.394541e-06
324.74999999982555,0.0003826941,324.74999999982555,8.66011e-06,324.74999999982555,5.609782e-06,324.74999999982555,3.373728e-06
324.76499999982553,0.0003572079,324.76499999982553,8.671489e-06,324.76499999982553,5.831403e-06,324.76499999982553,3.335938e-06
324.7799999998255,0.0003656025,324.7799999998255,7.804539e-06,324.7799999998255,5.881913e-06,324.7799999998255,3.140172e-06
324.7949999998255,0.0004008116,324.7949999998255,7.444261e-06,324.7949999998255,5.826569e-06,324.7949999998255,3.19355e-06
324.8099999998255,0.0003878891,324.8099999998255,7.489538e-06,324.8099999998255,5.862722e-06,324.8099999998255,3.254718e-06
324.8249999998255,0.0003930052,324.8249999998255,7.569982e-06,324.8249999998255,5.75603e-06,324.8249999998255,3.228645e-06
324.83999999982547,0.000404765,324.83999999982547,7.372003e-06,324.83999999982547,5.714275e-06,324.83999999982547,3.215529e-06
324.85499999982545,0.0004143556,324.85499999982545,7.444261e-06,324.85499999982545,5.637336e-06,324.85499999982545,3.090432e-06
324.86999999982544,0.000410875,324.86999999982544,7.459384e-06,324.86999999982544,5.704405e-06,324.86999999982544,2.912075e-06
324.8849999998254,0.0003937098,324.8849999998254,7.142966e-06,324.8849999998254,5.736418e-06,324.8849999998254,2.979029e-06
324.8999999998254,0.0003924426,324.8999999998254,7.186222e-06,324.8999999998254,5.689569e-06,324.8999999998254,2.979029e-06
324.9149999998254,0.0005768748,324.9149999998254,7.057657e-06,324.9149999998254,5.178904e-06,324.9149999998254,3.126685e-06
324.9299999998254,0.0006340278,324.9299999998254,7.021637e-06,324.9299999998254,5.227635e-06,324.9299999998254,3.131187e-06
324.94499999982537,0.0006346158,324.94499999982537,7.051666e-06,324.94499999982537,5.206033e-06,324.94499999982537,3.094987e-06
324.95999999982536,0.0006356252,324.95999999982536,7.15282e-06,324.95999999982536,5.299891e-06,324.95999999982536,3.162522e-06
324.97499999982534,0.0006360806,324.97499999982534,7.480127e-06,324.97499999982534,5.609782e-06,324.97499999982534,3.158065e-06
324.98999999982533,0.000640675,324.98999999982533,7.41962e-06,324.98999999982533,5.915346e-06,324.98999999982533,3.162522e-06
325.0049999998253,0.0006390854,325.0049999998253,6.999535e-06,325.0049999998253,5.75603e-06,325.0049999998253,3.228645e-06
325.0199999998253,0.000640739,325.0199999998253,7.053663e-06,325.0199999998253,5.602244e-06,325.0199999998253,3.297714e-06
325.0349999998253,0.0006301186,325.0349999998253,8.150632e-06,325.0349999998253,5.865124e-06,325.0349999998253,3.28916e-06
325.0499999998253,0.0006228255,325.0499999998253,9.509811e-06,325.0499999998253,5.865124e-06,325.0499999998253,3.228645e-06
325.06499999982526,0.0006208091,325.06499999982526,9.417524e-06,325.06499999982526,5.915346e-06,325.06499999982526,3.140172e-06
325.07999999982525,0.0006081599,325.07999999982525,1.031829e-05,325.07999999982525,6.387099e-06,325.07999999982525,3.197958e-06
325.09499999982523,0.0006012926,325.09499999982523,1.05705e-05,325.09499999982523,6.699267e-06,325.09499999982523,3.267676e-06
325.1099999998252,0.0006003602,325.1099999998252,1.101045e-05,325.1099999998252,7.463159e-06,325.1099999998252,3.276286e-06
325.1249999998252,0.0005926204,325.1249999998252,1.141251e-05,325.1249999998252,7.510198e-06,325.1249999998252,3.310505e-06
325.1399999998252,0.00057984,325.1399999998252,1.151695e-05,325.1399999998252,7.421518e-06,325.1399999998252,3.28916e-06
325.1549999998252,0.0005587997,325.1549999998252,1.189482e-05,325.1549999998252,7.421518e-06,325.1549999998252,3.259043e-06
325.16999999982517,0.0003889073,325.16999999982517,1.248306e-05,325.16999999982517,7.573703e-06,325.16999999982517,3.202359e-06
325.18499999982515,0.0003326431,325.18499999982515,1.247968e-05,325.18499999982515,7.513949e-06,325.18499999982515,3.19355e-06
325.19999999982514,0.0003327014,325.19999999982514,1.244237e-05,325.19999999982514,7.667973e-06,325.19999999982514,3.280583e-06
325.2149999998251,0.0003167515,325.2149999998251,1.238564e-05,325.2149999998251,7.412022e-06,325.2149999998251,3.228645e-06
325.2299999998251,0.0003093843,325.2299999998251,1.240609e-05,325.2299999998251,7.279705e-06,325.2299999998251,3.19355e-06
325.2449999998251,0.0002797755,325.2449999998251,1.243218e-05,325.2449999998251,7.461272e-06,325.2449999998251,3.180289e-06
325.2599999998251,0.0002785765,325.2599999998251,1.263226e-05,325.2599999998251,7.250621e-06,325.2599999998251,3.085871e-06
325.27499999982507,0.0002872169,325.27499999982507,1.261329e-05,325.27499999982507,7.46882e-06,325.27499999982507,3.126685e-06
325.28999999982506,0.0002816558,325.28999999982506,1.153651e-05,325.28999999982506,7.513949e-06,325.28999999982506,3.104077e-06
325.30499999982504,0.0002746405,325.30499999982504,1.073186e-05,325.30499999982504,7.594135e-06,325.30499999982504,3.053749e-06
325.31999999982503,0.0002756832,325.31999999982503,1.049561e-05,325.31999999982503,7.140994e-06,325.31999999982503,3.035241e-06
325.334999999825,0.0002654598,325.334999999825,9.840318e-06,325.334999999825,7.28164e-06,325.334999999825,2.931361e-06
325.349999999825,0.000244876,325.349999999825,9.751159e-06,325.349999999825,7.077588e-06,325.349999999825,2.882905e-06
325.364999999825,0.0002336808,325.364999999825,9.53496e-06,325.364999999825,6.621009e-06,325.364999999825,2.979029e-06
325.379999999825,0.0002419245,325.379999999825,9.028043e-06,325.379999999825,6.66131e-06,325.379999999825,2.95052e-06
325.39499999982496,0.0002422047,325.39499999982496,9.439935e-06,325.39499999982496,6.718165e-06,325.39499999982496,3.310505e-06
325.40999999982495,0.0002238999,325.40999999982495,9.185817e-06,325.40999999982495,6.673986e-06,325.40999999982495,3.331712e-06
325.42499999982493,0.0002189234,325.42499999982493,8.770023e-06,325.42499999982493,6.703471e-06,325.42499999982493,3.348582e-06
325.4399999998249,0.0002318579,325.4399999998249,8.733001e-06,325.4399999998249,6.627389e-06,325.4399999998249,3.197958e-06
325.4549999998249,0.0002488967,325.4549999998249,8.733001e-06,325.4549999998249,6.718165e-06,325.4549999998249,3.166973e-06
325.4699999998249,0.0002436612,325.4699999998249,8.555373e-06,325.4699999998249,6.703471e-06,325.4699999998249,3.335938e-06
325.4849999998249,0.0002208622,325.4849999998249,8.456004e-06,325.4849999998249,6.705572e-06,325.4849999998249,3.373728e-06
325.49999999982487,0.0002142724,325.49999999982487,8.037508e-06,325.49999999982487,6.574036e-06,325.49999999982487,3.373728e-06
325.51499999982485,0.0002138839,325.51499999982485,8.055015e-06,325.51499999982485,6.541815e-06,325.51499999982485,3.394541e-06
325.52999999982484,0.0002111174,325.52999999982484,7.93343e-06,325.52999999982484,6.325044e-06,325.52999999982484,3.352786e-06
325.5449999998248,0.0002014664,325.5449999998248,8.002378e-06,325.5449999998248,5.795054e-06,325.5449999998248,3.356985e-06
325.5599999998248,0.0001890386,325.5599999998248,8.002378e-06,325.5599999998248,5.619817e-06,325.5599999998248,3.356985e-06
325.5749999998248,0.0001906303,325.5749999998248,7.982992e-06,325.5749999998248,5.48022e-06,325.5749999998248,3.443979e-06
325.5899999998248,0.0001891243,325.5899999998248,8.221186e-06,325.5899999998248,5.425972e-06,325.5899999998248,3.452149e-06
325.60499999982477,0.0001907363,325.60499999982477,7.993573e-06,325.60499999982477,5.270573e-06,325.60499999982477,3.452149e-06
325.61999999982476,0.0001919701,325.61999999982476,7.706456e-06,325.61999999982476,5.176183e-06,325.61999999982476,3.439886e-06
325.63499999982474,0.0001808828,325.63499999982474,7.495178e-06,325.63499999982474,5.227635e-06,325.63499999982474,3.468433e-06
325.64999999982473,0.0001630337,325.64999999982473,6.470365e-06,325.64999999982473,5.313164e-06,325.64999999982473,3.175857e-06
325.6649999998247,0.0001569196,325.6649999998247,6.485587e-06,325.6649999998247,5.278585e-06,325.6649999998247,3.224279e-06
325.6799999998247,0.0001528164,325.6799999998247,6.603967e-06,325.6799999998247,5.289249e-06,325.6799999998247,3.323245e-06
325.6949999998247,0.0001338607,325.6949999998247,6.654963e-06,325.6949999998247,5.235713e-06,325.6949999998247,3.280583e-06
325.7099999998247,0.0001090351,325.7099999998247,6.669763e-06,325.7099999998247,5.444114e-06,325.7099999998247,3.319004e-06
325.72499999982466,9.726165e-05,325.72499999982466,6.444187e-06,325.72499999982466,5.53139e-06,325.72499999982466,3.254718e-06
325.73999999982465,9.851792e-05,325.73999999982465,6.387099e-06,325.73999999982465,5.363302e-06,325.73999999982465,3.219907e-06
325.75499999982463,9.884383e-05,325.75499999982463,6.358363e-06,325.75499999982463,5.318464e-06,325.75499999982463,3.189136e-06
325.7699999998246,9.844097e-05,325.7699999998246,6.300498e-06,325.7699999998246,5.289249e-06,325.7699999998246,3.140172e-06
325.7849999998246,9.672181e-05,325.7849999998246,6.264623e-06,325.7849999998246,5.291911e-06,325.7849999998246,3.228645e-06
325.7999999998246,9.759954e-05,325.7999999998246,6.178585e-06,325.7999999998246,5.321112e-06,325.7999999998246,3.319004e-06
325.8149999998246,9.940474e-05,325.8149999998246,5.955692e-06,325.8149999998246,5.344885e-06,325.8149999998246,3.267676e-06
325.82999999982457,9.767716e-05,325.82999999982457,5.848288e-06,325.82999999982457,5.344885e-06,325.82999999982457,3.352786e-06
325.84499999982455,9.700002e-05,325.84499999982455,5.599728e-06,325.84499999982455,5.331691e-06,325.84499999982455,3.356985e-06
325.85999999982454,0.000106386,325.85999999982454,5.746233e-06,325.85999999982454,5.363302e-06,325.85999999982454,3.390388e-06
325.8749999998245,0.0001507634,325.8749999998245,5.743781e-06,325.8749999998245,5.672212e-06,325.8749999998245,3.352786e-06
325.8899999998245,0.0001662575,325.8899999998245,6.026232e-06,325.8899999998245,5.521194e-06,325.8899999998245,3.480596e-06
325.9049999998245,0.0001700666,325.9049999998245,6.026232e-06,325.9049999998245,5.826569e-06,325.9049999998245,3.496747e-06
325.9199999998245,0.0001749851,325.9199999998245,5.896265e-06,325.9199999998245,5.799914e-06,325.9199999998245,3.377901e-06
325.93499999982447,0.0001974538,325.93499999982447,5.804769e-06,325.93499999982447,5.828986e-06,325.93499999982447,3.423466e-06
325.94999999982446,0.0001979024,325.94999999982446,5.903427e-06,325.94999999982446,5.751133e-06,325.94999999982446,3.448066e-06
325.96499999982444,0.0002018848,325.96499999982444,5.948592e-06,325.96499999982444,5.339611e-06,325.96499999982444,3.323245e-06
325.97999999982443,0.0002043125,325.97999999982443,6.028569e-06,325.97999999982443,5.230329e-06,325.97999999982443,3.361178e-06
325.9949999998244,0.000204517,325.9949999998244,5.955692e-06,325.9949999998244,5.219545e-06,325.9949999998244,3.443979e-06
326.0099999998244,0.0002039937,326.0099999998244,5.893875e-06,326.0099999998244,5.246463e-06,326.0099999998244,3.36955e-06
326.0249999998244,0.0002163195,326.0249999998244,5.960421e-06,326.0249999998244,5.278585e-06,326.0249999998244,3.382069e-06
326.0399999998244,0.0002332335,326.0399999998244,6.063518e-06,326.0399999998244,5.297233e-06,326.0399999998244,3.356985e-06
326.05499999982436,0.0002359256,326.05499999982436,6.005157e-06,326.05499999982436,5.352786e-06,326.05499999982436,3.36955e-06
326.06999999982435,0.0002375363,326.06999999982435,6.037908e-06,326.06999999982435,5.249148e-06,326.06999999982435,3.310505e-06
326.08499999982433,0.0002458888,326.08499999982433,6.155743e-06,326.08499999982433,5.200618e-06,326.08499999982433,3.184716e-06
326.0999999998243,0.0002466892,326.0999999998243,6.109804e-06,326.0999999998243,5.187057e-06,326.0999999998243,3.11314e-06
326.1149999998243,0.0002381946,326.1149999998243,5.967507e-06,326.1149999998243,5.203327e-06,326.1149999998243,3.094987e-06
326.1299999998243,0.0002180716,326.1299999998243,5.931993e-06,326.1299999998243,4.905105e-06,326.1299999998243,3.140172e-06
326.1449999998243,0.0002089623,326.1449999998243,5.807196e-06,326.1449999998243,4.887844e-06,326.1449999998243,2.988471e-06
326.15999999982427,0.0002115369,326.15999999982427,5.862722e-06,326.15999999982427,4.847328e-06,326.15999999982427,2.95052e-06
326.17499999982425,0.0002437516,326.17499999982425,6.019215e-06,326.17499999982425,5.010237e-06,326.17499999982425,2.940956e-06
326.18999999982424,0.0002721184,326.18999999982424,5.843468e-06,326.18999999982424,5.195198e-06,326.18999999982424,2.902385e-06
326.2049999998242,0.0002739342,326.2049999998242,5.644828e-06,326.2049999998242,5.214144e-06,326.2049999998242,2.916909e-06
326.2199999998242,0.0002892635,326.2199999998242,5.574516e-06,326.2199999998242,5.331691e-06,326.2199999998242,2.940956e-06
326.2349999998242,0.0003006694,326.2349999998242,5.549188e-06,326.2349999998242,5.554263e-06,326.2349999998242,2.926552e-06
326.2499999998242,0.0003067065,326.2499999998242,5.493057e-06,326.2499999998242,5.711809e-06,326.2499999998242,2.878015e-06
326.26499999982417,0.0003091096,326.26499999982417,5.549188e-06,326.26499999982417,5.662269e-06,326.26499999982417,2.964809e-06
326.27999999982416,0.0003057761,326.27999999982416,5.604757e-06,326.27999999982416,5.699464e-06,326.27999999982416,3.24605e-06
326.29499999982414,0.0002988434,326.29499999982414,5.602244e-06,326.29499999982414,5.642331e-06,326.29499999982414,3.24605e-06
326.30999999982413,0.0002953437,326.30999999982413,5.674694e-06,326.30999999982413,5.587136e-06,326.30999999982413,3.250386e-06
326.3249999998241,0.0002951038,326.3249999998241,5.425972e-06,326.3249999998241,5.604757e-06,326.3249999998241,3.568524e-06
326.3399999998241,0.0002980099,326.3399999998241,5.487926e-06,326.3399999998241,5.669728e-06,326.3399999998241,3.646619e-06
326.3549999998241,0.0002965272,326.3549999998241,5.642331e-06,326.3549999998241,5.704405e-06,326.3549999998241,3.662038e-06
326.3699999998241,0.0002981246,326.3699999998241,5.654801e-06,326.3699999998241,5.644828e-06,326.3699999998241,3.662038e-06
326.38499999982406,0.000295799,326.38499999982406,5.706874e-06,326.38499999982406,5.701935e-06,326.38499999982406,3.669723e-06
326.39999999982405,0.0002953758,326.39999999982405,5.582091e-06,326.39999999982405,5.604757e-06,326.39999999982405,3.611685e-06
326.41499999982403,0.0002883279,326.41499999982403,5.339611e-06,326.41499999982403,5.216845e-06,326.41499999982403,3.623367e-06
326.429999999824,0.0002618479,326.429999999824,5.664756e-06,326.429999999824,4.645514e-06,326.429999999824,3.635012e-06
326.444999999824,0.0002107504,326.444999999824,5.746233e-06,326.444999999824,4.648545e-06,326.444999999824,3.730636e-06
326.459999999824,0.0002096987,326.459999999824,5.719203e-06,326.459999999824,4.73561e-06,326.459999999824,3.760722e-06
326.474999999824,0.0002000019,326.474999999824,5.893875e-06,326.474999999824,4.373753e-06,326.474999999824,3.853228e-06
