X[s],a: EMG RMS 1-1,X[s].1,a: EMG RMS 1-2,X[s].2,a: EMG RMS 1-3,X[s].3,a: EMG RMS 1-4
192.01499999994624,6.17019e-05,192.01499999994624,4.438208e-05,192.01499999994624,5.955692e-06,192.01499999994624,2.379674e-06
192.02999999994623,6.562583e-05,192.02999999994623,4.521692e-05,192.02999999994623,5.958057e-06,192.02999999994623,2.40909e-06
192.0449999999462,6.5637e-05,192.0449999999462,4.739891e-05,192.0449999999462,6.082075e-06,192.0449999999462,2.325787e-06
192.0599999999462,6.585704e-05,192.0599999999462,4.736561e-05,192.0599999999462,6.569749e-06,192.0599999999462,2.349889e-06
192.0749999999462,6.488497e-05,192.0749999999462,4.895101e-05,192.0749999999462,6.369431e-06,192.0749999999462,2.361848e-06
192.08999999994617,6.367175e-05,192.08999999994617,5.211226e-05,192.08999999994617,6.455107e-06,192.08999999994617,2.391484e-06
192.10499999994616,6.380899e-05,192.10499999994616,5.386732e-05,192.10499999994616,6.565459e-06,192.10499999994616,2.403235e-06
192.11999999994615,6.386151e-05,192.11999999994615,5.183009e-05,192.11999999994615,6.455107e-06,192.11999999994615,2.41493e-06
192.13499999994613,6.339637e-05,192.13499999994613,5.4681e-05,192.13499999994613,6.042573e-06,192.13499999994613,2.500897e-06
192.14999999994612,6.330654e-05,192.14999999994612,5.59759e-05,192.14999999994612,6.109804e-06,192.14999999994612,2.534468e-06
192.1649999999461,6.330342e-05,192.1649999999461,5.345359e-05,192.1649999999461,6.233063e-06,192.1649999999461,2.489606e-06
192.1799999999461,6.288436e-05,192.1799999999461,5.317617e-05,192.1799999999461,6.25337e-06,192.1799999999461,2.506524e-06
192.19499999994608,6.329585e-05,192.19499999994608,5.352838e-05,192.19499999994608,6.19225e-06,192.19499999994608,2.489606e-06
192.20999999994606,6.162331e-05,192.20999999994606,5.396529e-05,192.20999999994606,6.023894e-06,192.20999999994606,2.534468e-06
192.22499999994605,5.60614e-05,192.22499999994605,5.369418e-05,192.22499999994605,6.061194e-06,192.22499999994605,2.54002e-06
192.23999999994604,4.933226e-05,192.23999999994604,5.447943e-05,192.23999999994604,5.738873e-06,192.23999999994604,2.675077e-06
192.25499999994602,4.833971e-05,192.25499999994602,5.47716e-05,192.25499999994602,5.654801e-06,192.25499999994602,2.690828e-06
192.269999999946,4.207395e-05,192.269999999946,5.458843e-05,192.269999999946,5.56693e-06,192.269999999946,2.690828e-06
192.284999999946,3.670338e-05,192.284999999946,5.143285e-05,192.284999999946,5.541568e-06,192.284999999946,2.696058e-06
192.29999999994598,3.697258e-05,192.29999999994598,4.992972e-05,192.29999999994598,5.577042e-06,192.29999999994598,2.711688e-06
192.31499999994597,3.6521e-05,192.31499999994597,5.024023e-05,192.31499999994597,5.170737e-06,192.31499999994597,2.664524e-06
192.32999999994595,3.696572e-05,192.32999999994595,4.855545e-05,192.32999999994595,5.412975e-06,192.32999999994595,2.659232e-06
192.34499999994594,3.631251e-05,192.34499999994594,4.096003e-05,192.34499999994594,5.181623e-06,192.34499999994594,2.690828e-06
192.35999999994593,3.574637e-05,192.35999999994593,3.97831e-05,192.35999999994593,5.113207e-06,192.35999999994593,2.690828e-06
192.3749999999459,3.62045e-05,192.3749999999459,4.072169e-05,192.3749999999459,5.28392e-06,192.3749999999459,2.611121e-06
192.3899999999459,3.614999e-05,192.3899999999459,3.763643e-05,192.3899999999459,5.444114e-06,192.3899999999459,2.637958e-06
192.4049999999459,3.622512e-05,192.4049999999459,3.342687e-05,192.4049999999459,5.355417e-06,192.4049999999459,2.605721e-06
192.41999999994587,3.584868e-05,192.41999999994587,3.396698e-05,192.41999999994587,5.425972e-06,192.41999999994587,2.643292e-06
192.43499999994586,3.306928e-05,192.43499999994586,3.477073e-05,192.43499999994586,5.420777e-06,192.43499999994586,2.594886e-06
192.44999999994585,3.32672e-05,192.44999999994585,3.394707e-05,192.44999999994585,5.405162e-06,192.44999999994585,2.685588e-06
192.46499999994583,3.368379e-05,192.46499999994583,3.472776e-05,192.46499999994583,5.407768e-06,192.46499999994583,2.716877e-06
192.47999999994582,3.366497e-05,192.47999999994582,3.446718e-05,192.47999999994582,5.415577e-06,192.47999999994582,2.675077e-06
192.4949999999458,3.452516e-05,192.4949999999458,3.38211e-05,192.4949999999458,5.48279e-06,192.4949999999458,2.589452e-06
192.5099999999458,3.42252e-05,192.5099999999458,3.341043e-05,192.5099999999458,5.523745e-06,192.5099999999458,2.600309e-06
192.52499999994578,3.394582e-05,192.52499999994578,3.453944e-05,192.52499999994578,5.528843e-06,192.52499999994578,2.701278e-06
192.53999999994576,3.360759e-05,192.53999999994576,3.646928e-05,192.53999999994576,5.597212e-06,192.53999999994576,2.643292e-06
192.55499999994575,3.361262e-05,192.55499999994575,3.649553e-05,192.55499999994575,5.594695e-06,192.55499999994575,2.701278e-06
192.56999999994574,3.29592e-05,192.56999999994574,3.80696e-05,192.56999999994574,5.518642e-06,192.56999999994574,2.727227e-06
192.58499999994572,3.285003e-05,192.58499999994572,3.792018e-05,192.58499999994572,5.431162e-06,192.58499999994572,2.722057e-06
192.5999999999457,3.290145e-05,192.5999999999457,3.792873e-05,192.5999999999457,5.490492e-06,192.5999999999457,2.648616e-06
192.6149999999457,3.238795e-05,192.6149999999457,3.742662e-05,192.6149999999457,5.352786e-06,192.6149999999457,2.680338e-06
192.62999999994568,3.171551e-05,192.62999999994568,3.65345e-05,192.62999999994568,5.214144e-06,192.62999999994568,2.675077e-06
192.64499999994567,3.152484e-05,192.64499999994567,3.60497e-05,192.64499999994567,5.307859e-06,192.64499999994567,2.701278e-06
192.65999999994565,3.138107e-05,192.65999999994565,3.662384e-05,192.65999999994565,5.184341e-06,192.65999999994565,2.758045e-06
192.67499999994564,3.119784e-05,192.67499999994564,3.51122e-05,192.67499999994564,5.088352e-06,192.67499999994564,2.803635e-06
192.68999999994563,3.060431e-05,192.68999999994563,3.551628e-05,192.68999999994563,5.219545e-06,192.68999999994563,2.783465e-06
192.7049999999456,3.024176e-05,192.7049999999456,3.456757e-05,192.7049999999456,5.176183e-06,192.7049999999456,2.758045e-06
192.7199999999456,3.028505e-05,192.7199999999456,3.592679e-05,192.7199999999456,5.121465e-06,192.7199999999456,2.701278e-06
192.7349999999456,2.98262e-05,192.7349999999456,3.72614e-05,192.7349999999456,5.363302e-06,192.7349999999456,2.685588e-06
192.74999999994557,2.978698e-05,192.74999999994557,3.87401e-05,192.74999999994557,5.449287e-06,192.74999999994557,2.711688e-06
192.76499999994556,2.961719e-05,192.76499999994556,3.867131e-05,192.76499999994556,5.594695e-06,192.76499999994556,2.758045e-06
192.77999999994555,2.977515e-05,192.77999999994555,3.654761e-05,192.77999999994555,5.743781e-06,192.77999999994555,2.711688e-06
192.79499999994553,2.945073e-05,192.79499999994553,3.403079e-05,192.79499999994553,5.582091e-06,192.79499999994553,2.722057e-06
192.80999999994552,2.932994e-05,192.80999999994552,3.436116e-05,192.80999999994552,5.652309e-06,192.80999999994552,2.648616e-06
192.8249999999455,2.968987e-05,192.8249999999455,3.337922e-05,192.8249999999455,5.551726e-06,192.8249999999455,2.637958e-06
192.8399999999455,3.177143e-05,192.8399999999455,3.311781e-05,192.8399999999455,5.654801e-06,192.8399999999455,2.690828e-06
192.85499999994548,3.107388e-05,192.85499999994548,3.331459e-05,192.85499999994548,5.780451e-06,192.85499999994548,2.664524e-06
192.86999999994546,3.102806e-05,192.86999999994546,3.384567e-05,192.86999999994546,5.831403e-06,192.86999999994546,2.57308e-06
192.88499999994545,3.099081e-05,192.88499999994545,3.389765e-05,192.88499999994545,5.694519e-06,192.88499999994545,2.664524e-06
192.89999999994544,3.074895e-05,192.89999999994544,3.416217e-05,192.89999999994544,5.654801e-06,192.89999999994544,2.632612e-06
192.91499999994542,3.142638e-05,192.91499999994542,3.260555e-05,192.91499999994542,5.637336e-06,192.91499999994542,2.611121e-06
192.9299999999454,3.16546e-05,192.9299999999454,3.276415e-05,192.9299999999454,5.629835e-06,192.9299999999454,2.578549e-06
192.9449999999454,3.173239e-05,192.9449999999454,3.267202e-05,192.9449999999454,5.508422e-06,192.9449999999454,2.57308e-06
192.95999999994538,3.179758e-05,192.95999999994538,3.230651e-05,192.95999999994538,5.495621e-06,192.95999999994538,2.54556e-06
192.97499999994537,3.192138e-05,192.97499999994537,3.138377e-05,192.97499999994537,5.609782e-06,192.97499999994537,2.584006e-06
192.98999999994535,3.099808e-05,192.98999999994535,2.78149e-05,192.98999999994535,5.516089e-06,192.98999999994535,2.562108e-06
193.00499999994534,3.187854e-05,193.00499999994534,2.805293e-05,193.00499999994534,5.533936e-06,193.00499999994534,2.551088e-06
193.01999999994533,3.334079e-05,193.01999999994533,3.006236e-05,193.01999999994533,5.137942e-06,193.01999999994533,2.523327e-06
193.0349999999453,4.043146e-05,193.0349999999453,3.391967e-05,193.0349999999453,5.165286e-06,193.0349999999453,2.506524e-06
193.0499999999453,4.481418e-05,193.0499999999453,3.368756e-05,193.0499999999453,5.124215e-06,193.0499999999453,2.495258e-06
193.0649999999453,4.504994e-05,193.0649999999453,3.361304e-05,193.0649999999453,5.132455e-06,193.0649999999453,2.506524e-06
193.07999999994527,4.919386e-05,193.07999999994527,3.467539e-05,193.07999999994527,5.273245e-06,193.07999999994527,2.483942e-06
193.09499999994526,5.050142e-05,193.09499999994526,3.653411e-05,193.09499999994526,5.181623e-06,193.09499999994526,2.443922e-06
193.10999999994525,5.483946e-05,193.10999999994525,3.765663e-05,193.10999999994525,5.249148e-06,193.10999999994525,2.455423e-06
193.12499999994523,5.592453e-05,193.12499999994523,3.848655e-05,193.12499999994523,5.214144e-06,193.12499999994523,2.443922e-06
193.13999999994522,5.659183e-05,193.13999999994522,3.944564e-05,193.13999999994522,5.334332e-06,193.13999999994522,2.403235e-06
193.1549999999452,5.848577e-05,193.1549999999452,3.963624e-05,193.1549999999452,5.619817e-06,193.1549999999452,2.379674e-06
193.1699999999452,6.544226e-05,193.1699999999452,3.952948e-05,193.1699999999452,5.559333e-06,193.1699999999452,2.361848e-06
193.18499999994518,6.780029e-05,193.18499999994518,3.99587e-05,193.18499999994518,5.604757e-06,193.18499999994518,2.307546e-06
193.19999999994516,6.877253e-05,193.19999999994516,4.155854e-05,193.19999999994516,5.61731e-06,193.19999999994516,2.258181e-06
193.21499999994515,7.120785e-05,193.21499999994515,4.520009e-05,193.21499999994515,5.924864e-06,193.21499999994515,2.295304e-06
193.22999999994514,7.246481e-05,193.22999999994514,5.401017e-05,193.22999999994514,5.881913e-06,193.22999999994514,2.319723e-06
193.24499999994512,7.266496e-05,193.24499999994512,5.959877e-05,193.24499999994512,5.896265e-06,193.24499999994512,2.307546e-06
193.2599999999451,7.244187e-05,193.2599999999451,5.937665e-05,193.2599999999451,5.857914e-06,193.2599999999451,2.26441e-06
193.2749999999451,7.215975e-05,193.2749999999451,6.006564e-05,193.2749999999451,5.924864e-06,193.2749999999451,2.343887e-06
193.28999999994508,6.893292e-05,193.28999999994508,6.555625e-05,193.28999999994508,6.002811e-06,193.28999999994508,2.373747e-06
193.30499999994507,6.732073e-05,193.30499999994507,6.937841e-05,193.30499999994507,5.884307e-06,193.30499999994507,2.432367e-06
193.31999999994505,6.721267e-05,193.31999999994505,6.983396e-05,193.31999999994505,6.044903e-06,193.31999999994505,2.367805e-06
193.33499999994504,6.52137e-05,193.33499999994504,7.00551e-05,193.33499999994504,5.931993e-06,193.33499999994504,2.403235e-06
193.34999999994503,6.308385e-05,193.34999999994503,6.866326e-05,193.34999999994503,5.908198e-06,193.34999999994503,2.385586e-06
193.364999999945,6.098058e-05,193.364999999945,6.863392e-05,193.364999999945,5.684616e-06,193.364999999945,2.385586e-06
193.379999999945,6.002717e-05,193.379999999945,6.775373e-05,193.379999999945,5.857914e-06,193.379999999945,2.391484e-06
193.394999999945,5.98702e-05,193.394999999945,6.695418e-05,193.394999999945,5.536481e-06,193.394999999945,2.420756e-06
193.40999999994497,6.00098e-05,193.40999999994497,6.698531e-05,193.40999999994497,5.490492e-06,193.40999999994497,2.461153e-06
193.42499999994496,5.262763e-05,193.42499999994496,6.69405e-05,193.42499999994496,5.664756e-06,193.42499999994496,2.512137e-06
193.43999999994494,5.13262e-05,193.43999999994494,6.672846e-05,193.43999999994494,5.689569e-06,193.43999999994494,2.500897e-06
193.45499999994493,4.894871e-05,193.45499999994493,6.541126e-05,193.45499999994493,5.711809e-06,193.45499999994493,2.551088e-06
193.46999999994492,4.525428e-05,193.46999999994492,6.189314e-05,193.46999999994492,5.446701e-06,193.46999999994492,2.523327e-06
193.4849999999449,4.69819e-05,193.4849999999449,5.265091e-05,193.4849999999449,5.516089e-06,193.4849999999449,2.562108e-06
193.4999999999449,4.69234e-05,193.4999999999449,4.808258e-05,193.4999999999449,5.381656e-06,193.4999999999449,2.551088e-06
193.51499999994488,4.589165e-05,193.51499999994488,5.00613e-05,193.51499999994488,5.433755e-06,193.51499999994488,2.600309e-06
193.52999999994486,4.555739e-05,193.52999999994486,4.997089e-05,193.52999999994486,5.291911e-06,193.52999999994486,2.495258e-06
193.54499999994485,4.437383e-05,193.54499999994485,4.480223e-05,193.54499999994485,5.386888e-06,193.54499999994485,2.432367e-06
193.55999999994484,4.353286e-05,193.55999999994484,3.765626e-05,193.55999999994484,5.410373e-06,193.55999999994484,2.500897e-06
193.57499999994482,4.251691e-05,193.57499999994482,3.853008e-05,193.57499999994482,5.905813e-06,193.57499999994482,2.556603e-06
193.5899999999448,4.328753e-05,193.5899999999448,4.001471e-05,193.5899999999448,6.01219e-06,193.5899999999448,2.54556e-06
193.6049999999448,4.301331e-05,193.6049999999448,4.004146e-05,193.6049999999448,6.075122e-06,193.6049999999448,2.54002e-06
193.61999999994478,4.24652e-05,193.61999999994478,4.063893e-05,193.61999999994478,6.158032e-06,193.61999999994478,2.696058e-06
193.63499999994477,4.229368e-05,193.63499999994477,4.015738e-05,193.63499999994477,6.426676e-06,193.63499999994477,2.742679e-06
193.64999999994475,4.151648e-05,193.64999999994475,4.038405e-05,193.64999999994475,6.713969e-06,193.64999999994475,2.74781e-06
193.66499999994474,3.700153e-05,193.66499999994474,4.003829e-05,193.66499999994474,6.654963e-06,193.66499999994474,2.752932e-06
193.67999999994473,3.649747e-05,193.67999999994473,3.995799e-05,193.67999999994473,6.444187e-06,193.67999999994473,2.706488e-06
193.6949999999447,3.687606e-05,193.6949999999447,4.007978e-05,193.6949999999447,6.541815e-06,193.6949999999447,2.742679e-06
193.7099999999447,3.978877e-05,193.7099999999447,3.991531e-05,193.7099999999447,6.787006e-06,193.7099999999447,2.74781e-06
193.72499999994469,3.793839e-05,193.72499999994469,3.815867e-05,193.72499999994469,6.813935e-06,193.72499999994469,2.742679e-06
193.73999999994467,3.701637e-05,193.73999999994467,3.844737e-05,193.73999999994467,6.755802e-06,193.73999999994467,2.711688e-06
193.75499999994466,3.662538e-05,193.75499999994466,3.829833e-05,193.75499999994466,6.713969e-06,193.75499999994466,2.727227e-06
193.76999999994464,3.681566e-05,193.76999999994464,3.651174e-05,193.76999999994464,6.728641e-06,193.76999999994464,2.737538e-06
193.78499999994463,3.682905e-05,193.78499999994463,3.129477e-05,193.78499999994463,6.7391e-06,193.78499999994463,2.783465e-06
193.79999999994462,3.702056e-05,193.79999999994462,3.11748e-05,193.79999999994462,6.718165e-06,193.79999999994462,2.783465e-06
193.8149999999446,3.692264e-05,193.8149999999446,2.941148e-05,193.8149999999446,6.705572e-06,193.8149999999446,2.742679e-06
193.8299999999446,3.707113e-05,193.8299999999446,2.921638e-05,193.8299999999446,6.271365e-06,193.8299999999446,2.742679e-06
193.84499999994458,3.738218e-05,193.84499999994458,3.184494e-05,193.84499999994458,6.221753e-06,193.84499999994458,2.696058e-06
193.85999999994456,3.683822e-05,193.85999999994456,3.176566e-05,193.85999999994456,6.214957e-06,193.85999999994456,2.727227e-06
193.87499999994455,3.748566e-05,193.87499999994455,3.202535e-05,193.87499999994455,5.758477e-06,193.87499999994455,2.690828e-06
193.88999999994454,3.728974e-05,193.88999999994454,3.231e-05,193.88999999994454,5.536481e-06,193.88999999994454,2.675077e-06
193.90499999994452,3.759111e-05,193.90499999994452,3.323754e-05,193.90499999994452,5.592176e-06,193.90499999994452,2.589452e-06
193.9199999999445,3.76192e-05,193.9199999999445,3.587304e-05,193.9199999999445,5.634837e-06,193.9199999999445,2.594886e-06
193.9349999999445,3.767159e-05,193.9349999999445,3.738029e-05,193.9349999999445,5.719203e-06,193.9349999999445,2.611121e-06
193.94999999994448,3.599417e-05,193.94999999994448,3.846935e-05,193.94999999994448,5.48279e-06,193.94999999994448,2.57308e-06
193.96499999994447,3.45745e-05,193.96499999994447,3.917042e-05,193.96499999994447,5.609782e-06,193.96499999994447,2.5676e-06
193.97999999994445,3.468149e-05,193.97999999994445,4.160732e-05,193.97999999994445,5.48279e-06,193.97999999994445,2.57308e-06
193.99499999994444,3.399931e-05,193.99499999994444,4.215289e-05,193.99499999994444,5.56693e-06,193.99499999994444,2.57308e-06
194.00999999994443,3.523235e-05,194.00999999994443,4.265089e-05,194.00999999994443,5.731505e-06,194.00999999994443,2.605721e-06
194.0249999999444,3.491305e-05,194.0249999999444,4.412233e-05,194.0249999999444,5.768253e-06,194.0249999999444,2.57308e-06
194.0399999999444,3.397818e-05,194.0399999999444,4.419028e-05,194.0399999999444,5.709342e-06,194.0399999999444,2.534468e-06
194.05499999994439,3.50371e-05,194.05499999994439,4.720176e-05,194.05499999994439,5.687093e-06,194.05499999994439,2.556603e-06
194.06999999994437,3.507848e-05,194.06999999994437,4.879796e-05,194.06999999994437,5.336972e-06,194.06999999994437,2.495258e-06
194.08499999994436,3.629621e-05,194.08499999994436,4.847037e-05,194.08499999994436,5.291911e-06,194.08499999994436,2.512137e-06
194.09999999994434,3.594718e-05,194.09999999994434,4.764761e-05,194.09999999994434,5.299891e-06,194.09999999994434,2.627256e-06
194.11499999994433,3.614687e-05,194.11499999994433,5.062958e-05,194.11499999994433,5.360675e-06,194.11499999994433,2.584006e-06
194.12999999994432,3.634934e-05,194.12999999994432,5.124078e-05,194.12999999994432,5.828986e-06,194.12999999994432,2.54556e-06
194.1449999999443,3.635903e-05,194.1449999999443,5.179094e-05,194.1449999999443,5.775575e-06,194.1449999999443,2.54556e-06
194.1599999999443,3.625e-05,194.1599999999443,5.203787e-05,194.1599999999443,6.100575e-06,194.1599999999443,2.605721e-06
194.17499999994428,3.611646e-05,194.17499999994428,5.145804e-05,194.17499999994428,6.137409e-06,194.17499999994428,2.611121e-06
194.18999999994426,3.635787e-05,194.18999999994426,5.161657e-05,194.18999999994426,6.075122e-06,194.18999999994426,2.701278e-06
194.20499999994425,3.656726e-05,194.20499999994425,5.267793e-05,194.20499999994425,6.275856e-06,194.20499999994425,2.696058e-06
194.21999999994424,3.681642e-05,194.21999999994424,5.559815e-05,194.21999999994424,6.266871e-06,194.21999999994424,2.690828e-06
194.23499999994422,3.820589e-05,194.23499999994422,5.660926e-05,194.23499999994422,6.269119e-06,194.23499999994422,2.637958e-06
194.2499999999442,3.808736e-05,194.2499999999442,5.678442e-05,194.2499999999442,6.194524e-06,194.2499999999442,2.643292e-06
194.2649999999442,3.763568e-05,194.2649999999442,5.59331e-05,194.2649999999442,6.167175e-06,194.2649999999442,2.664524e-06
194.27999999994418,3.94585e-05,194.27999999994418,5.813669e-05,194.27999999994418,6.128222e-06,194.27999999994418,2.696058e-06
194.29499999994417,4.339901e-05,194.29499999994417,5.816067e-05,194.29499999994417,6.160319e-06,194.29499999994417,2.727227e-06
194.30999999994415,4.80436e-05,194.30999999994415,5.537092e-05,194.30999999994415,6.176305e-06,194.30999999994415,2.727227e-06
194.32499999994414,4.870839e-05,194.32499999994414,5.605662e-05,194.32499999994414,6.387099e-06,194.32499999994414,2.773325e-06
194.33999999994413,4.904186e-05,194.33999999994413,5.648993e-05,194.33999999994413,6.452925e-06,194.33999999994413,2.675077e-06
194.3549999999441,4.979949e-05,194.3549999999441,5.567461e-05,194.3549999999441,6.652846e-06,194.3549999999441,2.669806e-06
194.3699999999441,5.104908e-05,194.3699999999441,5.444658e-05,194.3699999999441,6.716067e-06,194.3699999999441,2.584006e-06
194.38499999994409,5.178224e-05,194.38499999994409,5.45683e-05,194.38499999994409,6.745368e-06,194.38499999994409,2.594886e-06
194.39999999994407,5.192405e-05,194.39999999994407,5.271054e-05,194.39999999994407,6.593293e-06,194.39999999994407,2.773325e-06
194.41499999994406,5.237972e-05,194.41499999994406,5.20449e-05,194.41499999994406,6.311667e-06,194.41499999994406,2.813666e-06
194.42999999994404,5.386235e-05,194.42999999994404,5.136845e-05,194.42999999994404,6.2781e-06,194.42999999994404,2.727227e-06
194.44499999994403,5.374794e-05,194.44499999994403,5.05959e-05,194.44499999994403,6.123622e-06,194.44499999994403,2.669806e-06
194.45999999994402,5.395694e-05,194.45999999994402,4.803803e-05,194.45999999994402,6.16489e-06,194.45999999994402,2.648616e-06
194.474999999944,5.279172e-05,194.474999999944,4.147133e-05,194.474999999944,6.155743e-06,194.474999999944,2.643292e-06
194.489999999944,5.238537e-05,194.489999999944,4.290018e-05,194.489999999944,6.102884e-06,194.489999999944,2.758045e-06
194.50499999994398,5.284186e-05,194.50499999994398,4.211277e-05,194.50499999994398,6.093644e-06,194.50499999994398,2.727227e-06
194.51999999994396,5.21201e-05,194.51999999994396,4.121716e-05,194.51999999994396,6.146583e-06,194.51999999994396,2.669806e-06
194.53499999994395,5.035225e-05,194.53499999994395,3.80485e-05,194.53499999994395,6.340615e-06,194.53499999994395,2.669806e-06
194.54999999994394,4.598763e-05,194.54999999994394,3.828913e-05,194.54999999994394,6.296025e-06,194.54999999994394,2.664524e-06
194.56499999994392,4.211611e-05,194.56499999994392,3.412792e-05,194.56499999994392,6.208153e-06,194.56499999994392,2.632612e-06
194.5799999999439,4.10641e-05,194.5799999999439,3.410976e-05,194.5799999999439,6.309435e-06,194.5799999999439,2.752932e-06
194.5949999999439,3.93974e-05,194.5949999999439,3.331459e-05,194.5949999999439,6.151165e-06,194.5949999999439,2.788521e-06
194.60999999994388,3.761995e-05,194.60999999994388,3.276072e-05,194.60999999994388,6.035575e-06,194.60999999994388,2.892662e-06
194.62499999994387,3.670299e-05,194.62499999994387,3.152842e-05,194.62499999994387,5.920107e-06,194.62499999994387,2.921734e-06
194.63999999994385,3.685887e-05,194.63999999994385,3.019794e-05,194.63999999994385,5.56693e-06,194.63999999994385,2.916909e-06
194.65499999994384,3.611061e-05,194.65499999994384,2.99948e-05,194.65499999994384,5.716739e-06,194.65499999994384,2.798606e-06
194.66999999994383,3.577592e-05,194.66999999994383,3.014798e-05,194.66999999994383,5.814468e-06,194.66999999994383,2.742679e-06
194.6849999999438,3.47375e-05,194.6849999999438,3.065444e-05,194.6849999999438,6.255622e-06,194.6849999999438,2.793568e-06
194.6999999999438,3.468393e-05,194.6999999999438,3.466036e-05,194.6999999999438,6.187698e-06,194.6999999999438,2.823661e-06
194.71499999994379,3.445001e-05,194.71499999994379,3.503991e-05,194.71499999994379,5.912964e-06,194.71499999994379,2.808655e-06
194.72999999994377,3.400387e-05,194.72999999994377,3.367585e-05,194.72999999994377,6.005157e-06,194.72999999994377,2.823661e-06
194.74499999994376,3.446677e-05,194.74499999994376,3.317475e-05,194.74499999994376,5.986361e-06,194.74499999994376,2.742679e-06
194.75999999994374,3.386106e-05,194.75999999994374,3.468839e-05,194.75999999994374,5.984008e-06,194.75999999994374,2.793568e-06
194.77499999994373,3.385482e-05,194.77499999994373,3.651367e-05,194.77499999994373,5.881913e-06,194.77499999994373,2.742679e-06
194.78999999994372,3.474966e-05,194.78999999994372,3.81439e-05,194.78999999994372,6.095956e-06,194.78999999994372,2.727227e-06
194.8049999999437,3.388269e-05,194.8049999999437,3.829281e-05,194.8049999999437,6.298262e-06,194.8049999999437,2.727227e-06
194.8199999999437,3.41939e-05,194.8199999999437,3.811841e-05,194.8199999999437,6.393712e-06,194.8199999999437,2.783465e-06
194.83499999994368,3.352828e-05,194.83499999994368,4.094489e-05,194.83499999994368,6.151165e-06,194.83499999994368,2.74781e-06
194.84999999994366,3.311228e-05,194.84999999994366,4.06715e-05,194.84999999994366,6.345057e-06,194.84999999994366,2.669806e-06
194.86499999994365,3.284831e-05,194.86499999994365,4.365081e-05,194.86499999994365,7.003558e-06,194.86499999994365,2.605721e-06
194.87999999994364,3.340368e-05,194.87999999994364,4.697171e-05,194.87999999994364,6.912455e-06,194.87999999994364,2.500897e-06
194.89499999994362,3.262758e-05,194.89499999994362,4.846253e-05,194.89499999994362,7.011599e-06,194.89499999994362,2.438151e-06
194.9099999999436,3.257227e-05,194.9099999999436,4.871822e-05,194.9099999999436,6.853102e-06,194.9099999999436,2.426568e-06
194.9249999999436,3.261376e-05,194.9249999999436,5.201485e-05,194.9249999999436,6.730734e-06,194.9249999999436,2.367805e-06
194.93999999994358,3.387562e-05,194.93999999994358,6.011768e-05,194.93999999994358,6.455107e-06,194.93999999994358,2.385586e-06
194.95499999994357,3.441196e-05,194.95499999994357,7.609071e-05,194.95499999994357,6.318359e-06,194.95499999994357,2.337869e-06
194.96999999994355,3.479503e-05,194.96999999994355,8.686502e-05,194.96999999994355,6.333946e-06,194.96999999994355,2.319723e-06
194.98499999994354,3.575543e-05,194.98499999994354,8.915718e-05,194.98499999994354,6.53104e-06,194.98499999994354,2.295304e-06
194.99999999994353,3.67145e-05,194.99999999994353,9.146367e-05,194.99999999994353,6.638008e-06,194.99999999994353,2.295304e-06
195.0149999999435,3.637607e-05,195.0149999999435,0.0001063907,195.0149999999435,6.584741e-06,195.0149999999435,2.289158e-06
195.0299999999435,3.775153e-05,195.0299999999435,0.0001289071,195.0299999999435,6.589018e-06,195.0299999999435,2.313642e-06
195.04499999994349,3.793653e-05,195.04499999994349,0.0001451351,195.04499999994349,6.269119e-06,195.04499999994349,2.385586e-06
195.05999999994347,3.945707e-05,195.05999999994347,0.0001522234,195.05999999994347,6.196798e-06,195.05999999994347,2.426568e-06
195.07499999994346,4.105038e-05,195.07499999994346,0.0001515831,195.07499999994346,6.387099e-06,195.07499999994346,2.355876e-06
195.08999999994344,4.237919e-05,195.08999999994344,0.0001546088,195.08999999994344,6.444187e-06,195.08999999994344,2.420756e-06
195.10499999994343,4.226069e-05,195.10499999994343,0.0001638874,195.10499999994343,6.266871e-06,195.10499999994343,2.385586e-06
195.11999999994342,4.252055e-05,195.11999999994342,0.0001735148,195.11999999994342,5.642331e-06,195.11999999994342,2.403235e-06
195.1349999999434,4.262677e-05,195.1349999999434,0.0001775851,195.1349999999434,5.624828e-06,195.1349999999434,2.495258e-06
195.1499999999434,4.347004e-05,195.1499999999434,0.0001772905,195.1499999999434,5.672212e-06,195.1499999999434,2.54556e-06
195.16499999994338,4.330868e-05,195.16499999994338,0.0001783296,195.16499999994338,5.510979e-06,195.16499999994338,2.562108e-06
195.17999999994336,4.326052e-05,195.17999999994336,0.00018141,195.17999999994336,5.554263e-06,195.17999999994336,2.722057e-06
195.19499999994335,4.243533e-05,195.19499999994335,0.0001814715,195.19499999994335,5.649817e-06,195.19499999994335,2.701278e-06
195.20999999994334,4.310622e-05,195.20999999994334,0.0001751525,195.20999999994334,5.743781e-06,195.20999999994334,2.716877e-06
195.22499999994332,4.302903e-05,195.22499999994332,0.0001706744,195.22499999994332,5.874723e-06,195.22499999994332,2.727227e-06
195.2399999999433,4.256029e-05,195.2399999999433,0.0001697458,195.2399999999433,5.642331e-06,195.2399999999433,2.74781e-06
195.2549999999433,4.159479e-05,195.2549999999433,0.0001706872,195.2549999999433,5.472503e-06,195.2549999999433,2.758045e-06
195.26999999994328,4.180019e-05,195.26999999994328,0.0001642043,195.26999999994328,5.587136e-06,195.26999999994328,2.701278e-06
195.28499999994327,4.207562e-05,195.28499999994327,0.0001524933,195.28499999994327,5.500745e-06,195.28499999994327,2.600309e-06
195.29999999994325,4.394478e-05,195.29999999994325,0.000138615,195.29999999994325,5.454455e-06,195.29999999994325,2.675077e-06
195.31499999994324,4.309871e-05,195.31499999994324,0.0001366672,195.31499999994324,5.472503e-06,195.31499999994324,2.653929e-06
195.32999999994323,4.198983e-05,195.32999999994323,0.0001418562,195.32999999994323,5.257193e-06,195.32999999994323,2.605721e-06
195.3449999999432,4.116791e-05,195.3449999999432,0.0001416465,195.3449999999432,5.135199e-06,195.3449999999432,2.594886e-06
195.3599999999432,4.268093e-05,195.3599999999432,0.0001318809,195.3599999999432,5.197909e-06,195.3599999999432,2.706488e-06
195.37499999994319,4.444551e-05,195.37499999994319,0.0001211027,195.37499999994319,5.241091e-06,195.37499999994319,2.732388e-06
195.38999999994317,4.355421e-05,195.38999999994317,0.0001146181,195.38999999994317,5.246463e-06,195.38999999994317,2.637958e-06
195.40499999994316,4.373979e-05,195.40499999994316,0.0001141603,195.40499999994316,5.192486e-06,195.40499999994316,2.659232e-06
195.41999999994314,4.475001e-05,195.41999999994314,0.0001134666,195.41999999994314,5.200618e-06,195.41999999994314,2.621889e-06
195.43499999994313,4.519136e-05,195.43499999994313,0.0001101279,195.43499999994313,5.281253e-06,195.43499999994313,2.483942e-06
195.44999999994312,4.620826e-05,195.44999999994312,0.0001052998,195.44999999994312,5.154366e-06,195.44999999994312,2.506524e-06
195.4649999999431,4.541679e-05,195.4649999999431,0.0001038797,195.4649999999431,5.521194e-06,195.4649999999431,2.495258e-06
195.4799999999431,4.488798e-05,195.4799999999431,9.8203e-05,195.4799999999431,5.574516e-06,195.4799999999431,2.5676e-06
195.49499999994308,4.579547e-05,195.49499999994308,9.79364e-05,195.49499999994308,5.780451e-06,195.49499999994308,2.556603e-06
195.50999999994306,4.64612e-05,195.50999999994306,9.080504e-05,195.50999999994306,5.901041e-06,195.50999999994306,2.584006e-06
195.52499999994305,4.595668e-05,195.52499999994305,8.43958e-05,195.52499999994305,5.948592e-06,195.52499999994305,2.616511e-06
195.53999999994303,4.385654e-05,195.53999999994303,7.87814e-05,195.53999999994303,6.08439e-06,195.53999999994303,2.500897e-06
195.55499999994302,4.296645e-05,195.55499999994302,7.811412e-05,195.55499999994302,6.237581e-06,195.55499999994302,2.500897e-06
195.569999999943,4.352315e-05,195.569999999943,7.22988e-05,195.569999999943,6.382687e-06,195.569999999943,2.461153e-06
195.584999999943,4.409582e-05,195.584999999943,6.422465e-05,195.584999999943,6.483414e-06,195.584999999943,2.46687e-06
195.59999999994298,4.403764e-05,195.59999999994298,5.516676e-05,195.59999999994298,6.629514e-06,195.59999999994298,2.379674e-06
195.61499999994297,4.398867e-05,195.61499999994297,5.111692e-05,195.61499999994297,7.00959e-06,195.61499999994297,2.26441e-06
195.62999999994295,4.257849e-05,195.62999999994295,5.118411e-05,195.62999999994295,7.215565e-06,195.62999999994295,2.313642e-06
195.64499999994294,4.239381e-05,195.64499999994294,5.106453e-05,195.64499999994294,7.233115e-06,195.64499999994294,2.289158e-06
195.65999999994293,4.078771e-05,195.65999999994293,5.112904e-05,195.65999999994293,7.21166e-06,195.65999999994293,2.301433e-06
195.6749999999429,4.068743e-05,195.6749999999429,5.413678e-05,195.6749999999429,7.235062e-06,195.6749999999429,2.337869e-06
195.6899999999429,4.0959e-05,195.6899999999429,5.21355e-05,195.6899999999429,7.24479e-06,195.6899999999429,2.343887e-06
195.70499999994288,4.068466e-05,195.70499999994288,5.159392e-05,195.70499999994288,7.260328e-06,195.70499999994288,2.403235e-06
195.71999999994287,4.090497e-05,195.71999999994287,5.098309e-05,195.71999999994287,6.938897e-06,195.71999999994287,2.40909e-06
195.73499999994286,4.123732e-05,195.73499999994286,5.044924e-05,195.73499999994286,6.787006e-06,195.73499999994286,2.420756e-06
195.74999999994284,4.142545e-05,195.74999999994284,5.140765e-05,195.74999999994284,6.682424e-06,195.74999999994284,2.438151e-06
195.76499999994283,4.094868e-05,195.76499999994283,5.353075e-05,195.76499999994283,6.665538e-06,195.76499999994283,2.403235e-06
195.77999999994282,4.105621e-05,195.77999999994282,5.198614e-05,195.77999999994282,6.50294e-06,195.77999999994282,2.41493e-06
195.7949999999428,4.244396e-05,195.7949999999428,5.420933e-05,195.7949999999428,6.437625e-06,195.7949999999428,2.426568e-06
195.8099999999428,4.290444e-05,195.8099999999428,5.962311e-05,195.8099999999428,6.406918e-06,195.8099999999428,2.355876e-06
195.82499999994278,4.412871e-05,195.82499999994278,6.143122e-05,195.82499999994278,6.201342e-06,195.82499999994278,2.379674e-06
195.83999999994276,4.413286e-05,195.83999999994276,5.83879e-05,195.83999999994276,6.158032e-06,195.83999999994276,2.373747e-06
195.85499999994275,4.473552e-05,195.85499999994275,5.756299e-05,195.85499999994275,5.582091e-06,195.85499999994275,2.385586e-06
195.86999999994273,4.756535e-05,195.86999999994273,5.559865e-05,195.86999999994273,5.669728e-06,195.86999999994273,2.397367e-06
195.88499999994272,4.820255e-05,195.88499999994272,5.621947e-05,195.88499999994272,5.599728e-06,195.88499999994272,2.500897e-06
195.8999999999427,4.83333e-05,195.8999999999427,5.855148e-05,195.8999999999427,5.773135e-06,195.8999999999427,2.517739e-06
195.9149999999427,4.891157e-05,195.9149999999427,5.629359e-05,195.9149999999427,5.869926e-06,195.9149999999427,2.512137e-06
195.92999999994268,4.868988e-05,195.92999999994268,5.463048e-05,195.92999999994268,6.049562e-06,195.92999999994268,2.512137e-06
195.94499999994267,4.886345e-05,195.94499999994267,5.499721e-05,195.94499999994267,6.021555e-06,195.94499999994267,2.46687e-06
195.95999999994265,4.835049e-05,195.95999999994265,5.532561e-05,195.95999999994265,6.068162e-06,195.95999999994265,2.478264e-06
195.97499999994264,4.800547e-05,195.97499999994264,5.631161e-05,195.97499999994264,6.03324e-06,195.97499999994264,2.432367e-06
195.98999999994263,4.759111e-05,195.98999999994263,5.614149e-05,195.98999999994263,6.203613e-06,195.98999999994263,2.379674e-06
196.0049999999426,4.69765e-05,196.0049999999426,5.601413e-05,196.0049999999426,6.11902e-06,196.0049999999426,2.41493e-06
196.0199999999426,4.696361e-05,196.0199999999426,5.257139e-05,196.0199999999426,6.196798e-06,196.0199999999426,2.57308e-06
196.03499999994258,4.819057e-05,196.03499999994258,5.153546e-05,196.03499999994258,6.262374e-06,196.03499999994258,2.664524e-06
196.04999999994257,4.808815e-05,196.04999999994257,5.056025e-05,196.04999999994257,6.345057e-06,196.04999999994257,2.716877e-06
196.06499999994256,4.442015e-05,196.06499999994256,4.86372e-05,196.06499999994256,6.187698e-06,196.06499999994256,2.752932e-06
196.07999999994254,4.363983e-05,196.07999999994254,4.69465e-05,196.07999999994254,6.11902e-06,196.07999999994254,2.752932e-06
196.09499999994253,4.287357e-05,196.09499999994253,4.720445e-05,196.09499999994253,6.287069e-06,196.09499999994253,2.778399e-06
196.10999999994252,4.160088e-05,196.10999999994252,4.672364e-05,196.10999999994252,6.455107e-06,196.10999999994252,2.803635e-06
196.1249999999425,3.86877e-05,196.1249999999425,4.727244e-05,196.1249999999425,6.66131e-06,196.1249999999425,2.848496e-06
196.1399999999425,3.814907e-05,196.1399999999425,4.74871e-05,196.1399999999425,6.597564e-06,196.1399999999425,2.798606e-06
196.15499999994248,3.95031e-05,196.15499999994248,4.673991e-05,196.15499999994248,6.362793e-06,196.15499999994248,2.833621e-06
196.16999999994246,3.927888e-05,196.16999999994246,4.588183e-05,196.16999999994246,6.417902e-06,196.16999999994246,2.788521e-06
196.18499999994245,3.847191e-05,196.18499999994245,4.468543e-05,196.18499999994245,6.11902e-06,196.18499999994245,2.798606e-06
196.19999999994243,3.876264e-05,196.19999999994243,4.482423e-05,196.19999999994243,6.093644e-06,196.19999999994243,2.863294e-06
196.21499999994242,3.927062e-05,196.21499999994242,4.533048e-05,196.21499999994242,6.06584e-06,196.21499999994242,2.882905e-06
196.2299999999424,3.915387e-05,196.2299999999424,4.492625e-05,196.2299999999424,6.054217e-06,196.2299999999424,2.921734e-06
196.2449999999424,3.877862e-05,196.2449999999424,4.594994e-05,196.2449999999424,6.021555e-06,196.2449999999424,2.95052e-06
196.25999999994238,3.957186e-05,196.25999999994238,4.349369e-05,196.25999999994238,6.219488e-06,196.25999999994238,2.907234e-06
196.27499999994237,3.948205e-05,196.27499999994237,4.234727e-05,196.27499999994237,6.260124e-06,196.27499999994237,2.706488e-06
196.28999999994235,3.862794e-05,196.28999999994235,4.069885e-05,196.28999999994235,6.128222e-06,196.28999999994235,2.696058e-06
196.30499999994234,3.819041e-05,196.30499999994234,4.029186e-05,196.30499999994234,6.749543e-06,196.30499999994234,2.653929e-06
196.31999999994233,3.759748e-05,196.31999999994233,3.873137e-05,196.31999999994233,6.795303e-06,196.31999999994233,2.632612e-06
196.3349999999423,3.748792e-05,196.3349999999423,3.744242e-05,196.3349999999423,7.063642e-06,196.3349999999423,2.621889e-06
196.3499999999423,3.767047e-05,196.3499999999423,3.552382e-05,196.3499999999423,6.922637e-06,196.3499999999423,2.680338e-06
196.36499999994228,3.828655e-05,196.36499999994228,3.329894e-05,196.36499999994228,6.48993e-06,196.36499999994228,2.701278e-06
196.37999999994227,3.84774e-05,196.37999999994227,3.304798e-05,196.37999999994227,6.160319e-06,196.37999999994227,2.664524e-06
196.39499999994226,3.673829e-05,196.39499999994226,3.387853e-05,196.39499999994226,6.318359e-06,196.39499999994226,2.627256e-06
196.40999999994224,3.605478e-05,196.40999999994224,3.321464e-05,196.40999999994224,6.282586e-06,196.40999999994224,2.616511e-06
196.42499999994223,3.492152e-05,196.42499999994223,3.362226e-05,196.42499999994223,6.433248e-06,196.42499999994223,2.632612e-06
196.43999999994222,3.414938e-05,196.43999999994222,3.219513e-05,196.43999999994222,6.809799e-06,196.43999999994222,2.611121e-06
196.4549999999422,3.426016e-05,196.4549999999422,2.989837e-05,196.4549999999422,6.822199e-06,196.4549999999422,2.562108e-06
196.4699999999422,3.392673e-05,196.4699999999422,3.211759e-05,196.4699999999422,7.00959e-06,196.4699999999422,2.54002e-06
196.48499999994218,3.479705e-05,196.48499999994218,3.328243e-05,196.48499999994218,7.017624e-06,196.48499999994218,2.523327e-06
196.49999999994216,3.336149e-05,196.49999999994216,3.202491e-05,196.49999999994216,6.732826e-06,196.49999999994216,2.534468e-06
196.51499999994215,3.295834e-05,196.51499999994215,3.416217e-05,196.51499999994215,6.745368e-06,196.51499999994215,2.523327e-06
196.52999999994213,3.373978e-05,196.52999999994213,3.483347e-05,196.52999999994213,6.699267e-06,196.52999999994213,2.449679e-06
196.54499999994212,3.304073e-05,196.54499999994212,3.476384e-05,196.54499999994212,6.498606e-06,196.54499999994212,2.523327e-06
196.5599999999421,3.302836e-05,196.5599999999421,3.539789e-05,196.5599999999421,5.891484e-06,196.5599999999421,2.523327e-06
196.5749999999421,3.355432e-05,196.5749999999421,3.551866e-05,196.5749999999421,5.986361e-06,196.5749999999421,2.523327e-06
196.58999999994208,3.295364e-05,196.58999999994208,3.735202e-05,196.58999999994208,5.841057e-06,196.58999999994208,2.562108e-06
196.60499999994207,3.253549e-05,196.60499999994207,3.756825e-05,196.60499999994207,5.912964e-06,196.60499999994207,2.472574e-06
196.61999999994205,3.24657e-05,196.61999999994205,3.909158e-05,196.61999999994205,5.965146e-06,196.61999999994205,2.373747e-06
196.63499999994204,3.211101e-05,196.63499999994204,4.517577e-05,196.63499999994204,6.01219e-06,196.63499999994204,2.500897e-06
196.64999999994203,3.219032e-05,196.64999999994203,5.009984e-05,196.64999999994203,5.731505e-06,196.64999999994203,2.616511e-06
196.664999999942,3.274609e-05,196.664999999942,5.044226e-05,196.664999999942,5.824151e-06,196.664999999942,2.621889e-06
196.679999999942,3.288218e-05,196.679999999942,5.100739e-05,196.679999999942,5.313164e-06,196.679999999942,2.643292e-06
196.69499999994198,3.224628e-05,196.69499999994198,5.482327e-05,196.69499999994198,5.173461e-06,196.69499999994198,2.637958e-06
196.70999999994197,3.331628e-05,196.70999999994197,5.634987e-05,196.70999999994197,5.254512e-06,196.70999999994197,2.616511e-06
196.72499999994196,3.337162e-05,196.72499999994196,5.529709e-05,196.72499999994196,4.967884e-06,196.72499999994196,2.632612e-06
196.73999999994194,3.208117e-05,196.73999999994194,5.507425e-05,196.73999999994194,4.962209e-06,196.73999999994194,2.643292e-06
196.75499999994193,3.169063e-05,196.75499999994193,5.509138e-05,196.75499999994193,5.046655e-06,196.75499999994193,2.605721e-06
196.76999999994192,3.193814e-05,196.76999999994192,5.448925e-05,196.76999999994192,5.544109e-06,196.76999999994192,2.675077e-06
196.7849999999419,3.217981e-05,196.7849999999419,5.459334e-05,196.7849999999419,5.679657e-06,196.7849999999419,2.768241e-06
196.7999999999419,3.277189e-05,196.7999999999419,5.427503e-05,196.7999999999419,5.716739e-06,196.7999999999419,2.763147e-06
196.81499999994188,3.277791e-05,196.81499999994188,5.469903e-05,196.81499999994188,5.644828e-06,196.81499999994188,2.793568e-06
196.82999999994186,3.30548e-05,196.82999999994186,5.404511e-05,196.82999999994186,5.602244e-06,196.82999999994186,2.788521e-06
196.84499999994185,3.488317e-05,196.84499999994185,5.382075e-05,196.84499999994185,5.584614e-06,196.84499999994185,2.803635e-06
196.85999999994183,3.581881e-05,196.85999999994183,5.387751e-05,196.85999999994183,5.546649e-06,196.85999999994183,2.902385e-06
196.87499999994182,3.628534e-05,196.87499999994182,5.631561e-05,196.87499999994182,5.60727e-06,196.87499999994182,2.833621e-06
196.8899999999418,3.675132e-05,196.8899999999418,4.991646e-05,196.8899999999418,5.510979e-06,196.8899999999418,2.858369e-06
196.9049999999418,3.847081e-05,196.9049999999418,4.762957e-05,196.9049999999418,5.399948e-06,196.9049999999418,2.716877e-06
196.91999999994178,3.889651e-05,196.91999999994178,4.73998e-05,196.91999999994178,5.48279e-06,196.91999999994178,2.690828e-06
196.93499999994177,3.928748e-05,196.93499999994177,4.613412e-05,196.93499999994177,5.485359e-06,196.93499999994177,2.637958e-06
196.94999999994175,3.869316e-05,196.94999999994175,4.28315e-05,196.94999999994175,5.449287e-06,196.94999999994175,2.648616e-06
196.96499999994174,3.932762e-05,196.96499999994174,4.215857e-05,196.96499999994174,5.672212e-06,196.96499999994174,2.701278e-06
196.97999999994173,3.984502e-05,196.97999999994173,4.222268e-05,196.97999999994173,5.684616e-06,196.97999999994173,2.637958e-06
196.9949999999417,4.245192e-05,196.9949999999417,4.214754e-05,196.9949999999417,5.760922e-06,196.9949999999417,2.737538e-06
197.0099999999417,4.250067e-05,197.0099999999417,4.147575e-05,197.0099999999417,5.775575e-06,197.0099999999417,2.763147e-06
197.02499999994168,4.248543e-05,197.02499999994168,4.169255e-05,197.02499999994168,5.118714e-06,197.02499999994168,2.706488e-06
197.03999999994167,4.355874e-05,197.03999999994167,4.236456e-05,197.03999999994167,5.102175e-06,197.03999999994167,2.611121e-06
197.05499999994166,4.461097e-05,197.05499999994166,4.384947e-05,197.05499999994166,5.178904e-06,197.05499999994166,2.621889e-06
197.06999999994164,4.476259e-05,197.06999999994164,4.539259e-05,197.06999999994164,5.477649e-06,197.06999999994164,2.589452e-06
197.08499999994163,4.428644e-05,197.08499999994163,4.82525e-05,197.08499999994163,5.634837e-06,197.08499999994163,2.648616e-06
197.09999999994162,4.41252e-05,197.09999999994162,4.709809e-05,197.09999999994162,5.556798e-06,197.09999999994162,2.643292e-06
197.1149999999416,4.341232e-05,197.1149999999416,4.631605e-05,197.1149999999416,5.838645e-06,197.1149999999416,2.551088e-06
197.1299999999416,4.282228e-05,197.1299999999416,4.432428e-05,197.1299999999416,6.25337e-06,197.1299999999416,2.489606e-06
197.14499999994158,4.314999e-05,197.14499999994158,4.453417e-05,197.14499999994158,6.187698e-06,197.14499999994158,2.472574e-06
197.15999999994156,4.205586e-05,197.15999999994156,4.417529e-05,197.15999999994156,6.235322e-06,197.15999999994156,2.495258e-06
197.17499999994155,4.143089e-05,197.17499999994155,4.69435e-05,197.17499999994155,6.446372e-06,197.17499999994155,2.534468e-06
197.18999999994153,4.163372e-05,197.18999999994153,4.69234e-05,197.18999999994153,6.496438e-06,197.18999999994153,2.54002e-06
197.20499999994152,4.2215e-05,197.20499999994152,4.719937e-05,197.20499999994152,6.597564e-06,197.20499999994152,2.562108e-06
197.2199999999415,4.219564e-05,197.2199999999415,4.695641e-05,197.2199999999415,6.466009e-06,197.2199999999415,2.600309e-06
197.2349999999415,4.161409e-05,197.2349999999415,4.610755e-05,197.2349999999415,6.448557e-06,197.2349999999415,2.562108e-06
197.24999999994148,4.03708e-05,197.24999999994148,4.64903e-05,197.24999999994148,6.378271e-06,197.24999999994148,2.523327e-06
197.26499999994147,4.09755e-05,197.26499999994147,4.63273e-05,197.26499999994147,6.526725e-06,197.26499999994147,2.556603e-06
197.27999999994145,4.153209e-05,197.27999999994145,4.639537e-05,197.27999999994145,6.580461e-06,197.27999999994145,2.556603e-06
197.29499999994144,4.088775e-05,197.29499999994144,4.58548e-05,197.29499999994144,6.528882e-06,197.29499999994144,2.621889e-06
197.30999999994143,4.000344e-05,197.30999999994143,4.500019e-05,197.30999999994143,6.574036e-06,197.30999999994143,2.669806e-06
197.3249999999414,4.089946e-05,197.3249999999414,4.174961e-05,197.3249999999414,6.333946e-06,197.3249999999414,2.659232e-06
197.3399999999414,3.976823e-05,197.3399999999414,3.960709e-05,197.3399999999414,6.16489e-06,197.3399999999414,2.616511e-06
197.35499999994138,4.048648e-05,197.35499999994138,3.951558e-05,197.35499999994138,6.226279e-06,197.35499999994138,2.742679e-06
197.36999999994137,4.051361e-05,197.36999999994137,4.242636e-05,197.36999999994137,5.850696e-06,197.36999999994137,2.74781e-06
197.38499999994136,4.061362e-05,197.38499999994136,4.240976e-05,197.38499999994136,5.384273e-06,197.38499999994136,2.793568e-06
197.39999999994134,4.025023e-05,197.39999999994134,4.199285e-05,197.39999999994134,5.313164e-06,197.39999999994134,2.742679e-06
197.41499999994133,4.043808e-05,197.41499999994133,4.195862e-05,197.41499999994133,5.238403e-06,197.41499999994133,2.793568e-06
197.42999999994132,4.023903e-05,197.42999999994132,3.926488e-05,197.42999999994132,5.068936e-06,197.42999999994132,2.773325e-06
197.4449999999413,3.983972e-05,197.4449999999413,3.897899e-05,197.4449999999413,4.791795e-06,197.4449999999413,2.773325e-06
197.4599999999413,3.874519e-05,197.4599999999413,3.900211e-05,197.4599999999413,5.029879e-06,197.4599999999413,2.783465e-06
197.47499999994128,3.862211e-05,197.47499999994128,4.066769e-05,197.47499999994128,5.093886e-06,197.47499999994128,2.74781e-06
197.48999999994126,3.786293e-05,197.48999999994126,4.210474e-05,197.48999999994126,5.254512e-06,197.48999999994126,2.778399e-06
197.50499999994125,3.690661e-05,197.50499999994125,4.646393e-05,197.50499999994125,5.137942e-06,197.50499999994125,2.758045e-06
197.51999999994123,3.632686e-05,197.51999999994123,4.704692e-05,197.51999999994123,5.275916e-06,197.51999999994123,2.685588e-06
197.53499999994122,3.511701e-05,197.53499999994122,4.673871e-05,197.53499999994122,5.254512e-06,197.53499999994122,2.664524e-06
197.5499999999412,3.406389e-05,197.5499999999412,4.764081e-05,197.5499999999412,5.140683e-06,197.5499999999412,2.621889e-06
197.5649999999412,3.360298e-05,197.5649999999412,4.91357e-05,197.5649999999412,5.027078e-06,197.5649999999412,2.722057e-06
197.57999999994118,3.373269e-05,197.57999999994118,4.919472e-05,197.57999999994118,5.013047e-06,197.57999999994118,2.716877e-06
197.59499999994117,3.359879e-05,197.59499999994117,4.973467e-05,197.59499999994117,5.018664e-06,197.59499999994117,2.768241e-06
197.60999999994115,3.288432e-05,197.60999999994115,4.904071e-05,197.60999999994115,4.939447e-06,197.60999999994115,2.659232e-06
197.62499999994114,3.277877e-05,197.62499999994114,4.657053e-05,197.62499999994114,5.203327e-06,197.62499999994114,2.648616e-06
197.63999999994112,3.230389e-05,197.63999999994112,4.667779e-05,197.63999999994112,5.365928e-06,197.63999999994112,2.600309e-06
197.6549999999411,3.274523e-05,197.6549999999411,4.60831e-05,197.6549999999411,5.551726e-06,197.6549999999411,2.648616e-06
197.6699999999411,3.245573e-05,197.6699999999411,4.587906e-05,197.6699999999411,5.624828e-06,197.6699999999411,2.653929e-06
197.68499999994108,3.25554e-05,197.68499999994108,4.620917e-05,197.68499999994108,5.901041e-06,197.68499999994108,2.621889e-06
197.69999999994107,3.322525e-05,197.69999999994107,4.595055e-05,197.69999999994107,5.857914e-06,197.69999999994107,2.600309e-06
197.71499999994106,3.36771e-05,197.71499999994106,4.62363e-05,197.71499999994106,5.60727e-06,197.71499999994106,2.556603e-06
197.72999999994104,3.352534e-05,197.72999999994104,4.236656e-05,197.72999999994104,5.664756e-06,197.72999999994104,2.556603e-06
197.74499999994103,3.437223e-05,197.74499999994103,4.207361e-05,197.74499999994103,5.556798e-06,197.74499999994103,2.517739e-06
197.75999999994102,3.517994e-05,197.75999999994102,3.764878e-05,197.75999999994102,5.622323e-06,197.75999999994102,2.506524e-06
197.774999999941,3.474317e-05,197.774999999941,3.490659e-05,197.774999999941,5.627332e-06,197.774999999941,2.54556e-06
197.789999999941,3.46632e-05,197.789999999941,3.412008e-05,197.789999999941,5.682137e-06,197.789999999941,2.5676e-06
197.80499999994097,3.559433e-05,197.80499999994097,3.334797e-05,197.80499999994097,5.736418e-06,197.80499999994097,2.534468e-06
197.81999999994096,3.576646e-05,197.81999999994096,3.132581e-05,197.81999999994096,5.782887e-06,197.81999999994096,2.41493e-06
197.83499999994095,3.565602e-05,197.83499999994095,3.054257e-05,197.83499999994095,5.860319e-06,197.83499999994095,2.54002e-06
197.84999999994093,3.498922e-05,197.84999999994093,2.907573e-05,197.84999999994093,6.463831e-06,197.84999999994093,2.517739e-06
197.86499999994092,3.536843e-05,197.86499999994092,2.904568e-05,197.86499999994092,6.4921e-06,197.86499999994092,2.528904e-06
197.8799999999409,3.616713e-05,197.8799999999409,2.796794e-05,197.8799999999409,6.603967e-06,197.8799999999409,2.556603e-06
197.8949999999409,3.62045e-05,197.8949999999409,2.73115e-05,197.8949999999409,6.474718e-06,197.8949999999409,2.605721e-06
197.90999999994088,3.557097e-05,197.90999999994088,2.688786e-05,197.90999999994088,6.358363e-06,197.90999999994088,2.5676e-06
197.92499999994087,3.731655e-05,197.92499999994087,2.629132e-05,197.92499999994087,6.404719e-06,197.92499999994087,2.54556e-06
197.93999999994085,3.753711e-05,197.93999999994085,2.644305e-05,197.93999999994085,6.144291e-06,197.93999999994085,2.5676e-06
197.95499999994084,3.714212e-05,197.95499999994084,2.539853e-05,197.95499999994084,6.153455e-06,197.95499999994084,2.690828e-06
197.96999999994082,3.699962e-05,197.96999999994082,2.498418e-05,197.96999999994082,6.16489e-06,197.96999999994082,2.711688e-06
197.9849999999408,3.72769e-05,197.9849999999408,2.522434e-05,197.9849999999408,6.224016e-06,197.9849999999408,2.758045e-06
197.9999999999408,3.632957e-05,197.9999999999408,2.385763e-05,197.9999999999408,6.132817e-06,197.9999999999408,2.798606e-06
198.01499999994078,3.583886e-05,198.01499999994078,2.397778e-05,198.01499999994078,6.189974e-06,198.01499999994078,2.823661e-06
198.02999999994077,3.637413e-05,198.02999999994077,2.415688e-05,198.02999999994077,6.021555e-06,198.02999999994077,2.803635e-06
198.04499999994076,3.641981e-05,198.04499999994076,2.428773e-05,198.04499999994076,6.162605e-06,198.04499999994076,2.763147e-06
198.05999999994074,3.594718e-05,198.05999999994074,2.611175e-05,198.05999999994074,6.369431e-06,198.05999999994074,2.701278e-06
198.07499999994073,3.693904e-05,198.07499999994073,3.658382e-05,198.07499999994073,6.513761e-06,198.07499999994073,2.664524e-06
198.08999999994072,3.689668e-05,198.08999999994072,3.832921e-05,198.08999999994072,6.333946e-06,198.08999999994072,2.611121e-06
198.1049999999407,3.760422e-05,198.1049999999407,3.829833e-05,198.1049999999407,5.874723e-06,198.1049999999407,2.556603e-06
198.1199999999407,3.737954e-05,198.1199999999407,4.336264e-05,198.1199999999407,6.054217e-06,198.1199999999407,2.5676e-06
198.13499999994067,3.794321e-05,198.13499999994067,4.985914e-05,198.13499999994067,5.669728e-06,198.13499999994067,2.528904e-06
198.14999999994066,3.921571e-05,198.14999999994066,5.148733e-05,198.14999999994066,5.672212e-06,198.14999999994066,2.517739e-06
198.16499999994065,3.8962e-05,198.16499999994065,5.166677e-05,198.16499999994065,5.699464e-06,198.16499999994065,2.495258e-06
198.17999999994063,3.736371e-05,198.17999999994063,5.180943e-05,198.17999999994063,5.574516e-06,198.17999999994063,2.54556e-06
198.19499999994062,3.8104e-05,198.19499999994062,5.406492e-05,198.19499999994062,5.664756e-06,198.19499999994062,2.46687e-06
198.2099999999406,3.844517e-05,198.2099999999406,5.84166e-05,198.2099999999406,5.768253e-06,198.2099999999406,2.41493e-06
198.2249999999406,3.816126e-05,198.2249999999406,6.050261e-05,198.2249999999406,5.915346e-06,198.2249999999406,2.373747e-06
198.23999999994058,3.843235e-05,198.23999999994058,6.099144e-05,198.23999999994058,5.879517e-06,198.23999999994058,2.355876e-06
198.25499999994057,3.887803e-05,198.25499999994057,6.102099e-05,198.25499999994057,6.009847e-06,198.25499999994057,2.403235e-06
198.26999999994055,3.981602e-05,198.26999999994055,6.069485e-05,198.26999999994055,5.998116e-06,198.26999999994055,2.367805e-06
198.28499999994054,3.99326e-05,198.28499999994054,6.336014e-05,198.28499999994054,6.007502e-06,198.28499999994054,2.495258e-06
198.29999999994052,3.958681e-05,198.29999999994052,6.442591e-05,198.29999999994052,5.845879e-06,198.29999999994052,2.5676e-06
198.3149999999405,3.962024e-05,198.3149999999405,6.34297e-05,198.3149999999405,5.431162e-06,198.3149999999405,2.616511e-06
198.3299999999405,4.108365e-05,198.3299999999405,5.94684e-05,198.3299999999405,5.503306e-06,198.3299999999405,2.584006e-06
198.34499999994048,4.041056e-05,198.34499999994048,5.957324e-05,198.34499999994048,5.915346e-06,198.34499999994048,2.57308e-06
198.35999999994047,4.002034e-05,198.35999999994047,5.920464e-05,198.35999999994047,6.030905e-06,198.35999999994047,2.643292e-06
198.37499999994046,4.008927e-05,198.37499999994046,5.455927e-05,198.37499999994046,5.782887e-06,198.37499999994046,2.675077e-06
198.38999999994044,3.915639e-05,198.38999999994044,4.938648e-05,198.38999999994044,5.910582e-06,198.38999999994044,2.680338e-06
198.40499999994043,3.985456e-05,198.40499999994043,4.835602e-05,198.40499999994043,5.974584e-06,198.40499999994043,2.637958e-06
198.41999999994042,4.035579e-05,198.41999999994042,4.946372e-05,198.41999999994042,6.196798e-06,198.41999999994042,2.643292e-06
198.4349999999404,4.110799e-05,198.4349999999404,5.198641e-05,198.4349999999404,6.174023e-06,198.4349999999404,2.643292e-06
198.4499999999404,4.15175e-05,198.4499999999404,5.03928e-05,198.4499999999404,6.289309e-06,198.4499999999404,2.54002e-06
198.46499999994037,4.126703e-05,198.46499999994037,4.336232e-05,198.46499999994037,6.304968e-06,198.46499999994037,2.54556e-06
198.47999999994036,4.124688e-05,198.47999999994036,4.264098e-05,198.47999999994036,5.991066e-06,198.47999999994036,2.5676e-06
198.49499999994035,4.157175e-05,198.49499999994035,4.522813e-05,198.49499999994035,6.413511e-06,198.49499999994035,2.578549e-06
198.50999999994033,4.228235e-05,198.50999999994033,4.506526e-05,198.50999999994033,6.780777e-06,198.50999999994033,2.594886e-06
198.52499999994032,4.0721e-05,198.52499999994032,4.429408e-05,198.52499999994032,7.444261e-06,198.52499999994032,2.605721e-06
198.5399999999403,4.213451e-05,198.5399999999403,4.362369e-05,198.5399999999403,7.434793e-06,198.5399999999403,2.455423e-06
198.5549999999403,4.24894e-05,198.5549999999403,4.174522e-05,198.5549999999403,8.102095e-06,198.5549999999403,2.443922e-06
198.56999999994028,4.200962e-05,198.56999999994028,4.168782e-05,198.56999999994028,8.150632e-06,198.56999999994028,2.397367e-06
198.58499999994027,4.297563e-05,198.58499999994027,3.989555e-05,198.58499999994027,8.089915e-06,198.58499999994027,2.449679e-06
198.59999999994025,4.237287e-05,198.59999999994025,3.978239e-05,198.59999999994025,8.121197e-06,198.59999999994025,2.489606e-06
198.61499999994024,4.324879e-05,198.61499999994024,3.978381e-05,198.61499999994024,8.114256e-06,198.61499999994024,2.461153e-06
198.62999999994022,4.378871e-05,198.62999999994022,4.054141e-05,198.62999999994022,8.124666e-06,198.62999999994022,2.461153e-06
198.6449999999402,4.293989e-05,198.6449999999402,4.079496e-05,198.6449999999402,8.037508e-06,198.6449999999402,2.438151e-06
198.6599999999402,4.281801e-05,198.6599999999402,4.530624e-05,198.6599999999402,7.97593e-06,198.6599999999402,2.449679e-06
198.67499999994018,4.334965e-05,198.67499999994018,4.460023e-05,198.67499999994018,7.908532e-06,198.67499999994018,2.432367e-06
198.68999999994017,4.396048e-05,198.68999999994017,4.448258e-05,198.68999999994017,7.929877e-06,198.68999999994017,2.472574e-06
198.70499999994016,4.44924e-05,198.70499999994016,5.013075e-05,198.70499999994016,7.931653e-06,198.70499999994016,2.478264e-06
198.71999999994014,4.468354e-05,198.71999999994014,6.154783e-05,198.71999999994014,7.845942e-06,198.71999999994014,2.489606e-06
198.73499999994013,4.526207e-05,198.73499999994013,7.071116e-05,198.73499999994013,7.577422e-06,198.73499999994013,2.506524e-06
198.74999999994012,4.567165e-05,198.74999999994012,7.164371e-05,198.74999999994012,7.295169e-06,198.74999999994012,2.534468e-06
198.7649999999401,4.590792e-05,198.7649999999401,7.305646e-05,198.7649999999401,6.747456e-06,198.7649999999401,2.578549e-06
198.7799999999401,4.480097e-05,198.7799999999401,7.384451e-05,198.7799999999401,6.171741e-06,198.7799999999401,2.594886e-06
198.79499999994007,4.491371e-05,198.79499999994007,7.545528e-05,198.79499999994007,6.05887e-06,198.79499999994007,2.600309e-06
198.80999999994006,4.55376e-05,198.80999999994006,7.542727e-05,198.80999999994006,5.173461e-06,198.80999999994006,2.584006e-06
198.82499999994005,4.45484e-05,198.82499999994005,7.404777e-05,198.82499999994005,5.238403e-06,198.82499999994005,2.643292e-06
198.83999999994003,4.377102e-05,198.83999999994003,7.898801e-05,198.83999999994003,4.928026e-06,198.83999999994003,2.594886e-06
198.85499999994002,4.328884e-05,198.85499999994002,8.770633e-05,198.85499999994002,4.68176e-06,198.85499999994002,2.5676e-06
198.86999999994,4.325824e-05,198.86999999994,9.088645e-05,198.86999999994,4.605925e-06,198.86999999994,2.685588e-06
198.88499999994,4.227736e-05,198.88499999994,9.125521e-05,198.88499999994,4.636408e-06,198.88499999994,2.752932e-06
198.89999999993998,4.191865e-05,198.89999999993998,9.166612e-05,198.89999999993998,4.639445e-06,198.89999999993998,2.768241e-06
198.91499999993997,4.096588e-05,198.91499999993997,9.012738e-05,198.91499999993997,4.569077e-06,198.91499999993997,2.803635e-06
198.92999999993995,3.996398e-05,198.92999999993995,9.166075e-05,198.92999999993995,4.535037e-06,198.92999999993995,2.863294e-06
198.94499999993994,3.73441e-05,198.94499999993994,9.294196e-05,198.94499999993994,4.305587e-06,198.94499999993994,3.002579e-06
198.95999999993992,3.718306e-05,198.95999999993992,9.090489e-05,198.95999999993992,4.39624e-06,198.95999999993992,3.030597e-06
198.9749999999399,3.735881e-05,198.9749999999399,8.404891e-05,198.9749999999399,4.472482e-06,198.9749999999399,3.072146e-06
198.9899999999399,3.686536e-05,198.9899999999399,7.640331e-05,198.9899999999399,4.428167e-06,198.9899999999399,3.01662e-06
199.00499999993988,3.608602e-05,199.00499999993988,7.542205e-05,199.00499999993988,4.472482e-06,199.00499999993988,2.902385e-06
199.01999999993987,3.574322e-05,199.01999999993987,7.581789e-05,199.01999999993987,4.538142e-06,199.01999999993987,2.897527e-06
199.03499999993986,3.6208e-05,199.03499999993986,7.66689e-05,199.03499999993986,4.559819e-06,199.03499999993986,2.916909e-06
199.04999999993984,3.616207e-05,199.04999999993984,7.576845e-05,199.04999999993984,4.850233e-06,199.04999999993984,2.940956e-06
199.06499999993983,3.532658e-05,199.06499999993983,7.675667e-05,199.06499999993983,5.066156e-06,199.06499999993983,2.878015e-06
199.07999999993982,3.413577e-05,199.07999999993982,7.695078e-05,199.07999999993982,5.08004e-06,199.07999999993982,2.843547e-06
199.0949999999398,3.49574e-05,199.0949999999398,7.149648e-05,199.0949999999398,5.869926e-06,199.0949999999398,2.863294e-06
199.1099999999398,3.465345e-05,199.1099999999398,6.307738e-05,199.1099999999398,6.000464e-06,199.1099999999398,2.778399e-06
199.12499999993977,3.707227e-05,199.12499999993977,5.554162e-05,199.12499999993977,6.816002e-06,199.12499999993977,2.828646e-06
199.13999999993976,3.843161e-05,199.13999999993976,5.557458e-05,199.13999999993976,6.799448e-06,199.13999999993976,2.773325e-06
199.15499999993975,3.856078e-05,199.15499999993975,5.580249e-05,199.15499999993975,6.844875e-06,199.15499999993975,2.848496e-06
199.16999999993973,3.900933e-05,199.16999999993973,5.450192e-05,199.16999999993973,6.836638e-06,199.16999999993973,2.752932e-06
199.18499999993972,3.943707e-05,199.18499999993972,5.078126e-05,199.18499999993972,6.894089e-06,199.18499999993972,2.742679e-06
199.1999999999397,4.047882e-05,199.1999999999397,4.734688e-05,199.1999999999397,6.859265e-06,199.1999999999397,2.627256e-06
199.2149999999397,4.016405e-05,199.2149999999397,4.625488e-05,199.2149999999397,6.813935e-06,199.2149999999397,2.632612e-06
199.22999999993968,3.935376e-05,199.22999999993968,4.990545e-05,199.22999999993968,6.80773e-06,199.22999999993968,2.637958e-06
199.24499999993967,3.971931e-05,199.24499999993967,5.366164e-05,199.24499999993967,6.838698e-06,199.24499999993967,2.696058e-06
199.25999999993965,4.02964e-05,199.25999999993965,5.373824e-05,199.25999999993965,6.755802e-06,199.25999999993965,2.685588e-06
199.27499999993964,3.929609e-05,199.27499999993964,5.128666e-05,199.27499999993964,6.730734e-06,199.27499999993964,2.637958e-06
199.28999999993962,3.904435e-05,199.28999999993962,5.222701e-05,199.28999999993962,6.799448e-06,199.28999999993962,2.616511e-06
199.3049999999396,3.830679e-05,199.3049999999396,5.32844e-05,199.3049999999396,6.498606e-06,199.3049999999396,2.648616e-06
199.3199999999396,3.993084e-05,199.3199999999396,5.51448e-05,199.3199999999396,6.426676e-06,199.3199999999396,2.722057e-06
199.33499999993958,3.938238e-05,199.33499999993958,5.487027e-05,199.33499999993958,6.079758e-06,199.33499999993958,2.773325e-06
199.34999999993957,3.944743e-05,199.34999999993957,5.374505e-05,199.34999999993957,5.667242e-06,199.34999999993957,2.732388e-06
199.36499999993956,3.929609e-05,199.36499999993956,5.29444e-05,199.36499999993956,5.587136e-06,199.36499999993956,2.722057e-06
199.37999999993954,3.547104e-05,199.37999999993954,5.390209e-05,199.37999999993954,4.856038e-06,199.37999999993954,2.627256e-06
199.39499999993953,3.510417e-05,199.39499999993953,5.439895e-05,199.39499999993953,5.057808e-06,199.39499999993953,2.659232e-06
199.40999999993952,3.518874e-05,199.40999999993952,5.328467e-05,199.40999999993952,4.982041e-06,199.40999999993952,2.659232e-06
199.4249999999395,3.577473e-05,199.4249999999395,5.294759e-05,199.4249999999395,5.041069e-06,199.4249999999395,2.653929e-06
199.4399999999395,3.638769e-05,199.4399999999395,5.108384e-05,199.4399999999395,5.046655e-06,199.4399999999395,2.675077e-06
199.45499999993947,3.53748e-05,199.45499999993947,5.137009e-05,199.45499999993947,5.115961e-06,199.45499999993947,2.763147e-06
199.46999999993946,3.510217e-05,199.46999999993946,4.941757e-05,199.46999999993946,5.096651e-06,199.46999999993946,2.727227e-06
199.48499999993945,3.461318e-05,199.48499999993945,4.552707e-05,199.48499999993945,5.046655e-06,199.48499999993945,2.696058e-06
199.49999999993943,3.392091e-05,199.49999999993943,3.877644e-05,199.49999999993943,5.110451e-06,199.49999999993943,2.773325e-06
199.51499999993942,3.499848e-05,199.51499999993942,4.077286e-05,199.51499999993942,5.093886e-06,199.51499999993942,2.793568e-06
199.5299999999394,3.533894e-05,199.5299999999394,4.380479e-05,199.5299999999394,5.126963e-06,199.5299999999394,2.863294e-06
199.5449999999394,3.546985e-05,199.5449999999394,4.200291e-05,199.5449999999394,5.379038e-06,199.5449999999394,2.843547e-06
199.55999999993938,3.483711e-05,199.55999999993938,3.965258e-05,199.55999999993938,5.751133e-06,199.55999999993938,2.818668e-06
199.57499999993937,3.427866e-05,199.57499999993937,3.635128e-05,199.57499999993937,6.042573e-06,199.57499999993937,2.808655e-06
199.58999999993935,3.413246e-05,199.58999999993935,3.749468e-05,199.58999999993935,5.865124e-06,199.58999999993935,2.848496e-06
199.60499999993934,3.402789e-05,199.60499999993934,4.14805e-05,199.60499999993934,5.845879e-06,199.60499999993934,2.878015e-06
199.61999999993932,3.285175e-05,199.61999999993932,4.458981e-05,199.61999999993932,5.884307e-06,199.61999999993932,2.926552e-06
199.6349999999393,3.338259e-05,199.6349999999393,4.571913e-05,199.6349999999393,5.709342e-06,199.6349999999393,2.955291e-06
199.6499999999393,3.35753e-05,199.6499999999393,4.426767e-05,199.6499999999393,5.797484e-06,199.6499999999393,2.858369e-06
199.66499999993928,3.433286e-05,199.66499999993928,4.69417e-05,199.66499999993928,5.912964e-06,199.66499999993928,2.798606e-06
199.67999999993927,3.299508e-05,199.67999999993927,5.327806e-05,199.67999999993927,5.981653e-06,199.67999999993927,2.793568e-06
199.69499999993926,3.326973e-05,199.69499999993926,6.576885e-05,199.69499999993926,6.171741e-06,199.69499999993926,2.818668e-06
199.70999999993924,3.241142e-05,199.70999999993924,7.480203e-05,199.70999999993924,6.226279e-06,199.70999999993924,2.742679e-06
199.72499999993923,3.336318e-05,199.72499999993923,7.490798e-05,199.72499999993923,6.50294e-06,199.72499999993923,2.716877e-06
199.73999999993922,3.476384e-05,199.73999999993922,7.50258e-05,199.73999999993922,6.537507e-06,199.73999999993922,2.742679e-06
199.7549999999392,3.536166e-05,199.7549999999392,7.737194e-05,199.7549999999392,6.638008e-06,199.7549999999392,2.637958e-06
199.7699999999392,3.746612e-05,199.7699999999392,7.850878e-05,199.7699999999392,6.64861e-06,199.7699999999392,2.627256e-06
199.78499999993917,3.829869e-05,199.78499999993917,8.072624e-05,199.78499999993917,6.48993e-06,199.78499999993917,2.556603e-06
199.79999999993916,3.836411e-05,199.79999999993916,8.635546e-05,199.79999999993916,6.242096e-06,199.79999999993916,2.562108e-06
199.81499999993915,3.963269e-05,199.81499999993915,8.798951e-05,199.81499999993915,6.125922e-06,199.81499999993915,2.54556e-06
199.82999999993913,4.073795e-05,199.82999999993913,8.904161e-05,199.82999999993913,6.125922e-06,199.82999999993913,2.512137e-06
199.84499999993912,4.18709e-05,199.84499999993912,8.892288e-05,199.84499999993912,6.378271e-06,199.84499999993912,2.391484e-06
199.8599999999391,4.251791e-05,199.8599999999391,9.259256e-05,199.8599999999391,6.625263e-06,199.8599999999391,2.46687e-06
199.8749999999391,4.297465e-05,199.8749999999391,9.758149e-05,199.8749999999391,6.599699e-06,199.8749999999391,2.443922e-06
199.88999999993908,4.320089e-05,199.88999999993908,0.00010106,199.88999999993908,6.365006e-06,199.88999999993908,2.432367e-06
199.90499999993906,4.374236e-05,199.90499999993906,0.0001020846,199.90499999993906,6.33617e-06,199.90499999993906,2.54002e-06
199.91999999993905,4.364919e-05,199.91999999993905,0.0001021601,199.91999999993905,6.382687e-06,199.91999999993905,2.534468e-06
199.93499999993904,4.414595e-05,199.93499999993904,0.0001055171,199.93499999993904,6.42229e-06,199.93499999993904,2.438151e-06
199.94999999993902,4.35047e-05,199.94999999993902,0.0001061095,199.94999999993902,6.269119e-06,199.94999999993902,2.455423e-06
199.964999999939,4.340485e-05,199.964999999939,0.0001041239,199.964999999939,6.437625e-06,199.964999999939,2.461153e-06
199.979999999939,4.324032e-05,199.979999999939,0.0001077382,199.979999999939,6.180865e-06,199.979999999939,2.528904e-06
199.99499999993898,4.292972e-05,199.99499999993898,0.0001092583,199.99499999993898,6.208153e-06,199.99499999993898,2.472574e-06
200.00999999993897,4.287521e-05,200.00999999993897,0.0001106979,200.00999999993897,6.255622e-06,200.00999999993897,2.54002e-06
200.02499999993896,4.16557e-05,200.02499999993896,0.0001150964,200.02499999993896,6.160319e-06,200.02499999993896,2.600309e-06
200.03999999993894,4.159852e-05,200.03999999993894,0.0001156105,200.03999999993894,6.107498e-06,200.03999999993894,2.600309e-06
200.05499999993893,4.275611e-05,200.05499999993893,0.0001130079,200.05499999993893,6.123622e-06,200.05499999993893,2.653929e-06
200.06999999993891,4.316663e-05,200.06999999993891,0.000111438,200.06999999993891,6.049562e-06,200.06999999993891,2.737538e-06
200.0849999999389,4.251426e-05,200.0849999999389,0.0001098708,200.0849999999389,6.194524e-06,200.0849999999389,2.763147e-06
200.0999999999389,4.309805e-05,200.0999999999389,0.0001094605,200.0999999999389,5.8867e-06,200.0999999999389,2.808655e-06
200.11499999993887,4.622441e-05,200.11499999993887,0.0001052297,200.11499999993887,6.300498e-06,200.11499999993887,2.848496e-06
200.12999999993886,4.69429e-05,200.12999999993886,9.677393e-05,200.12999999993886,6.333946e-06,200.12999999993886,2.833621e-06
200.14499999993885,4.758933e-05,200.14499999993885,9.22351e-05,200.14499999993885,6.450741e-06,200.14499999993885,2.843547e-06
200.15999999993883,4.865863e-05,200.15999999993883,8.792897e-05,200.15999999993883,6.340615e-06,200.15999999993883,2.732388e-06
200.17499999993882,4.865428e-05,200.17499999993882,8.762212e-05,200.17499999993882,6.325044e-06,200.17499999993882,2.783465e-06
200.1899999999388,4.851714e-05,200.1899999999388,8.33087e-05,200.1899999999388,6.280343e-06,200.1899999999388,2.858369e-06
200.2049999999388,5.153846e-05,200.2049999999388,7.541831e-05,200.2049999999388,6.318359e-06,200.2049999999388,2.878015e-06
200.21999999993878,5.133773e-05,200.21999999993878,6.793956e-05,200.21999999993878,6.255622e-06,200.21999999993878,2.887788e-06
200.23499999993876,5.185319e-05,200.23499999993876,5.740272e-05,200.23499999993876,6.4921e-06,200.23499999993876,2.843547e-06
200.24999999993875,5.208873e-05,200.24999999993875,5.466992e-05,200.24999999993875,6.629514e-06,200.24999999993875,2.808655e-06
200.26499999993874,5.167685e-05,200.26499999993874,5.56293e-05,200.26499999993874,6.616753e-06,200.26499999993874,2.798606e-06
200.27999999993872,5.142053e-05,200.27999999993872,5.174142e-05,200.27999999993872,6.768301e-06,200.27999999993872,2.808655e-06
200.2949999999387,5.216278e-05,200.2949999999387,4.746811e-05,200.2949999999387,6.737009e-06,200.2949999999387,2.858369e-06
200.3099999999387,5.240123e-05,200.3099999999387,4.633642e-05,200.3099999999387,6.705572e-06,200.3099999999387,2.823661e-06
200.32499999993868,5.134212e-05,200.32499999993868,5.062457e-05,200.32499999993868,6.420096e-06,200.32499999993868,2.742679e-06
200.33999999993867,5.062791e-05,200.33999999993867,5.241951e-05,200.33999999993867,6.559019e-06,200.33999999993867,2.74781e-06
200.35499999993866,4.839854e-05,200.35499999993866,5.229386e-05,200.35499999993866,6.287069e-06,200.35499999993866,2.706488e-06
200.36999999993864,4.886777e-05,200.36999999993864,5.25529e-05,200.36999999993864,6.121322e-06,200.36999999993864,2.680338e-06
200.38499999993863,4.724919e-05,200.38499999993863,5.458817e-05,200.38499999993863,6.035575e-06,200.38499999993863,2.664524e-06
200.39999999993861,4.600325e-05,200.39999999993861,5.346598e-05,200.39999999993861,6.102884e-06,200.39999999993861,2.659232e-06
200.4149999999386,4.575639e-05,200.4149999999386,5.217493e-05,200.4149999999386,5.915346e-06,200.4149999999386,2.706488e-06
200.4299999999386,4.64515e-05,200.4299999999386,5.146872e-05,200.4299999999386,5.960421e-06,200.4299999999386,2.669806e-06
200.44499999993857,4.546546e-05,200.44499999993857,5.136241e-05,200.44499999993857,6.13052e-06,200.44499999993857,2.578549e-06
200.45999999993856,4.389924e-05,200.45999999993856,5.166404e-05,200.45999999993856,6.387099e-06,200.45999999993856,2.578549e-06
200.47499999993855,4.440683e-05,200.47499999993855,4.892251e-05,200.47499999993855,5.991066e-06,200.47499999993855,2.680338e-06
200.48999999993853,4.327647e-05,200.48999999993853,4.849914e-05,200.48999999993853,5.931993e-06,200.48999999993853,2.803635e-06
200.50499999993852,4.216124e-05,200.50499999993852,4.83228e-05,200.50499999993852,6.109804e-06,200.50499999993852,2.793568e-06
200.5199999999385,4.159953e-05,200.5199999999385,4.488391e-05,200.5199999999385,6.400318e-06,200.5199999999385,2.778399e-06
200.5349999999385,4.233729e-05,200.5349999999385,4.462013e-05,200.5349999999385,6.331722e-06,200.5349999999385,2.768241e-06
200.54999999993848,4.066631e-05,200.54999999993848,4.40386e-05,200.54999999993848,6.463831e-06,200.54999999993848,2.701278e-06
200.56499999993846,3.961953e-05,200.56499999993846,4.158802e-05,200.56499999993846,6.367219e-06,200.56499999993846,2.637958e-06
200.57999999993845,3.926524e-05,200.57999999993845,3.713188e-05,200.57999999993845,6.289309e-06,200.57999999993845,2.648616e-06
200.59499999993844,3.940098e-05,200.59499999993844,3.455208e-05,200.59499999993844,6.293787e-06,200.59499999993844,2.669806e-06
200.60999999993842,3.97785e-05,200.60999999993842,3.6316e-05,200.60999999993842,6.345057e-06,200.60999999993842,2.675077e-06
200.6249999999384,3.88523e-05,200.6249999999384,3.731466e-05,200.6249999999384,6.420096e-06,200.6249999999384,2.653929e-06
200.6399999999384,3.84503e-05,200.6399999999384,3.662384e-05,200.6399999999384,6.537507e-06,200.6399999999384,2.669806e-06
200.65499999993838,3.769477e-05,200.65499999993838,3.703045e-05,200.65499999993838,6.431058e-06,200.65499999993838,2.680338e-06
200.66999999993837,3.833215e-05,200.66999999993837,3.576095e-05,200.66999999993837,6.398117e-06,200.66999999993837,2.632612e-06
200.68499999993836,3.695543e-05,200.68499999993836,4.333925e-05,200.68499999993836,6.291548e-06,200.68499999993836,2.643292e-06
200.69999999993834,3.761321e-05,200.69999999993834,7.065795e-05,200.69999999993834,6.221753e-06,200.69999999993834,2.680338e-06
200.71499999993833,3.730447e-05,200.71499999993833,9.044318e-05,200.71499999993833,6.098266e-06,200.71499999993833,2.637958e-06
200.72999999993831,3.766785e-05,200.72999999993831,0.0001094802,200.72999999993831,6.11211e-06,200.72999999993831,2.432367e-06
200.7449999999383,3.915819e-05,200.7449999999383,0.0001115064,200.7449999999383,5.652309e-06,200.7449999999383,2.397367e-06
200.7599999999383,3.910959e-05,200.7599999999383,0.0001190056,200.7599999999383,5.454455e-06,200.7599999999383,2.403235e-06
200.77499999993827,3.930791e-05,200.77499999993827,0.0001345179,200.77499999993827,5.574516e-06,200.77499999993827,2.420756e-06
200.78999999993826,4.096416e-05,200.78999999993826,0.0001518166,200.78999999993826,5.669728e-06,200.78999999993826,2.397367e-06
200.80499999993825,4.201129e-05,200.80499999993825,0.0001657833,200.80499999993825,5.619817e-06,200.80499999993825,2.432367e-06
200.81999999993823,4.408272e-05,200.81999999993823,0.0001721847,200.81999999993823,5.726587e-06,200.81999999993823,2.506524e-06
200.83499999993822,4.513772e-05,200.83499999993822,0.0001728511,200.83499999993822,5.884307e-06,200.83499999993822,2.54002e-06
200.8499999999382,4.597384e-05,200.8499999999382,0.0001735986,200.8499999999382,5.872325e-06,200.8499999999382,2.46687e-06
200.8649999999382,4.887642e-05,200.8649999999382,0.0001753115,200.8649999999382,5.927241e-06,200.8649999999382,2.551088e-06
200.87999999993818,5.041796e-05,200.87999999993818,0.000177664,200.87999999993818,5.699464e-06,200.87999999993818,2.562108e-06
200.89499999993816,5.230356e-05,200.89499999993816,0.0001811076,200.89499999993816,5.627332e-06,200.89499999993816,2.512137e-06
200.90999999993815,5.470212e-05,200.90999999993815,0.0001848905,200.90999999993815,5.627332e-06,200.90999999993815,2.57308e-06
200.92499999993814,5.552893e-05,200.92499999993814,0.0001849542,200.92499999993814,5.775575e-06,200.92499999993814,2.594886e-06
200.93999999993812,5.849082e-05,200.93999999993812,0.0001825458,200.93999999993812,5.659781e-06,200.93999999993812,2.57308e-06
200.9549999999381,6.258662e-05,200.9549999999381,0.0001738443,200.9549999999381,5.549188e-06,200.9549999999381,2.594886e-06
200.9699999999381,6.396686e-05,200.9699999999381,0.000161688,200.9699999999381,5.833818e-06,200.9699999999381,2.637958e-06
200.98499999993808,6.289825e-05,200.98499999993808,0.0001454734,200.98499999993808,5.976941e-06,200.98499999993808,2.690828e-06
200.99999999993807,6.277831e-05,200.99999999993807,0.0001436085,200.99999999993807,6.005157e-06,200.99999999993807,2.643292e-06
201.01499999993806,6.272286e-05,201.01499999993806,0.0001417743,201.01499999993806,5.802342e-06,201.01499999993806,2.659232e-06
201.02999999993804,6.312961e-05,201.02999999993804,0.0001339209,201.02999999993804,5.701935e-06,201.02999999993804,2.690828e-06
201.04499999993803,6.212349e-05,201.04499999993803,0.0001229216,201.04499999993803,5.841057e-06,201.04499999993803,2.696058e-06
201.05999999993801,6.156613e-05,201.05999999993801,0.0001083853,201.05999999993801,5.929618e-06,201.05999999993801,2.732388e-06
201.074999999938,5.935435e-05,201.074999999938,0.0001069653,201.074999999938,5.917727e-06,201.074999999938,2.685588e-06
201.089999999938,5.942551e-05,201.089999999938,0.000117013,201.089999999938,5.903427e-06,201.089999999938,2.659232e-06
201.10499999993797,5.837535e-05,201.10499999993797,0.0001237776,201.10499999993797,5.912964e-06,201.10499999993797,2.758045e-06
201.11999999993796,5.737007e-05,201.11999999993796,0.0001230805,201.11999999993796,5.981653e-06,201.11999999993796,2.690828e-06
201.13499999993795,5.562322e-05,201.13499999993795,0.0001205963,201.13499999993795,6.116717e-06,201.13499999993795,2.711688e-06
201.14999999993793,5.508474e-05,201.14999999993793,0.0001166395,201.14999999993793,6.171741e-06,201.14999999993793,2.727227e-06
201.16499999993792,5.05998e-05,201.16499999993792,0.0001131436,201.16499999993792,6.185421e-06,201.16499999993792,2.768241e-06
201.1799999999379,4.979439e-05,201.1799999999379,0.0001125934,201.1799999999379,6.11211e-06,201.1799999999379,2.701278e-06
201.1949999999379,4.657476e-05,201.1949999999379,0.0001123245,201.1949999999379,6.224016e-06,201.1949999999379,2.675077e-06
201.20999999993788,4.285846e-05,201.20999999993788,0.0001123492,201.20999999993788,6.369431e-06,201.20999999993788,2.675077e-06
201.22499999993786,4.4839e-05,201.22499999993786,0.0001116191,201.22499999993786,6.264623e-06,201.22499999993786,2.706488e-06
201.23999999993785,4.535596e-05,201.23999999993785,0.0001112571,201.23999999993785,6.155743e-06,201.23999999993785,2.664524e-06
201.25499999993784,4.70574e-05,201.25499999993784,0.0001107768,201.25499999993784,6.296025e-06,201.25499999993784,2.669806e-06
201.26999999993782,5.018075e-05,201.26999999993782,0.0001044995,201.26999999993782,6.603967e-06,201.26999999993782,2.669806e-06
201.2849999999378,5.096291e-05,201.2849999999378,9.676898e-05,201.2849999999378,6.561167e-06,201.2849999999378,2.675077e-06
201.2999999999378,5.149526e-05,201.2999999999378,8.841976e-05,201.2999999999378,6.384893e-06,201.2999999999378,2.675077e-06
201.31499999993778,5.082729e-05,201.31499999993778,8.743608e-05,201.31499999993778,6.282586e-06,201.31499999993778,2.813666e-06
201.32999999993777,4.974543e-05,201.32999999993777,7.979638e-05,201.32999999993777,6.05887e-06,201.32999999993777,2.808655e-06
201.34499999993776,5.007143e-05,201.34499999993776,6.170806e-05,201.34499999993776,5.841057e-06,201.34499999993776,2.892662e-06
201.35999999993774,4.969358e-05,201.35999999993774,4.548219e-05,201.35999999993774,5.809621e-06,201.35999999993774,2.823661e-06
201.37499999993773,4.86088e-05,201.37499999993773,4.249902e-05,201.37499999993773,5.696992e-06,201.37499999993773,2.823661e-06
201.38999999993771,4.909009e-05,201.38999999993771,4.162052e-05,201.38999999993771,5.559333e-06,201.38999999993771,2.752932e-06
201.4049999999377,4.737602e-05,201.4049999999377,3.943457e-05,201.4049999999377,5.654801e-06,201.4049999999377,2.675077e-06
201.4199999999377,4.834962e-05,201.4199999999377,3.882836e-05,201.4199999999377,5.467352e-06,201.4199999999377,2.637958e-06
201.43499999993767,4.80694e-05,201.43499999993767,3.843454e-05,201.43499999993767,5.444114e-06,201.43499999993767,2.648616e-06
201.44999999993766,4.768986e-05,201.44999999993766,4.468511e-05,201.44999999993766,5.278585e-06,201.44999999993766,2.696058e-06
201.46499999993765,4.496386e-05,201.46499999993765,4.443537e-05,201.46499999993765,5.797484e-06,201.46499999993765,2.696058e-06
201.47999999993763,4.285615e-05,201.47999999993763,4.439985e-05,201.47999999993763,6.068162e-06,201.47999999993763,2.648616e-06
201.49499999993762,4.240943e-05,201.49499999993762,4.804184e-05,201.49499999993762,6.260124e-06,201.49499999993762,2.643292e-06
201.5099999999376,3.896344e-05,201.5099999999376,5.19753e-05,201.5099999999376,6.026232e-06,201.5099999999376,2.637958e-06
201.5249999999376,3.827184e-05,201.5249999999376,5.189447e-05,201.5249999999376,5.995767e-06,201.5249999999376,2.600309e-06
201.53999999993758,3.743113e-05,201.53999999993758,5.263164e-05,201.53999999993758,5.934367e-06,201.53999999993758,2.534468e-06
201.55499999993756,3.70118e-05,201.55499999993756,5.277811e-05,201.55499999993756,6.141998e-06,201.55499999993756,2.397367e-06
201.56999999993755,3.770224e-05,201.56999999993755,5.359335e-05,201.56999999993755,6.194524e-06,201.56999999993755,2.361848e-06
201.58499999993754,3.984254e-05,201.58499999993754,5.378252e-05,201.58499999993754,6.151165e-06,201.58499999993754,2.325787e-06
201.59999999993752,4.156735e-05,201.59999999993752,5.357994e-05,201.59999999993752,6.316129e-06,201.59999999993752,2.289158e-06
201.6149999999375,4.313562e-05,201.6149999999375,5.299758e-05,201.6149999999375,6.528882e-06,201.6149999999375,2.289158e-06
201.6299999999375,4.399732e-05,201.6299999999375,5.110865e-05,201.6299999999375,6.58688e-06,201.6299999999375,2.337869e-06
201.64499999993748,4.421227e-05,201.64499999993748,5.274768e-05,201.64499999993748,6.571893e-06,201.64499999993748,2.361848e-06
201.65999999993747,4.470245e-05,201.65999999993747,6.143695e-05,201.65999999993747,6.561167e-06,201.65999999993747,2.41493e-06
201.67499999993746,4.402228e-05,201.67499999993746,6.58091e-05,201.67499999993746,6.569749e-06,201.67499999993746,2.385586e-06
201.68999999993744,4.391656e-05,201.68999999993744,6.721812e-05,201.68999999993744,6.612493e-06,201.68999999993744,2.349889e-06
201.70499999993743,4.544687e-05,201.70499999993743,6.504737e-05,201.70499999993743,6.342836e-06,201.70499999993743,2.282997e-06
201.71999999993741,4.648181e-05,201.71999999993741,6.685859e-05,201.71999999993741,5.812045e-06,201.71999999993741,2.26441e-06
201.7349999999374,4.612313e-05,201.7349999999374,7.024606e-05,201.7349999999374,5.381656e-06,201.7349999999374,2.319723e-06
201.7499999999374,4.641358e-05,201.7499999999374,6.60051e-05,201.7499999999374,5.140683e-06,201.7499999999374,2.367805e-06
201.76499999993737,4.6579e-05,201.76499999993737,6.515059e-05,201.76499999993737,5.521194e-06,201.76499999993737,2.331836e-06
201.77999999993736,4.547073e-05,201.77999999993736,6.576692e-05,201.77999999993736,5.477649e-06,201.77999999993736,2.289158e-06
201.79499999993735,4.556481e-05,201.79499999993735,6.60386e-05,201.79499999993735,5.464775e-06,201.79499999993735,2.349889e-06
201.80999999993733,4.4967e-05,201.80999999993733,6.723069e-05,201.80999999993733,5.184341e-06,201.80999999993733,2.337869e-06
201.82499999993732,4.498547e-05,201.82499999993732,6.724158e-05,201.82499999993732,5.342249e-06,201.82499999993732,2.367805e-06
201.8399999999373,4.499612e-05,201.8399999999373,6.685458e-05,201.8399999999373,5.315815e-06,201.8399999999373,2.391484e-06
201.8549999999373,4.197036e-05,201.8549999999373,6.543689e-05,201.8549999999373,5.08004e-06,201.8549999999373,2.391484e-06
201.86999999993728,4.321947e-05,201.86999999993728,6.614006e-05,201.86999999993728,5.046655e-06,201.86999999993728,2.373747e-06
201.88499999993726,4.334672e-05,201.88499999993726,6.960848e-05,201.88499999993726,5.113207e-06,201.88499999993726,2.367805e-06
201.89999999993725,4.279333e-05,201.89999999993725,6.944193e-05,201.89999999993725,5.124215e-06,201.89999999993725,2.403235e-06
201.91499999993724,4.19697e-05,201.91499999993724,6.742652e-05,201.91499999993724,5.334332e-06,201.91499999993724,2.403235e-06
201.92999999993722,4.216425e-05,201.92999999993722,6.596561e-05,201.92999999993722,5.336972e-06,201.92999999993722,2.438151e-06
201.9449999999372,4.200224e-05,201.9449999999372,6.809468e-05,201.9449999999372,5.495621e-06,201.9449999999372,2.478264e-06
201.9599999999372,4.189108e-05,201.9599999999372,7.028395e-05,201.9599999999372,5.821732e-06,201.9599999999372,2.506524e-06
201.97499999993718,4.058656e-05,201.97499999993718,6.869034e-05,201.97499999993718,6.077441e-06,201.97499999993718,2.483942e-06
201.98999999993717,4.091461e-05,201.98999999993717,6.547906e-05,201.98999999993717,6.185421e-06,201.98999999993717,2.472574e-06
202.00499999993716,4.162729e-05,202.00499999993716,6.539813e-05,202.00499999993716,6.271365e-06,202.00499999993716,2.556603e-06
202.01999999993714,4.268027e-05,202.01999999993714,6.443116e-05,202.01999999993714,6.047233e-06,202.01999999993714,2.589452e-06
202.03499999993713,4.267169e-05,202.03499999993713,6.217993e-05,202.03499999993713,5.993417e-06,202.03499999993713,2.584006e-06
202.0499999999371,4.233629e-05,202.0499999999371,6.214344e-05,202.0499999999371,6.100575e-06,202.0499999999371,2.589452e-06
202.0649999999371,4.348041e-05,202.0649999999371,6.375156e-05,202.0649999999371,6.026232e-06,202.0649999999371,2.611121e-06
202.0799999999371,4.386103e-05,202.0799999999371,6.234125e-05,202.0799999999371,6.098266e-06,202.0799999999371,2.589452e-06
202.09499999993707,4.355195e-05,202.09499999993707,5.99485e-05,202.09499999993707,6.217223e-06,202.09499999993707,2.685588e-06
202.10999999993706,4.38424e-05,202.10999999993706,5.94492e-05,202.10999999993706,6.075122e-06,202.10999999993706,2.621889e-06
202.12499999993705,4.439002e-05,202.12499999993705,5.464621e-05,202.12499999993705,5.993417e-06,202.12499999993705,2.664524e-06
202.13999999993703,4.496418e-05,202.13999999993703,4.389282e-05,202.13999999993703,5.908198e-06,202.13999999993703,2.637958e-06
202.15499999993702,4.522315e-05,202.15499999993702,3.982663e-05,202.15499999993702,5.898653e-06,202.15499999993702,2.616511e-06
202.169999999937,4.507619e-05,202.169999999937,3.959784e-05,202.169999999937,5.860319e-06,202.169999999937,2.637958e-06
202.184999999937,4.57145e-05,202.184999999937,3.840008e-05,202.184999999937,5.924864e-06,202.184999999937,2.643292e-06
202.19999999993698,4.600539e-05,202.19999999993698,3.679996e-05,202.19999999993698,5.672212e-06,202.19999999993698,2.685588e-06
202.21499999993696,4.61924e-05,202.21499999993696,4.050387e-05,202.21499999993696,5.869926e-06,202.21499999993696,2.696058e-06
202.22999999993695,4.599958e-05,202.22999999993695,4.322468e-05,202.22999999993695,5.571988e-06,202.22999999993695,2.752932e-06
202.24499999993694,4.57105e-05,202.24499999993694,4.493347e-05,202.24499999993694,5.485359e-06,202.24499999993694,2.669806e-06
202.25999999993692,4.503086e-05,202.25999999993692,4.468827e-05,202.25999999993692,5.508422e-06,202.25999999993692,2.701278e-06
202.2749999999369,4.418008e-05,202.2749999999369,4.723875e-05,202.2749999999369,5.436346e-06,202.2749999999369,2.659232e-06
202.2899999999369,4.537242e-05,202.2899999999369,4.836272e-05,202.2899999999369,5.587136e-06,202.2899999999369,2.669806e-06
202.30499999993688,4.58502e-05,202.30499999993688,4.907832e-05,202.30499999993688,5.634837e-06,202.30499999993688,2.648616e-06
202.31999999993687,4.541493e-05,202.31999999993687,4.677727e-05,202.31999999993687,5.577042e-06,202.31999999993687,2.632612e-06
202.33499999993685,4.456832e-05,202.33499999993685,4.690808e-05,202.33499999993685,5.420777e-06,202.33499999993685,2.589452e-06
202.34999999993684,4.359171e-05,202.34999999993684,4.732902e-05,202.34999999993684,5.352786e-06,202.34999999993684,2.54002e-06
202.36499999993683,4.361142e-05,202.36499999993683,5.074213e-05,202.36499999993683,5.407768e-06,202.36499999993683,2.57308e-06
202.3799999999368,4.411115e-05,202.3799999999368,5.066295e-05,202.3799999999368,5.597212e-06,202.3799999999368,2.57308e-06
202.3949999999368,4.313595e-05,202.3949999999368,5.025032e-05,202.3949999999368,5.701935e-06,202.3949999999368,2.578549e-06
202.4099999999368,4.373818e-05,202.4099999999368,5.26121e-05,202.4099999999368,6.201342e-06,202.4099999999368,2.584006e-06
202.42499999993677,4.478085e-05,202.42499999993677,5.302283e-05,202.42499999993677,6.171741e-06,202.42499999993677,2.605721e-06
202.43999999993676,4.416445e-05,202.43999999993676,5.239586e-05,202.43999999993676,6.167175e-06,202.43999999993676,2.489606e-06
202.45499999993675,4.360657e-05,202.45499999993675,5.247672e-05,202.45499999993675,6.398117e-06,202.45499999993675,2.589452e-06
202.46999999993673,4.618997e-05,202.46999999993673,4.975109e-05,202.46999999993673,6.237581e-06,202.46999999993673,2.5676e-06
202.48499999993672,4.736859e-05,202.48499999993672,4.620613e-05,202.48499999993672,6.353931e-06,202.48499999993672,2.562108e-06
202.4999999999367,4.899502e-05,202.4999999999367,4.608341e-05,202.4999999999367,6.358363e-06,202.4999999999367,2.551088e-06
202.5149999999367,4.961897e-05,202.5149999999367,4.73894e-05,202.5149999999367,6.511599e-06,202.5149999999367,2.600309e-06
202.52999999993668,5.094881e-05,202.52999999993668,4.585788e-05,202.52999999993668,6.518086e-06,202.52999999993668,2.600309e-06
202.54499999993666,5.056693e-05,202.54499999993666,4.561023e-05,202.54499999993666,6.468188e-06,202.54499999993666,2.680338e-06
202.55999999993665,5.174496e-05,202.55999999993665,4.418709e-05,202.55999999993665,6.448557e-06,202.55999999993665,2.627256e-06
202.57499999993664,5.16002e-05,202.57499999993664,4.548095e-05,202.57499999993664,7.065636e-06,202.57499999993664,2.621889e-06
202.58999999993662,5.330079e-05,202.58999999993662,4.959767e-05,202.58999999993662,7.233115e-06,202.58999999993662,2.643292e-06
202.6049999999366,5.376759e-05,202.6049999999366,5.313085e-05,202.6049999999366,7.412022e-06,202.6049999999366,2.605721e-06
202.6199999999366,5.41836e-05,202.6199999999366,4.741407e-05,202.6199999999366,7.50457e-06,202.6199999999366,2.54002e-06
202.63499999993658,5.855654e-05,202.63499999993658,4.750993e-05,202.63499999993658,7.510198e-06,202.63499999993658,2.517739e-06
202.64999999993657,5.833721e-05,202.64999999993657,4.885941e-05,202.64999999993657,7.521444e-06,202.64999999993657,2.483942e-06
202.66499999993655,5.830919e-05,202.66499999993655,4.821044e-05,202.66499999993655,7.071614e-06,202.66499999993655,2.46687e-06
202.67999999993654,5.778526e-05,202.67999999993654,4.860272e-05,202.67999999993654,6.973323e-06,202.67999999993654,2.495258e-06
202.69499999993653,5.775575e-05,202.69499999993653,5.050952e-05,202.69499999993653,6.936866e-06,202.69499999993653,2.523327e-06
202.7099999999365,6.04164e-05,202.7099999999365,5.245497e-05,202.7099999999365,6.932803e-06,202.7099999999365,2.46687e-06
202.7249999999365,6.257131e-05,202.7249999999365,5.89507e-05,202.7249999999365,6.920602e-06,202.7249999999365,2.5676e-06
202.7399999999365,6.339104e-05,202.7399999999365,6.242187e-05,202.7399999999365,6.940926e-06,202.7399999999365,2.528904e-06
202.75499999993647,6.217359e-05,202.75499999993647,6.439507e-05,202.75499999993647,7.075597e-06,202.75499999993647,2.461153e-06
202.76999999993646,6.172631e-05,202.76999999993646,6.381384e-05,202.76999999993646,7.373913e-06,202.76999999993646,2.500897e-06
202.78499999993645,6.169984e-05,202.78499999993645,6.380082e-05,202.78499999993645,7.283574e-06,202.78499999993645,2.472574e-06
202.79999999993643,6.254856e-05,202.79999999993643,6.598268e-05,202.79999999993643,7.438582e-06,202.79999999993643,2.528904e-06
202.81499999993642,6.275452e-05,202.81499999993642,7.074562e-05,202.81499999993642,7.406318e-06,202.81499999993642,2.627256e-06
202.8299999999364,6.293563e-05,202.8299999999364,6.968938e-05,202.8299999999364,6.908378e-06,202.8299999999364,2.578549e-06
202.8449999999364,6.354751e-05,202.8449999999364,7.497358e-05,202.8449999999364,6.953093e-06,202.8449999999364,2.664524e-06
202.85999999993638,6.411226e-05,202.85999999993638,7.909726e-05,202.85999999993638,6.811867e-06,202.85999999993638,2.818668e-06
202.87499999993636,6.378315e-05,202.87499999993636,8.5573e-05,202.87499999993636,6.732826e-06,202.87499999993636,2.838588e-06
202.88999999993635,6.005486e-05,202.88999999993635,8.577293e-05,202.88999999993635,6.861319e-06,202.88999999993635,2.828646e-06
202.90499999993634,6.345967e-05,202.90499999993634,8.647332e-05,202.90499999993634,6.772462e-06,202.90499999993634,2.858369e-06
202.91999999993632,6.947113e-05,202.91999999993632,8.862821e-05,202.91999999993632,6.832516e-06,202.91999999993632,2.897527e-06
202.9349999999363,7.081727e-05,202.9349999999363,9.138956e-05,202.9349999999363,6.65708e-06,202.9349999999363,2.882905e-06
202.9499999999363,7.086578e-05,202.9499999999363,9.356191e-05,202.9499999999363,6.759971e-06,202.9499999999363,2.931361e-06
202.96499999993628,6.904033e-05,202.96499999993628,9.648631e-05,202.96499999993628,6.528882e-06,202.96499999993628,2.878015e-06
202.97999999993627,6.961961e-05,202.97999999993627,0.0001002857,202.97999999993627,6.550423e-06,202.97999999993627,2.798606e-06
202.99499999993625,7.085107e-05,202.99499999993625,0.0001000204,202.99499999993625,6.365006e-06,202.99499999993625,2.793568e-06
203.00999999993624,7.124187e-05,203.00999999993624,0.0001000304,203.00999999993624,6.237581e-06,203.00999999993624,2.843547e-06
203.02499999993623,6.995952e-05,203.02499999993623,0.0001052014,203.02499999993623,6.05887e-06,203.02499999993623,2.788521e-06
203.0399999999362,6.988417e-05,203.0399999999362,0.0001130056,203.0399999999362,6.248863e-06,203.0399999999362,2.758045e-06
203.0549999999362,6.961192e-05,203.0549999999362,0.0001171105,203.0549999999362,6.273611e-06,203.0549999999362,2.716877e-06
203.0699999999362,6.836143e-05,203.0699999999362,0.0001175793,203.0699999999362,6.148874e-06,203.0699999999362,2.637958e-06
203.08499999993617,6.594681e-05,203.08499999993617,0.0001182426,203.08499999993617,6.068162e-06,203.08499999993617,2.643292e-06
203.09999999993616,6.326158e-05,203.09999999993616,0.0001153106,203.09999999993616,6.042573e-06,203.09999999993616,2.643292e-06
203.11499999993615,6.278055e-05,203.11499999993615,0.0001120483,203.11499999993615,6.079758e-06,203.11499999993615,2.461153e-06
203.12999999993613,6.39142e-05,203.12999999993613,0.0001080248,203.12999999993613,6.072803e-06,203.12999999993613,2.443922e-06
203.14499999993612,6.395453e-05,203.14499999993612,0.0001079962,203.14499999993612,5.819312e-06,203.14499999993612,2.461153e-06
203.1599999999361,6.005204e-05,203.1599999999361,0.0001073693,203.1599999999361,6.139704e-06,203.1599999999361,2.426568e-06
203.1749999999361,4.974741e-05,203.1749999999361,0.0001062707,203.1749999999361,6.331722e-06,203.1749999999361,2.46687e-06
203.18999999993608,4.82008e-05,203.18999999993608,0.0001035996,203.18999999993608,6.298262e-06,203.18999999993608,2.472574e-06
203.20499999993606,4.810074e-05,203.20499999993606,0.0001002711,203.20499999993606,6.345057e-06,203.20499999993606,2.455423e-06
203.21999999993605,4.591129e-05,203.21999999993605,9.324762e-05,203.21999999993605,6.367219e-06,203.21999999993605,2.46687e-06
203.23499999993604,4.294743e-05,203.23499999993604,8.672691e-05,203.23499999993604,6.692956e-06,203.23499999993604,2.443922e-06
203.24999999993602,3.850778e-05,203.24999999993602,8.568749e-05,203.24999999993602,6.603967e-06,203.24999999993602,2.426568e-06
203.264999999936,4.005271e-05,203.264999999936,8.458886e-05,203.264999999936,6.688745e-06,203.264999999936,2.343887e-06
203.279999999936,4.012475e-05,203.279999999936,7.640792e-05,203.279999999936,6.203613e-06,203.279999999936,2.331836e-06
203.29499999993598,3.934302e-05,203.29499999993598,5.815316e-05,203.29499999993598,6.360578e-06,203.29499999993598,2.325787e-06
203.30999999993597,3.839201e-05,203.30999999993597,4.850756e-05,203.30999999993597,6.331722e-06,203.30999999993597,2.337869e-06
203.32499999993595,3.890845e-05,203.32499999993595,4.422724e-05,203.32499999993595,6.406918e-06,203.32499999993595,2.385586e-06
203.33999999993594,3.900572e-05,203.33999999993594,4.440049e-05,203.33999999993594,6.724452e-06,203.33999999993594,2.483942e-06
203.35499999993593,4.038928e-05,203.35499999993593,4.0865e-05,203.35499999993593,6.7391e-06,203.35499999993593,2.506524e-06
203.3699999999359,3.925807e-05,203.3699999999359,3.68409e-05,203.3699999999359,6.932803e-06,203.3699999999359,2.57308e-06
203.3849999999359,3.751008e-05,203.3849999999359,3.803443e-05,203.3849999999359,6.816002e-06,203.3849999999359,2.711688e-06
203.3999999999359,3.660461e-05,203.3999999999359,4.641176e-05,203.3999999999359,6.726546e-06,203.3999999999359,2.685588e-06
203.41499999993587,3.729578e-05,203.41499999993587,4.745772e-05,203.41499999993587,6.53104e-06,203.41499999993587,2.675077e-06
203.42999999993586,3.67563e-05,203.42999999993586,4.6927e-05,203.42999999993586,6.389304e-06,203.42999999993586,2.643292e-06
203.44499999993585,3.683325e-05,203.44499999993585,4.74007e-05,203.44499999993585,6.373853e-06,203.44499999993585,2.653929e-06
203.45999999993583,3.738218e-05,203.45999999993583,4.76207e-05,203.45999999993583,6.391509e-06,203.45999999993583,2.701278e-06
203.47499999993582,3.843051e-05,203.47499999993582,4.655631e-05,203.47499999993582,6.100575e-06,203.47499999993582,2.690828e-06
203.4899999999358,3.826226e-05,203.4899999999358,4.624757e-05,203.4899999999358,6.021555e-06,203.4899999999358,2.690828e-06
203.5049999999358,3.926058e-05,203.5049999999358,4.716355e-05,203.5049999999358,5.903427e-06,203.5049999999358,2.701278e-06
203.51999999993578,4.244363e-05,203.51999999993578,5.333831e-05,203.51999999993578,6.251117e-06,203.51999999993578,2.727227e-06
203.53499999993576,4.317903e-05,203.53499999993576,7.159592e-05,203.53499999993576,6.300498e-06,203.53499999993576,2.768241e-06
203.54999999993575,4.36069e-05,203.54999999993575,8.460584e-05,203.54999999993575,6.178585e-06,203.54999999993575,2.752932e-06
203.56499999993574,4.949788e-05,203.56499999993574,8.597028e-05,203.56499999993574,6.109804e-06,203.56499999993574,2.696058e-06
203.57999999993572,5.383802e-05,203.57999999993572,8.608065e-05,203.57999999993572,6.077441e-06,203.57999999993572,2.696058e-06
203.5949999999357,5.690188e-05,203.5949999999357,9.154772e-05,203.5949999999357,5.748683e-06,203.5949999999357,2.551088e-06
203.6099999999357,5.773257e-05,203.6099999999357,9.955568e-05,203.6099999999357,5.889093e-06,203.6099999999357,2.512137e-06
203.62499999993568,5.833842e-05,203.62499999993568,0.0001008982,203.62499999993568,5.696992e-06,203.62499999993568,2.500897e-06
203.63999999993567,5.889571e-05,203.63999999993567,0.0001009574,203.63999999993567,5.804769e-06,203.63999999993567,2.40909e-06
203.65499999993565,6.200365e-05,203.65499999993565,0.0001049689,203.65499999993565,5.986361e-06,203.65499999993565,2.397367e-06
203.66999999993564,6.374626e-05,203.66999999993564,0.0001075113,203.66999999993564,5.931993e-06,203.66999999993564,2.391484e-06
203.68499999993563,6.583308e-05,203.68499999993563,0.0001102656,203.68499999993563,5.969867e-06,203.68499999993563,2.319723e-06
203.6999999999356,6.496329e-05,203.6999999999356,0.0001156573,203.6999999999356,5.962784e-06,203.6999999999356,2.343887e-06
203.7149999999356,6.548401e-05,203.7149999999356,0.000122023,203.7149999999356,5.836232e-06,203.7149999999356,2.373747e-06
203.7299999999356,6.584998e-05,203.7299999999356,0.0001249158,203.7299999999356,5.853103e-06,203.7299999999356,2.391484e-06
203.74499999993557,6.527372e-05,203.74499999993557,0.0001250624,203.74499999993557,5.855509e-06,203.74499999993557,2.455423e-06
203.75999999993556,6.303314e-05,203.75999999993556,0.0001250725,203.75999999993556,5.770695e-06,203.75999999993556,2.472574e-06
203.77499999993555,6.07649e-05,203.77499999993555,0.0001231178,203.77499999993555,5.920107e-06,203.77499999993555,2.461153e-06
203.78999999993553,6.060776e-05,203.78999999993553,0.0001153929,203.78999999993553,5.841057e-06,203.78999999993553,2.523327e-06
203.80499999993552,6.044344e-05,203.80499999993552,0.0001107376,203.80499999993552,5.652309e-06,203.80499999993552,2.506524e-06
203.8199999999355,5.624828e-05,203.8199999999355,0.000111889,203.8199999999355,5.677176e-06,203.8199999999355,2.54556e-06
203.8349999999355,5.208495e-05,203.8349999999355,0.0001121332,203.8349999999355,5.462197e-06,203.8349999999355,2.594886e-06
203.84999999993548,5.087549e-05,203.84999999993548,0.000108918,203.84999999993548,5.313164e-06,203.84999999993548,2.632612e-06
203.86499999993546,4.879941e-05,203.86499999993546,0.0001056868,203.86499999993546,5.313164e-06,203.86499999993546,2.637958e-06
203.87999999993545,4.748383e-05,203.87999999993545,0.0001038455,203.87999999993545,5.326404e-06,203.87999999993545,2.589452e-06
203.89499999993544,4.896281e-05,203.89499999993544,0.000101679,203.89499999993544,5.066156e-06,203.89499999993544,2.611121e-06
203.90999999993542,4.65439e-05,203.90999999993542,9.412243e-05,203.90999999993542,5.096651e-06,203.90999999993542,2.659232e-06
203.9249999999354,4.380415e-05,203.9249999999354,9.248371e-05,203.9249999999354,5.046655e-06,203.9249999999354,2.680338e-06
203.9399999999354,4.30323e-05,203.9399999999354,8.842454e-05,203.9399999999354,5.176183e-06,203.9399999999354,2.685588e-06
203.95499999993538,4.370241e-05,203.95499999993538,8.338797e-05,203.95499999993538,5.195198e-06,203.95499999993538,2.648616e-06
203.96999999993537,4.30025e-05,203.96999999993537,7.141251e-05,203.96999999993537,5.168013e-06,203.96999999993537,2.621889e-06
203.98499999993535,4.409454e-05,203.98499999993535,6.090453e-05,203.98499999993535,5.178904e-06,203.98499999993535,2.57308e-06
203.99999999993534,4.374397e-05,203.99999999993534,5.894568e-05,203.99999999993534,5.200618e-06,203.99999999993534,2.562108e-06
204.01499999993533,4.393067e-05,204.01499999993533,5.835387e-05,204.01499999993533,5.013047e-06,204.01499999993533,2.551088e-06
204.0299999999353,4.363596e-05,204.0299999999353,5.837028e-05,204.0299999999353,4.907976e-06,204.0299999999353,2.512137e-06
204.0449999999353,4.256989e-05,204.0449999999353,5.708996e-05,204.0449999999353,4.902232e-06,204.0449999999353,2.534468e-06
204.0599999999353,4.260627e-05,204.0599999999353,5.43816e-05,204.0599999999353,4.882076e-06,204.0599999999353,2.589452e-06
204.07499999993527,4.3117e-05,204.07499999993527,5.123527e-05,204.07499999993527,4.890725e-06,204.07499999993527,2.54556e-06
204.08999999993526,4.186854e-05,204.08999999993526,5.054297e-05,204.08999999993526,5.063375e-06,204.08999999993526,2.506524e-06
204.10499999993525,4.235226e-05,204.10499999993525,4.982522e-05,204.10499999993525,5.118714e-06,204.10499999993525,2.46687e-06
204.11999999993523,4.233629e-05,204.11999999993523,4.91529e-05,204.11999999993523,5.110451e-06,204.11999999993523,2.478264e-06
204.13499999993522,4.364726e-05,204.13499999993522,4.887642e-05,204.13499999993522,5.197909e-06,204.13499999993522,2.551088e-06
204.1499999999352,4.261553e-05,204.1499999999352,4.944863e-05,204.1499999999352,5.397339e-06,204.1499999999352,2.512137e-06
204.1649999999352,4.116038e-05,204.1649999999352,4.876995e-05,204.1649999999352,5.373798e-06,204.1649999999352,2.512137e-06
204.17999999993518,4.06573e-05,204.17999999993518,4.851308e-05,204.17999999993518,6.095956e-06,204.17999999993518,2.495258e-06
204.19499999993516,4.144143e-05,204.19499999993516,4.679594e-05,204.19499999993516,5.908198e-06,204.19499999993516,2.523327e-06
204.20999999993515,4.113882e-05,204.20999999993515,4.022117e-05,204.20999999993515,5.95096e-06,204.20999999993515,2.551088e-06
204.22499999993514,4.119015e-05,204.22499999993514,4.034671e-05,204.22499999993514,5.917727e-06,204.22499999993514,2.551088e-06
204.23999999993512,3.938596e-05,204.23999999993512,4.054558e-05,204.23999999993512,5.891484e-06,204.23999999993512,2.616511e-06
204.2549999999351,4.027717e-05,204.2549999999351,4.031807e-05,204.2549999999351,5.879517e-06,204.2549999999351,2.653929e-06
204.2699999999351,4.11686e-05,204.2699999999351,4.030689e-05,204.2699999999351,5.731505e-06,204.2699999999351,2.616511e-06
204.28499999993508,4.169492e-05,204.28499999993508,3.878843e-05,204.28499999993508,5.758477e-06,204.28499999993508,2.605721e-06
204.29999999993507,4.249902e-05,204.29999999993507,3.521676e-05,204.29999999993507,5.770695e-06,204.29999999993507,2.562108e-06
204.31499999993505,4.304278e-05,204.31499999993505,3.580622e-05,204.31499999993505,6.19225e-06,204.31499999993505,2.556603e-06
204.32999999993504,4.393933e-05,204.32999999993504,3.534093e-05,204.32999999993504,6.539662e-06,204.32999999993504,2.534468e-06
204.34499999993503,4.372465e-05,204.34499999993503,3.378485e-05,204.34499999993503,6.898175e-06,204.34499999993503,2.562108e-06
204.359999999935,4.368758e-05,204.359999999935,2.992851e-05,204.359999999935,6.822199e-06,204.359999999935,2.57308e-06
204.374999999935,4.422406e-05,204.374999999935,3.115537e-05,204.374999999935,6.867475e-06,204.374999999935,2.648616e-06
204.389999999935,4.478997e-05,204.389999999935,3.293996e-05,204.389999999935,7.057657e-06,204.389999999935,2.621889e-06
204.40499999993497,4.472608e-05,204.40499999993497,3.416464e-05,204.40499999993497,6.859265e-06,204.40499999993497,2.798606e-06
204.41999999993496,4.480066e-05,204.41999999993496,3.473587e-05,204.41999999993496,6.826328e-06,204.41999999993496,2.823661e-06
204.43499999993494,4.618142e-05,204.43499999993494,3.556978e-05,204.43499999993494,6.569749e-06,204.43499999993494,2.783465e-06
204.44999999993493,4.668503e-05,204.44999999993493,3.634818e-05,204.44999999993493,6.589018e-06,204.44999999993493,2.778399e-06
204.46499999993492,4.786853e-05,204.46499999993492,4.150495e-05,204.46499999993492,6.561167e-06,204.46499999993492,2.732388e-06
204.4799999999349,4.843083e-05,204.4799999999349,4.261818e-05,204.4799999999349,6.526725e-06,204.4799999999349,2.74781e-06
204.4949999999349,5.104245e-05,204.4949999999349,4.393805e-05,204.4949999999349,6.644371e-06,204.4949999999349,2.696058e-06
204.50999999993488,5.344411e-05,204.50999999993488,4.906971e-05,204.50999999993488,6.692956e-06,204.50999999993488,2.732388e-06
204.52499999993486,5.286185e-05,204.52499999993486,5.723314e-05,204.52499999993486,6.795303e-06,204.52499999993486,2.778399e-06
204.53999999993485,5.359887e-05,204.53999999993485,6.172951e-05,204.53999999993485,6.711871e-06,204.53999999993485,2.803635e-06
204.55499999993484,5.37744e-05,204.55499999993484,7.184163e-05,204.55499999993484,6.559019e-06,204.55499999993484,2.818668e-06
204.56999999993482,5.379692e-05,204.56999999993482,8.244388e-05,204.56999999993482,6.100575e-06,204.56999999993482,2.818668e-06
204.5849999999348,5.843806e-05,204.5849999999348,9.189804e-05,204.5849999999348,6.035575e-06,204.5849999999348,2.828646e-06
204.5999999999348,5.994028e-05,204.5999999999348,9.153941e-05,204.5999999999348,5.765811e-06,204.5999999999348,2.768241e-06
204.61499999993478,6.135159e-05,204.61499999993478,9.44693e-05,204.61499999993478,5.741327e-06,204.61499999993478,2.711688e-06
204.62999999993477,6.159861e-05,204.62999999993477,0.0001092967,204.62999999993477,5.619817e-06,204.62999999993477,2.616511e-06
204.64499999993475,6.391839e-05,204.64499999993475,0.0001284967,204.64499999993475,5.418178e-06,204.64499999993475,2.680338e-06
204.65999999993474,6.628472e-05,204.65999999993474,0.0001399198,204.65999999993474,5.399948e-06,204.65999999993474,2.632612e-06
204.67499999993473,7.024847e-05,204.67499999993473,0.0001427092,204.67499999993473,5.173461e-06,204.67499999993473,2.659232e-06
204.6899999999347,7.346833e-05,204.6899999999347,0.0001434123,204.6899999999347,5.14616e-06,204.6899999999347,2.752932e-06
204.7049999999347,7.718e-05,204.7049999999347,0.0001436711,204.7049999999347,5.214144e-06,204.7049999999347,2.848496e-06
204.71999999993469,7.922182e-05,204.71999999993469,0.0001428607,204.71999999993469,5.243778e-06,204.71999999993469,2.833621e-06
204.73499999993467,8.15939e-05,204.73499999993467,0.0001452612,204.73499999993467,5.571988e-06,204.73499999993467,2.818668e-06
204.74999999993466,8.152308e-05,204.74999999993466,0.0001462337,204.74999999993466,5.384273e-06,204.74999999993466,2.868209e-06
204.76499999993464,8.000037e-05,204.76499999993464,0.000145938,204.76499999993464,5.189773e-06,204.76499999993464,2.793568e-06
204.77999999993463,8.070861e-05,204.77999999993463,0.000152127,204.77999999993463,5.251831e-06,204.77999999993463,2.843547e-06
204.79499999993462,8.032371e-05,204.79499999993462,0.0001568692,204.79499999993462,5.533936e-06,204.79499999993462,2.808655e-06
204.8099999999346,7.933554e-05,204.8099999999346,0.000156008,204.8099999999346,5.541568e-06,204.8099999999346,2.848496e-06
204.8249999999346,7.956567e-05,204.8249999999346,0.0001513501,204.8249999999346,5.305204e-06,204.8249999999346,2.887788e-06
204.83999999993458,7.853121e-05,204.83999999993458,0.0001489853,204.83999999993458,5.824151e-06,204.83999999993458,2.95052e-06
204.85499999993456,7.64586e-05,204.85499999993456,0.0001510804,204.85499999993456,5.893875e-06,204.85499999993456,2.960054e-06
204.86999999993455,7.594191e-05,204.86999999993455,0.0001497793,204.86999999993455,5.943854e-06,204.86999999993455,3.021286e-06
204.88499999993454,7.853551e-05,204.88499999993454,0.0001393105,204.88499999993454,5.943854e-06,204.88499999993454,3.007266e-06
204.89999999993452,8.275682e-05,204.89999999993452,0.0001238253,204.89999999993452,6.132817e-06,204.89999999993452,2.926552e-06
204.9149999999345,8.340976e-05,204.9149999999345,0.0001121999,204.9149999999345,6.105191e-06,204.9149999999345,2.873116e-06
204.9299999999345,8.103834e-05,204.9299999999345,0.0001111016,204.9299999999345,6.107498e-06,204.9299999999345,2.902385e-06
204.94499999993448,7.822081e-05,204.94499999993448,0.0001090218,204.94499999993448,6.035575e-06,204.94499999993448,2.858369e-06
204.95999999993447,8.429124e-05,204.95999999993447,0.0001093289,204.95999999993447,6.049562e-06,204.95999999993447,2.778399e-06
204.97499999993445,8.748054e-05,204.97499999993445,0.0001115441,204.97499999993445,5.953326e-06,204.97499999993445,2.732388e-06
204.98999999993444,8.607917e-05,204.98999999993444,0.0001143211,204.98999999993444,5.924864e-06,204.98999999993444,2.773325e-06
205.00499999993443,8.706879e-05,205.00499999993443,0.0001148435,205.00499999993443,6.002811e-06,205.00499999993443,2.701278e-06
205.0199999999344,8.827673e-05,205.0199999999344,0.0001123062,205.0199999999344,5.979298e-06,205.0199999999344,2.706488e-06
205.0349999999344,8.866079e-05,205.0349999999344,0.0001030246,205.0349999999344,5.896265e-06,205.0349999999344,2.664524e-06
205.04999999993439,8.864315e-05,205.04999999993439,9.295621e-05,205.04999999993439,6.007502e-06,205.04999999993439,2.706488e-06
205.06499999993437,8.832667e-05,205.06499999993437,9.02016e-05,205.06499999993437,5.896265e-06,205.06499999993437,2.716877e-06
205.07999999993436,8.573926e-05,205.07999999993436,8.89392e-05,205.07999999993436,5.867525e-06,205.07999999993436,2.74781e-06
205.09499999993434,8.617142e-05,205.09499999993434,8.562928e-05,205.09499999993434,5.551726e-06,205.09499999993434,2.768241e-06
205.10999999993433,8.733501e-05,205.10999999993433,8.137867e-05,205.10999999993433,5.574516e-06,205.10999999993433,2.858369e-06
205.12499999993432,8.74654e-05,205.12499999993432,8.036509e-05,205.12499999993432,5.790191e-06,205.12499999993432,2.788521e-06
205.1399999999343,8.439679e-05,205.1399999999343,8.083296e-05,205.1399999999343,5.662269e-06,205.1399999999343,2.778399e-06
205.1549999999343,7.75429e-05,205.1549999999343,7.894252e-05,205.1549999999343,5.503306e-06,205.1549999999343,2.716877e-06
205.16999999993428,7.363112e-05,205.16999999993428,7.954301e-05,205.16999999993428,5.528843e-06,205.16999999993428,2.701278e-06
205.18499999993426,7.259029e-05,205.18499999993426,7.914782e-05,205.18499999993426,5.632336e-06,205.18499999993426,2.632612e-06
205.19999999993425,6.72617e-05,205.19999999993425,7.906341e-05,205.19999999993425,6.037908e-06,205.19999999993425,2.621889e-06
205.21499999993424,6.035902e-05,205.21499999993424,7.734499e-05,205.21499999993424,6.146583e-06,205.21499999993424,2.664524e-06
205.22999999993422,5.484999e-05,205.22999999993422,6.652783e-05,205.22999999993422,6.03324e-06,205.22999999993422,2.659232e-06
205.2449999999342,5.123995e-05,205.2449999999342,5.515757e-05,205.2449999999342,5.986361e-06,205.2449999999342,2.637958e-06
205.2599999999342,4.961045e-05,205.2599999999342,5.042215e-05,205.2599999999342,5.953326e-06,205.2599999999342,2.627256e-06
205.27499999993418,4.651484e-05,205.27499999993418,4.791736e-05,205.27499999993418,5.884307e-06,205.27499999993418,2.600309e-06
205.28999999993417,4.524743e-05,205.28999999993417,4.764909e-05,205.28999999993417,6.072803e-06,205.28999999993417,2.556603e-06
205.30499999993415,4.506463e-05,205.30499999993415,4.722593e-05,205.30499999993415,6.331722e-06,205.30499999993415,2.500897e-06
205.31999999993414,4.484214e-05,205.31999999993414,4.665032e-05,205.31999999993414,6.391509e-06,205.31999999993414,2.343887e-06
205.33499999993413,4.460718e-05,205.33499999993413,3.983795e-05,205.33499999993413,6.362793e-06,205.33499999993413,2.295304e-06
205.3499999999341,4.195425e-05,205.3499999999341,3.969023e-05,205.3499999999341,6.114414e-06,205.3499999999341,2.26441e-06
205.3649999999341,3.95537e-05,205.3649999999341,3.905877e-05,205.3649999999341,6.014533e-06,205.3649999999341,2.156062e-06
205.37999999993409,3.842721e-05,205.37999999993409,3.558879e-05,205.37999999993409,5.848288e-06,205.37999999993409,2.156062e-06
205.39499999993407,3.632918e-05,205.39499999993407,3.490134e-05,205.39499999993407,5.833818e-06,205.39499999993407,2.201322e-06
205.40999999993406,3.520115e-05,205.40999999993406,3.40076e-05,205.40999999993406,6.351713e-06,205.40999999993406,2.194914e-06
205.42499999993404,3.410687e-05,205.42499999993404,3.273275e-05,205.42499999993404,6.567604e-06,205.42499999993404,2.207712e-06
205.43999999993403,3.397818e-05,205.43999999993403,3.388934e-05,205.43999999993403,6.433248e-06,205.43999999993403,2.214083e-06
205.45499999993402,3.647082e-05,205.45499999993402,3.644494e-05,205.45499999993402,6.146583e-06,205.45499999993402,2.270622e-06
205.469999999934,3.589816e-05,205.469999999934,4.48434e-05,205.469999999934,6.463831e-06,205.469999999934,2.258181e-06
205.484999999934,3.642174e-05,205.484999999934,5.693109e-05,205.484999999934,6.526725e-06,205.484999999934,2.276818e-06
205.49999999993398,3.674519e-05,205.49999999993398,5.512308e-05,205.49999999993398,6.669763e-06,205.49999999993398,2.313642e-06
205.51499999993396,3.684511e-05,205.51499999993396,6.559899e-05,205.51499999993396,6.730734e-06,205.51499999993396,2.455423e-06
205.52999999993395,3.661423e-05,205.52999999993395,8.835123e-05,205.52999999993395,6.791156e-06,205.52999999993395,2.426568e-06
205.54499999993394,3.692836e-05,205.54499999993394,0.0001052862,205.54499999993394,6.442001e-06,205.54499999993394,2.432367e-06
205.55999999993392,3.911464e-05,205.55999999993392,0.0001079366,205.55999999993392,6.262374e-06,205.55999999993392,2.500897e-06
205.5749999999339,3.938203e-05,205.5749999999339,0.000119365,205.5749999999339,6.251117e-06,205.5749999999339,2.46687e-06
205.5899999999339,4.098031e-05,205.5899999999339,0.0001340094,205.5899999999339,6.221753e-06,205.5899999999339,2.483942e-06
205.60499999993388,4.120041e-05,205.60499999993388,0.0001380087,205.60499999993388,6.333946e-06,205.60499999993388,2.512137e-06
205.61999999993387,4.233096e-05,205.61999999993387,0.0001412556,205.61999999993387,6.730734e-06,205.61999999993387,2.551088e-06
205.63499999993385,4.53454e-05,205.63499999993385,0.0001514972,205.63499999993385,6.824264e-06,205.63499999993385,2.57308e-06
205.64999999993384,4.44867e-05,205.64999999993384,0.0001627905,205.64999999993384,6.734918e-06,205.64999999993384,2.584006e-06
205.66499999993383,4.677396e-05,205.66499999993383,0.0001728526,205.66499999993383,6.65708e-06,205.66499999993383,2.584006e-06
205.6799999999338,5.023434e-05,205.6799999999338,0.0001756694,205.6799999999338,6.543968e-06,205.6799999999338,2.584006e-06
205.6949999999338,5.096097e-05,205.6949999999338,0.0001747111,205.6949999999338,6.844875e-06,205.6949999999338,2.616511e-06
205.70999999993379,5.518974e-05,205.70999999993379,0.0001729617,205.70999999993379,6.830453e-06,205.70999999993379,2.5676e-06
205.72499999993377,5.459437e-05,205.72499999993377,0.0001677622,205.72499999993377,6.580461e-06,205.72499999993377,2.621889e-06
205.73999999993376,5.563208e-05,205.73999999993376,0.0001627457,205.73999999993376,6.461651e-06,205.73999999993376,2.752932e-06
205.75499999993374,6.029737e-05,205.75499999993374,0.0001618087,205.75499999993374,6.770382e-06,205.75499999993374,2.627256e-06
205.76999999993373,6.034781e-05,205.76999999993373,0.0001623728,205.76999999993373,6.599699e-06,205.76999999993373,2.722057e-06
205.78499999993372,6.1042e-05,205.78499999993372,0.0001658266,205.78499999993372,6.770382e-06,205.78499999993372,2.742679e-06
205.7999999999337,6.099421e-05,205.7999999999337,0.0001640091,205.7999999999337,6.826328e-06,205.7999999999337,2.742679e-06
205.8149999999337,6.243157e-05,205.8149999999337,0.0001611248,205.8149999999337,6.80773e-06,205.8149999999337,2.696058e-06
205.82999999993368,6.309056e-05,205.82999999993368,0.000149144,205.82999999993368,7.1921e-06,205.82999999993368,2.737538e-06
205.84499999993366,6.315862e-05,205.84499999993366,0.0001344098,205.84499999993366,7.370092e-06,205.84499999993366,2.716877e-06
205.85999999993365,6.536581e-05,205.85999999993365,0.0001317608,205.85999999993365,7.354785e-06,205.85999999993365,2.664524e-06
205.87499999993364,6.575621e-05,205.87499999993364,0.0001292932,205.87499999993364,7.003558e-06,205.87499999993364,2.653929e-06
205.88999999993362,6.51454e-05,205.88999999993362,0.0001233673,205.88999999993362,7.119262e-06,205.88999999993362,2.632612e-06
205.9049999999336,6.656678e-05,205.9049999999336,0.0001083688,205.9049999999336,7.197973e-06,205.9049999999336,2.637958e-06
205.9199999999336,6.752423e-05,205.9199999999336,9.57834e-05,205.9199999999336,7.077588e-06,205.9199999999336,2.632612e-06
205.93499999993358,6.693945e-05,205.93499999993358,8.99376e-05,205.93499999993358,7.172487e-06,205.93499999993358,2.556603e-06
205.94999999993357,6.52981e-05,205.94999999993357,8.796101e-05,205.94999999993357,7.003558e-06,205.94999999993357,2.616511e-06
205.96499999993355,6.491622e-05,205.96499999993355,8.796421e-05,205.96499999993355,7.067629e-06,205.96499999993355,2.637958e-06
205.97999999993354,6.529098e-05,205.97999999993354,8.764624e-05,205.97999999993354,7.295169e-06,205.97999999993354,2.627256e-06
205.99499999993353,6.573007e-05,205.99499999993353,8.765363e-05,205.99499999993353,7.584854e-06,205.99499999993353,2.506524e-06
206.0099999999335,6.403971e-05,206.0099999999335,8.66081e-05,206.0099999999335,7.410121e-06,206.0099999999335,2.534468e-06
206.0249999999335,6.406962e-05,206.0249999999335,7.90839e-05,206.0249999999335,7.551351e-06,206.0249999999335,2.54556e-06
206.03999999993349,6.480046e-05,206.03999999993349,5.721592e-05,206.03999999993349,7.506446e-06,206.03999999993349,2.562108e-06
206.05499999993347,6.467229e-05,206.05499999993347,5.118989e-05,206.05499999993347,7.442368e-06,206.05499999993347,2.54556e-06
206.06999999993346,6.590813e-05,206.06999999993346,5.230302e-05,206.06999999993346,7.318304e-06,206.06999999993346,2.562108e-06
206.08499999993344,6.676624e-05,206.08499999993344,5.407195e-05,206.08499999993344,7.109361e-06,206.08499999993344,2.632612e-06
206.09999999993343,6.77899e-05,206.09999999993343,5.338688e-05,206.09999999993343,7.3567e-06,206.09999999993343,2.669806e-06
206.11499999993342,6.618647e-05,206.11499999993342,5.056665e-05,206.11499999993342,7.279705e-06,206.11499999993342,2.664524e-06
206.1299999999334,6.46407e-05,206.1299999999334,4.924109e-05,206.1299999999334,7.325999e-06,206.1299999999334,2.675077e-06
206.1449999999334,6.23173e-05,206.1449999999334,4.594104e-05,206.1449999999334,7.1921e-06,206.1449999999334,2.664524e-06
206.15999999993338,6.160364e-05,206.15999999993338,4.273206e-05,206.15999999993338,7.180339e-06,206.15999999993338,2.659232e-06
206.17499999993336,6.278325e-05,206.17499999993336,3.907536e-05,206.17499999993336,6.701369e-06,206.17499999993336,2.648616e-06
206.18999999993335,6.218718e-05,206.18999999993335,3.827368e-05,206.18999999993335,6.944984e-06,206.18999999993335,2.648616e-06
206.20499999993334,6.13408e-05,206.20499999993334,3.801368e-05,206.20499999993334,7.314453e-06,206.20499999993334,2.611121e-06
206.21999999993332,5.972957e-05,206.21999999993332,3.792279e-05,206.21999999993332,7.333686e-06,206.21999999993332,2.517739e-06
206.2349999999333,6.051402e-05,206.2349999999333,3.834318e-05,206.2349999999333,7.2409e-06,206.2349999999333,2.594886e-06
