X[s],a: EMG RMS 1-1,X[s].1,a: EMG RMS 1-2,X[s].2,a: EMG RMS 1-3,X[s].3,a: EMG RMS 1-4
83.01000000000276,0.0002068749,83.01000000000276,1.18164e-05,83.01000000000276,2.453414e-05,83.01000000000276,7.235062e-06
83.02500000000276,0.000215246,83.02500000000276,1.165072e-05,83.02500000000276,2.392485e-05,83.02500000000276,7.316379e-06
83.04000000000276,0.0002079005,83.04000000000276,1.116166e-05,83.04000000000276,2.483261e-05,83.04000000000276,7.757469e-06
83.05500000000276,0.000203746,83.05500000000276,1.311482e-05,83.05500000000276,2.50731e-05,83.05500000000276,7.817162e-06
83.07000000000276,0.0002041966,83.07000000000276,1.330569e-05,83.07000000000276,2.542016e-05,83.07000000000276,7.90675e-06
83.08500000000276,0.0002049539,83.08500000000276,1.34876e-05,83.08500000000276,2.562382e-05,83.08500000000276,7.92099e-06
83.10000000000277,0.0002046326,83.10000000000277,1.370004e-05,83.10000000000277,2.661138e-05,83.10000000000277,7.90675e-06
83.11500000000277,0.0002056682,83.11500000000277,1.366091e-05,83.11500000000277,2.72423e-05,83.11500000000277,7.562535e-06
83.13000000000277,0.0002036218,83.13000000000277,1.367946e-05,83.13000000000277,2.601501e-05,83.13000000000277,7.491418e-06
83.14500000000277,0.0002048852,83.14500000000277,1.367122e-05,83.14500000000277,2.588418e-05,83.14500000000277,7.811755e-06
83.16000000000277,0.0002031566,83.16000000000277,1.336379e-05,83.16000000000277,2.511577e-05,83.16000000000277,8.088174e-06
83.17500000000277,0.000203874,83.17500000000277,1.338591e-05,83.17500000000277,2.413004e-05,83.17500000000277,8.157542e-06
83.19000000000277,0.0002036659,83.19000000000277,1.265231e-05,83.19000000000277,2.200362e-05,83.19000000000277,8.515764e-06
83.20500000000277,0.000203599,83.20500000000277,1.123462e-05,83.20500000000277,2.207648e-05,83.20500000000277,8.599714e-06
83.22000000000277,0.0001998495,83.22000000000277,1.116544e-05,83.22000000000277,2.253997e-05,83.22000000000277,8.744285e-06
83.23500000000277,0.0001901109,83.23500000000277,1.113386e-05,83.23500000000277,2.425639e-05,83.23500000000277,8.575109e-06
83.25000000000277,0.000172506,83.25000000000277,1.131334e-05,83.25000000000277,2.398776e-05,83.25000000000277,8.067247e-06
83.26500000000277,0.0001615398,83.26500000000277,1.196448e-05,83.26500000000277,2.397778e-05,83.26500000000277,7.295169e-06
83.28000000000277,0.0001489495,83.28000000000277,1.187941e-05,83.28000000000277,2.402532e-05,83.28000000000277,7.156758e-06
83.29500000000277,0.0001422148,83.29500000000277,1.21896e-05,83.29500000000277,2.378253e-05,83.29500000000277,6.938897e-06
83.31000000000277,0.0001450823,83.31000000000277,9.526091e-06,83.31000000000277,2.320391e-05,83.31000000000277,7.186222e-06
83.32500000000277,0.0001405279,83.32500000000277,9.500919e-06,83.32500000000277,2.423432e-05,83.32500000000277,7.246734e-06
83.34000000000277,0.0001399973,83.34000000000277,8.965412e-06,83.34000000000277,2.437458e-05,83.34000000000277,7.316379e-06
83.35500000000278,0.0001392235,83.35500000000278,8.661737e-06,83.35500000000278,2.357012e-05,83.35500000000278,7.285508e-06
83.37000000000278,0.000149246,83.37000000000278,8.729774e-06,83.37000000000278,2.395486e-05,83.37000000000278,7.339447e-06
83.38500000000278,0.0001533644,83.38500000000278,8.880161e-06,83.38500000000278,2.39525e-05,83.38500000000278,7.260328e-06
83.40000000000278,0.0001503375,83.40000000000278,8.861105e-06,83.40000000000278,2.384109e-05,83.40000000000278,6.96726e-06
83.41500000000278,0.0001509064,83.41500000000278,8.880161e-06,83.41500000000278,2.380147e-05,83.41500000000278,6.910417e-06
83.43000000000278,0.0001488869,83.43000000000278,8.684475e-06,83.43000000000278,2.356474e-05,83.43000000000278,6.776621e-06
83.44500000000278,0.0001472493,83.44500000000278,8.824465e-06,83.44500000000278,2.266027e-05,83.44500000000278,6.457289e-06
83.46000000000278,0.0001438259,83.46000000000278,8.653601e-06,83.46000000000278,2.221769e-05,83.46000000000278,6.327271e-06
83.47500000000278,0.0001427321,83.47500000000278,8.655229e-06,83.47500000000278,2.000999e-05,83.47500000000278,6.331722e-06
83.49000000000278,0.0001403354,83.49000000000278,8.908669e-06,83.49000000000278,1.973781e-05,83.49000000000278,6.362793e-06
83.50500000000278,0.0001413733,83.50500000000278,8.044515e-06,83.50500000000278,1.994724e-05,83.50500000000278,6.709772e-06
83.52000000000278,0.0001434527,83.52000000000278,7.571843e-06,83.52000000000278,2.055519e-05,83.52000000000278,6.932803e-06
83.53500000000278,0.0001410935,83.53500000000278,7.455606e-06,83.53500000000278,2.024306e-05,83.53500000000278,6.69506e-06
83.55000000000278,0.0001360722,83.55000000000278,7.095478e-06,83.55000000000278,2.051609e-05,83.55000000000278,6.404719e-06
83.56500000000278,0.0001340074,83.56500000000278,7.24479e-06,83.56500000000278,2.0095e-05,83.56500000000278,6.289309e-06
83.58000000000278,0.0001358391,83.58000000000278,7.438582e-06,83.58000000000278,1.783946e-05,83.58000000000278,6.051891e-06
83.59500000000278,0.0001410047,83.59500000000278,7.879981e-06,83.59500000000278,1.792375e-05,83.59500000000278,5.995767e-06
83.61000000000278,0.0001465359,83.61000000000278,7.881768e-06,83.61000000000278,1.676057e-05,83.61000000000278,5.946224e-06
83.62500000000279,0.0001348144,83.62500000000279,7.963557e-06,83.62500000000279,1.644152e-05,83.62500000000279,5.881913e-06
83.64000000000279,0.0001272531,83.64000000000279,7.977696e-06,83.64000000000279,1.650224e-05,83.64000000000279,5.751133e-06
83.65500000000279,0.0001245125,83.65500000000279,7.93343e-06,83.65500000000279,1.638917e-05,83.65500000000279,5.853103e-06
83.67000000000279,0.0001274933,83.67000000000279,7.800928e-06,83.67000000000279,1.585265e-05,83.67000000000279,5.872325e-06
83.68500000000279,0.0001270068,83.68500000000279,7.52706e-06,83.68500000000279,1.524289e-05,83.68500000000279,5.780451e-06
83.70000000000279,0.0001323031,83.70000000000279,7.62745e-06,83.70000000000279,1.540834e-05,83.70000000000279,5.853103e-06
83.71500000000279,0.0001321915,83.71500000000279,7.689987e-06,83.71500000000279,1.623632e-05,83.71500000000279,5.881913e-06
83.73000000000279,0.000126081,83.73000000000279,8.070739e-06,83.73000000000279,1.600564e-05,83.73000000000279,5.93674e-06
83.74500000000279,0.0001300006,83.74500000000279,8.188566e-06,83.74500000000279,1.59333e-05,83.74500000000279,5.896265e-06
83.76000000000279,0.0001269237,83.76000000000279,8.392462e-06,83.76000000000279,1.600036e-05,83.76000000000279,5.571988e-06
83.77500000000279,0.0001268467,83.77500000000279,9.018676e-06,83.77500000000279,1.548949e-05,83.77500000000279,5.275916e-06
83.79000000000279,0.0001287996,83.79000000000279,9.304663e-06,83.79000000000279,1.531573e-05,83.79000000000279,5.592176e-06
83.80500000000279,0.0001306897,83.80500000000279,1.024293e-05,83.80500000000279,1.528258e-05,83.80500000000279,6.552573e-06
83.82000000000279,0.0001328787,83.82000000000279,1.012118e-05,83.82000000000279,1.576175e-05,83.82000000000279,6.576178e-06
83.8350000000028,0.0001432977,83.8350000000028,1.005275e-05,83.8350000000028,1.681427e-05,83.8350000000028,6.936866e-06
83.8500000000028,0.000138598,83.8500000000028,1.012258e-05,83.8500000000028,2.039144e-05,83.8500000000028,6.898175e-06
83.8650000000028,0.0001433867,83.8650000000028,1.024018e-05,83.8650000000028,2.566173e-05,83.8650000000028,6.912455e-06
83.8800000000028,0.0001499568,83.8800000000028,1.016562e-05,83.8800000000028,2.552412e-05,83.8800000000028,7.582997e-06
83.8950000000028,0.0001760567,83.8950000000028,1.018915e-05,83.8950000000028,2.548988e-05,83.8950000000028,8.313199e-06
83.9100000000028,0.0001836145,83.9100000000028,1.122458e-05,83.9100000000028,2.547054e-05,83.9100000000028,8.167896e-06
83.9250000000028,0.0001857648,83.9250000000028,1.316199e-05,83.9250000000028,2.558586e-05,83.9250000000028,8.166172e-06
83.9400000000028,0.0001872425,83.9400000000028,1.350326e-05,83.9400000000028,2.579751e-05,83.9400000000028,8.240013e-06
83.9550000000028,0.000187053,83.9550000000028,1.36475e-05,83.9550000000028,2.537301e-05,83.9550000000028,8.395818e-06
83.9700000000028,0.0001886009,83.9700000000028,1.360407e-05,83.9700000000028,2.54124e-05,83.9700000000028,8.432649e-06
83.9850000000028,0.0001960006,83.9850000000028,1.330675e-05,83.9850000000028,2.626774e-05,83.9850000000028,8.612809e-06
84.0000000000028,0.0001955362,84.0000000000028,1.332262e-05,84.0000000000028,2.681126e-05,84.0000000000028,8.671489e-06
84.0150000000028,0.0001954967,84.0150000000028,1.315236e-05,84.0150000000028,2.721126e-05,84.0150000000028,8.742674e-06
84.0300000000028,0.0001994333,84.0300000000028,1.307825e-05,84.0300000000028,2.672917e-05,84.0300000000028,8.835633e-06
84.0450000000028,0.0002003951,84.0450000000028,1.248645e-05,84.0450000000028,2.89344e-05,84.0450000000028,8.382385e-06
84.0600000000028,0.0002025611,84.0600000000028,1.204662e-05,84.0600000000028,2.995956e-05,84.0600000000028,8.734614e-06
84.0750000000028,0.0002038872,84.0750000000028,1.22507e-05,84.0750000000028,3.245659e-05,84.0750000000028,8.737838e-06
84.0900000000028,0.000210471,84.0900000000028,1.345519e-05,84.0900000000028,3.149891e-05,84.0900000000028,8.60299e-06
84.1050000000028,0.0002182349,84.1050000000028,1.466257e-05,84.1050000000028,2.974486e-05,84.1050000000028,8.635676e-06
84.1200000000028,0.0002249677,84.1200000000028,1.567392e-05,84.1200000000028,2.676761e-05,84.1200000000028,8.742674e-06
84.1350000000028,0.0002141256,84.1350000000028,1.638573e-05,84.1350000000028,2.67376e-05,84.1350000000028,7.96002e-06
84.1500000000028,0.000215202,84.1500000000028,1.638315e-05,84.1500000000028,2.677393e-05,84.1500000000028,7.829767e-06
84.1650000000028,0.0002145054,84.1650000000028,1.568021e-05,84.1650000000028,2.670175e-05,84.1650000000028,7.945849e-06
84.1800000000028,0.0002230355,84.1800000000028,1.490649e-05,84.1800000000028,2.663255e-05,84.1800000000028,8.034001e-06
84.1950000000028,0.0002216174,84.1950000000028,1.483259e-05,84.1950000000028,2.728776e-05,84.1950000000028,8.056763e-06
84.21000000000281,0.000221097,84.21000000000281,1.472776e-05,84.21000000000281,2.857532e-05,84.21000000000281,7.742928e-06
84.22500000000281,0.0002237099,84.22500000000281,1.476978e-05,84.22500000000281,2.776573e-05,84.22500000000281,7.748384e-06
84.24000000000281,0.0002204597,84.24000000000281,1.494612e-05,84.24000000000281,2.790541e-05,84.24000000000281,7.790086e-06
84.25500000000281,0.0002224286,84.25500000000281,1.501289e-05,84.25500000000281,2.76381e-05,84.25500000000281,7.771981e-06
84.27000000000281,0.0002210118,84.27000000000281,1.514369e-05,84.27000000000281,2.727486e-05,84.27000000000281,7.842351e-06
84.28500000000281,0.0002203574,84.28500000000281,1.521792e-05,84.28500000000281,2.726917e-05,84.28500000000281,7.851327e-06
84.30000000000281,0.0002206633,84.30000000000281,1.521422e-05,84.30000000000281,2.34971e-05,84.30000000000281,7.697311e-06
84.31500000000281,0.0002184026,84.31500000000281,1.56199e-05,84.31500000000281,2.087076e-05,84.31500000000281,6.720261e-06
84.33000000000281,0.0002135672,84.33000000000281,1.565233e-05,84.33000000000281,2.047692e-05,84.33000000000281,6.7391e-06
84.34500000000281,0.0001986449,84.34500000000281,1.32058e-05,84.34500000000281,2.006272e-05,84.34500000000281,6.914493e-06
84.36000000000281,0.000194898,84.36000000000281,1.314486e-05,84.36000000000281,1.989633e-05,84.36000000000281,7.176414e-06
84.37500000000281,0.0001911537,84.37500000000281,1.17038e-05,84.37500000000281,2.383105e-05,84.37500000000281,7.40061e-06
84.39000000000281,0.0001870758,84.39000000000281,1.142362e-05,84.39000000000281,2.696842e-05,84.39000000000281,7.656943e-06
84.40500000000281,0.0001829611,84.40500000000281,1.144702e-05,84.40500000000281,2.748784e-05,84.40500000000281,7.607108e-06
84.42000000000282,0.0002103134,84.42000000000282,1.109584e-05,84.42000000000282,2.838142e-05,84.42000000000282,7.59599e-06
84.43500000000282,0.0002122574,84.43500000000282,1.050768e-05,84.43500000000282,2.826005e-05,84.43500000000282,7.485775e-06
84.45000000000282,0.0002135711,84.45000000000282,1.091794e-05,84.45000000000282,2.796542e-05,84.45000000000282,7.52706e-06
84.46500000000282,0.000216311,84.46500000000282,1.069636e-05,84.46500000000282,2.745092e-05,84.46500000000282,7.48201e-06
84.48000000000282,0.0002131289,84.48000000000282,1.113892e-05,84.48000000000282,2.742833e-05,84.48000000000282,7.391086e-06
84.49500000000282,0.0002109944,84.49500000000282,1.071872e-05,84.49500000000282,2.77632e-05,84.49500000000282,7.003558e-06
84.51000000000282,0.0002091009,84.51000000000282,1.049158e-05,84.51000000000282,2.794324e-05,84.51000000000282,7.105398e-06
84.52500000000282,0.0002135143,84.52500000000282,1.025805e-05,84.52500000000282,2.914058e-05,84.52500000000282,7.081567e-06
84.54000000000282,0.0002118168,84.54000000000282,1.025667e-05,84.54000000000282,3.290402e-05,84.54000000000282,7.392992e-06
84.55500000000282,0.0002125332,84.55500000000282,1.01767e-05,84.55500000000282,3.450313e-05,84.55500000000282,7.41962e-06
84.57000000000282,0.0002145424,84.57000000000282,9.94427e-06,84.57000000000282,3.620645e-05,84.57000000000282,7.29903e-06
84.58500000000282,0.0002192571,84.58500000000282,9.76848e-06,84.58500000000282,3.588325e-05,84.58500000000282,7.597844e-06
84.60000000000282,0.0002209214,84.60000000000282,9.658262e-06,84.60000000000282,3.6079e-05,84.60000000000282,7.979462e-06
84.61500000000282,0.0002139941,84.61500000000282,1.016978e-05,84.61500000000282,3.558206e-05,84.61500000000282,7.653262e-06
84.63000000000282,0.0002129343,84.63000000000282,1.032239e-05,84.63000000000282,3.399641e-05,84.63000000000282,7.043671e-06
84.64500000000282,0.0002126282,84.64500000000282,1.111486e-05,84.64500000000282,3.442097e-05,84.64500000000282,6.904299e-06
84.66000000000282,0.0002088553,84.66000000000282,1.211192e-05,84.66000000000282,3.795843e-05,84.66000000000282,6.509435e-06
84.67500000000283,0.0001912754,84.67500000000283,1.310192e-05,84.67500000000283,3.807996e-05,84.67500000000283,6.938897e-06
84.69000000000283,0.0002010172,84.69000000000283,1.409034e-05,84.69000000000283,3.801961e-05,84.69000000000283,7.362442e-06
84.70500000000283,0.0002162855,84.70500000000283,1.3892e-05,84.70500000000283,3.769738e-05,84.70500000000283,9.366529e-06
84.72000000000283,0.0002206264,84.72000000000283,1.367018e-05,84.72000000000283,3.792539e-05,84.72000000000283,1.013092e-05
84.73500000000283,0.0002300815,84.73500000000283,1.344995e-05,84.73500000000283,3.748679e-05,84.73500000000283,1.017255e-05
84.75000000000283,0.0002301917,84.75000000000283,1.362787e-05,84.75000000000283,3.747363e-05,84.75000000000283,1.027725e-05
84.76500000000283,0.0002298749,84.76500000000283,1.49433e-05,84.76500000000283,3.725232e-05,84.76500000000283,1.018915e-05
84.78000000000283,0.0002290779,84.78000000000283,1.695194e-05,84.78000000000283,3.642444e-05,84.78000000000283,9.935768e-06
84.79500000000283,0.000237673,84.79500000000283,1.756974e-05,84.79500000000283,3.747852e-05,84.79500000000283,1.06845e-05
84.81000000000283,0.0002357551,84.81000000000283,1.78655e-05,84.81000000000283,3.457939e-05,84.81000000000283,1.081163e-05
84.82500000000283,0.0002332652,84.82500000000283,1.765452e-05,84.82500000000283,3.503348e-05,84.82500000000283,1.095401e-05
84.84000000000283,0.0002249447,84.84000000000283,1.767127e-05,84.84000000000283,3.649438e-05,84.84000000000283,1.078684e-05
84.85500000000283,0.0002289209,84.85500000000283,1.78363e-05,84.85500000000283,3.788823e-05,84.85500000000283,1.051706e-05
84.87000000000283,0.0002294422,84.87000000000283,1.732754e-05,84.87000000000283,3.793319e-05,84.87000000000283,1.05251e-05
84.88500000000283,0.0002330652,84.88500000000283,1.69951e-05,84.88500000000283,3.896814e-05,84.88500000000283,1.082205e-05
84.90000000000283,0.0002329648,84.90000000000283,1.617461e-05,84.90000000000283,3.259475e-05,84.90000000000283,1.103984e-05
84.91500000000283,0.0002283459,84.91500000000283,1.627705e-05,84.91500000000283,3.215923e-05,84.91500000000283,1.095015e-05
84.93000000000283,0.0002230113,84.93000000000283,1.593773e-05,84.93000000000283,3.157619e-05,84.93000000000283,1.066074e-05
84.94500000000284,0.0002055457,84.94500000000284,1.542113e-05,84.94500000000284,3.191564e-05,84.94500000000284,1.051439e-05
84.96000000000284,0.0001922651,84.96000000000284,1.561449e-05,84.96000000000284,3.219775e-05,84.96000000000284,8.557019e-06
84.97500000000284,0.0001911423,84.97500000000284,1.565863e-05,84.97500000000284,3.199719e-05,84.97500000000284,8.204034e-06
84.99000000000284,0.0001829056,84.99000000000284,1.565414e-05,84.99000000000284,3.291087e-05,84.99000000000284,8.049767e-06
85.00500000000284,0.0001841813,85.00500000000284,1.523735e-05,85.00500000000284,3.322525e-05,85.00500000000284,8.236593e-06
85.02000000000284,0.0001891605,85.02000000000284,1.372777e-05,85.02000000000284,3.419266e-05,85.02000000000284,8.650345e-06
85.03500000000284,0.0001922805,85.03500000000284,1.186755e-05,85.03500000000284,3.892691e-05,85.03500000000284,8.671489e-06
85.05000000000284,0.0001899717,85.05000000000284,1.118939e-05,85.05000000000284,3.82814e-05,85.05000000000284,7.782849e-06
85.06500000000284,0.0001995692,85.06500000000284,1.136179e-05,85.06500000000284,3.870263e-05,85.06500000000284,7.612662e-06
85.08000000000284,0.0002000381,85.08000000000284,1.130836e-05,85.08000000000284,3.868624e-05,85.08000000000284,7.446153e-06
85.09500000000284,0.00020188,85.09500000000284,1.218729e-05,85.09500000000284,3.736409e-05,85.09500000000284,7.385367e-06
85.11000000000284,0.0002049957,85.11000000000284,1.321007e-05,85.11000000000284,3.71895e-05,85.11000000000284,7.178377e-06
85.12500000000284,0.0002045761,85.12500000000284,1.339222e-05,85.12500000000284,3.789715e-05,85.12500000000284,7.057657e-06
85.14000000000284,0.0002100994,85.14000000000284,1.365988e-05,85.14000000000284,3.756937e-05,85.14000000000284,6.842817e-06
85.15500000000284,0.0002302518,85.15500000000284,1.364337e-05,85.15500000000284,3.763231e-05,85.15500000000284,7.350954e-06
85.17000000000284,0.0002414792,85.17000000000284,1.203843e-05,85.17000000000284,3.774967e-05,85.17000000000284,8.456004e-06
85.18500000000284,0.0002457586,85.18500000000284,1.246161e-05,85.18500000000284,3.770486e-05,85.18500000000284,8.5108e-06
85.20000000000285,0.0002520317,85.20000000000285,1.229087e-05,85.20000000000285,3.818192e-05,85.20000000000285,9.254569e-06
85.21500000000285,0.0002531914,85.21500000000285,1.213052e-05,85.21500000000285,3.795917e-05,85.21500000000285,9.088692e-06
85.23000000000285,0.0002536471,85.23000000000285,1.443308e-05,85.23000000000285,3.823501e-05,85.23000000000285,9.076284e-06
85.24500000000285,0.0002570621,85.24500000000285,1.595274e-05,85.24500000000285,3.769963e-05,85.24500000000285,8.954407e-06
85.26000000000285,0.0002569005,85.26000000000285,1.575549e-05,85.26000000000285,3.655416e-05,85.26000000000285,8.580036e-06
85.27500000000285,0.000251652,85.27500000000285,1.560276e-05,85.27500000000285,3.611841e-05,85.27500000000285,8.233172e-06
85.29000000000285,0.0002380826,85.29000000000285,1.548858e-05,85.29000000000285,2.771597e-05,85.29000000000285,8.070739e-06
85.30500000000285,0.0002315591,85.30500000000285,1.542753e-05,85.30500000000285,2.62554e-05,85.30500000000285,8.016449e-06
85.32000000000285,0.0002291254,85.32000000000285,1.529916e-05,85.32000000000285,2.36161e-05,85.32000000000285,7.913874e-06
85.33500000000285,0.0002278372,85.33500000000285,1.489609e-05,85.33500000000285,2.350309e-05,85.33500000000285,7.956479e-06
85.35000000000285,0.0002240333,85.35000000000285,1.443699e-05,85.35000000000285,2.145977e-05,85.35000000000285,7.974164e-06
85.36500000000285,0.0002179533,85.36500000000285,1.411032e-05,85.36500000000285,2.046109e-05,85.36500000000285,7.993573e-06
85.38000000000285,0.0002127205,85.38000000000285,1.369901e-05,85.38000000000285,1.618331e-05,85.38000000000285,8.02523e-06
85.39500000000285,0.0001989867,85.39500000000285,1.382593e-05,85.39500000000285,1.621549e-05,85.39500000000285,7.466933e-06
85.41000000000285,0.000171242,85.41000000000285,1.404327e-05,85.41000000000285,1.605748e-05,85.41000000000285,6.642251e-06
85.42500000000285,0.0001512404,85.42500000000285,1.390213e-05,85.42500000000285,1.643552e-05,85.42500000000285,5.373798e-06
85.44000000000285,0.0001379803,85.44000000000285,1.338065e-05,85.44000000000285,1.683269e-05,85.44000000000285,4.090841e-06
85.45500000000285,0.0001377949,85.45500000000285,1.337433e-05,85.45500000000285,1.565414e-05,85.45500000000285,3.741947e-06
85.47000000000286,0.0001450342,85.47000000000286,1.331733e-05,85.47000000000286,1.947702e-05,85.47000000000286,4.035369e-06
85.48500000000286,0.0001447734,85.48500000000286,1.033194e-05,85.48500000000286,2.91372e-05,85.48500000000286,4.094283e-06
85.50000000000286,0.0001460904,85.50000000000286,9.178147e-06,85.50000000000286,5.052234e-05,85.50000000000286,4.239647e-06
85.51500000000286,0.0001673563,85.51500000000286,9.39506e-06,85.51500000000286,8.067998e-05,85.51500000000286,4.135364e-06
85.53000000000286,0.0001714703,85.53000000000286,9.571822e-06,85.53000000000286,8.085457e-05,85.53000000000286,4.125132e-06
85.54500000000286,0.0001882111,85.54500000000286,1.137047e-05,85.54500000000286,8.172086e-05,85.54500000000286,4.259536e-06
85.56000000000286,0.0004565291,85.56000000000286,1.184497e-05,85.56000000000286,8.992538e-05,85.56000000000286,4.399444e-06
85.57500000000286,0.001270653,85.57500000000286,1.223804e-05,85.57500000000286,9.498636e-05,85.57500000000286,4.383405e-06
85.59000000000286,0.001530771,85.59000000000286,1.30286e-05,85.59000000000286,9.666222e-05,85.59000000000286,4.431347e-06
85.60500000000286,0.001701969,85.60500000000286,1.32484e-05,85.60500000000286,0.0001196864,85.60500000000286,4.431347e-06
85.62000000000286,0.002258445,85.62000000000286,1.383306e-05,85.62000000000286,0.0001210631,85.62000000000286,4.447213e-06
85.63500000000286,0.002660313,85.63500000000286,2.39719e-05,85.63500000000286,0.0001215515,85.63500000000286,4.299038e-06
85.65000000000286,0.002973095,85.65000000000286,0.001004392,85.65000000000286,0.0001220017,85.65000000000286,4.321914e-06
85.66500000000286,0.003220085,85.66500000000286,0.001253403,85.66500000000286,0.0001224177,85.66500000000286,4.341427e-06
85.68000000000286,0.003274733,85.68000000000286,0.00167684,85.68000000000286,0.0001223882,85.68000000000286,4.393035e-06
85.69500000000286,0.00335336,85.69500000000286,0.002000792,85.69500000000286,0.0001222431,85.69500000000286,4.36408e-06
85.71000000000286,0.003554302,85.71000000000286,0.002034007,85.71000000000286,0.0001222053,85.71000000000286,4.447213e-06
85.72500000000286,0.003738537,85.72500000000286,0.002055281,85.72500000000286,0.0001197856,85.72500000000286,4.308857e-06
85.74000000000287,0.003851408,85.74000000000287,0.002057649,85.74000000000287,0.0001196773,85.74000000000287,4.469331e-06
85.75500000000287,0.003902441,85.75500000000287,0.002073952,85.75500000000287,9.488814e-05,85.75500000000287,4.525708e-06
85.77000000000287,0.003906794,85.77000000000287,0.002094519,85.77000000000287,9.39593e-05,85.77000000000287,4.791795e-06
85.78500000000287,0.003909379,85.78500000000287,0.002095684,85.78500000000287,9.423371e-05,85.78500000000287,4.864733e-06
85.80000000000287,0.003940529,85.80000000000287,0.002095744,85.80000000000287,9.100045e-05,85.80000000000287,4.708762e-06
85.81500000000287,0.003861391,85.81500000000287,0.002096019,85.81500000000287,8.495493e-05,85.81500000000287,4.696781e-06
85.83000000000287,0.003740892,85.83000000000287,0.002096948,85.83000000000287,7.873525e-05,85.83000000000287,4.69378e-06
85.84500000000287,0.003669812,85.84500000000287,0.002097056,85.84500000000287,7.887254e-05,85.84500000000287,4.615091e-06
85.86000000000287,0.003589569,85.86000000000287,0.002097103,85.86000000000287,3.547024e-05,85.86000000000287,4.627284e-06
85.87500000000287,0.003299124,85.87500000000287,0.002097105,85.87500000000287,3.239708e-05,85.87500000000287,4.654602e-06
85.89000000000287,0.002927315,85.89000000000287,0.002094769,85.89000000000287,3.303604e-05,85.89000000000287,4.618143e-06
85.90500000000287,0.002472772,85.90500000000287,0.001671614,85.90500000000287,3.365576e-05,85.90500000000287,4.732634e-06
85.92000000000287,0.001962291,85.92000000000287,0.001561428,85.92000000000287,3.268667e-05,85.92000000000287,4.762306e-06
85.93500000000287,0.001921804,85.93500000000287,0.001028956,85.93500000000287,3.268926e-05,85.93500000000287,4.782967e-06
85.95000000000287,0.001914353,85.95000000000287,0.0004702461,85.95000000000287,3.269615e-05,85.95000000000287,4.720713e-06
85.96500000000287,0.001745522,85.96500000000287,0.0004127478,85.96500000000287,3.238273e-05,85.96500000000287,4.565993e-06
85.98000000000287,0.00153695,85.98000000000287,0.0003727532,85.98000000000287,3.24644e-05,85.98000000000287,4.0632e-06
85.99500000000288,0.001348316,85.99500000000288,0.0003734383,85.99500000000288,3.20491e-05,85.99500000000288,3.943564e-06
86.01000000000288,0.001284856,86.01000000000288,0.0002406101,86.01000000000288,3.044602e-05,86.01000000000288,3.801702e-06
86.02500000000288,0.001278811,86.02500000000288,0.0001498087,86.02500000000288,3.012835e-05,86.02500000000288,3.623367e-06
86.04000000000288,0.001254664,86.04000000000288,0.0001513073,86.04000000000288,2.90641e-05,86.04000000000288,3.611685e-06
86.05500000000288,0.00117561,86.05500000000288,0.0001672619,86.05500000000288,2.865998e-05,86.05500000000288,3.711708e-06
86.07000000000288,0.001160121,86.07000000000288,0.0001814585,86.07000000000288,2.871596e-05,86.07000000000288,3.556662e-06
86.08500000000288,0.001003022,86.08500000000288,0.0001840185,86.08500000000288,2.766968e-05,86.08500000000288,3.611685e-06
86.10000000000288,0.0007238743,86.10000000000288,0.0001845363,86.10000000000288,2.473428e-05,86.10000000000288,3.70411e-06
86.11500000000288,0.000455555,86.11500000000288,0.0001849326,86.11500000000288,2.342565e-05,86.11500000000288,3.775675e-06
86.13000000000288,0.0003825293,86.13000000000288,0.0002016471,86.13000000000288,2.15024e-05,86.13000000000288,3.753223e-06
86.14500000000288,0.0003766154,86.14500000000288,0.0002213265,86.14500000000288,1.777618e-05,86.14500000000288,3.82387e-06
86.16000000000288,0.0003523512,86.16000000000288,0.0002476619,86.16000000000288,1.574386e-05,86.16000000000288,4.135364e-06
86.17500000000288,0.0003045341,86.17500000000288,0.0002709344,86.17500000000288,1.569188e-05,86.17500000000288,4.20629e-06
86.19000000000288,0.0002661512,86.19000000000288,0.0002678005,86.19000000000288,1.555121e-05,86.19000000000288,4.34467e-06
86.20500000000288,0.0002629928,86.20500000000288,0.0002617097,86.20500000000288,1.554487e-05,86.20500000000288,4.36408e-06
86.22000000000288,0.0003093033,86.22000000000288,0.000262403,86.22000000000288,1.635303e-05,86.22000000000288,4.341427e-06
86.23500000000288,0.0003459974,86.23500000000288,0.0002802447,86.23500000000288,1.674207e-05,86.23500000000288,4.31539e-06
86.25000000000288,0.000394467,86.25000000000288,0.0003106858,86.25000000000288,1.494235e-05,86.25000000000288,4.29576e-06
86.26500000000289,0.0004196224,86.26500000000289,0.0003620891,86.26500000000289,1.537723e-05,86.26500000000289,4.27604e-06
86.28000000000289,0.0005312539,86.28000000000289,0.0003718781,86.28000000000289,1.433122e-05,86.28000000000289,4.152361e-06
86.29500000000289,0.000549707,86.29500000000289,0.0003718228,86.29500000000289,1.41223e-05,86.29500000000289,4.028382e-06
86.31000000000289,0.0005864025,86.31000000000289,0.0003657219,86.31000000000289,1.360615e-05,86.31000000000289,3.950702e-06
86.32500000000289,0.0005930314,86.32500000000289,0.0003603997,86.32500000000289,1.324627e-05,86.32500000000289,4.021382e-06
86.34000000000289,0.0005965471,86.34000000000289,0.0003576482,86.34000000000289,1.380043e-05,86.34000000000289,3.979125e-06
86.35500000000289,0.0005971163,86.35500000000289,0.0003601249,86.35500000000289,1.396179e-05,86.35500000000289,3.882364e-06
86.37000000000289,0.00060795,86.37000000000289,0.0003607295,86.37000000000289,1.391125e-05,86.37000000000289,3.786851e-06
86.38500000000289,0.0006591548,86.38500000000289,0.0003413207,86.38500000000289,1.372264e-05,86.38500000000289,3.756974e-06
86.40000000000289,0.0007101894,86.40000000000289,0.0003326196,86.40000000000289,1.350013e-05,86.40000000000289,3.536803e-06
86.41500000000289,0.0007249413,86.41500000000289,0.000315641,86.41500000000289,1.325265e-05,86.41500000000289,3.11314e-06
86.43000000000289,0.0007263134,86.43000000000289,0.0003032789,86.43000000000289,1.321966e-05,86.43000000000289,2.833621e-06
86.44500000000289,0.0007239462,86.44500000000289,0.0003107195,86.44500000000289,1.301454e-05,86.44500000000289,2.823661e-06
86.46000000000289,0.0007088858,86.46000000000289,0.0003174387,86.46000000000289,1.292003e-05,86.46000000000289,2.868209e-06
86.4750000000029,0.0006961731,86.4750000000029,0.0003286672,86.4750000000029,1.06845e-05,86.4750000000029,3.030597e-06
86.4900000000029,0.0006909538,86.4900000000029,0.0003088781,86.4900000000029,9.965496e-06,86.4900000000029,2.979029e-06
86.5050000000029,0.0006811936,86.5050000000029,0.0002678997,86.5050000000029,9.130444e-06,86.5050000000029,3.094987e-06
86.5200000000029,0.0006845961,86.5200000000029,0.0002138794,86.5200000000029,8.838821e-06,86.5200000000029,3.171418e-06
86.5350000000029,0.0006422637,86.5350000000029,0.0001959638,86.5350000000029,8.560311e-06,86.5350000000029,3.19355e-06
86.5500000000029,0.0006031958,86.5500000000029,0.0001945229,86.5500000000029,8.482616e-06,86.5500000000029,3.476546e-06
86.5650000000029,0.0005817647,86.5650000000029,0.0001895809,86.5650000000029,8.377342e-06,86.5650000000029,3.524834e-06
86.5800000000029,0.000605223,86.5800000000029,0.0001869437,86.5800000000029,8.355453e-06,86.5800000000029,3.756974e-06
86.5950000000029,0.0007499276,86.5950000000029,0.0001866728,86.5950000000029,7.047669e-06,86.5950000000029,3.911283e-06
86.6100000000029,0.001087415,86.6100000000029,0.0001806937,86.6100000000029,6.360578e-06,86.6100000000029,3.975583e-06
86.6250000000029,0.001578844,86.6250000000029,0.0001800769,86.6250000000029,6.333946e-06,86.6250000000029,4.17604e-06
86.6400000000029,0.001875469,86.6400000000029,0.0001780646,86.6400000000029,7.027653e-06,86.6400000000029,4.312125e-06
86.6550000000029,0.002328228,86.6550000000029,0.0001775607,86.6550000000029,7.248678e-06,86.6550000000029,4.354386e-06
86.6700000000029,0.002542848,86.6700000000029,0.0001640709,86.6700000000029,7.512074e-06,86.6700000000029,4.38019e-06
86.6850000000029,0.002550864,86.6850000000029,0.0001385098,86.6850000000029,7.645896e-06,86.6850000000029,4.367307e-06
86.7000000000029,0.002568744,86.7000000000029,0.0001153692,86.7000000000029,8.645458e-06,86.7000000000029,4.711753e-06
86.7150000000029,0.002581047,86.7150000000029,0.0001248179,86.7150000000029,9.937185e-06,86.7150000000029,4.821102e-06
86.7300000000029,0.002586804,86.7300000000029,0.0001164887,86.7300000000029,1.159254e-05,86.7300000000029,4.913713e-06
86.7450000000029,0.002580745,86.7450000000029,0.0002188959,86.7450000000029,1.155237e-05,86.7450000000029,4.965048e-06
86.7600000000029,0.00257493,86.7600000000029,0.0002620364,86.7600000000029,1.169778e-05,86.7600000000029,4.896482e-06
86.7750000000029,0.002570531,86.7750000000029,0.0003813673,86.7750000000029,1.196448e-05,86.7750000000029,4.896482e-06
86.7900000000029,0.002566794,86.7900000000029,0.0004411126,86.7900000000029,1.227138e-05,86.7900000000029,4.896482e-06
86.8050000000029,0.002564018,86.8050000000029,0.0004422971,86.8050000000029,1.25775e-05,86.8050000000029,4.753424e-06
86.8200000000029,0.00256277,86.8200000000029,0.0004434826,86.8200000000029,1.2527e-05,86.8200000000029,4.618143e-06
86.8350000000029,0.002552369,86.8350000000029,0.0004465225,86.8350000000029,1.255396e-05,86.8350000000029,4.402644e-06
86.85000000000291,0.002502809,86.85000000000291,0.0004504741,86.85000000000291,1.245821e-05,86.85000000000291,4.578317e-06
86.86500000000291,0.002283369,86.86500000000291,0.0004538095,86.86500000000291,1.243331e-05,86.86500000000291,4.663672e-06
86.88000000000291,0.001889983,86.88000000000291,0.0004577763,86.88000000000291,1.228285e-05,86.88000000000291,4.376973e-06
86.89500000000291,0.001572767,86.89500000000291,0.0004580699,86.89500000000291,1.263783e-05,86.89500000000291,4.450379e-06
86.91000000000291,0.0008803254,86.91000000000291,0.0004580672,86.91000000000291,1.262222e-05,86.91000000000291,4.431347e-06
86.92500000000291,0.0006094044,86.92500000000291,0.0004586149,86.92500000000291,1.294508e-05,86.92500000000291,4.660651e-06
86.94000000000291,0.001029203,86.94000000000291,0.0004572553,86.94000000000291,1.431844e-05,86.94000000000291,4.81818e-06
86.95500000000291,0.001053483,86.95500000000291,0.0004544748,86.95500000000291,1.647661e-05,86.95500000000291,4.4218e-06
86.97000000000291,0.001511376,86.97000000000291,0.0004471152,86.97000000000291,2.249806e-05,86.97000000000291,5.015856e-06
86.98500000000291,0.001663124,86.98500000000291,0.0004451704,86.98500000000291,2.213447e-05,86.98500000000291,5.214144e-06
87.00000000000291,0.001666773,87.00000000000291,0.000370731,87.00000000000291,2.264721e-05,87.00000000000291,5.533936e-06
87.01500000000291,0.001838704,87.01500000000291,0.0003442943,87.01500000000291,2.269319e-05,87.01500000000291,5.526294e-06
87.03000000000291,0.00191547,87.03000000000291,0.0002006252,87.03000000000291,2.271057e-05,87.03000000000291,5.551726e-06
87.04500000000291,0.002091523,87.04500000000291,0.0001073058,87.04500000000291,2.248741e-05,87.04500000000291,5.56946e-06
87.06000000000292,0.00214611,87.06000000000292,0.000105874,87.06000000000292,2.25331e-05,87.06000000000292,5.571988e-06
87.07500000000292,0.002148832,87.07500000000292,0.0001040615,87.07500000000292,2.255309e-05,87.07500000000292,5.53139e-06
87.09000000000292,0.002148567,87.09000000000292,9.859839e-05,87.09000000000292,2.254122e-05,87.09000000000292,5.428567e-06
87.10500000000292,0.002149249,87.10500000000292,8.921562e-05,87.10500000000292,2.268078e-05,87.10500000000292,5.323759e-06
87.12000000000292,0.002149325,87.12000000000292,8.351778e-05,87.12000000000292,2.269009e-05,87.12000000000292,5.299891e-06
87.13500000000292,0.002154262,87.13500000000292,6.605929e-05,87.13500000000292,2.260114e-05,87.13500000000292,5.363302e-06
87.15000000000292,0.002156179,87.15000000000292,6.56473e-05,87.15000000000292,2.253935e-05,87.15000000000292,5.371176e-06
87.16500000000292,0.002156473,87.16500000000292,6.536882e-05,87.16500000000292,2.260301e-05,87.16500000000292,5.644828e-06
87.18000000000292,0.002080595,87.18000000000292,6.077371e-05,87.18000000000292,2.372263e-05,87.18000000000292,5.467352e-06
87.19500000000292,0.001915717,87.19500000000292,5.843299e-05,87.19500000000292,2.358566e-05,87.19500000000292,5.238403e-06
87.21000000000292,0.001836341,87.21000000000292,6.020409e-05,87.21000000000292,2.064682e-05,87.21000000000292,5.091119e-06
87.22500000000292,0.001482649,87.22500000000292,6.036882e-05,87.22500000000292,1.443699e-05,87.22500000000292,4.506994e-06
87.24000000000292,0.001413522,87.24000000000292,5.90722e-05,87.24000000000292,1.4281e-05,87.24000000000292,3.889614e-06
87.25500000000292,0.001413733,87.25500000000292,5.83838e-05,87.25500000000292,1.405831e-05,87.25500000000292,3.70411e-06
87.27000000000292,0.001137057,87.27000000000292,5.74064e-05,87.27000000000292,1.390315e-05,87.27000000000292,3.726858e-06
87.28500000000292,0.001016104,87.28500000000292,5.738088e-05,87.28500000000292,1.381778e-05,87.28500000000292,3.707911e-06
87.30000000000292,0.0007278441,87.30000000000292,5.740321e-05,87.30000000000292,1.400511e-05,87.30000000000292,3.665883e-06
87.31500000000293,0.0006680508,87.31500000000293,5.699736e-05,87.31500000000293,1.399504e-05,87.31500000000293,3.745709e-06
87.33000000000293,0.0008098349,87.33000000000293,5.212577e-05,87.33000000000293,1.451289e-05,87.33000000000293,3.797995e-06
87.34500000000293,0.0009643502,87.34500000000293,5.083172e-05,87.34500000000293,1.445746e-05,87.34500000000293,3.786851e-06
87.36000000000293,0.001033958,87.36000000000293,4.712978e-05,87.36000000000293,1.454392e-05,87.36000000000293,3.654337e-06
87.37500000000293,0.00103271,87.37500000000293,3.816088e-05,87.37500000000293,1.456425e-05,87.37500000000293,3.631134e-06
87.39000000000293,0.001022255,87.39000000000293,3.317221e-05,87.39000000000293,1.474018e-05,87.39000000000293,3.592131e-06
87.40500000000293,0.001020814,87.40500000000293,3.241924e-05,87.40500000000293,1.55349e-05,87.40500000000293,3.548731e-06
87.42000000000293,0.001016409,87.42000000000293,2.965189e-05,87.42000000000293,1.571341e-05,87.42000000000293,3.24605e-06
87.43500000000293,0.001010551,87.43500000000293,2.817218e-05,87.43500000000293,1.26211e-05,87.43500000000293,3.250386e-06
87.45000000000293,0.001010096,87.45000000000293,2.530296e-05,87.45000000000293,1.286431e-05,87.45000000000293,3.228645e-06
87.46500000000293,0.001011241,87.46500000000293,2.01013e-05,87.46500000000293,1.471244e-05,87.46500000000293,3.228645e-06
87.48000000000293,0.0009396293,87.48000000000293,1.855171e-05,87.48000000000293,1.784657e-05,87.48000000000293,3.228645e-06
87.49500000000293,0.0009280081,87.49500000000293,1.845884e-05,87.49500000000293,1.768322e-05,87.49500000000293,3.233005e-06
87.51000000000293,0.0009132342,87.51000000000293,1.895656e-05,87.51000000000293,1.785998e-05,87.51000000000293,3.382069e-06
87.52500000000293,0.0008594844,87.52500000000293,1.927637e-05,87.52500000000293,1.81611e-05,87.52500000000293,3.452149e-06
87.54000000000293,0.0008446332,87.54000000000293,1.829942e-05,87.54000000000293,2.408213e-05,87.54000000000293,3.323245e-06
87.55500000000293,0.0008437151,87.55500000000293,1.840381e-05,87.55500000000293,2.538411e-05,87.55500000000293,3.352786e-06
87.57000000000293,0.0006634236,87.57000000000293,1.881934e-05,87.57000000000293,2.609071e-05,87.57000000000293,3.423466e-06
87.58500000000294,0.000592826,87.58500000000294,1.846265e-05,87.58500000000294,2.600959e-05,87.58500000000294,3.36955e-06
87.60000000000294,0.0003402957,87.60000000000294,1.821454e-05,87.60000000000294,2.60372e-05,87.60000000000294,3.504795e-06
87.61500000000294,0.0002153484,87.61500000000294,1.840305e-05,87.61500000000294,2.623554e-05,87.61500000000294,3.662038e-06
87.63000000000294,0.0002045053,87.63000000000294,1.906105e-05,87.63000000000294,2.624252e-05,87.63000000000294,3.696496e-06
87.64500000000294,0.0002100035,87.64500000000294,1.885448e-05,87.64500000000294,2.586404e-05,87.64500000000294,3.845909e-06
87.66000000000294,0.0002214128,87.66000000000294,1.886046e-05,87.66000000000294,2.571766e-05,87.66000000000294,4.052786e-06
87.67500000000294,0.0002374792,87.67500000000294,1.748293e-05,87.67500000000294,2.568148e-05,87.67500000000294,4.101159e-06
87.69000000000294,0.0002204119,87.69000000000294,1.748293e-05,87.69000000000294,2.578931e-05,87.69000000000294,4.104592e-06
87.70500000000294,0.0002060871,87.70500000000294,1.555755e-05,87.70500000000294,2.590268e-05,87.70500000000294,4.165909e-06
87.72000000000294,0.0002624319,87.72000000000294,1.416214e-05,87.72000000000294,2.470921e-05,87.72000000000294,4.236323e-06
87.73500000000294,0.0003732907,87.73500000000294,2.692764e-05,87.73500000000294,2.258368e-05,87.73500000000294,4.209638e-06
87.75000000000294,0.0003967477,87.75000000000294,3.915819e-05,87.75000000000294,2.21739e-05,87.75000000000294,4.155752e-06
87.76500000000294,0.0004708923,87.76500000000294,4.920302e-05,87.76500000000294,2.205989e-05,87.76500000000294,4.028382e-06
87.78000000000294,0.0006948424,87.78000000000294,0.0001063188,87.78000000000294,2.105755e-05,87.78000000000294,4.010859e-06
87.79500000000294,0.0007977553,87.79500000000294,0.0001190594,87.79500000000294,1.314271e-05,87.79500000000294,3.964939e-06
87.81000000000294,0.0008075605,87.81000000000294,0.0001373345,87.81000000000294,1.25225e-05,87.81000000000294,3.943564e-06
87.82500000000294,0.0008371909,87.82500000000294,0.000159656,87.82500000000294,1.136923e-05,87.82500000000294,3.982663e-06
87.84000000000295,0.0008842582,87.84000000000295,0.0001822428,87.84000000000295,1.124715e-05,87.84000000000295,3.975583e-06
87.85500000000295,0.0009556254,87.85500000000295,0.0001900561,87.85500000000295,1.108314e-05,87.85500000000295,3.812802e-06
87.87000000000295,0.001491834,87.87000000000295,0.0002744089,87.87000000000295,1.097842e-05,87.87000000000295,3.756974e-06
87.88500000000295,0.001903359,87.88500000000295,0.0002926216,87.88500000000295,1.094629e-05,87.88500000000295,3.719291e-06
87.90000000000295,0.002362191,87.90000000000295,0.0003476778,87.90000000000295,1.054649e-05,87.90000000000295,3.306247e-06
87.91500000000295,0.002614194,87.91500000000295,0.0003557965,87.91500000000295,9.804465e-06,87.91500000000295,3.153601e-06
87.93000000000295,0.002624057,87.93000000000295,0.0003762534,87.93000000000295,1.016562e-05,87.93000000000295,3.184716e-06
87.94500000000295,0.002662981,87.94500000000295,0.0003962762,87.94500000000295,9.652426e-06,87.94500000000295,3.28916e-06
87.96000000000295,0.002702767,87.96000000000295,0.0004002179,87.96000000000295,9.185817e-06,87.96000000000295,3.228645e-06
87.97500000000295,0.002699466,87.97500000000295,0.0004000652,87.97500000000295,9.250001e-06,87.97500000000295,3.184716e-06
87.99000000000295,0.002688658,87.99000000000295,0.0003990111,87.99000000000295,9.37104e-06,87.99000000000295,3.171418e-06
88.00500000000295,0.002688776,88.00500000000295,0.0003980898,88.00500000000295,9.39506e-06,88.00500000000295,3.211145e-06
88.02000000000295,0.002674915,88.02000000000295,0.0003957835,88.02000000000295,9.199609e-06,88.02000000000295,3.184716e-06
88.03500000000295,0.002632151,88.03500000000295,0.0003853785,88.03500000000295,8.92131e-06,88.03500000000295,3.352786e-06
88.05000000000295,0.002616832,88.05000000000295,0.0003801582,88.05000000000295,8.907087e-06,88.05000000000295,3.373728e-06
88.06500000000295,0.002611573,88.06500000000295,0.000374655,88.06500000000295,9.099535e-06,88.06500000000295,3.472492e-06
88.08000000000295,0.002606772,88.08000000000295,0.0003649745,88.08000000000295,8.976404e-06,88.08000000000295,3.352786e-06
88.09500000000295,0.002582176,88.09500000000295,0.0003571823,88.09500000000295,8.686096e-06,88.09500000000295,3.280583e-06
88.11000000000296,0.002470187,88.11000000000296,0.0003408271,88.11000000000296,8.647087e-06,88.11000000000296,3.382069e-06
88.12500000000296,0.002120189,88.12500000000296,0.0002885653,88.12500000000296,8.439329e-06,88.12500000000296,3.373728e-06
88.14000000000296,0.001758985,88.14000000000296,0.0002641369,88.14000000000296,8.576751e-06,88.14000000000296,3.24605e-06
88.15500000000296,0.00115692,88.15500000000296,0.0001796556,88.15500000000296,9.017113e-06,88.15500000000296,3.297714e-06
88.17000000000296,0.0007360441,88.17000000000296,0.0001688674,88.17000000000296,9.167396e-06,88.17000000000296,3.390388e-06
88.18500000000296,0.0007208891,88.18500000000296,0.0001157459,88.18500000000296,7.711938e-06,88.18500000000296,3.448066e-06
88.20000000000296,0.0005922479,88.20000000000296,5.289808e-05,88.20000000000296,8.11252e-06,88.20000000000296,3.540784e-06
88.21500000000296,0.0004435187,88.21500000000296,2.914251e-05,88.21500000000296,8.058511e-06,88.21500000000296,3.488681e-06
88.23000000000296,0.0003508902,88.23000000000296,2.804941e-05,88.23000000000296,7.968863e-06,88.23000000000296,3.524834e-06
88.24500000000296,0.0003032596,88.24500000000296,2.69611e-05,88.24500000000296,7.968863e-06,88.24500000000296,3.524834e-06
88.26000000000296,0.0003015924,88.26000000000296,2.871105e-05,88.26000000000296,8.420948e-06,88.26000000000296,3.572469e-06
88.27500000000296,0.0003089162,88.27500000000296,2.703936e-05,88.27500000000296,9.274335e-06,88.27500000000296,3.611685e-06
88.29000000000296,0.0003067829,88.29000000000296,2.462869e-05,88.29000000000296,1.072266e-05,88.29000000000296,3.504795e-06
88.30500000000296,0.0003026091,88.30500000000296,2.500785e-05,88.30500000000296,1.068845e-05,88.30500000000296,3.552699e-06
88.32000000000296,0.0003084979,88.32000000000296,2.612847e-05,88.32000000000296,1.026079e-05,88.32000000000296,3.508812e-06
88.33500000000296,0.0003161,88.33500000000296,2.797096e-05,88.33500000000296,1.06409e-05,88.33500000000296,3.556662e-06
88.35000000000296,0.0003160879,88.35000000000296,2.79765e-05,88.35000000000296,1.09347e-05,88.35000000000296,3.745709e-06
88.36500000000296,0.0003035395,88.36500000000296,2.743244e-05,88.36500000000296,1.11604e-05,88.36500000000296,3.726858e-06
88.38000000000297,0.0002745879,88.38000000000297,2.698304e-05,88.38000000000297,1.123587e-05,88.38000000000297,3.771943e-06
88.39500000000297,0.0002743446,88.39500000000297,2.777791e-05,88.39500000000297,1.075546e-05,88.39500000000297,3.820184e-06
88.41000000000297,0.0002740821,88.41000000000297,2.808555e-05,88.41000000000297,1.053045e-05,88.41000000000297,3.820184e-06
88.42500000000297,0.0002133759,88.42500000000297,2.809658e-05,88.42500000000297,1.037819e-05,88.42500000000297,3.726858e-06
88.44000000000297,0.0001998987,88.44000000000297,2.930977e-05,88.44000000000297,1.028684e-05,88.44000000000297,3.512824e-06
88.45500000000297,0.0002065707,88.45500000000297,3.331585e-05,88.45500000000297,1.02209e-05,88.45500000000297,3.700305e-06
88.47000000000297,0.0002004665,88.47000000000297,4.035893e-05,88.47000000000297,1.022779e-05,88.47000000000297,3.711708e-06
88.48500000000297,0.0001968208,88.48500000000297,4.072446e-05,88.48500000000297,1.022504e-05,88.48500000000297,3.79057e-06
88.50000000000297,0.0001920214,88.50000000000297,4.194989e-05,88.50000000000297,1.02553e-05,88.50000000000297,3.764466e-06
88.51500000000297,0.0001683702,88.51500000000297,4.188301e-05,88.51500000000297,9.742488e-06,88.51500000000297,3.707911e-06
88.53000000000297,0.0001428386,88.53000000000297,4.264263e-05,88.53000000000297,8.124666e-06,88.53000000000297,3.635012e-06
88.54500000000297,0.0001390035,88.54500000000297,4.559355e-05,88.54500000000297,6.50294e-06,88.54500000000297,3.540784e-06
88.56000000000297,0.0001348954,88.56000000000297,4.651181e-05,88.56000000000297,6.561167e-06,88.56000000000297,3.572469e-06
88.57500000000297,0.0001246302,88.57500000000297,4.686392e-05,88.57500000000297,6.582601e-06,88.57500000000297,3.564574e-06
88.59000000000297,0.0001138867,88.59000000000297,4.755202e-05,88.59000000000297,6.005157e-06,88.59000000000297,3.439886e-06
88.60500000000297,0.00011287,88.60500000000297,4.711334e-05,88.60500000000297,5.790191e-06,88.60500000000297,3.356985e-06
88.62000000000297,0.0001130281,88.62000000000297,4.80858e-05,88.62000000000297,5.273245e-06,88.62000000000297,3.297714e-06
88.63500000000298,0.0001134779,88.63500000000298,4.831202e-05,88.63500000000298,5.355417e-06,88.63500000000298,3.306247e-06
88.65000000000298,0.0001019789,88.65000000000298,4.942412e-05,88.65000000000298,5.342249e-06,88.65000000000298,3.331712e-06
88.66500000000298,9.985746e-05,88.66500000000298,4.965104e-05,88.66500000000298,5.449287e-06,88.66500000000298,3.394541e-06
88.68000000000298,9.681933e-05,88.68000000000298,5.292071e-05,88.68000000000298,5.399948e-06,88.68000000000298,3.361178e-06
88.69500000000298,7.646874e-05,88.69500000000298,5.204924e-05,88.69500000000298,5.384273e-06,88.69500000000298,3.386231e-06
88.71000000000298,5.907649e-05,88.71000000000298,4.919185e-05,88.71000000000298,5.219545e-06,88.71000000000298,3.104077e-06
88.72500000000298,5.828431e-05,88.72500000000298,4.418836e-05,88.72500000000298,5.22494e-06,88.72500000000298,3.166973e-06
88.74000000000298,5.485666e-05,88.74000000000298,4.414499e-05,88.74000000000298,4.962209e-06,88.74000000000298,3.081303e-06
88.75500000000298,5.315364e-05,88.75500000000298,4.182209e-05,88.75500000000298,4.896482e-06,88.75500000000298,3.058359e-06
88.77000000000298,5.676308e-05,88.77000000000298,4.324847e-05,88.77000000000298,5.214144e-06,88.77000000000298,3.053749e-06
88.78500000000298,5.803046e-05,88.78500000000298,4.177761e-05,88.78500000000298,5.162558e-06,88.78500000000298,3.085871e-06
88.80000000000298,5.856423e-05,88.80000000000298,3.929214e-05,88.80000000000298,5.055022e-06,88.80000000000298,3.104077e-06
88.81500000000298,5.840719e-05,88.81500000000298,3.721108e-05,88.81500000000298,5.060592e-06,88.81500000000298,3.126685e-06
88.83000000000298,5.833166e-05,88.83000000000298,3.428975e-05,88.83000000000298,5.001795e-06,88.83000000000298,3.126685e-06
88.84500000000298,5.74709e-05,88.84500000000298,3.422478e-05,88.84500000000298,5.013047e-06,88.84500000000298,3.166973e-06
88.86000000000298,5.782961e-05,88.86000000000298,3.487348e-05,88.86000000000298,5.035477e-06,88.86000000000298,3.224279e-06
88.87500000000298,5.37964e-05,88.87500000000298,3.388477e-05,88.87500000000298,5.060592e-06,88.87500000000298,3.140172e-06
88.89000000000298,5.345386e-05,88.89000000000298,3.271855e-05,88.89000000000298,4.982041e-06,88.89000000000298,3.175857e-06
88.90500000000299,5.191347e-05,88.90500000000299,2.994827e-05,88.90500000000299,5.024275e-06,88.90500000000299,3.122176e-06
88.92000000000299,5.294333e-05,88.92000000000299,2.912994e-05,88.92000000000299,5.157098e-06,88.92000000000299,2.926552e-06
88.93500000000299,5.196879e-05,88.93500000000299,2.524109e-05,88.93500000000299,5.181623e-06,88.93500000000299,3.01662e-06
88.95000000000299,5.314437e-05,88.95000000000299,2.472859e-05,88.95000000000299,5.159829e-06,88.95000000000299,3.049133e-06
88.96500000000299,5.242219e-05,88.96500000000299,2.473713e-05,88.96500000000299,5.107694e-06,88.96500000000299,3.049133e-06
88.98000000000299,5.151796e-05,88.98000000000299,2.472118e-05,88.98000000000299,5.055022e-06,88.98000000000299,3.044509e-06
88.99500000000299,5.21436e-05,88.99500000000299,2.445938e-05,88.99500000000299,5.055022e-06,88.99500000000299,3.081303e-06
89.01000000000299,5.153464e-05,89.01000000000299,2.160762e-05,89.01000000000299,4.922306e-06,89.01000000000299,3.117661e-06
89.02500000000299,4.778312e-05,89.02500000000299,1.762497e-05,89.02500000000299,4.853136e-06,89.02500000000299,3.099535e-06
89.04000000000299,4.691109e-05,89.04000000000299,1.711568e-05,89.04000000000299,4.913713e-06,89.04000000000299,3.025945e-06
89.05500000000299,4.73061e-05,89.05500000000299,1.716582e-05,89.05500000000299,4.884961e-06,89.05500000000299,3.094987e-06
89.07000000000299,4.605436e-05,89.07000000000299,1.671091e-05,89.07000000000299,4.826943e-06,89.07000000000299,3.002579e-06
89.08500000000299,4.956415e-05,89.08500000000299,1.557746e-05,89.08500000000299,4.81818e-06,89.08500000000299,3.01662e-06
89.10000000000299,4.954226e-05,89.10000000000299,1.422467e-05,89.10000000000299,4.771172e-06,89.10000000000299,2.887788e-06
89.115000000003,5.077849e-05,89.115000000003,1.359786e-05,89.115000000003,4.690778e-06,89.115000000003,2.858369e-06
89.130000000003,5.160484e-05,89.130000000003,1.264006e-05,89.130000000003,4.621192e-06,89.130000000003,2.873116e-06
89.145000000003,5.250543e-05,89.145000000003,1.146915e-05,89.145000000003,4.494475e-06,89.145000000003,2.818668e-06
89.160000000003,5.265332e-05,89.160000000003,1.131458e-05,89.160000000003,4.587538e-06,89.160000000003,2.848496e-06
89.175000000003,5.07549e-05,89.175000000003,9.915899e-06,89.175000000003,4.544346e-06,89.175000000003,2.813666e-06
89.190000000003,5.162121e-05,89.190000000003,9.481625e-06,89.190000000003,5.015856e-06,89.190000000003,2.722057e-06
89.205000000003,5.350285e-05,89.205000000003,9.54382e-06,89.205000000003,5.124215e-06,89.205000000003,2.664524e-06
89.220000000003,5.322991e-05,89.220000000003,1.014482e-05,89.220000000003,5.157098e-06,89.220000000003,2.637958e-06
89.235000000003,5.405605e-05,89.235000000003,9.76271e-06,89.235000000003,5.208738e-06,89.235000000003,2.616511e-06
89.250000000003,5.455436e-05,89.250000000003,9.911636e-06,89.250000000003,5.159829e-06,89.250000000003,2.616511e-06
89.265000000003,5.667019e-05,89.265000000003,1.039311e-05,89.265000000003,5.110451e-06,89.265000000003,2.600309e-06
89.280000000003,5.644853e-05,89.280000000003,1.067262e-05,89.280000000003,5.208738e-06,89.280000000003,2.5676e-06
89.295000000003,5.724496e-05,89.295000000003,1.080381e-05,89.295000000003,5.091119e-06,89.295000000003,2.589452e-06
89.310000000003,5.843709e-05,89.310000000003,1.070031e-05,89.310000000003,5.132455e-06,89.310000000003,2.5676e-06
89.325000000003,5.919774e-05,89.325000000003,1.064355e-05,89.325000000003,5.219545e-06,89.325000000003,2.621889e-06
89.340000000003,6.314501e-05,89.340000000003,1.027177e-05,89.340000000003,5.741327e-06,89.340000000003,2.627256e-06
89.355000000003,6.267928e-05,89.355000000003,1.020435e-05,89.355000000003,6.380479e-06,89.355000000003,2.616511e-06
89.370000000003,7.423929e-05,89.370000000003,1.045527e-05,89.370000000003,6.365006e-06,89.370000000003,2.621889e-06
89.385000000003,9.370875e-05,89.385000000003,1.078946e-05,89.385000000003,6.977362e-06,89.385000000003,2.669806e-06
89.400000000003,0.0001001343,89.400000000003,1.096686e-05,89.400000000003,7.362442e-06,89.400000000003,2.627256e-06
89.415000000003,0.0001034547,89.415000000003,1.166401e-05,89.415000000003,8.098617e-06,89.415000000003,2.696058e-06
89.430000000003,0.00010595,89.430000000003,1.326646e-05,89.430000000003,8.824465e-06,89.430000000003,2.680338e-06
89.445000000003,0.0001072877,89.445000000003,1.308901e-05,89.445000000003,1.176622e-05,89.445000000003,2.680338e-06
89.460000000003,0.0001065757,89.460000000003,1.390112e-05,89.460000000003,1.347506e-05,89.460000000003,2.643292e-06
89.475000000003,0.0001082834,89.475000000003,1.430466e-05,89.475000000003,1.394665e-05,89.475000000003,2.722057e-06
89.49000000000301,0.0001102003,89.49000000000301,1.449055e-05,89.49000000000301,1.408634e-05,89.49000000000301,2.722057e-06
89.50500000000301,0.0001096577,89.50500000000301,1.454586e-05,89.50500000000301,1.423852e-05,89.50500000000301,2.669806e-06
89.52000000000301,0.0001092803,89.52000000000301,1.434792e-05,89.52000000000301,1.471532e-05,89.52000000000301,2.716877e-06
89.53500000000301,0.0001124887,89.53500000000301,1.425336e-05,89.53500000000301,1.540834e-05,89.53500000000301,2.706488e-06
89.55000000000301,0.0001119863,89.55000000000301,1.678744e-05,89.55000000000301,1.627878e-05,89.55000000000301,2.616511e-06
89.56500000000301,0.0001199349,89.56500000000301,1.674291e-05,89.56500000000301,1.632544e-05,89.56500000000301,2.584006e-06
89.58000000000301,0.0001269943,89.58000000000301,1.736733e-05,89.58000000000301,1.632026e-05,89.58000000000301,2.584006e-06
89.59500000000301,0.0001262563,89.59500000000301,1.887838e-05,89.59500000000301,1.616067e-05,89.59500000000301,2.680338e-06
89.61000000000301,0.0001322559,89.61000000000301,1.892012e-05,89.61000000000301,1.7165e-05,89.61000000000301,2.675077e-06
89.62500000000301,0.0001397414,89.62500000000301,1.923687e-05,89.62500000000301,1.783867e-05,89.62500000000301,2.664524e-06
89.64000000000301,0.000129774,89.64000000000301,1.970424e-05,89.64000000000301,1.826089e-05,89.64000000000301,2.600309e-06
89.65500000000301,0.00012975,89.65500000000301,2.048655e-05,89.65500000000301,1.855019e-05,89.65500000000301,2.611121e-06
89.67000000000301,0.0001406079,89.67000000000301,1.989633e-05,89.67000000000301,1.991827e-05,89.67000000000301,2.664524e-06
89.68500000000301,0.0001480008,89.68500000000301,1.908764e-05,89.68500000000301,2.548436e-05,89.68500000000301,2.752932e-06
89.70000000000302,0.0001474211,89.70000000000302,1.902481e-05,89.70000000000302,2.764625e-05,89.70000000000302,2.742679e-06
89.71500000000302,0.0001483889,89.71500000000302,1.83609e-05,89.71500000000302,2.908978e-05,89.71500000000302,2.798606e-06
89.73000000000302,0.0001531464,89.73000000000302,1.738273e-05,89.73000000000302,3.082491e-05,89.73000000000302,2.818668e-06
89.74500000000302,0.0001704021,89.74500000000302,1.796065e-05,89.74500000000302,3.262197e-05,89.74500000000302,2.838588e-06
89.76000000000302,0.0002530796,89.76000000000302,1.808181e-05,89.76000000000302,3.606924e-05,89.76000000000302,2.868209e-06
89.77500000000302,0.0002639559,89.77500000000302,1.81285e-05,89.77500000000302,3.641594e-05,89.77500000000302,2.969556e-06
89.79000000000302,0.000266702,89.79000000000302,1.795516e-05,89.79000000000302,3.634546e-05,89.79000000000302,2.95052e-06
89.80500000000302,0.0004577874,89.80500000000302,1.549586e-05,89.80500000000302,3.602664e-05,89.80500000000302,2.940956e-06
89.82000000000302,0.0006507245,89.82000000000302,1.557384e-05,89.82000000000302,3.613089e-05,89.82000000000302,2.955291e-06
89.83500000000302,0.0006904178,89.83500000000302,1.356259e-05,89.83500000000302,3.614843e-05,89.83500000000302,2.926552e-06
89.85000000000302,0.0007617472,89.85000000000302,1.26356e-05,89.85000000000302,3.602703e-05,89.85000000000302,2.868209e-06
89.86500000000302,0.0007895784,89.86500000000302,1.237995e-05,89.86500000000302,3.553729e-05,89.86500000000302,2.912075e-06
89.88000000000302,0.0007909453,89.88000000000302,1.157673e-05,89.88000000000302,3.514749e-05,89.88000000000302,3.090432e-06
89.89500000000302,0.0007956935,89.89500000000302,1.075022e-05,89.89500000000302,3.604423e-05,89.89500000000302,3.280583e-06
89.91000000000302,0.0008025744,89.91000000000302,9.664094e-06,89.91000000000302,3.609617e-05,89.91000000000302,3.267676e-06
89.92500000000302,0.0008119234,89.92500000000302,9.494987e-06,89.92500000000302,3.185379e-05,89.92500000000302,3.267676e-06
89.94000000000302,0.0008146508,89.94000000000302,9.231709e-06,89.94000000000302,3.072558e-05,89.94000000000302,3.197958e-06
89.95500000000303,0.0008151117,89.95500000000303,9.236285e-06,89.95500000000303,2.673971e-05,89.95500000000303,3.189136e-06
89.97000000000303,0.0008164576,89.97000000000303,8.500864e-06,89.97000000000303,2.56513e-05,89.97000000000303,3.202359e-06
89.98500000000303,0.0008158131,89.98500000000303,8.265616e-06,89.98500000000303,2.301494e-05,89.98500000000303,3.126685e-06
90.00000000000303,0.0008186299,90.00000000000303,7.495178e-06,90.00000000000303,2.118162e-05,90.00000000000303,3.117661e-06
90.01500000000303,0.0008152759,90.01500000000303,7.178377e-06,90.01500000000303,1.640292e-05,90.01500000000303,3.104077e-06
90.03000000000303,0.0008302597,90.03000000000303,7.653262e-06,90.03000000000303,1.776191e-05,90.03000000000303,3.202359e-06
90.04500000000303,0.0008377407,90.04500000000303,7.655103e-06,90.04500000000303,1.81215e-05,90.04500000000303,3.297714e-06
90.06000000000303,0.000646385,90.06000000000303,7.412022e-06,90.06000000000303,1.913113e-05,90.06000000000303,3.267676e-06
90.07500000000303,0.0005919431,90.07500000000303,7.358615e-06,90.07500000000303,1.928733e-05,90.07500000000303,3.276286e-06
90.09000000000303,0.0006019933,90.09000000000303,7.493299e-06,90.09000000000303,1.954345e-05,90.09000000000303,3.280583e-06
90.10500000000303,0.0006453085,90.10500000000303,7.629297e-06,90.10500000000303,1.960534e-05,90.10500000000303,3.233005e-06
90.12000000000303,0.0006853814,90.12000000000303,7.752019e-06,90.12000000000303,2.017056e-05,90.12000000000303,3.233005e-06
90.13500000000303,0.0007783803,90.13500000000303,7.773794e-06,90.13500000000303,1.873005e-05,90.13500000000303,3.140172e-06
90.15000000000303,0.0008000759,90.15000000000303,8.226325e-06,90.15000000000303,1.782445e-05,90.15000000000303,3.215529e-06
90.16500000000303,0.0007927448,90.16500000000303,8.535592e-06,90.16500000000303,1.739245e-05,90.16500000000303,3.233005e-06
90.18000000000303,0.0007851652,90.18000000000303,9.193482e-06,90.18000000000303,1.83125e-05,90.18000000000303,3.233005e-06
90.19500000000303,0.0007868596,90.19500000000303,1.021952e-05,90.19500000000303,1.818978e-05,90.19500000000303,3.276286e-06
90.21000000000303,0.0007877055,90.21000000000303,1.031556e-05,90.21000000000303,1.829403e-05,90.21000000000303,3.171418e-06
90.22500000000304,0.0007865382,90.22500000000304,1.034964e-05,90.22500000000304,1.817738e-05,90.22500000000304,3.233005e-06
90.24000000000304,0.0007855778,90.24000000000304,1.024018e-05,90.24000000000304,1.788914e-05,90.24000000000304,3.237359e-06
90.25500000000304,0.0007619206,90.25500000000304,1.035645e-05,90.25500000000304,1.668138e-05,90.25500000000304,3.259043e-06
90.27000000000304,0.0007559783,90.27000000000304,1.053446e-05,90.27000000000304,1.60285e-05,90.27000000000304,3.284874e-06
90.28500000000304,0.0007295472,90.28500000000304,1.028137e-05,90.28500000000304,1.354492e-05,90.28500000000304,3.153601e-06
90.30000000000304,0.0007248947,90.30000000000304,1.036868e-05,90.30000000000304,1.620767e-05,90.30000000000304,3.184716e-06
90.31500000000304,0.0007141564,90.31500000000304,1.035509e-05,90.31500000000304,1.69536e-05,90.31500000000304,3.54476e-06
90.33000000000304,0.0007016913,90.33000000000304,1.037547e-05,90.33000000000304,1.74789e-05,90.33000000000304,3.646619e-06
90.34500000000304,0.0005827723,90.34500000000304,1.03101e-05,90.34500000000304,1.720926e-05,90.34500000000304,3.749468e-06
90.36000000000304,0.0004892099,90.36000000000304,1.036868e-05,90.36000000000304,1.723216e-05,90.36000000000304,3.768206e-06
90.37500000000304,0.0003884967,90.37500000000304,1.036868e-05,90.37500000000304,1.695527e-05,90.37500000000304,3.638885e-06
90.39000000000304,0.0002514063,90.39000000000304,1.021539e-05,90.39000000000304,1.707696e-05,90.39000000000304,3.696496e-06
90.40500000000304,0.0003213301,90.40500000000304,8.870637e-06,90.40500000000304,1.72583e-05,90.40500000000304,3.512824e-06
90.42000000000304,0.0003357562,90.42000000000304,8.669864e-06,90.42000000000304,1.693116e-05,90.42000000000304,3.512824e-06
90.43500000000304,0.0003783963,90.43500000000304,7.901403e-06,90.43500000000304,1.58233e-05,90.43500000000304,3.638885e-06
90.45000000000304,0.0004047266,90.45000000000304,6.574036e-06,90.45000000000304,1.570624e-05,90.45000000000304,3.638885e-06
90.46500000000304,0.0004056406,90.46500000000304,6.426676e-06,90.46500000000304,1.580905e-05,90.46500000000304,3.809105e-06
90.48000000000305,0.0004082306,90.48000000000305,7.089519e-06,90.48000000000305,1.579211e-05,90.48000000000305,3.794284e-06
90.49500000000305,0.0004127457,90.49500000000305,7.826167e-06,90.49500000000305,1.64458e-05,90.49500000000305,3.961384e-06
90.51000000000305,0.0004125206,90.51000000000305,7.268085e-06,90.51000000000305,1.646806e-05,90.51000000000305,3.989731e-06
90.52500000000305,0.0004103085,90.52500000000305,7.616361e-06,90.52500000000305,1.670838e-05,90.52500000000305,4.024883e-06
90.54000000000305,0.0004108564,90.54000000000305,7.688155e-06,90.54000000000305,1.49367e-05,90.54000000000305,4.010859e-06
90.55500000000305,0.0004110835,90.55500000000305,7.667973e-06,90.55500000000305,1.303941e-05,90.55500000000305,4.135364e-06
90.57000000000305,0.0004099757,90.57000000000305,7.71011e-06,90.57000000000305,1.413625e-05,90.57000000000305,3.805405e-06
90.58500000000305,0.0004113063,90.58500000000305,7.768356e-06,90.58500000000305,1.627878e-05,90.58500000000305,3.78313e-06
90.60000000000305,0.0004084755,90.60000000000305,7.69548e-06,90.60000000000305,1.985026e-05,90.60000000000305,3.753223e-06
90.61500000000305,0.0003971997,90.61500000000305,7.968863e-06,90.61500000000305,2.096302e-05,90.61500000000305,3.70411e-06
90.63000000000305,0.0003949526,90.63000000000305,7.838757e-06,90.63000000000305,2.205542e-05,90.63000000000305,3.73441e-06
90.64500000000305,0.000373539,90.64500000000305,7.910313e-06,90.64500000000305,2.275766e-05,90.64500000000305,3.719291e-06
90.66000000000305,0.0002673211,90.66000000000305,7.945849e-06,90.66000000000305,2.28028e-05,90.66000000000305,3.741947e-06
90.67500000000305,0.0002499107,90.67500000000305,7.99181e-06,90.67500000000305,2.305713e-05,90.67500000000305,3.730636e-06
90.69000000000305,0.0001902471,90.69000000000305,8.026986e-06,90.69000000000305,2.301861e-05,90.69000000000305,3.760722e-06
90.70500000000305,0.0001427415,90.70500000000305,7.990047e-06,90.70500000000305,2.30229e-05,90.70500000000305,3.771943e-06
90.72000000000305,0.0001426651,90.72000000000305,8.479295e-06,90.72000000000305,2.289651e-05,90.72000000000305,3.658189e-06
90.73500000000305,0.0001338421,90.73500000000305,7.872827e-06,90.73500000000305,2.305652e-05,90.73500000000305,3.57641e-06
90.75000000000306,0.0001308985,90.75000000000306,7.72289e-06,90.75000000000306,2.273103e-05,90.75000000000306,3.520835e-06
90.76500000000306,0.0001322836,90.76500000000306,7.500814e-06,90.76500000000306,2.276632e-05,90.76500000000306,3.448066e-06
90.78000000000306,0.0001304975,90.78000000000306,7.266147e-06,90.78000000000306,2.258243e-05,90.78000000000306,3.40283e-06
90.79500000000306,0.0001264739,90.79500000000306,7.166593e-06,90.79500000000306,2.1648e-05,90.79500000000306,3.301983e-06
90.81000000000306,0.0001237696,90.81000000000306,7.1921e-06,90.81000000000306,2.128511e-05,90.81000000000306,3.135683e-06
90.82500000000306,0.0001203807,90.82500000000306,7.502692e-06,90.82500000000306,1.918921e-05,90.82500000000306,3.076727e-06
90.84000000000306,0.0001154522,90.84000000000306,7.457495e-06,90.84000000000306,1.436852e-05,90.84000000000306,3.076727e-06
90.85500000000306,0.000113302,90.85500000000306,7.564397e-06,90.85500000000306,1.297117e-05,90.85500000000306,3.126685e-06
90.87000000000306,0.0001062626,90.87000000000306,7.673483e-06,90.87000000000306,1.176502e-05,90.87000000000306,3.135683e-06
90.88500000000306,0.0001045755,90.88500000000306,7.862084e-06,90.88500000000306,9.399558e-06,90.88500000000306,3.131187e-06
90.90000000000306,0.0001004088,90.90000000000306,8.205751e-06,90.90000000000306,7.856707e-06,90.90000000000306,3.085871e-06
90.91500000000306,9.550047e-05,90.91500000000306,8.452672e-06,90.91500000000306,7.178377e-06,90.91500000000306,3.01662e-06
90.93000000000306,9.039472e-05,90.93000000000306,9.368033e-06,90.93000000000306,7.031661e-06,90.93000000000306,3.053749e-06
90.94500000000306,8.542108e-05,90.94500000000306,9.47122e-06,90.94500000000306,7.077588e-06,90.94500000000306,2.921734e-06
90.96000000000306,8.332494e-05,90.96000000000306,9.848904e-06,90.96000000000306,6.820134e-06,90.96000000000306,2.955291e-06
90.97500000000306,8.676897e-05,90.97500000000306,1.085713e-05,90.97500000000306,6.474718e-06,90.97500000000306,2.838588e-06
90.99000000000306,8.412144e-05,90.99000000000306,1.177819e-05,90.99000000000306,6.167175e-06,90.99000000000306,2.868209e-06
91.00500000000306,8.790959e-05,91.00500000000306,1.247403e-05,91.00500000000306,6.121322e-06,91.00500000000306,2.818668e-06
91.02000000000307,8.876781e-05,91.02000000000307,1.303833e-05,91.02000000000307,5.991066e-06,91.02000000000307,2.936162e-06
91.03500000000307,8.98721e-05,91.03500000000307,1.356363e-05,91.03500000000307,5.958057e-06,91.03500000000307,2.969556e-06
91.05000000000307,9.079387e-05,91.05000000000307,1.368666e-05,91.05000000000307,6.014533e-06,91.05000000000307,2.960054e-06
91.06500000000307,0.0001159994,91.06500000000307,1.376568e-05,91.06500000000307,6.000464e-06,91.06500000000307,2.902385e-06
91.08000000000307,0.0001282254,91.08000000000307,1.484399e-05,91.08000000000307,5.976941e-06,91.08000000000307,2.921734e-06
91.09500000000307,0.0001387971,91.09500000000307,1.506815e-05,91.09500000000307,5.736418e-06,91.09500000000307,2.853437e-06
91.11000000000307,0.0001678545,91.11000000000307,1.496967e-05,91.11000000000307,5.743781e-06,91.11000000000307,2.813666e-06
91.12500000000307,0.0001711759,91.12500000000307,1.488284e-05,91.12500000000307,5.891484e-06,91.12500000000307,2.833621e-06
91.14000000000307,0.0001763569,91.14000000000307,1.494707e-05,91.14000000000307,5.748683e-06,91.14000000000307,2.716877e-06
91.15500000000307,0.0001767354,91.15500000000307,1.485063e-05,91.15500000000307,5.884307e-06,91.15500000000307,2.722057e-06
91.17000000000307,0.0001789423,91.17000000000307,1.420088e-05,91.17000000000307,5.629835e-06,91.17000000000307,2.793568e-06
91.18500000000307,0.0002188069,91.18500000000307,1.436754e-05,91.18500000000307,5.241091e-06,91.18500000000307,2.737538e-06
91.20000000000307,0.0002301191,91.20000000000307,1.440182e-05,91.20000000000307,5.222243e-06,91.20000000000307,2.696058e-06
91.21500000000307,0.0002583934,91.21500000000307,1.372469e-05,91.21500000000307,5.001795e-06,91.21500000000307,2.763147e-06
91.23000000000307,0.000316646,91.23000000000307,1.305453e-05,91.23000000000307,5.178904e-06,91.23000000000307,2.793568e-06
91.24500000000307,0.000324165,91.24500000000307,1.219422e-05,91.24500000000307,5.110451e-06,91.24500000000307,2.853437e-06
91.26000000000307,0.0003288977,91.26000000000307,1.202438e-05,91.26000000000307,5.14616e-06,91.26000000000307,2.916909e-06
91.27500000000308,0.0003356281,91.27500000000308,1.118561e-05,91.27500000000308,5.259872e-06,91.27500000000308,2.843547e-06
91.29000000000308,0.0003376329,91.29000000000308,1.094243e-05,91.29000000000308,5.259872e-06,91.29000000000308,2.858369e-06
91.30500000000308,0.00033768,91.30500000000308,1.100661e-05,91.30500000000308,5.154366e-06,91.30500000000308,2.878015e-06
91.32000000000308,0.0003486758,91.32000000000308,1.075284e-05,91.32000000000308,5.113207e-06,91.32000000000308,2.940956e-06
91.33500000000308,0.0003527233,91.33500000000308,8.98895e-06,91.33500000000308,5.00461e-06,91.33500000000308,2.988471e-06
91.35000000000308,0.0003600424,91.35000000000308,8.876988e-06,91.35000000000308,5.195198e-06,91.35000000000308,3.011947e-06
91.36500000000308,0.0003566317,91.36500000000308,9.577708e-06,91.36500000000308,5.758477e-06,91.36500000000308,2.997883e-06
91.38000000000308,0.0003557751,91.38000000000308,9.35449e-06,91.38000000000308,5.8867e-06,91.38000000000308,3.067557e-06
91.39500000000308,0.0003546729,91.39500000000308,9.557095e-06,91.39500000000308,6.316129e-06,91.39500000000308,3.144655e-06
91.41000000000308,0.0003549611,91.41000000000308,9.393561e-06,91.41000000000308,6.137409e-06,91.41000000000308,3.090432e-06
91.42500000000308,0.0003453106,91.42500000000308,1.01684e-05,91.42500000000308,6.293787e-06,91.42500000000308,3.081303e-06
91.44000000000308,0.0003166336,91.44000000000308,1.048487e-05,91.44000000000308,6.349495e-06,91.44000000000308,3.11314e-06
91.45500000000308,0.0003109247,91.45500000000308,1.121454e-05,91.45500000000308,6.342836e-06,91.45500000000308,3.126685e-06
91.47000000000308,0.0002764922,91.47000000000308,1.176143e-05,91.47000000000308,6.284828e-06,91.47000000000308,3.189136e-06
91.48500000000308,0.000219259,91.48500000000308,1.183069e-05,91.48500000000308,6.316129e-06,91.48500000000308,3.233005e-06
91.50000000000308,0.0002144408,91.50000000000308,1.216878e-05,91.50000000000308,6.362793e-06,91.50000000000308,3.215529e-06
91.51500000000308,0.0002067258,91.51500000000308,1.181759e-05,91.51500000000308,6.287069e-06,91.51500000000308,3.211145e-06
91.53000000000308,0.0001995646,91.53000000000308,1.270343e-05,91.53000000000308,6.376062e-06,91.53000000000308,3.241707e-06
91.54500000000309,0.000198791,91.54500000000309,1.292439e-05,91.54500000000309,6.450741e-06,91.54500000000309,3.271984e-06
91.56000000000309,0.0001834746,91.56000000000309,1.509897e-05,91.56000000000309,6.561167e-06,91.56000000000309,3.241707e-06
91.57500000000309,0.0001298467,91.57500000000309,1.561449e-05,91.57500000000309,6.567604e-06,91.57500000000309,3.175857e-06
91.59000000000309,0.0001089684,91.59000000000309,1.653209e-05,91.59000000000309,6.282586e-06,91.59000000000309,3.224279e-06
91.60500000000309,7.593319e-05,91.60500000000309,1.947847e-05,91.60500000000309,6.275856e-06,91.60500000000309,3.233005e-06
91.62000000000309,7.407364e-05,91.62000000000309,1.965055e-05,91.62000000000309,5.872325e-06,91.62000000000309,3.166973e-06
91.63500000000309,7.319382e-05,91.63500000000309,1.994724e-05,91.63500000000309,5.682137e-06,91.63500000000309,3.306247e-06
91.65000000000309,7.330382e-05,91.65000000000309,2.133931e-05,91.65000000000309,5.371176e-06,91.65000000000309,3.250386e-06
91.66500000000309,7.786016e-05,91.66500000000309,2.297206e-05,91.66500000000309,5.379038e-06,91.66500000000309,3.259043e-06
91.68000000000309,7.972238e-05,91.68000000000309,2.292786e-05,91.68000000000309,5.275916e-06,91.68000000000309,3.24605e-06
91.69500000000309,7.523542e-05,91.69500000000309,2.323485e-05,91.69500000000309,5.329048e-06,91.69500000000309,3.117661e-06
91.71000000000309,8.191989e-05,91.71000000000309,2.34755e-05,91.71000000000309,5.602244e-06,91.71000000000309,3.11314e-06
91.72500000000309,9.222212e-05,91.72500000000309,2.362921e-05,91.72500000000309,5.677176e-06,91.72500000000309,3.058359e-06
91.74000000000309,9.609336e-05,91.74000000000309,2.451576e-05,91.74000000000309,5.632336e-06,91.74000000000309,3.206755e-06
91.7550000000031,9.949114e-05,91.7550000000031,2.537357e-05,91.7550000000031,5.561867e-06,91.7550000000031,3.117661e-06
91.7700000000031,0.0001003379,91.7700000000031,2.539465e-05,91.7700000000031,5.848288e-06,91.7700000000031,3.062961e-06
91.7850000000031,0.0001008302,91.7850000000031,2.498023e-05,91.7850000000031,5.948592e-06,91.7850000000031,3.072146e-06
91.8000000000031,0.0001013529,91.8000000000031,2.500278e-05,91.8000000000031,6.005157e-06,91.8000000000031,3.081303e-06
91.8150000000031,0.0001077151,91.8150000000031,2.448183e-05,91.8150000000031,6.125922e-06,91.8150000000031,3.140172e-06
91.8300000000031,0.000111314,91.8300000000031,2.513034e-05,91.8300000000031,6.550423e-06,91.8300000000031,3.211145e-06
91.8450000000031,0.0001146559,91.8450000000031,2.532133e-05,91.8450000000031,6.692956e-06,91.8450000000031,3.171418e-06
91.8600000000031,0.0001148783,91.8600000000031,2.324091e-05,91.8600000000031,6.65708e-06,91.8600000000031,3.175857e-06
91.8750000000031,0.0001124541,91.8750000000031,2.325666e-05,91.8750000000031,6.561167e-06,91.8750000000031,3.263362e-06
91.8900000000031,0.0001110568,91.8900000000031,2.306874e-05,91.8900000000031,6.676097e-06,91.8900000000031,3.189136e-06
91.9050000000031,0.0001099455,91.9050000000031,2.040111e-05,91.9050000000031,6.791156e-06,91.9050000000031,3.237359e-06
91.9200000000031,0.0001109311,91.9200000000031,2.041629e-05,91.9200000000031,6.918566e-06,91.9200000000031,3.335938e-06
91.9350000000031,0.0001186819,91.9350000000031,2.055382e-05,91.9350000000031,6.875675e-06,91.9350000000031,3.361178e-06
91.9500000000031,0.0001202932,91.9500000000031,1.822614e-05,91.9500000000031,6.832516e-06,91.9500000000031,3.373728e-06
91.9650000000031,0.0001527814,91.9650000000031,1.840993e-05,91.9650000000031,6.614623e-06,91.9650000000031,3.456227e-06
91.9800000000031,0.0001846304,91.9800000000031,1.878337e-05,91.9800000000031,6.701369e-06,91.9800000000031,3.365367e-06
91.9950000000031,0.0002015338,91.9950000000031,1.707778e-05,91.9950000000031,6.722357e-06,91.9950000000031,3.28916e-06
92.0100000000031,0.0002100213,92.0100000000031,1.827168e-05,92.0100000000031,7.268085e-06,92.0100000000031,3.276286e-06
92.0250000000031,0.0002450569,92.0250000000031,2.036517e-05,92.0250000000031,1.000641e-05,92.0250000000031,3.331712e-06
92.0400000000031,0.0002889658,92.0400000000031,2.077062e-05,92.0400000000031,1.122709e-05,92.0400000000031,3.496747e-06
92.0550000000031,0.0003089936,92.0550000000031,2.144993e-05,92.0550000000031,1.118057e-05,92.0550000000031,3.504795e-06
92.0700000000031,0.0003323321,92.0700000000031,2.117563e-05,92.0700000000031,1.115535e-05,92.0700000000031,3.611685e-06
92.0850000000031,0.000331207,92.0850000000031,2.069452e-05,92.0850000000031,1.105386e-05,92.0850000000031,3.56062e-06
92.1000000000031,0.0003504363,92.1000000000031,1.917379e-05,92.1000000000031,1.104111e-05,92.1000000000031,3.584279e-06
92.1150000000031,0.000375533,92.1150000000031,1.903591e-05,92.1150000000031,1.121956e-05,92.1150000000031,3.779404e-06
92.13000000000311,0.0004201737,92.13000000000311,1.900777e-05,92.13000000000311,1.249885e-05,92.13000000000311,3.723076e-06
92.14500000000311,0.0004480779,92.14500000000311,1.872027e-05,92.14500000000311,1.364646e-05,92.14500000000311,3.719291e-06
92.16000000000311,0.0004570573,92.16000000000311,1.900851e-05,92.16000000000311,1.471532e-05,92.16000000000311,3.665883e-06
92.17500000000311,0.0004571404,92.17500000000311,1.943068e-05,92.17500000000311,1.500445e-05,92.17500000000311,3.70411e-06
92.19000000000311,0.0004568906,92.19000000000311,1.906253e-05,92.19000000000311,1.522717e-05,92.19000000000311,3.820184e-06
92.20500000000311,0.0004554893,92.20500000000311,1.915394e-05,92.20500000000311,1.703897e-05,92.20500000000311,3.834905e-06
92.22000000000311,0.0004436415,92.22000000000311,1.989845e-05,92.22000000000311,1.878412e-05,92.22000000000311,3.775675e-06
92.23500000000311,0.000423607,92.23500000000311,1.979981e-05,92.23500000000311,1.879462e-05,92.23500000000311,3.794284e-06
92.25000000000311,0.0004218458,92.25000000000311,1.975708e-05,92.25000000000311,1.898256e-05,92.25000000000311,3.809105e-06
92.26500000000311,0.0004235848,92.26500000000311,1.677149e-05,92.26500000000311,1.753764e-05,92.26500000000311,3.947135e-06
92.28000000000311,0.0004091234,92.28000000000311,1.544578e-05,92.28000000000311,1.725748e-05,92.28000000000311,3.889614e-06
92.29500000000311,0.0003868996,92.29500000000311,1.404729e-05,92.29500000000311,1.683102e-05,92.29500000000311,4.000309e-06
92.31000000000311,0.0003662424,92.31000000000311,1.270343e-05,92.31000000000311,1.702408e-05,92.31000000000311,4.354386e-06
92.32500000000312,0.0003598027,92.32500000000312,1.264229e-05,92.32500000000312,1.728195e-05,92.32500000000312,4.459865e-06
92.34000000000312,0.0003510496,92.34000000000312,1.245821e-05,92.34000000000312,1.731127e-05,92.34000000000312,4.593675e-06
92.35500000000312,0.0002983094,92.35500000000312,1.251575e-05,92.35500000000312,1.729254e-05,92.35500000000312,4.744526e-06
92.37000000000312,0.0002848211,92.37000000000312,1.240723e-05,92.37000000000312,1.716335e-05,92.37000000000312,4.744526e-06
92.38500000000312,0.000240463,92.38500000000312,1.235945e-05,92.38500000000312,1.544852e-05,92.38500000000312,4.777073e-06
92.40000000000312,0.0002137163,92.40000000000312,1.236059e-05,92.40000000000312,1.481169e-05,92.40000000000312,4.882076e-06
92.41500000000312,0.000208225,92.41500000000312,1.113006e-05,92.41500000000312,1.404327e-05,92.41500000000312,4.907976e-06
92.43000000000312,0.0002215351,92.43000000000312,1.047949e-05,92.43000000000312,1.399806e-05,92.43000000000312,4.870521e-06
92.44500000000312,0.0002561496,92.44500000000312,1.026491e-05,92.44500000000312,1.258422e-05,92.44500000000312,4.809401e-06
92.46000000000312,0.0002565913,92.46000000000312,9.791525e-06,92.46000000000312,1.116544e-05,92.46000000000312,4.987693e-06
92.47500000000312,0.0002522243,92.47500000000312,7.573703e-06,92.47500000000312,8.212614e-06,92.47500000000312,5.007424e-06
92.49000000000312,0.0002560982,92.49000000000312,7.594135e-06,92.49000000000312,8.164447e-06,92.49000000000312,5.096651e-06
92.50500000000312,0.0002497248,92.50500000000312,7.459384e-06,92.50500000000312,7.678988e-06,92.50500000000312,5.077266e-06
92.52000000000312,0.0002400478,92.52000000000312,7.111343e-06,92.52000000000312,7.392992e-06,92.52000000000312,5.082812e-06
92.53500000000312,0.0002807203,92.53500000000312,7.560672e-06,92.53500000000312,7.22142e-06,92.53500000000312,5.22494e-06
92.55000000000312,0.0003101292,92.55000000000312,7.721065e-06,92.55000000000312,7.123218e-06,92.55000000000312,5.397339e-06
92.56500000000312,0.00030759,92.56500000000312,8.032248e-06,92.56500000000312,6.565459e-06,92.56500000000312,5.281253e-06
92.58000000000312,0.0003388261,92.58000000000312,8.117728e-06,92.58000000000312,5.493057e-06,92.58000000000312,5.249148e-06
92.59500000000313,0.0004072699,92.59500000000313,8.286042e-06,92.59500000000313,5.469929e-06,92.59500000000313,5.368553e-06
92.61000000000313,0.0004237016,92.61000000000313,9.138154e-06,92.61000000000313,5.189773e-06,92.61000000000313,5.500745e-06
92.62500000000313,0.0004294297,92.62500000000313,9.39656e-06,92.62500000000313,5.140683e-06,92.62500000000313,5.508422e-06
92.64000000000313,0.0004610088,92.64000000000313,9.511293e-06,92.64000000000313,5.297233e-06,92.64000000000313,5.647323e-06
92.65500000000313,0.0004738509,92.65500000000313,1.001907e-05,92.65500000000313,5.358047e-06,92.65500000000313,5.795054e-06
92.67000000000313,0.000478043,92.67000000000313,1.135187e-05,92.67000000000313,5.53139e-06,92.67000000000313,5.81689e-06
92.68500000000313,0.0004731321,92.68500000000313,1.143225e-05,92.68500000000313,5.559333e-06,92.68500000000313,5.819312e-06
92.70000000000313,0.0004755903,92.70000000000313,1.171463e-05,92.70000000000313,5.699464e-06,92.70000000000313,5.934367e-06
92.71500000000313,0.0004896882,92.71500000000313,1.166764e-05,92.71500000000313,5.719203e-06,92.71500000000313,5.991066e-06
92.73000000000313,0.0004950486,92.73000000000313,1.188178e-05,92.73000000000313,5.647323e-06,92.73000000000313,5.993417e-06
92.74500000000313,0.0005093541,92.74500000000313,1.179372e-05,92.74500000000313,5.760922e-06,92.74500000000313,6.070483e-06
92.76000000000313,0.000509686,92.76000000000313,1.197978e-05,92.76000000000313,5.724127e-06,92.76000000000313,6.077441e-06
92.77500000000313,0.0005120562,92.77500000000313,1.190074e-05,92.77500000000313,5.809621e-06,92.77500000000313,6.224016e-06
92.79000000000313,0.0004946089,92.79000000000313,1.152796e-05,92.79000000000313,5.908198e-06,92.79000000000313,6.219488e-06
92.80500000000313,0.0004727572,92.80500000000313,1.13779e-05,92.80500000000313,5.877121e-06,92.80500000000313,6.08439e-06
92.82000000000313,0.0004694628,92.82000000000313,1.104366e-05,92.82000000000313,5.974584e-06,92.82000000000313,5.922486e-06
92.83500000000313,0.000433144,92.83500000000313,1.089857e-05,92.83500000000313,5.927241e-06,92.83500000000313,5.865124e-06
92.85000000000313,0.000383683,92.85000000000313,1.071215e-05,92.85000000000313,5.893875e-06,92.85000000000313,5.554263e-06
92.86500000000314,0.0003800569,92.86500000000314,1.009052e-05,92.86500000000314,5.924864e-06,92.86500000000314,5.477649e-06
92.88000000000314,0.0003858015,92.88000000000314,9.981033e-06,92.88000000000314,5.785323e-06,92.88000000000314,5.415577e-06
92.89500000000314,0.0003503239,92.89500000000314,9.767037e-06,92.89500000000314,5.824151e-06,92.89500000000314,5.151632e-06
92.91000000000314,0.0003173198,92.91000000000314,8.676361e-06,92.91000000000314,5.662269e-06,92.91000000000314,4.858938e-06
92.92500000000314,0.000311221,92.92500000000314,7.532673e-06,92.92500000000314,5.551726e-06,92.92500000000314,4.899358e-06
92.94000000000314,0.0003122537,92.94000000000314,8.432649e-06,92.94000000000314,5.582091e-06,92.94000000000314,4.824024e-06
92.95500000000314,0.0003470014,92.95500000000314,1.78205e-05,92.95500000000314,5.551726e-06,92.95500000000314,4.651575e-06
92.97000000000314,0.0003671006,92.97000000000314,2.295181e-05,92.97000000000314,5.469929e-06,92.97000000000314,4.608983e-06
92.98500000000314,0.0003753144,92.98500000000314,2.521484e-05,92.98500000000314,5.559333e-06,92.98500000000314,4.553636e-06
93.00000000000314,0.000369877,93.00000000000314,3.086555e-05,93.00000000000314,5.639834e-06,93.00000000000314,4.575239e-06
93.01500000000314,0.0003725686,93.01500000000314,3.289117e-05,93.01500000000314,5.677176e-06,93.01500000000314,4.463023e-06
93.03000000000314,0.0003669218,93.03000000000314,3.308248e-05,93.03000000000314,5.56946e-06,93.03000000000314,4.066665e-06
93.04500000000314,0.0003559264,93.04500000000314,3.322694e-05,93.04500000000314,5.399948e-06,93.04500000000314,4.042345e-06
93.06000000000314,0.0003528543,93.06000000000314,3.328074e-05,93.06000000000314,5.449287e-06,93.06000000000314,3.78313e-06
93.07500000000314,0.000355903,93.07500000000314,3.35329e-05,93.07500000000314,5.313164e-06,93.07500000000314,3.797995e-06
93.09000000000314,0.0003567583,93.09000000000314,3.359124e-05,93.09000000000314,5.34752e-06,93.09000000000314,3.878734e-06
93.10500000000314,0.0003553093,93.10500000000314,3.356817e-05,93.10500000000314,5.516089e-06,93.10500000000314,3.845909e-06
93.12000000000315,0.0003544005,93.12000000000315,3.361262e-05,93.12000000000315,5.587136e-06,93.12000000000315,3.711708e-06
93.13500000000315,0.0003203969,93.13500000000315,3.368672e-05,93.13500000000315,5.587136e-06,93.13500000000315,3.719291e-06
93.15000000000315,0.0002960215,93.15000000000315,3.36771e-05,93.15000000000315,5.657291e-06,93.15000000000315,3.688867e-06
93.16500000000315,0.0002926723,93.16500000000315,3.36499e-05,93.16500000000315,7.314453e-06,93.16500000000315,3.658189e-06
93.18000000000315,0.0002907786,93.18000000000315,3.36013e-05,93.18000000000315,7.425313e-06,93.18000000000315,3.642754e-06
93.19500000000315,0.0002850255,93.19500000000315,3.252596e-05,93.19500000000315,7.867457e-06,93.19500000000315,3.677393e-06
93.21000000000315,0.0002462142,93.21000000000315,2.564306e-05,93.21000000000315,7.863876e-06,93.21000000000315,3.520835e-06
93.22500000000315,0.0002259344,93.22500000000315,2.304124e-05,93.22500000000315,7.887128e-06,93.22500000000315,3.36955e-06
93.24000000000315,0.0001839625,93.24000000000315,2.014401e-05,93.24000000000315,7.72289e-06,93.24000000000315,3.348582e-06
93.25500000000315,0.0001736977,93.25500000000315,1.239018e-05,93.25500000000315,7.944076e-06,93.25500000000315,3.189136e-06
93.27000000000315,0.0001616953,93.27000000000315,9.017113e-06,93.27000000000315,8.122932e-06,93.27000000000315,3.189136e-06
93.28500000000315,0.0001482529,93.28500000000315,8.625883e-06,93.28500000000315,9.018676e-06,93.28500000000315,3.276286e-06
93.30000000000315,0.0001479159,93.30000000000315,8.998348e-06,93.30000000000315,1.012258e-05,93.30000000000315,3.254718e-06
93.31500000000315,0.0001483771,93.31500000000315,8.98895e-06,93.31500000000315,1.035781e-05,93.31500000000315,3.180289e-06
93.33000000000315,0.0001444594,93.33000000000315,8.325052e-06,93.33000000000315,1.038904e-05,93.33000000000315,3.144655e-06
93.34500000000315,0.00014961,93.34500000000315,8.553727e-06,93.34500000000315,1.043369e-05,93.34500000000315,3.011947e-06
93.36000000000315,0.0001515551,93.36000000000315,8.668239e-06,93.36000000000315,1.059712e-05,93.36000000000315,2.955291e-06
93.37500000000315,0.0001429764,93.37500000000315,8.159269e-06,93.37500000000315,1.090374e-05,93.37500000000315,2.955291e-06
93.39000000000316,0.0001120347,93.39000000000316,7.651422e-06,93.39000000000316,1.093728e-05,93.39000000000316,3.062961e-06
93.40500000000316,0.0001179907,93.40500000000316,7.967094e-06,93.40500000000316,1.069767e-05,93.40500000000316,3.310505e-06
93.42000000000316,0.0001233602,93.42000000000316,7.98652e-06,93.42000000000316,1.141868e-05,93.42000000000316,3.340158e-06
93.43500000000316,0.0001215824,93.43500000000316,8.016449e-06,93.43500000000316,1.129839e-05,93.43500000000316,3.356985e-06
93.45000000000316,0.0001174323,93.45000000000316,7.938755e-06,93.45000000000316,1.153284e-05,93.45000000000316,3.310505e-06
93.46500000000316,0.000109584,93.46500000000316,7.894269e-06,93.46500000000316,1.145317e-05,93.46500000000316,3.314757e-06
93.48000000000316,0.0001046511,93.48000000000316,7.856707e-06,93.48000000000316,1.147161e-05,93.48000000000316,3.352786e-06
93.49500000000316,0.0001009801,93.49500000000316,7.784659e-06,93.49500000000316,1.150961e-05,93.49500000000316,3.423466e-06
93.51000000000316,0.0001028148,93.51000000000316,7.717415e-06,93.51000000000316,1.142362e-05,93.51000000000316,3.548731e-06
93.52500000000316,0.0001010666,93.52500000000316,7.878193e-06,93.52500000000316,1.096815e-05,93.52500000000316,3.484641e-06
93.54000000000316,9.650893e-05,93.54000000000316,7.470705e-06,93.54000000000316,1.065942e-05,93.54000000000316,3.348582e-06
93.55500000000316,8.825614e-05,93.55500000000316,6.680315e-06,93.55500000000316,9.790087e-06,93.55500000000316,3.284874e-06
93.57000000000316,8.927655e-05,93.57000000000316,6.415707e-06,93.57000000000316,9.595341e-06,93.57000000000316,3.254718e-06
93.58500000000316,8.43016e-05,93.58500000000316,6.349495e-06,93.58500000000316,9.73815e-06,93.58500000000316,3.149131e-06
93.60000000000316,7.833831e-05,93.60000000000316,6.25337e-06,93.60000000000316,9.725122e-06,93.60000000000316,3.122176e-06
93.61500000000316,7.648715e-05,93.61500000000316,6.409116e-06,93.61500000000316,9.582119e-06,93.61500000000316,3.076727e-06
93.63000000000316,8.131166e-05,93.63000000000316,6.476893e-06,93.63000000000316,9.374045e-06,93.63000000000316,3.090432e-06
93.64500000000317,8.573614e-05,93.64500000000317,6.461651e-06,93.64500000000317,9.375548e-06,93.64500000000317,2.955291e-06
93.66000000000317,8.787817e-05,93.66000000000317,6.282586e-06,93.66000000000317,9.104177e-06,93.66000000000317,2.690828e-06
93.67500000000317,7.668763e-05,93.67500000000317,6.144291e-06,93.67500000000317,7.512074e-06,93.67500000000317,2.716877e-06
93.69000000000317,7.673923e-05,93.69000000000317,6.228541e-06,93.69000000000317,7.057657e-06,93.69000000000317,2.758045e-06
93.70500000000317,7.693101e-05,93.70500000000317,6.25337e-06,93.70500000000317,6.541815e-06,93.70500000000317,2.783465e-06
93.72000000000317,7.904024e-05,93.72000000000317,6.228541e-06,93.72000000000317,6.703471e-06,93.72000000000317,2.892662e-06
93.73500000000317,8.060189e-05,93.73500000000317,6.376062e-06,93.73500000000317,6.580461e-06,93.73500000000317,2.863294e-06
93.75000000000317,7.871915e-05,93.75000000000317,6.993494e-06,93.75000000000317,6.571893e-06,93.75000000000317,2.653929e-06
93.76500000000317,7.994982e-05,93.76500000000317,7.156758e-06,93.76500000000317,6.507271e-06,93.76500000000317,2.600309e-06
93.78000000000317,8.072554e-05,93.78000000000317,7.011599e-06,93.78000000000317,6.21269e-06,93.78000000000317,2.627256e-06
93.79500000000317,8.118977e-05,93.79500000000317,7.05566e-06,93.79500000000317,6.042573e-06,93.79500000000317,2.637958e-06
93.81000000000317,8.185658e-05,93.81000000000317,6.726546e-06,93.81000000000317,6.063518e-06,93.81000000000317,2.793568e-06
93.82500000000317,8.641872e-05,93.82500000000317,6.906339e-06,93.82500000000317,6.338393e-06,93.82500000000317,2.960054e-06
93.84000000000317,8.658939e-05,93.84000000000317,7.197973e-06,93.84000000000317,6.000464e-06,93.84000000000317,3.025945e-06
93.85500000000317,9.144811e-05,93.85500000000317,7.270023e-06,93.85500000000317,6.023894e-06,93.85500000000317,3.049133e-06
93.87000000000317,9.752113e-05,93.87000000000317,7.28164e-06,93.87000000000317,5.799914e-06,93.87000000000317,3.030597e-06
93.88500000000317,9.405371e-05,93.88500000000317,7.689987e-06,93.88500000000317,6.885912e-06,93.88500000000317,3.049133e-06
93.90000000000317,8.875273e-05,93.90000000000317,8.195444e-06,93.90000000000317,7.775606e-06,93.90000000000317,3.085871e-06
93.91500000000318,8.627663e-05,93.91500000000318,8.715239e-06,93.91500000000318,9.886021e-06,93.91500000000318,3.271984e-06
93.93000000000318,8.622241e-05,93.93000000000318,8.684475e-06,93.93000000000318,1.112753e-05,93.93000000000318,3.564574e-06
93.94500000000318,8.887122e-05,93.94500000000318,8.699061e-06,93.94500000000318,1.151328e-05,93.94500000000318,3.516832e-06
93.96000000000318,9.002714e-05,93.96000000000318,8.81648e-06,93.96000000000318,1.666702e-05,93.96000000000318,3.468433e-06
93.97500000000318,9.987495e-05,93.97500000000318,8.829253e-06,93.97500000000318,2.26192e-05,93.97500000000318,3.435788e-06
93.99000000000318,0.0001028013,93.99000000000318,8.899176e-06,93.99000000000318,2.332803e-05,93.99000000000318,3.472492e-06
94.00500000000318,0.0001036357,94.00500000000318,8.565246e-06,94.00500000000318,2.405989e-05,94.00500000000318,3.476546e-06
94.02000000000318,0.0001023704,94.02000000000318,8.721702e-06,94.02000000000318,2.417029e-05,94.02000000000318,3.508812e-06
94.03500000000318,0.0001218846,94.03500000000318,8.694202e-06,94.03500000000318,2.497967e-05,94.03500000000318,3.516832e-06
94.05000000000318,0.000150258,94.05000000000318,8.480955e-06,94.05000000000318,2.515556e-05,94.05000000000318,3.484641e-06
94.06500000000318,0.000159328,94.06500000000318,8.286042e-06,94.06500000000318,2.555887e-05,94.06500000000318,3.452149e-06
94.08000000000318,0.0001574579,94.08000000000318,8.157542e-06,94.08000000000318,2.646648e-05,94.08000000000318,3.323245e-06
94.09500000000318,0.0001584093,94.09500000000318,8.002378e-06,94.09500000000318,2.68039e-05,94.09500000000318,3.472492e-06
94.11000000000318,0.0001588878,94.11000000000318,7.952937e-06,94.11000000000318,2.688262e-05,94.11000000000318,3.464369e-06
94.12500000000318,0.0001586814,94.12500000000318,7.917432e-06,94.12500000000318,2.667694e-05,94.12500000000318,3.452149e-06
94.14000000000318,0.0001612966,94.14000000000318,7.394897e-06,94.14000000000318,2.664418e-05,94.14000000000318,3.4111e-06
94.15500000000318,0.0001604239,94.15500000000318,6.400318e-06,94.15500000000318,2.638171e-05,94.15500000000318,3.423466e-06
94.17000000000318,0.0001583158,94.17000000000318,6.300498e-06,94.17000000000318,2.559797e-05,94.17000000000318,3.117661e-06
94.18500000000319,0.000159161,94.18500000000319,6.284828e-06,94.18500000000319,2.525113e-05,94.18500000000319,3.039879e-06
94.20000000000319,0.0001578983,94.20000000000319,6.382687e-06,94.20000000000319,2.333889e-05,94.20000000000319,3.104077e-06
94.21500000000319,0.0001549688,94.21500000000319,6.233063e-06,94.21500000000319,1.80272e-05,94.21500000000319,3.171418e-06
94.23000000000319,0.0001486173,94.23000000000319,6.137409e-06,94.23000000000319,1.521699e-05,94.23000000000319,3.11314e-06
94.24500000000319,0.0001469852,94.24500000000319,5.927241e-06,94.24500000000319,1.411631e-05,94.24500000000319,3.053749e-06
94.26000000000319,0.0001469393,94.26000000000319,5.838645e-06,94.26000000000319,1.35043e-05,94.26000000000319,3.049133e-06
94.27500000000319,0.0001437645,94.27500000000319,5.979298e-06,94.27500000000319,1.218382e-05,94.27500000000319,3.049133e-06
94.29000000000319,0.0001298285,94.29000000000319,6.089019e-06,94.29000000000319,1.155968e-05,94.29000000000319,3.002579e-06
94.30500000000319,9.814589e-05,94.30500000000319,6.169459e-06,94.30500000000319,1.116544e-05,94.30500000000319,3.007266e-06
94.32000000000319,8.9626e-05,94.32000000000319,6.316129e-06,94.32000000000319,8.400851e-06,94.32000000000319,3.044509e-06
94.33500000000319,9.442904e-05,94.33500000000319,6.235322e-06,94.33500000000319,7.495178e-06,94.33500000000319,3.189136e-06
94.35000000000319,9.334682e-05,94.35000000000319,6.21269e-06,94.35000000000319,6.322817e-06,94.35000000000319,3.158065e-06
94.36500000000319,9.179312e-05,94.36500000000319,6.214957e-06,94.36500000000319,6.026232e-06,94.36500000000319,3.215529e-06
94.3800000000032,9.132449e-05,94.3800000000032,6.2781e-06,94.3800000000032,6.093644e-06,94.3800000000032,3.335938e-06
94.3950000000032,9.700118e-05,94.3950000000032,6.325044e-06,94.3950000000032,6.597564e-06,94.3950000000032,3.406967e-06
94.4100000000032,9.877182e-05,94.4100000000032,6.358363e-06,94.4100000000032,6.563313e-06,94.4100000000032,3.390388e-06
94.4250000000032,9.839717e-05,94.4250000000032,6.424483e-06,94.4250000000032,6.457289e-06,94.4250000000032,3.427579e-06
94.4400000000032,9.92131e-05,94.4400000000032,6.42229e-06,94.4400000000032,5.986361e-06,94.4400000000032,3.377901e-06
94.4550000000032,9.831697e-05,94.4550000000032,6.404719e-06,94.4550000000032,5.896265e-06,94.4550000000032,3.352786e-06
94.4700000000032,9.874629e-05,94.4700000000032,6.505105e-06,94.4700000000032,6.135114e-06,94.4700000000032,3.398688e-06
94.4850000000032,9.741447e-05,94.4850000000032,6.351713e-06,94.4850000000032,6.16489e-06,94.4850000000032,3.488681e-06
94.5000000000032,9.707332e-05,94.5000000000032,6.351713e-06,94.5000000000032,6.203613e-06,94.5000000000032,3.524834e-06
94.5150000000032,9.764672e-05,94.5150000000032,6.214957e-06,94.5150000000032,6.382687e-06,94.5150000000032,3.540784e-06
94.5300000000032,9.525027e-05,94.5300000000032,5.929618e-06,94.5300000000032,6.153455e-06,94.5300000000032,3.532818e-06
94.5450000000032,9.37618e-05,94.5450000000032,5.758477e-06,94.5450000000032,6.116717e-06,94.5450000000032,3.692683e-06
94.5600000000032,8.974018e-05,94.5600000000032,6.114414e-06,94.5600000000032,6.141998e-06,94.5600000000032,3.711708e-06
94.5750000000032,8.213644e-05,94.5750000000032,6.289309e-06,94.5750000000032,6.070483e-06,94.5750000000032,3.654337e-06
94.5900000000032,8.016994e-05,94.5900000000032,6.541815e-06,94.5900000000032,6.098266e-06,94.5900000000032,3.592131e-06
94.6050000000032,7.474909e-05,94.6050000000032,6.680315e-06,94.6050000000032,5.896265e-06,94.6050000000032,3.646619e-06
94.6200000000032,7.21125e-05,94.6200000000032,6.665538e-06,94.6200000000032,6.040241e-06,94.6200000000032,3.642754e-06
94.6350000000032,6.823438e-05,94.6350000000032,6.900217e-06,94.6350000000032,5.639834e-06,94.6350000000032,3.599965e-06
94.6500000000032,6.14225e-05,94.6500000000032,6.883865e-06,94.6500000000032,5.368553e-06,94.6500000000032,3.480596e-06
94.6650000000032,5.741499e-05,94.6650000000032,6.732826e-06,94.6650000000032,5.313164e-06,94.6650000000032,3.456227e-06
94.6800000000032,5.78374e-05,94.6800000000032,6.629514e-06,94.6800000000032,5.475077e-06,94.6800000000032,3.468433e-06
94.6950000000032,5.677425e-05,94.6950000000032,6.559019e-06,94.6950000000032,5.526294e-06,94.6950000000032,3.508812e-06
94.7100000000032,5.753876e-05,94.7100000000032,6.563313e-06,94.7100000000032,5.477649e-06,94.7100000000032,3.472492e-06
94.7250000000032,5.680599e-05,94.7250000000032,6.563313e-06,94.7250000000032,5.299891e-06,94.7250000000032,3.488681e-06
94.7400000000032,5.743069e-05,94.7400000000032,6.627389e-06,94.7400000000032,5.302549e-06,94.7400000000032,3.472492e-06
94.7550000000032,5.748389e-05,94.7550000000032,6.485587e-06,94.7550000000032,5.227635e-06,94.7550000000032,3.564574e-06
94.77000000000321,5.6659e-05,94.77000000000321,6.618881e-06,94.77000000000321,5.074491e-06,94.77000000000321,3.512824e-06
94.78500000000321,5.718858e-05,94.78500000000321,6.80152e-06,94.78500000000321,4.910845e-06,94.78500000000321,3.452149e-06
94.80000000000321,5.782887e-05,94.80000000000321,7.645896e-06,94.80000000000321,4.982041e-06,94.80000000000321,3.464369e-06
94.81500000000321,5.93128e-05,94.81500000000321,7.487657e-06,94.81500000000321,5.060592e-06,94.81500000000321,3.504795e-06
94.83000000000321,5.98622e-05,94.83000000000321,7.258388e-06,94.83000000000321,5.165286e-06,94.83000000000321,3.516832e-06
94.84500000000321,5.848914e-05,94.84500000000321,6.993494e-06,94.84500000000321,5.168013e-06,94.84500000000321,3.335938e-06
94.86000000000321,6.468972e-05,94.86000000000321,7.350954e-06,94.86000000000321,5.104936e-06,94.86000000000321,3.28916e-06
94.87500000000321,0.0001310668,94.87500000000321,7.190141e-06,94.87500000000321,5.438937e-06,94.87500000000321,3.219907e-06
94.89000000000321,0.0001375096,94.89000000000321,7.047669e-06,94.89000000000321,5.589657e-06,94.89000000000321,3.206755e-06
94.90500000000321,0.0001405513,94.90500000000321,7.041671e-06,94.90500000000321,5.692045e-06,94.90500000000321,3.206755e-06
94.92000000000321,0.0001450181,94.92000000000321,7.049668e-06,94.92000000000321,5.760922e-06,94.92000000000321,3.215529e-06
94.93500000000321,0.0001470423,94.93500000000321,7.385367e-06,94.93500000000321,5.714275e-06,94.93500000000321,3.36955e-06
94.95000000000321,0.000160289,94.95000000000321,7.485775e-06,94.95000000000321,5.792623e-06,94.95000000000321,3.327482e-06
94.96500000000322,0.0001854373,94.96500000000322,7.48201e-06,94.96500000000322,5.758477e-06,94.96500000000322,3.314757e-06
94.98000000000322,0.0002140082,94.98000000000322,7.512074e-06,94.98000000000322,5.804769e-06,94.98000000000322,3.184716e-06
94.99500000000322,0.0002373814,94.99500000000322,7.631143e-06,94.99500000000322,5.736418e-06,94.99500000000322,3.099535e-06
95.01000000000322,0.0002565013,95.01000000000322,7.680822e-06,95.01000000000322,6.953093e-06,95.01000000000322,3.021286e-06
95.02500000000322,0.0002591028,95.02500000000322,7.732004e-06,95.02500000000322,6.94904e-06,95.02500000000322,3.094987e-06
95.04000000000322,0.0003079536,95.04000000000322,7.601551e-06,95.04000000000322,7.067629e-06,95.04000000000322,3.117661e-06
95.05500000000322,0.0003862876,95.05500000000322,6.762054e-06,95.05500000000322,7.579281e-06,95.05500000000322,3.263362e-06
95.07000000000322,0.000511859,95.07000000000322,6.713969e-06,95.07000000000322,7.675319e-06,95.07000000000322,3.250386e-06
95.08500000000322,0.0005392813,95.08500000000322,6.80773e-06,95.08500000000322,7.702799e-06,95.08500000000322,3.373728e-06
95.10000000000322,0.0005410763,95.10000000000322,6.684531e-06,95.10000000000322,1.084935e-05,95.10000000000322,3.642754e-06
95.11500000000322,0.0005377893,95.11500000000322,6.676097e-06,95.11500000000322,1.105641e-05,95.11500000000322,3.681221e-06
95.13000000000322,0.0005295204,95.13000000000322,6.730734e-06,95.13000000000322,1.098355e-05,95.13000000000322,3.715501e-06
95.14500000000322,0.0005299352,95.14500000000322,6.699267e-06,95.14500000000322,1.214329e-05,95.14500000000322,3.700305e-06
95.16000000000322,0.000530013,95.16000000000322,6.663425e-06,95.16000000000322,1.266122e-05,95.16000000000322,3.665883e-06
95.17500000000322,0.0005291927,95.17500000000322,6.461651e-06,95.17500000000322,1.733648e-05,95.17500000000322,3.619477e-06
95.19000000000322,0.0005309975,95.19000000000322,6.224016e-06,95.19000000000322,1.984529e-05,95.19000000000322,3.512824e-06
95.20500000000322,0.0005266342,95.20500000000322,6.091332e-06,95.20500000000322,2.207202e-05,95.20500000000322,3.496747e-06
95.22000000000322,0.0005254732,95.22000000000322,6.070483e-06,95.22000000000322,2.31023e-05,95.22000000000322,3.464369e-06
95.23500000000323,0.0005183164,95.23500000000323,6.016875e-06,95.23500000000323,2.328511e-05,95.23500000000323,3.476546e-06
95.25000000000323,0.0005049919,95.25000000000323,5.726587e-06,95.25000000000323,2.302106e-05,95.25000000000323,3.700305e-06
95.26500000000323,0.000494042,95.26500000000323,5.833818e-06,95.26500000000323,2.30027e-05,95.26500000000323,3.827552e-06
95.28000000000323,0.0004857199,95.28000000000323,5.654801e-06,95.28000000000323,2.30553e-05,95.28000000000323,3.860533e-06
95.29500000000323,0.0004403628,95.29500000000323,5.632336e-06,95.29500000000323,2.319541e-05,95.29500000000323,3.996786e-06
95.31000000000323,0.0003480029,95.31000000000323,5.807196e-06,95.31000000000323,2.420349e-05,95.31000000000323,4.148967e-06
95.32500000000323,0.0002046296,95.32500000000323,6.056544e-06,95.32500000000323,2.434335e-05,95.32500000000323,4.031877e-06
95.34000000000323,0.0001689561,95.34000000000323,6.973323e-06,95.34000000000323,2.427265e-05,95.34000000000323,3.84957e-06
95.35500000000323,0.0001626333,95.35500000000323,7.213613e-06,95.35500000000323,2.305652e-05,95.35500000000323,3.749468e-06
95.37000000000323,0.0001583792,95.37000000000323,7.373913e-06,95.37000000000323,2.34076e-05,95.37000000000323,3.700305e-06
95.38500000000323,0.0001568548,95.38500000000323,7.60896e-06,95.38500000000323,2.356474e-05,95.38500000000323,3.70411e-06
95.40000000000323,0.0001575261,95.40000000000323,7.826167e-06,95.40000000000323,2.310535e-05,95.40000000000323,3.726858e-06
95.41500000000323,0.0001531908,95.41500000000323,7.85312e-06,95.41500000000323,2.294137e-05,95.41500000000323,3.745709e-06
95.43000000000323,0.0001526848,95.43000000000323,7.795508e-06,95.43000000000323,1.802641e-05,95.43000000000323,4.007346e-06
95.44500000000323,0.0001367841,95.44500000000323,7.804539e-06,95.44500000000323,1.775001e-05,95.44500000000323,4.087396e-06
95.46000000000323,0.0001311846,95.46000000000323,7.777418e-06,95.46000000000323,1.562802e-05,95.46000000000323,4.148967e-06
95.47500000000323,0.0001112957,95.47500000000323,7.97063e-06,95.47500000000323,1.542388e-05,95.47500000000323,4.232997e-06
95.49000000000323,9.195627e-05,95.49000000000323,8.143716e-06,95.49000000000323,1.58713e-05,95.49000000000323,4.142171e-06
95.50500000000324,9.349308e-05,95.50500000000324,8.15236e-06,95.50500000000324,1.639776e-05,95.50500000000324,4.083948e-06
95.52000000000324,9.569085e-05,95.52000000000324,8.121197e-06,95.52000000000324,1.769994e-05,95.52000000000324,4.080498e-06
95.53500000000324,9.770167e-05,95.53500000000324,8.098617e-06,95.53500000000324,1.896176e-05,95.53500000000324,3.92925e-06
95.55000000000324,0.0001103949,95.55000000000324,8.068993e-06,95.55000000000324,1.868789e-05,95.55000000000324,3.532818e-06
95.56500000000324,0.0001148885,95.56500000000324,7.887128e-06,95.56500000000324,1.740945e-05,95.56500000000324,3.508812e-06
95.58000000000324,0.000114855,95.58000000000324,7.588568e-06,95.58000000000324,1.751754e-05,95.58000000000324,3.516832e-06
95.59500000000324,0.0001185006,95.59500000000324,6.699267e-06,95.59500000000324,1.758416e-05,95.59500000000324,3.504795e-06
95.61000000000324,0.0001184322,95.61000000000324,6.498606e-06,95.61000000000324,1.737706e-05,95.61000000000324,3.460301e-06
95.62500000000324,0.0001169541,95.62500000000324,6.382687e-06,95.62500000000324,1.686614e-05,95.62500000000324,3.504795e-06
95.64000000000324,0.0001128923,95.64000000000324,6.244353e-06,95.64000000000324,1.680254e-05,95.64000000000324,3.496747e-06
95.65500000000324,0.000113616,95.65500000000324,6.248863e-06,95.65500000000324,1.659502e-05,95.65500000000324,3.580347e-06
95.67000000000324,0.0001144625,95.67000000000324,6.284828e-06,95.67000000000324,1.637111e-05,95.67000000000324,3.56062e-06
95.68500000000324,0.0001218754,95.68500000000324,6.251117e-06,95.68500000000324,1.556479e-05,95.68500000000324,3.356985e-06
95.70000000000324,0.0001270494,95.70000000000324,6.345057e-06,95.70000000000324,1.540926e-05,95.70000000000324,3.276286e-06
95.71500000000324,0.0001267795,95.71500000000324,6.382687e-06,95.71500000000324,1.534146e-05,95.71500000000324,3.331712e-06
95.73000000000324,0.0001315699,95.73000000000324,6.230803e-06,95.73000000000324,1.427212e-05,95.73000000000324,3.224279e-06
95.74500000000324,0.0001415944,95.74500000000324,5.934367e-06,95.74500000000324,1.308794e-05,95.74500000000324,3.211145e-06
95.76000000000325,0.0001460916,95.76000000000325,5.872325e-06,95.76000000000325,1.297443e-05,95.76000000000325,3.189136e-06
95.77500000000325,0.0001403649,95.77500000000325,5.838645e-06,95.77500000000325,1.061704e-05,95.77500000000325,3.081303e-06
95.79000000000325,0.0001376213,95.79000000000325,5.632336e-06,95.79000000000325,8.798887e-06,95.79000000000325,3.011947e-06
95.80500000000325,0.0001359364,95.80500000000325,5.627332e-06,95.80500000000325,8.867461e-06,95.80500000000325,3.011947e-06
95.82000000000325,0.0001375081,95.82000000000325,5.780451e-06,95.82000000000325,8.475971e-06,95.82000000000325,3.058359e-06
95.83500000000325,0.0001368134,95.83500000000325,5.714275e-06,95.83500000000325,8.599714e-06,95.83500000000325,3.135683e-06
95.85000000000325,0.0001328552,95.85000000000325,5.544109e-06,95.85000000000325,8.370614e-06,95.85000000000325,3.104077e-06
95.86500000000325,0.0001337089,95.86500000000325,5.729046e-06,95.86500000000325,8.373978e-06,95.86500000000325,3.062961e-06
95.88000000000325,0.00013383,95.88000000000325,5.689569e-06,95.88000000000325,8.253678e-06,95.88000000000325,3.067557e-06
95.89500000000325,0.0001341586,95.89500000000325,5.857914e-06,95.89500000000325,7.229218e-06,95.89500000000325,3.131187e-06
95.91000000000325,0.0001329171,95.91000000000325,5.780451e-06,95.91000000000325,7.079578e-06,95.91000000000325,3.044509e-06
95.92500000000325,0.0001294053,95.92500000000325,5.753582e-06,95.92500000000325,6.824264e-06,95.92500000000325,2.988471e-06
95.94000000000325,0.000120621,95.94000000000325,5.812045e-06,95.94000000000325,6.589018e-06,95.94000000000325,3.011947e-06
95.95500000000325,0.0001128153,95.95500000000325,5.674694e-06,95.95500000000325,6.141998e-06,95.95500000000325,2.945742e-06
95.97000000000325,0.000112408,95.97000000000325,5.546649e-06,95.97000000000325,6.162605e-06,95.97000000000325,3.021286e-06
95.98500000000325,0.0001036423,95.98500000000325,5.477649e-06,95.98500000000325,6.219488e-06,95.98500000000325,3.085871e-06
96.00000000000325,8.701296e-05,96.00000000000325,5.637336e-06,96.00000000000325,5.972226e-06,96.00000000000325,3.081303e-06
96.01500000000325,8.055819e-05,96.01500000000325,5.624828e-06,96.01500000000325,5.594695e-06,96.01500000000325,3.049133e-06
96.03000000000326,8.063719e-05,96.03000000000326,5.701935e-06,96.03000000000326,6.05887e-06,96.03000000000326,3.28916e-06
96.04500000000326,7.675245e-05,96.04500000000326,5.726587e-06,96.04500000000326,5.976941e-06,96.04500000000326,3.365367e-06
96.06000000000326,6.858505e-05,96.06000000000326,5.672212e-06,96.06000000000326,5.943854e-06,96.06000000000326,3.365367e-06
96.07500000000326,6.119526e-05,96.07500000000326,5.475077e-06,96.07500000000326,5.462197e-06,96.07500000000326,3.276286e-06
96.09000000000326,6.467121e-05,96.09000000000326,5.53139e-06,96.09000000000326,5.318464e-06,96.09000000000326,3.24605e-06
96.10500000000326,6.434277e-05,96.10500000000326,5.589657e-06,96.10500000000326,5.28392e-06,96.10500000000326,3.276286e-06
96.12000000000326,6.178425e-05,96.12000000000326,5.310512e-06,96.12000000000326,5.315815e-06,96.12000000000326,3.211145e-06
96.13500000000326,6.094569e-05,96.13500000000326,5.227635e-06,96.13500000000326,5.34752e-06,96.13500000000326,3.175857e-06
96.15000000000326,5.978945e-05,96.15000000000326,5.049445e-06,96.15000000000326,5.457037e-06,96.15000000000326,3.135683e-06
96.16500000000326,5.962453e-05,96.16500000000326,5.055022e-06,96.16500000000326,5.56693e-06,96.16500000000326,3.11314e-06
96.18000000000326,5.900372e-05,96.18000000000326,5.074491e-06,96.18000000000326,5.724127e-06,96.18000000000326,3.072146e-06
96.19500000000326,6.245886e-05,96.19500000000326,5.313164e-06,96.19500000000326,5.831403e-06,96.19500000000326,3.11314e-06
96.21000000000326,6.320076e-05,96.21000000000326,5.389503e-06,96.21000000000326,5.753582e-06,96.21000000000326,3.011947e-06
96.22500000000326,6.378227e-05,96.22500000000326,5.446701e-06,96.22500000000326,5.770695e-06,96.22500000000326,3.025945e-06
96.24000000000326,6.999595e-05,96.24000000000326,5.48279e-06,96.24000000000326,5.597212e-06,96.24000000000326,2.969556e-06
96.25500000000326,7.784966e-05,96.25500000000326,5.500745e-06,96.25500000000326,5.624828e-06,96.25500000000326,3.021286e-06
96.27000000000326,7.657348e-05,96.27000000000326,5.490492e-06,96.27000000000326,5.315815e-06,96.27000000000326,2.907234e-06
96.28500000000327,7.740143e-05,96.28500000000327,5.490492e-06,96.28500000000327,5.010237e-06,96.28500000000327,2.887788e-06
96.30000000000327,7.966105e-05,96.30000000000327,5.521194e-06,96.30000000000327,5.049445e-06,96.30000000000327,2.808655e-06
96.31500000000327,8.077159e-05,96.31500000000327,5.716739e-06,96.31500000000327,5.197909e-06,96.31500000000327,2.818668e-06
96.33000000000327,8.237021e-05,96.33000000000327,5.903427e-06,96.33000000000327,5.281253e-06,96.33000000000327,2.808655e-06
96.34500000000327,7.840015e-05,96.34500000000327,6.05887e-06,96.34500000000327,5.397339e-06,96.34500000000327,2.843547e-06
96.36000000000327,7.777e-05,96.36000000000327,6.030905e-06,96.36000000000327,5.384273e-06,96.36000000000327,2.833621e-06
96.37500000000327,7.765454e-05,96.37500000000327,6.239839e-06,96.37500000000327,5.662269e-06,96.37500000000327,2.818668e-06
96.39000000000327,7.725625e-05,96.39000000000327,6.342836e-06,96.39000000000327,5.838645e-06,96.39000000000327,2.773325e-06
96.40500000000327,7.776856e-05,96.40500000000327,6.457289e-06,96.40500000000327,5.624828e-06,96.40500000000327,2.793568e-06
96.42000000000327,7.951662e-05,96.42000000000327,6.327271e-06,96.42000000000327,5.516089e-06,96.42000000000327,2.858369e-06
96.43500000000327,7.995704e-05,96.43500000000327,6.304968e-06,96.43500000000327,5.701935e-06,96.43500000000327,2.940956e-06
96.45000000000327,7.808725e-05,96.45000000000327,6.105191e-06,96.45000000000327,5.8867e-06,96.45000000000327,2.868209e-06
96.46500000000327,8.252176e-05,96.46500000000327,6.221753e-06,96.46500000000327,5.824151e-06,96.46500000000327,2.818668e-06
96.48000000000327,8.449755e-05,96.48000000000327,6.174023e-06,96.48000000000327,5.984008e-06,96.48000000000327,2.848496e-06
96.49500000000327,8.240389e-05,96.49500000000327,6.155743e-06,96.49500000000327,6.466009e-06,96.49500000000327,2.868209e-06
96.51000000000327,8.447537e-05,96.51000000000327,6.146583e-06,96.51000000000327,8.246849e-06,96.51000000000327,3.021286e-06
96.52500000000327,9.744195e-05,96.52500000000327,6.246608e-06,96.52500000000327,8.758771e-06,96.52500000000327,3.171418e-06
96.54000000000327,0.0001012528,96.54000000000327,6.518086e-06,96.54000000000327,8.838821e-06,96.54000000000327,3.049133e-06
96.55500000000328,0.0001081431,96.55500000000328,6.371642e-06,96.55500000000328,8.886504e-06,96.55500000000328,3.062961e-06
96.57000000000328,0.0001282709,96.57000000000328,6.496438e-06,96.57000000000328,9.410042e-06,96.57000000000328,3.025945e-06
96.58500000000328,0.0001322295,96.58500000000328,6.132817e-06,96.58500000000328,9.831725e-06,96.58500000000328,3.044509e-06
96.60000000000328,0.0001334521,96.60000000000328,6.082075e-06,96.60000000000328,1.174825e-05,96.60000000000328,3.126685e-06
96.61500000000328,0.0001348014,96.61500000000328,6.196798e-06,96.61500000000328,1.287744e-05,96.61500000000328,3.126685e-06
96.63000000000328,0.0001437517,96.63000000000328,5.976941e-06,96.63000000000328,1.432827e-05,96.63000000000328,3.197958e-06
96.64500000000328,0.0001478329,96.64500000000328,6.139704e-06,96.64500000000328,1.446233e-05,96.64500000000328,3.254718e-06
96.66000000000328,0.0001476806,96.66000000000328,6.035575e-06,96.66000000000328,1.462216e-05,96.66000000000328,3.19355e-06
96.67500000000328,0.0001501162,96.67500000000328,6.056544e-06,96.67500000000328,1.50457e-05,96.67500000000328,3.180289e-06
96.69000000000328,0.0001508046,96.69000000000328,6.040241e-06,96.69000000000328,1.576622e-05,96.69000000000328,3.180289e-06
96.70500000000328,0.0001505154,96.70500000000328,6.05887e-06,96.70500000000328,1.639948e-05,96.70500000000328,3.215529e-06
96.72000000000328,0.0001507031,96.72000000000328,5.917727e-06,96.72000000000328,1.682181e-05,96.72000000000328,3.254718e-06
96.73500000000328,0.0001542922,96.73500000000328,6.049562e-06,96.73500000000328,1.787653e-05,96.73500000000328,3.36955e-06
96.75000000000328,0.0001568739,96.75000000000328,5.93674e-06,96.75000000000328,1.83839e-05,96.75000000000328,3.323245e-06
96.76500000000328,0.0001490833,96.76500000000328,5.958057e-06,96.76500000000328,1.844815e-05,96.76500000000328,3.166973e-06
96.78000000000328,0.0001425049,96.78000000000328,5.632336e-06,96.78000000000328,1.876011e-05,96.78000000000328,3.002579e-06
96.79500000000328,0.0001393186,96.79500000000328,5.574516e-06,96.79500000000328,1.903147e-05,96.79500000000328,3.072146e-06
96.81000000000328,0.0001280234,96.81000000000328,5.423375e-06,96.81000000000328,1.988783e-05,96.81000000000328,3.233005e-06
96.82500000000329,0.0001235335,96.82500000000329,5.28392e-06,96.82500000000329,2.034372e-05,96.82500000000329,3.327482e-06
96.84000000000329,0.0001361951,96.84000000000329,5.355417e-06,96.84000000000329,1.988713e-05,96.84000000000329,3.327482e-06
96.85500000000329,0.0001415107,96.85500000000329,5.394728e-06,96.85500000000329,1.986728e-05,96.85500000000329,3.250386e-06
96.87000000000329,0.0001604396,96.87000000000329,5.733962e-06,96.87000000000329,1.922442e-05,96.87000000000329,3.406967e-06
96.88500000000329,0.0001592031,96.88500000000329,5.819312e-06,96.88500000000329,1.941109e-05,96.88500000000329,3.361178e-06
96.90000000000329,0.0001574568,96.90000000000329,5.741327e-06,96.90000000000329,1.962401e-05,96.90000000000329,3.504795e-06
96.91500000000329,0.0001771953,96.91500000000329,6.030905e-06,96.91500000000329,1.959959e-05,96.91500000000329,3.500774e-06
96.93000000000329,0.0002015881,96.93000000000329,6.505105e-06,96.93000000000329,1.950521e-05,96.93000000000329,3.59605e-06
96.94500000000329,0.0002077723,96.94500000000329,7.616361e-06,96.94500000000329,1.885747e-05,96.94500000000329,3.681221e-06
96.96000000000329,0.0002096059,96.96000000000329,8.540542e-06,96.96000000000329,1.840534e-05,96.96000000000329,3.685046e-06
96.97500000000329,0.0002102107,96.97500000000329,8.990517e-06,96.97500000000329,1.792454e-05,96.97500000000329,3.631134e-06
96.99000000000329,0.0002065573,96.99000000000329,9.298606e-06,96.99000000000329,1.659162e-05,96.99000000000329,3.548731e-06
97.00500000000329,0.0002084641,97.00500000000329,1.058782e-05,97.00500000000329,1.652782e-05,97.00500000000329,3.556662e-06
97.0200000000033,0.0002140447,97.0200000000033,1.118309e-05,97.0200000000033,1.560186e-05,97.0200000000033,3.711708e-06
97.0350000000033,0.000213485,97.0350000000033,1.117049e-05,97.0350000000033,1.508777e-05,97.0350000000033,3.82387e-06
97.0500000000033,0.0002135084,97.0500000000033,1.109711e-05,97.0500000000033,1.432237e-05,97.0500000000033,3.842245e-06
97.0650000000033,0.0002134945,97.0650000000033,1.107805e-05,97.0650000000033,1.29842e-05,97.0650000000033,3.786851e-06
97.0800000000033,0.0002114685,97.0800000000033,1.116797e-05,97.0800000000033,1.203843e-05,97.0800000000033,3.786851e-06
97.0950000000033,0.0002085879,97.0950000000033,1.122835e-05,97.0950000000033,1.190429e-05,97.0950000000033,3.827552e-06
97.1100000000033,0.0002023697,97.1100000000033,1.124339e-05,97.1100000000033,1.097457e-05,97.1100000000033,3.820184e-06
97.1250000000033,0.0001889975,97.1250000000033,1.097072e-05,97.1250000000033,1.054115e-05,97.1250000000033,3.794284e-06
97.1400000000033,0.0001871929,97.1400000000033,1.107042e-05,97.1400000000033,8.304722e-06,97.1400000000033,3.925663e-06
97.1550000000033,0.0001845249,97.1550000000033,1.107932e-05,97.1550000000033,8.819675e-06,97.1550000000033,3.753223e-06
97.1700000000033,0.0001692413,97.1700000000033,1.098227e-05,97.1700000000033,1.004434e-05,97.1700000000033,3.73818e-06
97.1850000000033,0.000144005,97.1850000000033,1.029369e-05,97.1850000000033,1.026079e-05,97.1850000000033,3.78313e-06
97.2000000000033,0.0001519032,97.2000000000033,9.848904e-06,97.2000000000033,1.035781e-05,97.2000000000033,3.741947e-06
97.2150000000033,0.0001540508,97.2150000000033,9.333384e-06,97.2150000000033,1.084285e-05,97.2150000000033,3.707911e-06
97.2300000000033,0.0001558107,97.2300000000033,8.560311e-06,97.2300000000033,1.201149e-05,97.2300000000033,3.741947e-06
97.2450000000033,0.0001731222,97.2450000000033,8.200599e-06,97.2450000000033,1.260435e-05,97.2450000000033,3.768206e-06
97.2600000000033,0.0001736692,97.2600000000033,7.04567e-06,97.2600000000033,1.26278e-05,97.2600000000033,3.615583e-06
97.2750000000033,0.0001733622,97.2750000000033,6.743279e-06,97.2750000000033,1.25831e-05,97.2750000000033,3.572469e-06
97.2900000000033,0.0001870638,97.2900000000033,7.125195e-06,97.2900000000033,1.272116e-05,97.2900000000033,3.40283e-06
97.3050000000033,0.0001931436,97.3050000000033,7.246734e-06,97.3050000000033,1.290694e-05,97.3050000000033,3.310505e-06
97.3200000000033,0.0001969039,97.3200000000033,7.252564e-06,97.3200000000033,1.313521e-05,97.3200000000033,3.443979e-06
97.3350000000033,0.0001909055,97.3350000000033,7.2971e-06,97.3350000000033,1.420286e-05,97.3350000000033,3.524834e-06
97.3500000000033,0.0001915733,97.3500000000033,7.412022e-06,97.3500000000033,1.425434e-05,97.3500000000033,3.532818e-06
97.3650000000033,0.0001920158,97.3650000000033,7.41962e-06,97.3650000000033,1.390922e-05,97.3650000000033,3.520835e-06
97.3800000000033,0.0001971615,97.3800000000033,7.449935e-06,97.3800000000033,1.373598e-05,97.3800000000033,3.301983e-06
97.39500000000331,0.0002194322,97.39500000000331,7.287441e-06,97.39500000000331,1.361649e-05,97.39500000000331,3.348582e-06
97.41000000000331,0.0002371498,97.41000000000331,7.21166e-06,97.41000000000331,1.29842e-05,97.41000000000331,3.419349e-06
97.42500000000331,0.0002407077,97.42500000000331,7.091506e-06,97.42500000000331,1.206181e-05,97.42500000000331,3.361178e-06
97.44000000000331,0.0002385902,97.44000000000331,7.069622e-06,97.44000000000331,1.226219e-05,97.44000000000331,3.468433e-06
97.45500000000331,0.0002447572,97.45500000000331,7.19993e-06,97.45500000000331,1.241063e-05,97.45500000000331,3.528828e-06
97.47000000000331,0.0002707987,97.47000000000331,7.352869e-06,97.47000000000331,1.11288e-05,97.47000000000331,3.512824e-06
97.48500000000331,0.0002745027,97.48500000000331,7.352869e-06,97.48500000000331,1.038633e-05,97.48500000000331,3.504795e-06
97.50000000000331,0.0002623585,97.50000000000331,7.164627e-06,97.50000000000331,9.834591e-06,97.50000000000331,3.532818e-06
97.51500000000331,0.0002617742,97.51500000000331,6.571893e-06,97.51500000000331,9.713527e-06,97.51500000000331,3.540784e-06
97.53000000000331,0.0002566078,97.53000000000331,6.384893e-06,97.53000000000331,9.884596e-06,97.53000000000331,3.57641e-06
97.54500000000331,0.0002467135,97.54500000000331,5.877121e-06,97.54500000000331,1.004575e-05,97.54500000000331,3.646619e-06
97.56000000000331,0.0002447682,97.56000000000331,6.248863e-06,97.56000000000331,9.813081e-06,97.56000000000331,3.607783e-06
97.57500000000331,0.0002407848,97.57500000000331,6.153455e-06,97.57500000000331,9.283444e-06,97.57500000000331,3.500774e-06
97.59000000000331,0.0002380677,97.59000000000331,6.178585e-06,97.59000000000331,7.728359e-06,97.59000000000331,3.472492e-06
97.60500000000332,0.0002363038,97.60500000000332,6.428867e-06,97.60500000000332,7.752019e-06,97.60500000000332,3.443979e-06
97.62000000000332,0.0002812053,97.62000000000332,6.676097e-06,97.62000000000332,7.892485e-06,97.62000000000332,3.431686e-06
97.63500000000332,0.000336528,97.63500000000332,6.571893e-06,97.63500000000332,8.096878e-06,97.63500000000332,3.377901e-06
