X[s],a: EMG RMS 1-1,X[s].1,a: EMG RMS 1-2,X[s].2,a: EMG RMS 1-3,X[s].3,a: EMG RMS 1-4
16.005000000000226,0.0003797607,16.005000000000226,0.002593325,16.005000000000226,8.861105e-06,16.005000000000226,6.431058e-06
16.020000000000227,0.0004028591,16.020000000000227,0.002593323,16.020000000000227,8.331817e-06,16.020000000000227,6.448557e-06
16.035000000000228,0.0003964289,16.035000000000228,0.002593248,16.035000000000228,8.204034e-06,16.035000000000228,6.325044e-06
16.050000000000228,0.0003906261,16.050000000000228,0.002593128,16.050000000000228,8.209184e-06,16.050000000000228,6.08439e-06
16.06500000000023,0.0003813359,16.06500000000023,0.00259307,16.06500000000023,8.086432e-06,16.06500000000023,6.005157e-06
16.08000000000023,0.0003836175,16.08000000000023,0.002439679,16.08000000000023,8.164447e-06,16.08000000000023,6.054217e-06
16.09500000000023,0.0003904444,16.09500000000023,0.00215051,16.09500000000023,7.813558e-06,16.09500000000023,6.08439e-06
16.11000000000023,0.0003867857,16.11000000000023,0.001725801,16.11000000000023,7.558809e-06,16.11000000000023,6.114414e-06
16.12500000000023,0.000385423,16.12500000000023,0.001067672,16.12500000000023,7.081567e-06,16.12500000000023,6.047233e-06
16.14000000000023,0.0003798146,16.14000000000023,0.0007704106,16.14000000000023,6.963215e-06,16.14000000000023,5.637336e-06
16.155000000000232,0.0003794272,16.155000000000232,0.000751049,16.155000000000232,6.413511e-06,16.155000000000232,5.53139e-06
16.170000000000233,0.0003806849,16.170000000000233,0.0005246765,16.170000000000233,6.400318e-06,16.170000000000233,5.597212e-06
16.185000000000233,0.0003810535,16.185000000000233,0.0002822382,16.185000000000233,5.860319e-06,16.185000000000233,5.546649e-06
16.200000000000234,0.0003696112,16.200000000000234,0.0001894654,16.200000000000234,5.746233e-06,16.200000000000234,5.441526e-06
16.215000000000234,0.0003538269,16.215000000000234,0.0001344651,16.215000000000234,5.278585e-06,16.215000000000234,5.462197e-06
16.230000000000235,0.0003498906,16.230000000000235,8.420362e-05,16.230000000000235,5.294573e-06,16.230000000000235,5.355417e-06
16.245000000000235,0.0003156786,16.245000000000235,7.301577e-05,16.245000000000235,5.211442e-06,16.245000000000235,5.203327e-06
16.260000000000236,0.0001939834,16.260000000000236,7.340311e-05,16.260000000000236,5.132455e-06,16.260000000000236,5.091119e-06
16.275000000000237,0.0001599674,16.275000000000237,7.052605e-05,16.275000000000237,5.143422e-06,16.275000000000237,5.049445e-06
16.290000000000237,0.0001655143,16.290000000000237,6.680147e-05,16.290000000000237,5.110451e-06,16.290000000000237,4.970719e-06
16.305000000000238,0.0001785028,16.305000000000238,5.81013e-05,16.305000000000238,5.278585e-06,16.305000000000238,4.75046e-06
16.32000000000024,0.0001832912,16.32000000000024,4.385589e-05,16.32000000000024,5.654801e-06,16.32000000000024,5.286585e-06
16.33500000000024,0.0001733193,16.33500000000024,4.203141e-05,16.33500000000024,5.521194e-06,16.33500000000024,5.342249e-06
16.35000000000024,0.0001658745,16.35000000000024,4.224135e-05,16.35000000000024,5.459618e-06,16.35000000000024,5.22494e-06
16.36500000000024,0.0001652575,16.36500000000024,4.201431e-05,16.36500000000024,5.490492e-06,16.36500000000024,5.286585e-06
16.38000000000024,0.0001659178,16.38000000000024,4.082223e-05,16.38000000000024,5.420777e-06,16.38000000000024,5.577042e-06
16.39500000000024,0.0001680246,16.39500000000024,4.039068e-05,16.39500000000024,5.423375e-06,16.39500000000024,5.634837e-06
16.41000000000024,0.0001714398,16.41000000000024,4.01921e-05,16.41000000000024,5.475077e-06,16.41000000000024,5.639834e-06
16.425000000000242,0.0001711122,16.425000000000242,4.026318e-05,16.425000000000242,5.577042e-06,16.425000000000242,5.699464e-06
16.440000000000243,0.0001679324,16.440000000000243,4.039277e-05,16.440000000000243,5.449287e-06,16.440000000000243,5.692045e-06
16.455000000000243,0.0001697663,16.455000000000243,3.718874e-05,16.455000000000243,5.559333e-06,16.455000000000243,5.684616e-06
16.470000000000244,0.0001766374,16.470000000000244,2.965711e-05,16.470000000000244,5.405162e-06,16.470000000000244,5.508422e-06
16.485000000000245,0.0001767799,16.485000000000245,2.863884e-05,16.485000000000245,5.342249e-06,16.485000000000245,5.814468e-06
16.500000000000245,0.0001575901,16.500000000000245,2.568587e-05,16.500000000000245,5.441526e-06,16.500000000000245,5.828986e-06
16.515000000000246,0.0001451236,16.515000000000246,1.989562e-05,16.515000000000246,5.853103e-06,16.515000000000246,6.002811e-06
16.530000000000246,0.000145313,16.530000000000246,1.689201e-05,16.530000000000246,5.843468e-06,16.530000000000246,6.01219e-06
16.545000000000247,0.0001366397,16.545000000000247,1.720762e-05,16.545000000000247,6.167175e-06,16.545000000000247,6.035575e-06
16.560000000000247,0.0001283745,16.560000000000247,1.866299e-05,16.560000000000247,6.148874e-06,16.560000000000247,5.438937e-06
16.575000000000248,0.0001293702,16.575000000000248,2.110566e-05,16.575000000000248,6.237581e-06,16.575000000000248,5.564399e-06
16.59000000000025,0.0001301171,16.59000000000025,2.031392e-05,16.59000000000025,6.57832e-06,16.59000000000025,5.674694e-06
16.60500000000025,0.0001298392,16.60500000000025,1.960677e-05,16.60500000000025,6.433248e-06,16.60500000000025,6.105191e-06
16.62000000000025,0.0001387436,16.62000000000025,2.039144e-05,16.62000000000025,6.520246e-06,16.62000000000025,5.934367e-06
16.63500000000025,0.0001454433,16.63500000000025,2.179456e-05,16.63500000000025,6.797376e-06,16.63500000000025,5.802342e-06
16.65000000000025,0.0001432775,16.65000000000025,2.221705e-05,16.65000000000025,7.283574e-06,16.65000000000025,6.089019e-06
16.66500000000025,0.0001343692,16.66500000000025,2.18707e-05,16.66500000000025,7.215565e-06,16.66500000000025,6.11211e-06
16.680000000000252,0.0001276168,16.680000000000252,2.294997e-05,16.680000000000252,7.190141e-06,16.680000000000252,6.148874e-06
16.695000000000253,0.0001251138,16.695000000000253,2.27397e-05,16.695000000000253,7.164627e-06,16.695000000000253,6.373853e-06
16.710000000000253,0.0001238332,16.710000000000253,2.275209e-05,16.710000000000253,7.238955e-06,16.710000000000253,6.400318e-06
16.725000000000254,0.0001121214,16.725000000000254,2.273536e-05,16.725000000000254,7.264208e-06,16.725000000000254,6.187698e-06
16.740000000000254,0.00010367,16.740000000000254,2.282194e-05,16.740000000000254,7.308674e-06,16.740000000000254,5.960421e-06
16.755000000000255,0.000105429,16.755000000000255,2.336423e-05,16.755000000000255,7.268085e-06,16.755000000000255,6.244353e-06
16.770000000000255,0.0001187711,16.770000000000255,2.373509e-05,16.770000000000255,7.27777e-06,16.770000000000255,6.035575e-06
16.785000000000256,0.0002701477,16.785000000000256,2.386058e-05,16.785000000000256,7.22337e-06,16.785000000000256,6.002811e-06
16.800000000000257,0.0003297279,16.800000000000257,2.351987e-05,16.800000000000257,6.924671e-06,16.800000000000257,6.005157e-06
16.815000000000257,0.0003898286,16.815000000000257,1.940674e-05,16.815000000000257,6.924671e-06,16.815000000000257,5.865124e-06
16.830000000000258,0.0004134347,16.830000000000258,1.700587e-05,16.830000000000258,6.409116e-06,16.830000000000258,5.659781e-06
16.845000000000258,0.0004515131,16.845000000000258,1.697353e-05,16.845000000000258,6.376062e-06,16.845000000000258,5.649817e-06
16.86000000000026,0.0004522783,16.86000000000026,1.694363e-05,16.86000000000026,6.435437e-06,16.86000000000026,5.425972e-06
16.87500000000026,0.0004571996,16.87500000000026,1.565144e-05,16.87500000000026,6.185421e-06,16.87500000000026,5.48279e-06
16.89000000000026,0.0004635887,16.89000000000026,1.503727e-05,16.89000000000026,6.730734e-06,16.89000000000026,5.392116e-06
16.90500000000026,0.0004647181,16.90500000000026,1.493481e-05,16.90500000000026,6.574036e-06,16.90500000000026,4.990517e-06
16.92000000000026,0.0004673847,16.92000000000026,1.46318e-05,16.92000000000026,6.684531e-06,16.92000000000026,5.230329e-06
16.93500000000026,0.0004673194,16.93500000000026,1.386865e-05,16.93500000000026,6.614623e-06,16.93500000000026,4.982041e-06
16.950000000000262,0.0004685803,16.950000000000262,1.385036e-05,16.950000000000262,6.452925e-06,16.950000000000262,4.887844e-06
16.965000000000263,0.0004725044,16.965000000000263,1.505599e-05,16.965000000000263,6.466009e-06,16.965000000000263,5.412975e-06
16.980000000000263,0.0004744694,16.980000000000263,1.592535e-05,16.980000000000263,6.840758e-06,16.980000000000263,5.56946e-06
16.995000000000264,0.000476088,16.995000000000264,1.689451e-05,16.995000000000264,6.906339e-06,16.995000000000264,5.905813e-06
17.010000000000264,0.0004754303,17.010000000000264,2.145649e-05,17.010000000000264,6.69506e-06,17.010000000000264,6.472542e-06
17.025000000000265,0.0004648557,17.025000000000265,2.458977e-05,17.025000000000265,6.561167e-06,17.025000000000265,6.906339e-06
17.040000000000266,0.0003716222,17.040000000000266,2.446342e-05,17.040000000000266,6.561167e-06,17.040000000000266,6.936866e-06
17.055000000000266,0.0003207051,17.055000000000266,2.457487e-05,17.055000000000266,6.561167e-06,17.055000000000266,7.123218e-06
17.070000000000267,0.0002840065,17.070000000000267,2.487965e-05,17.070000000000267,6.526725e-06,17.070000000000267,7.115304e-06
17.085000000000267,0.0002377523,17.085000000000267,2.555446e-05,17.085000000000267,6.415707e-06,17.085000000000267,7.063642e-06
17.100000000000268,0.0001931557,17.100000000000268,2.848842e-05,17.100000000000268,6.431058e-06,17.100000000000268,7.049668e-06
17.11500000000027,0.0001954796,17.11500000000027,2.84904e-05,17.11500000000027,6.33617e-06,17.11500000000027,6.983416e-06
17.13000000000027,0.0001702357,17.13000000000027,2.893246e-05,17.13000000000027,6.589018e-06,17.13000000000027,6.926705e-06
17.14500000000027,0.0001739114,17.14500000000027,2.935491e-05,17.14500000000027,5.869926e-06,17.14500000000027,7.011599e-06
17.16000000000027,0.000197878,17.16000000000027,2.971121e-05,17.16000000000027,5.943854e-06,17.16000000000027,6.830453e-06
17.17500000000027,0.000203044,17.17500000000027,2.986868e-05,17.17500000000027,5.804769e-06,17.17500000000027,6.703471e-06
17.19000000000027,0.0002066103,17.19000000000027,2.982903e-05,17.19000000000027,5.953326e-06,17.19000000000027,6.720261e-06
17.205000000000272,0.000215768,17.205000000000272,2.968987e-05,17.205000000000272,5.924864e-06,17.205000000000272,6.380479e-06
17.220000000000272,0.000214048,17.220000000000272,2.839233e-05,17.220000000000272,5.879517e-06,17.220000000000272,6.320588e-06
17.235000000000273,0.0002602996,17.235000000000273,0.000187917,17.235000000000273,5.262549e-06,17.235000000000273,6.102884e-06
17.250000000000274,0.0002790235,17.250000000000274,0.0002265047,17.250000000000274,5.441526e-06,17.250000000000274,5.281253e-06
17.265000000000274,0.000278712,17.265000000000274,0.0002784961,17.265000000000274,5.8867e-06,17.265000000000274,4.744526e-06
17.280000000000275,0.0002819773,17.280000000000275,0.0002887055,17.280000000000275,6.162605e-06,17.280000000000275,5.197909e-06
17.295000000000275,0.000306699,17.295000000000275,0.0002899259,17.295000000000275,6.148874e-06,17.295000000000275,5.273245e-06
17.310000000000276,0.0003356229,17.310000000000276,0.0002914605,17.310000000000276,6.208153e-06,17.310000000000276,5.227635e-06
17.325000000000276,0.000352392,17.325000000000276,0.0002928336,17.325000000000276,6.230803e-06,17.325000000000276,5.115961e-06
17.340000000000277,0.0003591253,17.340000000000277,0.0002937965,17.340000000000277,6.248863e-06,17.340000000000277,4.990517e-06
17.355000000000278,0.0003578951,17.355000000000278,0.0002936768,17.355000000000278,6.606099e-06,17.355000000000278,5.168013e-06
17.370000000000278,0.0003621568,17.370000000000278,0.0002936645,17.370000000000278,6.539662e-06,17.370000000000278,5.208738e-06
17.38500000000028,0.0003874527,17.38500000000028,0.0002936069,17.38500000000028,6.559019e-06,17.38500000000028,5.184341e-06
17.40000000000028,0.0003846375,17.40000000000028,0.0002942943,17.40000000000028,7.115304e-06,17.40000000000028,5.249148e-06
17.41500000000028,0.0003776292,17.41500000000028,0.0002951339,17.41500000000028,1.210727e-05,17.41500000000028,5.259872e-06
17.43000000000028,0.0003789718,17.43000000000028,0.0002954616,17.43000000000028,1.294073e-05,17.43000000000028,5.321112e-06
17.44500000000028,0.0003805881,17.44500000000028,0.0002965712,17.44500000000028,2.049411e-05,17.44500000000028,5.379038e-06
17.46000000000028,0.0003888171,17.46000000000028,0.0002972895,17.46000000000028,2.066046e-05,17.46000000000028,5.397339e-06
17.475000000000282,0.0003814951,17.475000000000282,0.0002969696,17.475000000000282,2.228795e-05,17.475000000000282,5.518642e-06
17.490000000000283,0.0003661588,17.490000000000283,0.0002005798,17.490000000000283,2.731356e-05,17.490000000000283,5.554263e-06
17.505000000000283,0.0003793559,17.505000000000283,0.0001571989,17.505000000000283,3.367836e-05,17.505000000000283,5.490492e-06
17.520000000000284,0.0003789075,17.520000000000284,9.424791e-05,17.520000000000284,3.398149e-05,17.520000000000284,5.032679e-06
17.535000000000284,0.0003762986,17.535000000000284,7.119796e-05,17.535000000000284,3.398025e-05,17.535000000000284,4.711753e-06
17.550000000000285,0.0003570486,17.550000000000285,6.738953e-05,17.550000000000285,3.405603e-05,17.550000000000285,4.654602e-06
17.565000000000285,0.000335118,17.565000000000285,6.417045e-05,17.565000000000285,3.415804e-05,17.565000000000285,4.75046e-06
17.580000000000286,0.0003568052,17.580000000000286,6.019496e-05,17.580000000000286,3.419225e-05,17.580000000000286,4.753424e-06
17.595000000000287,0.0005066316,17.595000000000287,5.960137e-05,17.595000000000287,3.418031e-05,17.595000000000287,4.768218e-06
17.610000000000287,0.0005577538,17.610000000000287,5.996824e-05,17.610000000000287,3.424371e-05,17.610000000000287,4.612038e-06
17.625000000000288,0.0006075883,17.625000000000288,6.034221e-05,17.625000000000288,3.429879e-05,17.625000000000288,4.538142e-06
17.64000000000029,0.0007357543,17.64000000000029,6.005532e-05,17.64000000000029,3.428688e-05,17.64000000000029,4.52882e-06
17.65500000000029,0.001296408,17.65500000000029,5.506146e-05,17.65500000000029,3.418937e-05,17.65500000000029,4.590608e-06
17.67000000000029,0.001458825,17.67000000000029,5.160238e-05,17.67000000000029,3.273706e-05,17.67000000000029,5.041069e-06
17.68500000000029,0.001462154,17.68500000000029,4.992633e-05,17.68500000000029,3.107206e-05,17.68500000000029,4.925167e-06
17.70000000000029,0.001487577,17.70000000000029,4.193074e-05,17.70000000000029,2.83839e-05,17.70000000000029,4.873412e-06
17.71500000000029,0.001537498,17.71500000000029,3.8707e-05,17.71500000000029,2.822963e-05,17.71500000000029,4.672725e-06
17.73000000000029,0.001565713,17.73000000000029,3.115537e-05,17.73000000000029,2.657324e-05,17.73000000000029,4.608983e-06
17.745000000000292,0.001568207,17.745000000000292,2.894268e-05,17.745000000000292,1.39527e-05,17.745000000000292,4.925167e-06
17.760000000000293,0.001566218,17.760000000000293,2.863441e-05,17.760000000000293,8.504177e-06,17.760000000000293,5.102175e-06
17.775000000000293,0.001566281,17.775000000000293,2.682019e-05,17.775000000000293,8.43599e-06,17.775000000000293,5.299891e-06
17.790000000000294,0.001566129,17.790000000000294,2.111567e-05,17.790000000000294,8.253678e-06,17.790000000000294,5.241091e-06
17.805000000000295,0.001566463,17.805000000000295,2.009359e-05,17.805000000000295,7.98652e-06,17.805000000000295,5.291911e-06
17.820000000000295,0.00156685,17.820000000000295,2.041629e-05,17.820000000000295,7.97063e-06,17.820000000000295,5.195198e-06
17.835000000000296,0.001548256,17.835000000000296,2.032848e-05,17.835000000000296,7.677153e-06,17.835000000000296,5.195198e-06
17.850000000000296,0.00149228,17.850000000000296,2.122812e-05,17.850000000000296,8.789276e-06,17.850000000000296,5.230329e-06
17.865000000000297,0.001476223,17.865000000000297,2.074348e-05,17.865000000000297,9.023361e-06,17.865000000000297,5.438937e-06
17.880000000000297,0.001426299,17.880000000000297,2.075705e-05,17.880000000000297,8.731387e-06,17.880000000000297,5.420777e-06
17.895000000000298,0.001265797,17.895000000000298,2.098988e-05,17.895000000000298,9.031162e-06,17.895000000000298,5.352786e-06
17.9100000000003,0.000789694,17.9100000000003,1.921342e-05,17.9100000000003,8.734614e-06,17.9100000000003,4.996159e-06
17.9250000000003,0.0005513264,17.9250000000003,1.898256e-05,17.9250000000003,8.795684e-06,17.9250000000003,4.782967e-06
17.9400000000003,0.0005451089,17.9400000000003,1.931579e-05,17.9400000000003,8.91183e-06,17.9400000000003,4.744526e-06
17.9550000000003,0.0004740672,17.9550000000003,1.7723e-05,17.9550000000003,9.759823e-06,17.9550000000003,4.890725e-06
17.9700000000003,0.0003359212,17.9700000000003,1.626406e-05,17.9700000000003,1.09938e-05,17.9700000000003,5.088352e-06
17.9850000000003,0.0002564316,17.9850000000003,1.77627e-05,17.9850000000003,1.272226e-05,17.9850000000003,4.916579e-06
18.000000000000302,0.0002433471,18.000000000000302,1.760658e-05,18.000000000000302,1.316199e-05,18.000000000000302,4.899358e-06
18.015000000000303,0.0002509824,18.015000000000303,1.739812e-05,18.015000000000303,1.335008e-05,18.015000000000303,4.893604e-06
18.030000000000303,0.0002594798,18.030000000000303,1.738354e-05,18.030000000000303,1.370929e-05,18.030000000000303,4.841512e-06
18.045000000000304,0.0002789868,18.045000000000304,1.708191e-05,18.045000000000304,1.443015e-05,18.045000000000304,4.965048e-06
18.060000000000304,0.0002748545,18.060000000000304,1.664757e-05,18.060000000000304,1.623372e-05,18.060000000000304,4.913713e-06
18.075000000000305,0.0002705932,18.075000000000305,1.648772e-05,18.075000000000305,1.619897e-05,18.075000000000305,4.93374e-06
18.090000000000305,0.0002610929,18.090000000000305,1.536073e-05,18.090000000000305,1.637971e-05,18.090000000000305,5.010237e-06
18.105000000000306,0.0002447285,18.105000000000306,1.39628e-05,18.105000000000306,1.574744e-05,18.105000000000306,5.137942e-06
18.120000000000307,0.0002386538,18.120000000000307,1.473254e-05,18.120000000000307,1.613711e-05,18.120000000000307,5.410373e-06
18.135000000000307,0.00022913,18.135000000000307,1.440084e-05,18.135000000000307,1.706623e-05,18.135000000000307,5.541568e-06
18.150000000000308,0.0002142527,18.150000000000308,1.443991e-05,18.150000000000308,1.724768e-05,18.150000000000308,5.549188e-06
18.16500000000031,0.0002160619,18.16500000000031,1.438126e-05,18.16500000000031,1.774127e-05,18.16500000000031,5.594695e-06
18.18000000000031,0.0002229641,18.18000000000031,1.421872e-05,18.18000000000031,1.802485e-05,18.18000000000031,5.927241e-06
18.19500000000031,0.0002297194,18.19500000000031,1.441648e-05,18.19500000000031,1.838466e-05,18.19500000000031,5.958057e-06
18.21000000000031,0.0002285966,18.21000000000031,1.452357e-05,18.21000000000031,1.909944e-05,18.21000000000031,5.714275e-06
18.22500000000031,0.0002242578,18.22500000000031,1.41203e-05,18.22500000000031,1.783551e-05,18.22500000000031,5.619817e-06
18.24000000000031,0.0002229453,18.24000000000031,1.259429e-05,18.24000000000031,2.062088e-05,18.24000000000031,5.845879e-06
18.25500000000031,0.0002166427,18.25500000000031,1.260435e-05,18.25500000000031,2.194208e-05,18.25500000000031,5.604757e-06
18.270000000000312,0.0002561927,18.270000000000312,1.287744e-05,18.270000000000312,2.350429e-05,18.270000000000312,5.551726e-06
18.285000000000313,0.0002558191,18.285000000000313,1.356571e-05,18.285000000000313,2.616618e-05,18.285000000000313,5.594695e-06
18.300000000000313,0.0002382774,18.300000000000313,1.344052e-05,18.300000000000313,3.268581e-05,18.300000000000313,5.824151e-06
18.315000000000314,0.0002403384,18.315000000000314,1.354388e-05,18.315000000000314,3.214477e-05,18.315000000000314,5.836232e-06
18.330000000000314,0.0002411773,18.330000000000314,1.315021e-05,18.330000000000314,3.243488e-05,18.330000000000314,5.953326e-06
18.345000000000315,0.0002427189,18.345000000000315,1.299938e-05,18.345000000000315,3.330866e-05,18.345000000000315,5.865124e-06
18.360000000000316,0.0002433511,18.360000000000316,1.291458e-05,18.360000000000316,4.361433e-05,18.360000000000316,6.082075e-06
18.375000000000316,0.0002555885,18.375000000000316,1.172184e-05,18.375000000000316,4.437414e-05,18.375000000000316,5.988714e-06
18.390000000000317,0.000276651,18.390000000000317,1.230233e-05,18.390000000000317,4.474182e-05,18.390000000000317,6.128222e-06
18.405000000000317,0.0002911053,18.405000000000317,1.222883e-05,18.405000000000317,4.602498e-05,18.405000000000317,6.48993e-06
18.420000000000318,0.0002922475,18.420000000000318,1.227941e-05,18.420000000000318,4.702116e-05,18.420000000000318,6.699267e-06
18.43500000000032,0.0003004371,18.43500000000032,1.193265e-05,18.43500000000032,4.745921e-05,18.43500000000032,7.205797e-06
18.45000000000032,0.0003079978,18.45000000000032,1.163983e-05,18.45000000000032,4.784793e-05,18.45000000000032,7.440475e-06
18.46500000000032,0.0003077478,18.46500000000032,1.188297e-05,18.46500000000032,4.89861e-05,18.46500000000032,7.647739e-06
18.48000000000032,0.000308943,18.48000000000032,1.322286e-05,18.48000000000032,5.313403e-05,18.48000000000032,7.719241e-06
18.49500000000032,0.0003077638,18.49500000000032,1.339012e-05,18.49500000000032,5.295903e-05,18.49500000000032,7.666136e-06
18.51000000000032,0.000299218,18.51000000000032,1.329192e-05,18.51000000000032,5.412325e-05,18.51000000000032,8.016449e-06
18.525000000000322,0.0002901885,18.525000000000322,1.315129e-05,18.525000000000322,5.321721e-05,18.525000000000322,8.43599e-06
18.540000000000322,0.0002805112,18.540000000000322,1.434792e-05,18.540000000000322,5.019618e-05,18.540000000000322,8.459336e-06
18.555000000000323,0.0002845868,18.555000000000323,1.431745e-05,18.555000000000323,5.027078e-05,18.555000000000323,8.630781e-06
18.570000000000324,0.0002850328,18.570000000000324,1.422962e-05,18.570000000000324,5.251267e-05,18.570000000000324,8.708772e-06
18.585000000000324,0.0002878726,18.585000000000324,1.43322e-05,18.585000000000324,5.2637e-05,18.585000000000324,8.715239e-06
18.600000000000325,0.0002832575,18.600000000000325,1.401617e-05,18.600000000000325,5.275115e-05,18.600000000000325,8.774839e-06
18.615000000000325,0.0002822985,18.615000000000325,1.402119e-05,18.615000000000325,4.799167e-05,18.615000000000325,8.832443e-06
18.630000000000326,0.0002693036,18.630000000000326,1.38849e-05,18.630000000000326,4.723428e-05,18.630000000000326,8.715239e-06
18.645000000000326,0.0002639539,18.645000000000326,1.32792e-05,18.645000000000326,4.653876e-05,18.645000000000326,8.671489e-06
18.660000000000327,0.0002545824,18.660000000000327,1.381574e-05,18.660000000000327,4.603019e-05,18.660000000000327,8.456004e-06
18.675000000000328,0.0003216546,18.675000000000328,1.411132e-05,18.675000000000328,4.5745e-05,18.675000000000328,8.262207e-06
18.690000000000328,0.0003489739,18.690000000000328,1.420088e-05,18.690000000000328,4.591896e-05,18.690000000000328,7.693649e-06
18.70500000000033,0.0003470871,18.70500000000033,1.400812e-05,18.70500000000033,4.530873e-05,18.70500000000033,7.417721e-06
18.72000000000033,0.0003490127,18.72000000000033,1.383917e-05,18.72000000000033,4.048439e-05,18.72000000000033,7.379642e-06
18.73500000000033,0.0003470076,18.73500000000033,1.252925e-05,18.73500000000033,3.810732e-05,18.73500000000033,7.273898e-06
18.75000000000033,0.0003442313,18.75000000000033,1.266233e-05,18.75000000000033,3.829612e-05,18.75000000000033,7.16266e-06
18.76500000000033,0.000321989,18.76500000000033,1.297335e-05,18.76500000000033,3.492071e-05,18.76500000000033,6.699267e-06
18.78000000000033,0.0003219981,18.78000000000033,1.264897e-05,18.78000000000033,3.555671e-05,18.78000000000033,6.070483e-06
18.795000000000332,0.0003449136,18.795000000000332,1.089987e-05,18.795000000000332,3.621967e-05,18.795000000000332,5.659781e-06
18.810000000000333,0.0003846413,18.810000000000333,1.085843e-05,18.810000000000333,3.653064e-05,18.810000000000333,5.360675e-06
18.825000000000333,0.0004108342,18.825000000000333,1.092697e-05,18.825000000000333,3.351399e-05,18.825000000000333,5.278585e-06
18.840000000000334,0.0004191776,18.840000000000334,1.097457e-05,18.840000000000334,3.359627e-05,18.840000000000334,4.896482e-06
18.855000000000334,0.0004196094,18.855000000000334,1.114018e-05,18.855000000000334,2.878945e-05,18.855000000000334,4.503868e-06
18.870000000000335,0.0004227267,18.870000000000335,1.141868e-05,18.870000000000335,2.701747e-05,18.870000000000335,4.192873e-06
18.885000000000336,0.0004229666,18.885000000000336,1.132454e-05,18.885000000000336,2.658755e-05,18.885000000000336,4.17604e-06
18.900000000000336,0.0004219434,18.900000000000336,1.133946e-05,18.900000000000336,2.589887e-05,18.900000000000336,4.189512e-06
18.915000000000337,0.0004148649,18.915000000000337,1.071478e-05,18.915000000000337,2.599171e-05,18.915000000000337,4.083948e-06
18.930000000000337,0.0003723451,18.930000000000337,1.078946e-05,18.930000000000337,2.8481e-05,18.930000000000337,4.0632e-06
18.945000000000338,0.0003718467,18.945000000000338,1.078554e-05,18.945000000000338,2.814967e-05,18.945000000000338,3.816494e-06
18.96000000000034,0.0003864414,18.96000000000034,1.077508e-05,18.96000000000034,3.154226e-05,18.96000000000034,3.715501e-06
18.97500000000034,0.0003909742,18.97500000000034,1.063295e-05,18.97500000000034,3.498036e-05,18.97500000000034,3.911283e-06
18.99000000000034,0.0003890187,18.99000000000034,1.03809e-05,18.99000000000034,3.755624e-05,18.99000000000034,3.92925e-06
19.00500000000034,0.0003857136,19.00500000000034,1.087658e-05,19.00500000000034,3.848912e-05,19.00500000000034,4.035369e-06
19.02000000000034,0.0003871487,19.02000000000034,1.086232e-05,19.02000000000034,3.860533e-05,19.02000000000034,4.135364e-06
19.03500000000034,0.0003917154,19.03500000000034,1.081293e-05,19.03500000000034,3.640472e-05,19.03500000000034,4.723696e-06
19.05000000000034,0.0003735618,19.05000000000034,1.096686e-05,19.05000000000034,3.660961e-05,19.05000000000034,4.902232e-06
19.065000000000342,0.0003480219,19.065000000000342,1.295705e-05,19.065000000000342,3.83134e-05,19.065000000000342,6.601833e-06
19.080000000000343,0.0003228393,19.080000000000343,1.359372e-05,19.080000000000343,4.021172e-05,19.080000000000343,6.951067e-06
19.095000000000343,0.0003030462,19.095000000000343,0.0001664115,19.095000000000343,4.453512e-05,19.095000000000343,7.099447e-06
19.110000000000344,0.000304349,19.110000000000344,0.0002344526,19.110000000000344,4.732783e-05,19.110000000000344,7.71011e-06
19.125000000000345,0.000286058,19.125000000000345,0.0003458099,19.125000000000345,4.763105e-05,19.125000000000345,7.913874e-06
19.140000000000345,0.0002818114,19.140000000000345,0.0003897914,19.140000000000345,4.776277e-05,19.140000000000345,8.274134e-06
19.155000000000346,0.000290607,19.155000000000346,0.0005156751,19.155000000000346,4.818443e-05,19.155000000000346,8.62425e-06
19.170000000000346,0.0002854048,19.170000000000346,0.0005279123,19.170000000000346,4.797641e-05,19.170000000000346,8.770023e-06
19.185000000000347,0.0002615787,19.185000000000347,0.0005416259,19.185000000000347,4.848083e-05,19.185000000000347,8.744285e-06
19.200000000000347,0.0002317819,19.200000000000347,0.0005579729,19.200000000000347,4.872285e-05,19.200000000000347,9.108818e-06
19.215000000000348,0.0002250902,19.215000000000348,0.0005632509,19.215000000000348,4.616434e-05,19.215000000000348,9.104177e-06
19.23000000000035,0.0002224399,19.23000000000035,0.000563392,19.23000000000035,4.545617e-05,19.23000000000035,9.343943e-06
19.24500000000035,0.0002229495,19.24500000000035,0.0005635865,19.24500000000035,4.479154e-05,19.24500000000035,9.925839e-06
19.26000000000035,0.0002220493,19.26000000000035,0.0005640437,19.26000000000035,4.491528e-05,19.26000000000035,9.86748e-06
19.27500000000035,0.0002281176,19.27500000000035,0.000564417,19.27500000000035,4.470371e-05,19.27500000000035,9.807338e-06
19.29000000000035,0.000219332,19.29000000000035,0.0005645588,19.29000000000035,4.47371e-05,19.29000000000035,9.583589e-06
19.30500000000035,0.0002130295,19.30500000000035,0.0005645569,19.30500000000035,4.335452e-05,19.30500000000035,9.624658e-06
19.320000000000352,0.0001917114,19.320000000000352,0.0005645868,19.320000000000352,4.040288e-05,19.320000000000352,9.139696e-06
19.335000000000353,0.0001883503,19.335000000000353,0.0005645021,19.335000000000353,4.186283e-05,19.335000000000353,8.990517e-06
19.350000000000353,0.0001820664,19.350000000000353,0.0005373807,19.350000000000353,3.737992e-05,19.350000000000353,8.779654e-06
19.365000000000354,0.0001686441,19.365000000000354,0.0004870406,19.365000000000354,3.432055e-05,19.365000000000354,8.358825e-06
19.380000000000354,0.0001552969,19.380000000000354,0.0004327662,19.380000000000354,3.469042e-05,19.380000000000354,8.265616e-06
19.395000000000355,0.0001422528,19.395000000000355,0.0003448595,19.395000000000355,3.641865e-05,19.395000000000355,7.425313e-06
19.410000000000355,0.0001343614,19.410000000000355,0.0002010775,19.410000000000355,3.558246e-05,19.410000000000355,7.542018e-06
19.425000000000356,0.0001317546,19.425000000000356,0.0001825306,19.425000000000356,3.574795e-05,19.425000000000356,7.586711e-06
19.440000000000357,0.0001284915,19.440000000000357,0.0001384039,19.440000000000357,3.135593e-05,19.440000000000357,7.534543e-06
19.455000000000357,0.000128337,19.455000000000357,7.896589e-05,19.455000000000357,3.07659e-05,19.455000000000357,7.069622e-06
19.470000000000358,0.0001270875,19.470000000000358,5.64605e-05,19.470000000000358,2.978224e-05,19.470000000000358,6.977362e-06
19.48500000000036,0.000124708,19.48500000000036,6.246495e-05,19.48500000000036,2.906653e-05,19.48500000000036,5.841057e-06
19.50000000000036,0.0001267322,19.50000000000036,9.599671e-05,19.50000000000036,2.523551e-05,19.50000000000036,5.763367e-06
19.51500000000036,0.0001211903,19.51500000000036,0.0001126917,19.51500000000036,2.481843e-05,19.51500000000036,5.782887e-06
19.53000000000036,0.0001077592,19.53000000000036,0.0001204426,19.53000000000036,2.439653e-05,19.53000000000036,5.908198e-06
19.54500000000036,0.0001209004,19.54500000000036,0.0001209677,19.54500000000036,2.402649e-05,19.54500000000036,5.955692e-06
19.56000000000036,0.0001256548,19.56000000000036,0.0001233727,19.56000000000036,2.40306e-05,19.56000000000036,5.577042e-06
19.57500000000036,0.0001764447,19.57500000000036,0.0001241171,19.57500000000036,2.351388e-05,19.57500000000036,4.732634e-06
19.590000000000362,0.0002091185,19.590000000000362,0.0001245096,19.590000000000362,1.772062e-05,19.590000000000362,4.738583e-06
19.605000000000363,0.0002028511,19.605000000000363,0.0001312268,19.605000000000363,1.742401e-05,19.605000000000363,4.696781e-06
19.620000000000363,0.000229543,19.620000000000363,0.0001494468,19.620000000000363,1.694695e-05,19.620000000000363,4.562907e-06
19.635000000000364,0.0002496087,19.635000000000364,0.000151459,19.635000000000364,1.20396e-05,19.635000000000364,4.660651e-06
19.650000000000365,0.0002529656,19.650000000000365,0.0001606255,19.650000000000365,1.107042e-05,19.650000000000365,4.73561e-06
19.665000000000365,0.0002529113,19.665000000000365,0.0001686165,19.665000000000365,9.328855e-06,19.665000000000365,4.20294e-06
19.680000000000366,0.0002545055,19.680000000000366,0.0001712292,19.680000000000366,9.21338e-06,19.680000000000366,4.272744e-06
19.695000000000366,0.0002582611,19.695000000000366,0.0001711582,19.695000000000366,9.221021e-06,19.695000000000366,4.590608e-06
19.710000000000367,0.0002649753,19.710000000000367,0.0001726722,19.710000000000367,9.497953e-06,19.710000000000367,4.684768e-06
19.725000000000367,0.0002654073,19.725000000000367,0.0001740642,19.725000000000367,8.952834e-06,19.725000000000367,4.711753e-06
19.740000000000368,0.0002651622,19.740000000000368,0.0001616616,19.740000000000368,7.242846e-06,19.740000000000368,4.593675e-06
19.75500000000037,0.0002654914,19.75500000000037,0.0001550684,19.75500000000037,6.975343e-06,19.75500000000037,4.630328e-06
19.77000000000037,0.0002693487,19.77000000000037,0.0001380015,19.77000000000037,6.762054e-06,19.77000000000037,4.599804e-06
19.78500000000037,0.0002669959,19.78500000000037,0.0001439435,19.78500000000037,6.64861e-06,19.78500000000037,4.485062e-06
19.80000000000037,0.0002614843,19.80000000000037,0.0001536363,19.80000000000037,6.026232e-06,19.80000000000037,4.302314e-06
19.81500000000037,0.0002547781,19.81500000000037,0.0001533116,19.81500000000037,5.809621e-06,19.81500000000037,4.242968e-06
19.83000000000037,0.0002095676,19.83000000000037,0.0001522032,19.83000000000037,5.884307e-06,19.83000000000037,4.162526e-06
19.845000000000372,0.0001869761,19.845000000000372,0.0001516315,19.845000000000372,5.893875e-06,19.845000000000372,4.135364e-06
19.860000000000372,0.0001851652,19.860000000000372,0.0001357531,19.860000000000372,5.857914e-06,19.860000000000372,4.077044e-06
19.875000000000373,0.0001551831,19.875000000000373,0.0001313042,19.875000000000373,6.070483e-06,19.875000000000373,3.860533e-06
19.890000000000374,0.0001289681,19.890000000000374,0.0001287207,19.890000000000374,6.141998e-06,19.890000000000374,3.84957e-06
19.905000000000374,0.0001302474,19.905000000000374,0.0001161029,19.905000000000374,6.167175e-06,19.905000000000374,3.79057e-06
19.920000000000375,0.0001314433,19.920000000000375,0.0001052876,19.920000000000375,6.57832e-06,19.920000000000375,3.726858e-06
19.935000000000375,0.0001250649,19.935000000000375,0.0001070672,19.935000000000375,6.556871e-06,19.935000000000375,3.677393e-06
19.950000000000376,0.0001195177,19.950000000000376,0.0001054244,19.950000000000376,6.556871e-06,19.950000000000376,3.241707e-06
19.965000000000376,9.930294e-05,19.965000000000376,0.0001053535,19.965000000000376,6.262374e-06,19.965000000000376,3.162522e-06
19.980000000000377,9.898139e-05,19.980000000000377,0.0001086998,19.980000000000377,6.513761e-06,19.980000000000377,3.035241e-06
19.995000000000378,9.810382e-05,19.995000000000378,0.0001099829,19.995000000000378,6.58688e-06,19.995000000000378,3.049133e-06
20.010000000000378,9.501691e-05,20.010000000000378,0.0001100035,20.010000000000378,6.481242e-06,20.010000000000378,3.062961e-06
20.02500000000038,8.97926e-05,20.02500000000038,0.0001075428,20.02500000000038,6.638008e-06,20.02500000000038,3.072146e-06
20.04000000000038,9.125705e-05,20.04000000000038,9.125968e-05,20.04000000000038,6.589018e-06,20.04000000000038,2.926552e-06
20.05500000000038,9.581413e-05,20.05500000000038,7.707151e-05,20.05500000000038,6.883865e-06,20.05500000000038,2.960054e-06
20.07000000000038,9.673958e-05,20.07000000000038,7.590925e-05,20.07000000000038,6.892046e-06,20.07000000000038,3.090432e-06
20.08500000000038,9.635775e-05,20.08500000000038,7.595582e-05,20.08500000000038,6.809799e-06,20.08500000000038,3.175857e-06
20.10000000000038,9.583001e-05,20.10000000000038,7.616158e-05,20.10000000000038,6.836638e-06,20.10000000000038,3.219907e-06
20.115000000000382,9.509248e-05,20.115000000000382,7.112591e-05,20.115000000000382,6.627389e-06,20.115000000000382,3.340158e-06
20.130000000000383,9.546756e-05,20.130000000000383,6.443793e-05,20.130000000000383,6.676097e-06,20.130000000000383,3.335938e-06
20.145000000000383,9.691372e-05,20.145000000000383,6.436335e-05,20.145000000000383,6.610363e-06,20.145000000000383,3.36955e-06
20.160000000000384,9.748516e-05,20.160000000000384,6.279671e-05,20.160000000000384,6.275856e-06,20.160000000000384,3.36955e-06
20.175000000000384,9.953488e-05,20.175000000000384,6.017624e-05,20.175000000000384,6.296025e-06,20.175000000000384,3.344373e-06
20.190000000000385,0.0001003629,20.190000000000385,4.258676e-05,20.190000000000385,6.316129e-06,20.190000000000385,3.431686e-06
20.205000000000386,0.0001020911,20.205000000000386,3.832664e-05,20.205000000000386,6.345057e-06,20.205000000000386,3.472492e-06
20.220000000000386,0.0001023258,20.220000000000386,3.119965e-05,20.220000000000386,6.155743e-06,20.220000000000386,3.564574e-06
20.235000000000387,0.0001015249,20.235000000000387,2.239074e-05,20.235000000000387,6.210422e-06,20.235000000000387,3.512824e-06
20.250000000000387,0.0001020547,20.250000000000387,1.876912e-05,20.250000000000387,6.135114e-06,20.250000000000387,3.599965e-06
20.265000000000388,0.0001002279,20.265000000000388,1.862748e-05,20.265000000000388,6.11902e-06,20.265000000000388,3.603876e-06
20.28000000000039,8.954659e-05,20.28000000000039,1.795516e-05,20.28000000000039,6.144291e-06,20.28000000000039,3.572469e-06
20.29500000000039,0.0001007656,20.29500000000039,1.807324e-05,20.29500000000039,5.988714e-06,20.29500000000039,3.54476e-06
20.31000000000039,0.0001035649,20.31000000000039,1.828247e-05,20.31000000000039,5.516089e-06,20.31000000000039,3.448066e-06
20.32500000000039,0.0001038223,20.32500000000039,1.835936e-05,20.32500000000039,5.579567e-06,20.32500000000039,3.40283e-06
20.34000000000039,0.0001121949,20.34000000000039,1.83655e-05,20.34000000000039,5.539025e-06,20.34000000000039,3.464369e-06
20.35500000000039,0.0001106241,20.35500000000039,1.835629e-05,20.35500000000039,5.56946e-06,20.35500000000039,3.464369e-06
20.370000000000392,0.0001099858,20.370000000000392,1.839156e-05,20.370000000000392,5.891484e-06,20.370000000000392,3.54476e-06
20.385000000000392,0.0001094056,20.385000000000392,1.825549e-05,20.385000000000392,5.922486e-06,20.385000000000392,3.496747e-06
20.400000000000393,0.0001110879,20.400000000000393,1.809583e-05,20.400000000000393,5.988714e-06,20.400000000000393,3.419349e-06
20.415000000000393,0.0001087666,20.415000000000393,1.742886e-05,20.415000000000393,6.338393e-06,20.415000000000393,3.427579e-06
20.430000000000394,0.0001087605,20.430000000000394,1.708933e-05,20.430000000000394,6.275856e-06,20.430000000000394,3.472492e-06
20.445000000000395,0.0001189788,20.445000000000395,1.663063e-05,20.445000000000395,6.463831e-06,20.445000000000395,3.57641e-06
20.460000000000395,0.0001363455,20.460000000000395,1.699924e-05,20.460000000000395,6.584741e-06,20.460000000000395,3.615583e-06
20.475000000000396,0.0001425634,20.475000000000396,1.711486e-05,20.475000000000396,6.832516e-06,20.475000000000396,3.677393e-06
20.490000000000396,0.0001632597,20.490000000000396,1.466929e-05,20.490000000000396,6.789081e-06,20.490000000000396,3.719291e-06
20.505000000000397,0.0001774993,20.505000000000397,1.434596e-05,20.505000000000397,6.892046e-06,20.505000000000397,3.665883e-06
20.520000000000397,0.0001789981,20.520000000000397,1.434792e-05,20.520000000000397,7.021637e-06,20.520000000000397,3.786851e-06
20.535000000000398,0.000179487,20.535000000000398,1.484114e-05,20.535000000000398,6.799448e-06,20.535000000000398,3.900464e-06
20.5500000000004,0.0001704458,20.5500000000004,1.421971e-05,20.5500000000004,6.951067e-06,20.5500000000004,3.914884e-06
20.5650000000004,0.0001690355,20.5650000000004,1.558469e-05,20.5650000000004,6.908378e-06,20.5650000000004,3.936414e-06
20.5800000000004,0.0001701615,20.5800000000004,1.571969e-05,20.5800000000004,6.898175e-06,20.5800000000004,3.911283e-06
20.5950000000004,0.0001637182,20.5950000000004,1.548404e-05,20.5950000000004,6.989465e-06,20.5950000000004,3.882364e-06
20.6100000000004,0.000161035,20.6100000000004,1.550949e-05,20.6100000000004,6.883865e-06,20.6100000000004,3.756974e-06
20.6250000000004,0.0001608786,20.6250000000004,1.600476e-05,20.6250000000004,6.616753e-06,20.6250000000004,3.979125e-06
20.640000000000402,0.0001596019,20.640000000000402,1.57161e-05,20.640000000000402,6.595429e-06,20.640000000000402,4.083948e-06
20.655000000000403,0.0001572308,20.655000000000403,1.567032e-05,20.655000000000403,6.487759e-06,20.655000000000403,4.087396e-06
20.670000000000403,0.0001569565,20.670000000000403,1.700339e-05,20.670000000000403,6.248863e-06,20.670000000000403,4.077044e-06
20.685000000000404,0.0001550329,20.685000000000404,1.522717e-05,20.685000000000404,6.21269e-06,20.685000000000404,4.114875e-06
20.700000000000404,0.0001414485,20.700000000000404,1.591119e-05,20.700000000000404,5.946224e-06,20.700000000000404,3.91848e-06
20.715000000000405,0.0001219144,20.715000000000405,1.658568e-05,20.715000000000405,5.748683e-06,20.715000000000405,3.882364e-06
20.730000000000405,0.0001098209,20.730000000000405,1.657378e-05,20.730000000000405,5.339611e-06,20.730000000000405,3.809105e-06
20.745000000000406,8.602384e-05,20.745000000000406,1.630472e-05,20.745000000000406,5.28392e-06,20.745000000000406,3.878734e-06
20.760000000000407,5.559637e-05,20.760000000000407,1.629694e-05,20.760000000000407,5.235713e-06,20.760000000000407,3.99326e-06
20.775000000000407,5.515323e-05,20.775000000000407,1.672102e-05,20.775000000000407,5.066156e-06,20.775000000000407,3.749468e-06
20.790000000000408,5.136406e-05,20.790000000000408,1.65048e-05,20.790000000000408,5.066156e-06,20.790000000000408,3.764466e-06
20.80500000000041,5.008324e-05,20.80500000000041,1.665095e-05,20.80500000000041,4.782967e-06,20.80500000000041,3.711708e-06
20.82000000000041,4.584589e-05,20.82000000000041,1.597921e-05,20.82000000000041,5.278585e-06,20.82000000000041,3.79057e-06
20.83500000000041,4.471064e-05,20.83500000000041,1.609778e-05,20.83500000000041,5.178904e-06,20.83500000000041,3.771943e-06
20.85000000000041,4.415073e-05,20.85000000000041,1.623546e-05,20.85000000000041,5.365928e-06,20.85000000000041,3.838577e-06
20.86500000000041,4.40338e-05,20.86500000000041,1.66611e-05,20.86500000000041,5.659781e-06,20.86500000000041,4.246287e-06
20.88000000000041,4.544501e-05,20.88000000000041,1.656613e-05,20.88000000000041,5.787757e-06,20.88000000000041,4.01437e-06
20.89500000000041,4.524743e-05,20.89500000000041,1.81417e-05,20.89500000000041,5.719203e-06,20.89500000000041,3.900464e-06
20.910000000000412,4.652604e-05,20.910000000000412,1.819829e-05,20.910000000000412,5.649817e-06,20.910000000000412,3.878734e-06
20.925000000000413,4.618082e-05,20.925000000000413,1.689201e-05,20.925000000000413,5.597212e-06,20.925000000000413,3.801702e-06
20.940000000000413,4.451646e-05,20.940000000000413,1.705219e-05,20.940000000000413,5.860319e-06,20.940000000000413,3.786851e-06
20.955000000000414,4.37591e-05,20.955000000000414,1.617722e-05,20.955000000000414,5.901041e-06,20.955000000000414,3.79057e-06
20.970000000000415,4.395536e-05,20.970000000000415,1.587751e-05,20.970000000000415,5.986361e-06,20.970000000000415,3.756974e-06
20.985000000000415,4.469551e-05,20.985000000000415,1.577247e-05,20.985000000000415,6.08439e-06,20.985000000000415,3.797995e-06
21.000000000000416,4.651363e-05,21.000000000000416,1.554487e-05,21.000000000000416,6.068162e-06,21.000000000000416,3.711708e-06
21.015000000000416,4.69339e-05,21.015000000000416,1.578497e-05,21.015000000000416,5.974584e-06,21.015000000000416,3.603876e-06
21.030000000000417,4.69843e-05,21.030000000000417,1.528903e-05,21.030000000000417,5.993417e-06,21.030000000000417,3.658189e-06
21.045000000000417,4.770552e-05,21.045000000000417,1.502696e-05,21.045000000000417,6.11902e-06,21.045000000000417,3.615583e-06
21.060000000000418,4.959796e-05,21.060000000000418,1.549131e-05,21.060000000000418,6.338393e-06,21.060000000000418,3.658189e-06
21.07500000000042,4.86117e-05,21.07500000000042,1.499975e-05,21.07500000000042,6.196798e-06,21.07500000000042,3.635012e-06
21.09000000000042,4.905019e-05,21.09000000000042,1.493575e-05,21.09000000000042,6.244353e-06,21.09000000000042,3.681221e-06
21.10500000000042,4.940245e-05,21.10500000000042,1.471627e-05,21.10500000000042,6.01219e-06,21.10500000000042,3.524834e-06
21.12000000000042,5.495442e-05,21.12000000000042,1.394362e-05,21.12000000000042,5.799914e-06,21.12000000000042,3.122176e-06
21.13500000000042,5.421712e-05,21.13500000000042,1.388997e-05,21.13500000000042,6.125922e-06,21.13500000000042,3.202359e-06
21.15000000000042,5.70949e-05,21.15000000000042,1.185567e-05,21.15000000000042,6.146583e-06,21.15000000000042,3.122176e-06
21.165000000000422,6.279985e-05,21.165000000000422,1.238109e-05,21.165000000000422,6.264623e-06,21.165000000000422,3.184716e-06
21.180000000000422,6.990231e-05,21.180000000000422,1.254722e-05,21.180000000000422,6.496438e-06,21.180000000000422,3.180289e-06
21.195000000000423,7.258543e-05,21.195000000000423,1.254722e-05,21.195000000000423,6.338393e-06,21.195000000000423,3.175857e-06
21.210000000000424,7.47751e-05,21.210000000000424,1.270675e-05,21.210000000000424,6.398117e-06,21.210000000000424,3.241707e-06
21.225000000000424,7.702324e-05,21.225000000000424,1.334164e-05,21.225000000000424,6.255622e-06,21.225000000000424,3.344373e-06
21.240000000000425,7.574038e-05,21.240000000000425,1.400008e-05,21.240000000000425,6.280343e-06,21.240000000000425,3.771943e-06
21.255000000000425,7.728049e-05,21.255000000000425,1.426324e-05,21.255000000000425,6.448557e-06,21.255000000000425,3.730636e-06
21.270000000000426,7.69462e-05,21.270000000000426,1.38412e-05,21.270000000000426,6.692956e-06,21.270000000000426,3.805405e-06
21.285000000000426,7.810853e-05,21.285000000000426,1.380452e-05,21.285000000000426,6.692956e-06,21.285000000000426,3.957827e-06
21.300000000000427,7.796358e-05,21.300000000000427,1.374418e-05,21.300000000000427,6.537507e-06,21.300000000000427,4.01437e-06
21.315000000000428,7.858859e-05,21.315000000000428,1.253149e-05,21.315000000000428,6.093644e-06,21.315000000000428,3.979125e-06
21.330000000000428,8.359196e-05,21.330000000000428,1.271673e-05,21.330000000000428,6.105191e-06,21.330000000000428,4.097722e-06
21.34500000000043,8.356768e-05,21.34500000000043,1.225989e-05,21.34500000000043,6.158032e-06,21.34500000000043,4.279333e-06
21.36000000000043,8.275615e-05,21.36000000000043,1.222422e-05,21.36000000000043,6.13052e-06,21.36000000000043,4.29576e-06
21.37500000000043,8.931457e-05,21.37500000000043,1.249209e-05,21.37500000000043,6.221753e-06,21.37500000000043,4.593675e-06
21.39000000000043,9.428452e-05,21.39000000000043,1.24966e-05,21.39000000000043,5.93674e-06,21.39000000000043,4.572159e-06
21.40500000000043,0.0001042618,21.40500000000043,1.221846e-05,21.40500000000043,6.367219e-06,21.40500000000043,4.590608e-06
21.42000000000043,0.000103142,21.42000000000043,1.15304e-05,21.42000000000043,6.327271e-06,21.42000000000043,4.687774e-06
21.435000000000432,0.0001077358,21.435000000000432,1.293202e-05,21.435000000000432,6.481242e-06,21.435000000000432,4.711753e-06
21.450000000000433,0.0001167343,21.450000000000433,1.285554e-05,21.450000000000433,6.435437e-06,21.450000000000433,4.73561e-06
21.465000000000433,0.0001330878,21.465000000000433,1.285773e-05,21.465000000000433,6.625263e-06,21.465000000000433,4.608983e-06
21.480000000000434,0.0001462686,21.480000000000434,1.213981e-05,21.480000000000434,7.337527e-06,21.480000000000434,4.838602e-06
21.495000000000434,0.0001483408,21.495000000000434,1.171222e-05,21.495000000000434,8.686096e-06,21.495000000000434,4.809401e-06
21.510000000000435,0.0001530055,21.510000000000435,1.209912e-05,21.510000000000435,9.303149e-06,21.510000000000435,5.057808e-06
21.525000000000436,0.0001675635,21.525000000000436,1.242765e-05,21.525000000000436,9.254569e-06,21.525000000000436,5.143422e-06
21.540000000000436,0.0001805229,21.540000000000436,1.275544e-05,21.540000000000436,9.512773e-06,21.540000000000436,4.967884e-06
21.555000000000437,0.0001860598,21.555000000000437,1.292657e-05,21.555000000000437,9.648047e-06,21.555000000000437,5.00461e-06
21.570000000000437,0.0001873569,21.570000000000437,1.285883e-05,21.570000000000437,9.848904e-06,21.570000000000437,5.029879e-06
21.585000000000438,0.0001865091,21.585000000000438,1.264786e-05,21.585000000000438,9.837455e-06,21.585000000000438,4.922306e-06
21.60000000000044,0.0001869602,21.60000000000044,1.265009e-05,21.60000000000044,1.006676e-05,21.60000000000044,5.013047e-06
21.61500000000044,0.0001894083,21.61500000000044,1.279954e-05,21.61500000000044,1.008773e-05,21.61500000000044,4.982041e-06
21.63000000000044,0.0001864315,21.63000000000044,1.231492e-05,21.63000000000044,1.0505e-05,21.63000000000044,4.765263e-06
21.64500000000044,0.000181123,21.64500000000044,1.342584e-05,21.64500000000044,1.039446e-05,21.64500000000044,4.762306e-06
21.66000000000044,0.0001778947,21.66000000000044,1.357713e-05,21.66000000000044,1.015869e-05,21.66000000000044,4.856038e-06
21.67500000000044,0.0001805355,21.67500000000044,1.343947e-05,21.67500000000044,1.05545e-05,21.67500000000044,4.824024e-06
21.690000000000442,0.0001860294,21.690000000000442,1.169055e-05,21.690000000000442,1.093084e-05,21.690000000000442,4.815255e-06
21.705000000000442,0.0001819861,21.705000000000442,1.132578e-05,21.705000000000442,1.117301e-05,21.705000000000442,4.838602e-06
21.720000000000443,0.0001700222,21.720000000000443,1.146792e-05,21.720000000000443,1.108441e-05,21.720000000000443,5.154366e-06
21.735000000000444,0.0001626592,21.735000000000444,1.155603e-05,21.735000000000444,1.046873e-05,21.735000000000444,4.95937e-06
21.750000000000444,0.0001615564,21.750000000000444,1.131583e-05,21.750000000000444,9.375548e-06,21.750000000000444,4.890725e-06
21.765000000000445,0.0001583006,21.765000000000445,1.090374e-05,21.765000000000445,9.417524e-06,21.765000000000445,4.68176e-06
21.780000000000445,0.0001427912,21.780000000000445,1.061174e-05,21.780000000000445,1.037004e-05,21.780000000000445,4.572159e-06
21.795000000000446,0.0001253618,21.795000000000446,1.086362e-05,21.795000000000446,1.03019e-05,21.795000000000446,4.648545e-06
21.810000000000446,0.0001229799,21.810000000000446,1.05358e-05,21.810000000000446,1.051573e-05,21.810000000000446,4.630328e-06
21.825000000000447,0.0001224829,21.825000000000447,1.014482e-05,21.825000000000447,1.070952e-05,21.825000000000447,4.639445e-06
21.840000000000447,0.0001230492,21.840000000000447,1.016147e-05,21.840000000000447,1.089211e-05,21.840000000000447,4.497608e-06
21.855000000000448,0.0001245484,21.855000000000448,1.018224e-05,21.855000000000448,1.190074e-05,21.855000000000448,4.535037e-06
21.87000000000045,0.0001255871,21.87000000000045,1.020021e-05,21.87000000000045,1.354596e-05,21.87000000000045,4.575239e-06
21.88500000000045,0.0001250247,21.88500000000045,9.509811e-06,21.88500000000045,1.353764e-05,21.88500000000045,4.633369e-06
21.90000000000045,0.0001237825,21.90000000000045,8.55208e-06,21.90000000000045,1.386154e-05,21.90000000000045,4.627284e-06
21.91500000000045,0.0001224241,21.91500000000045,8.532291e-06,21.91500000000045,1.388287e-05,21.91500000000045,4.569077e-06
21.93000000000045,0.0001186719,21.93000000000045,8.373978e-06,21.93000000000045,1.39527e-05,21.93000000000045,4.596741e-06
21.94500000000045,0.0001041871,21.94500000000045,8.313199e-06,21.94500000000045,1.481834e-05,21.94500000000045,4.907976e-06
21.960000000000452,9.724528e-05,21.960000000000452,8.269024e-06,21.960000000000452,1.495931e-05,21.960000000000452,4.973552e-06
21.975000000000453,9.497138e-05,21.975000000000453,8.262207e-06,21.975000000000453,1.538181e-05,21.975000000000453,4.434525e-06
21.990000000000453,9.521506e-05,21.990000000000453,8.258797e-06,21.990000000000453,1.542753e-05,21.990000000000453,4.491339e-06
22.005000000000454,9.58184e-05,22.005000000000454,8.440998e-06,22.005000000000454,1.546583e-05,22.005000000000454,4.982041e-06
22.020000000000454,9.650061e-05,22.020000000000454,8.402527e-06,22.020000000000454,1.656528e-05,22.020000000000454,5.038274e-06
22.035000000000455,9.775471e-05,22.035000000000455,8.444335e-06,22.035000000000455,1.615979e-05,22.035000000000455,5.438937e-06
22.050000000000455,0.0001015052,22.050000000000455,7.800928e-06,22.050000000000455,1.620071e-05,22.050000000000455,5.399948e-06
22.065000000000456,0.0001016191,22.065000000000456,7.917432e-06,22.065000000000456,1.600828e-05,22.065000000000456,5.355417e-06
22.080000000000457,0.000100956,22.080000000000457,8.197163e-06,22.080000000000457,1.565863e-05,22.080000000000457,5.302549e-06
22.095000000000457,0.0001020467,22.095000000000457,8.489256e-06,22.095000000000457,1.560818e-05,22.095000000000457,5.323759e-06
22.110000000000458,9.943236e-05,22.110000000000458,7.998858e-06,22.110000000000458,1.397893e-05,22.110000000000458,5.251831e-06
22.12500000000046,9.872019e-05,22.12500000000046,8.241723e-06,22.12500000000046,1.449055e-05,22.12500000000046,5.376418e-06
22.14000000000046,0.000101472,22.14000000000046,8.221186e-06,22.14000000000046,1.401315e-05,22.14000000000046,5.259872e-06
22.15500000000046,0.0001004269,22.15500000000046,8.36893e-06,22.15500000000046,1.398095e-05,22.15500000000046,5.516089e-06
22.17000000000046,9.972279e-05,22.17000000000046,8.444335e-06,22.17000000000046,1.368254e-05,22.17000000000046,5.629835e-06
22.18500000000046,0.0001041027,22.18500000000046,8.571823e-06,22.18500000000046,1.275433e-05,22.18500000000046,5.743781e-06
22.20000000000046,0.0001033176,22.20000000000046,8.616079e-06,22.20000000000046,1.203141e-05,22.20000000000046,5.523745e-06
22.21500000000046,0.0001040656,22.21500000000046,8.805288e-06,22.21500000000046,1.180327e-05,22.21500000000046,5.462197e-06
22.230000000000462,0.0001079841,22.230000000000462,8.891258e-06,22.230000000000462,1.156577e-05,22.230000000000462,5.498184e-06
22.245000000000463,0.000109857,22.245000000000463,1.020021e-05,22.245000000000463,1.159983e-05,22.245000000000463,5.176183e-06
22.260000000000463,0.00010531,22.260000000000463,1.016147e-05,22.260000000000463,1.172424e-05,22.260000000000463,5.137942e-06
22.275000000000464,0.000103356,22.275000000000464,1.030326e-05,22.275000000000464,9.897414e-06,22.275000000000464,4.788854e-06
22.290000000000465,0.000104655,22.290000000000465,1.142115e-05,22.290000000000465,9.701918e-06,22.290000000000465,4.696781e-06
22.305000000000465,0.0001034255,22.305000000000465,1.164467e-05,22.305000000000465,9.857482e-06,22.305000000000465,4.785911e-06
22.320000000000466,0.0001040296,22.320000000000466,1.149369e-05,22.320000000000466,9.925839e-06,22.320000000000466,4.82986e-06
22.335000000000466,0.0001052102,22.335000000000466,1.127342e-05,22.335000000000466,1.00975e-05,22.335000000000466,4.821102e-06
22.350000000000467,0.0001079041,22.350000000000467,1.120951e-05,22.350000000000467,9.820256e-06,22.350000000000467,4.675739e-06
22.365000000000467,0.0001099615,22.365000000000467,1.126592e-05,22.365000000000467,9.668466e-06,22.365000000000467,4.711753e-06
22.380000000000468,0.000117309,22.380000000000468,1.109965e-05,22.380000000000468,9.917319e-06,22.380000000000468,4.785911e-06
22.39500000000047,0.0001220711,22.39500000000047,1.116166e-05,22.39500000000047,1.003592e-05,22.39500000000047,4.982041e-06
22.41000000000047,0.0001305325,22.41000000000047,1.128092e-05,22.41000000000047,1.030873e-05,22.41000000000047,4.75046e-06
22.42500000000047,0.0001356289,22.42500000000047,1.129714e-05,22.42500000000047,1.04889e-05,22.42500000000047,4.485062e-06
22.44000000000047,0.0001386924,22.44000000000047,1.135311e-05,22.44000000000047,1.059447e-05,22.44000000000047,4.302314e-06
22.45500000000047,0.0001395393,22.45500000000047,1.146915e-05,22.45500000000047,1.043369e-05,22.45500000000047,4.373753e-06
22.47000000000047,0.000138754,22.47000000000047,1.150839e-05,22.47000000000047,1.075284e-05,22.47000000000047,4.440873e-06
22.485000000000472,0.0001386194,22.485000000000472,1.200797e-05,22.485000000000472,1.072398e-05,22.485000000000472,4.389827e-06
22.500000000000473,0.000138416,22.500000000000473,1.109838e-05,22.500000000000473,1.038768e-05,22.500000000000473,4.4377e-06
22.515000000000473,0.0001456342,22.515000000000473,1.11212e-05,22.515000000000473,1.015037e-05,22.515000000000473,4.525708e-06
22.530000000000474,0.0001438245,22.530000000000474,1.086362e-05,22.530000000000474,1.026903e-05,22.530000000000474,4.618143e-06
22.545000000000474,0.000144974,22.545000000000474,9.611476e-06,22.545000000000474,1.046604e-05,22.545000000000474,4.47563e-06
22.560000000000475,0.0001425368,22.560000000000475,9.612942e-06,22.560000000000475,1.076069e-05,22.560000000000475,4.510119e-06
22.575000000000475,0.0001421043,22.575000000000475,9.797278e-06,22.575000000000475,1.082595e-05,22.575000000000475,4.538142e-06
22.590000000000476,0.0001412513,22.590000000000476,9.825992e-06,22.590000000000476,1.076462e-05,22.590000000000476,4.666692e-06
22.605000000000476,0.0001365528,22.605000000000476,9.834591e-06,22.605000000000476,1.084155e-05,22.605000000000476,4.696781e-06
22.620000000000477,0.0001383974,22.620000000000477,1.014759e-05,22.620000000000477,9.614407e-06,22.620000000000477,4.636408e-06
22.635000000000478,0.0001309151,22.635000000000478,1.05358e-05,22.635000000000478,9.701918e-06,22.635000000000478,4.272744e-06
22.650000000000478,0.0001261194,22.650000000000478,1.04889e-05,22.650000000000478,9.487566e-06,22.650000000000478,4.226336e-06
22.66500000000048,0.0001200715,22.66500000000048,1.059181e-05,22.66500000000048,9.339419e-06,22.66500000000048,4.239647e-06
22.68000000000048,0.0001158101,22.68000000000048,1.075153e-05,22.68000000000048,9.366529e-06,22.68000000000048,4.440873e-06
22.69500000000048,0.0001071118,22.69500000000048,1.070294e-05,22.69500000000048,9.450374e-06,22.69500000000048,4.466178e-06
22.71000000000048,0.000107663,22.71000000000048,1.043639e-05,22.71000000000048,9.562988e-06,22.71000000000048,4.544346e-06
22.72500000000048,0.0001085159,22.72500000000048,1.013787e-05,22.72500000000048,8.881747e-06,22.72500000000048,4.500739e-06
22.74000000000048,0.0001099236,22.74000000000048,9.607078e-06,22.74000000000048,9.023361e-06,22.74000000000048,4.367307e-06
22.755000000000482,0.0001099692,22.755000000000482,1.147775e-05,22.755000000000482,9.107272e-06,22.755000000000482,4.249604e-06
22.770000000000483,0.0001033382,22.770000000000483,1.182236e-05,22.770000000000483,8.76681e-06,22.770000000000483,4.145571e-06
22.785000000000483,0.0001023813,22.785000000000483,1.195388e-05,22.785000000000483,8.68934e-06,22.785000000000483,4.179412e-06
22.800000000000484,0.0001017489,22.800000000000484,1.184616e-05,22.800000000000484,7.977696e-06,22.800000000000484,4.34467e-06
22.815000000000484,0.0001039197,22.815000000000484,1.169898e-05,22.815000000000484,7.874616e-06,22.815000000000484,4.424985e-06
22.830000000000485,0.0001066222,22.830000000000485,1.168694e-05,22.830000000000485,7.878193e-06,22.830000000000485,5.22494e-06
22.845000000000486,0.0001079275,22.845000000000486,1.165193e-05,22.845000000000486,7.8907e-06,22.845000000000486,5.446701e-06
22.860000000000486,0.0001088,22.860000000000486,1.142115e-05,22.860000000000486,8.25709e-06,22.860000000000486,5.363302e-06
22.875000000000487,0.0001117421,22.875000000000487,1.106915e-05,22.875000000000487,8.98895e-06,22.875000000000487,5.674694e-06
22.890000000000487,0.0001116871,22.890000000000487,1.129963e-05,22.890000000000487,8.884918e-06,22.890000000000487,5.922486e-06
22.905000000000488,0.0001106623,22.905000000000488,1.123086e-05,22.905000000000488,8.835633e-06,22.905000000000488,5.927241e-06
22.92000000000049,0.0001078082,22.92000000000049,1.142238e-05,22.92000000000049,8.682853e-06,22.92000000000049,5.855509e-06
22.93500000000049,0.0001093567,22.93500000000049,1.25775e-05,22.93500000000049,8.656856e-06,22.93500000000049,5.775575e-06
22.95000000000049,0.0001148817,22.95000000000049,1.414024e-05,22.95000000000049,8.480955e-06,22.95000000000049,6.257873e-06
22.96500000000049,0.0001213079,22.96500000000049,1.452163e-05,22.96500000000049,8.402527e-06,22.96500000000049,6.269119e-06
22.98000000000049,0.0001270031,22.98000000000049,1.683939e-05,22.98000000000049,8.400851e-06,22.98000000000049,6.442001e-06
22.99500000000049,0.0001260226,22.99500000000049,1.759697e-05,22.99500000000049,8.37566e-06,22.99500000000049,6.466009e-06
23.010000000000492,0.0001297548,23.010000000000492,1.658908e-05,23.010000000000492,8.456004e-06,23.010000000000492,6.533196e-06
23.025000000000492,0.0001350712,23.025000000000492,1.742482e-05,23.025000000000492,8.845193e-06,23.025000000000492,6.644371e-06
23.040000000000493,0.0001569838,23.040000000000493,1.780073e-05,23.040000000000493,8.960697e-06,23.040000000000493,6.561167e-06
23.055000000000494,0.0001819253,23.055000000000494,1.918921e-05,23.055000000000494,9.104177e-06,23.055000000000494,6.439814e-06
23.070000000000494,0.0001819446,23.070000000000494,1.928806e-05,23.070000000000494,8.965412e-06,23.070000000000494,6.289309e-06
23.085000000000495,0.0001815903,23.085000000000495,1.984813e-05,23.085000000000495,9.012426e-06,23.085000000000495,5.614802e-06
23.100000000000495,0.0001819616,23.100000000000495,1.998323e-05,23.100000000000495,8.91973e-06,23.100000000000495,5.799914e-06
23.115000000000496,0.0001918831,23.115000000000496,2.007185e-05,23.115000000000496,7.786468e-06,23.115000000000496,5.874723e-06
23.130000000000496,0.0002068578,23.130000000000496,2.041146e-05,23.130000000000496,7.842351e-06,23.130000000000496,5.682137e-06
23.145000000000497,0.0002160449,23.145000000000497,2.021382e-05,23.145000000000497,8.122932e-06,23.145000000000497,5.56693e-06
23.160000000000498,0.000224395,23.160000000000498,2.018104e-05,23.160000000000498,8.878575e-06,23.160000000000498,5.958057e-06
23.175000000000498,0.0002388328,23.175000000000498,1.980265e-05,23.175000000000498,9.269777e-06,23.175000000000498,5.8867e-06
23.1900000000005,0.0002433903,23.1900000000005,1.831173e-05,23.1900000000005,1.003171e-05,23.1900000000005,5.485359e-06
23.2050000000005,0.0002401796,23.2050000000005,1.76601e-05,23.2050000000005,9.952766e-06,23.2050000000005,5.405162e-06
23.2200000000005,0.000243123,23.2200000000005,1.756974e-05,23.2200000000005,1.011422e-05,23.2200000000005,5.278585e-06
23.2350000000005,0.0002463064,23.2350000000005,1.592711e-05,23.2350000000005,1.052911e-05,23.2350000000005,5.257193e-06
23.2500000000005,0.0002461026,23.2500000000005,1.44711e-05,23.2500000000005,1.129215e-05,23.2500000000005,5.257193e-06
23.2650000000005,0.0002487791,23.2650000000005,1.459516e-05,23.2650000000005,1.197508e-05,23.2650000000005,5.219545e-06
23.280000000000502,0.0002421294,23.280000000000502,1.381268e-05,23.280000000000502,1.233549e-05,23.280000000000502,5.071714e-06
23.295000000000503,0.00023204,23.295000000000503,1.323563e-05,23.295000000000503,1.309762e-05,23.295000000000503,5.115961e-06
23.310000000000503,0.0002221996,23.310000000000503,1.19232e-05,23.310000000000503,1.327071e-05,23.310000000000503,5.259872e-06
23.325000000000504,0.0002252403,23.325000000000504,1.285773e-05,23.325000000000504,1.484493e-05,23.325000000000504,5.446701e-06
23.340000000000504,0.0002275329,23.340000000000504,1.219538e-05,23.340000000000504,1.494518e-05,23.340000000000504,5.599728e-06
23.355000000000505,0.0002287888,23.355000000000505,1.222998e-05,23.355000000000505,1.495272e-05,23.355000000000505,5.334332e-06
23.370000000000505,0.00021558,23.370000000000505,1.203726e-05,23.370000000000505,1.494424e-05,23.370000000000505,5.609782e-06
23.385000000000506,0.0002034311,23.385000000000506,1.173625e-05,23.385000000000506,1.481169e-05,23.385000000000506,5.881913e-06
23.400000000000507,0.0002006537,23.400000000000507,1.23845e-05,23.400000000000507,1.468561e-05,23.400000000000507,5.893875e-06
23.415000000000507,0.0001909508,23.415000000000507,1.252925e-05,23.415000000000507,1.468657e-05,23.415000000000507,5.642331e-06
23.430000000000508,0.0001667375,23.430000000000508,1.282482e-05,23.430000000000508,1.464719e-05,23.430000000000508,5.684616e-06
23.44500000000051,0.0001676032,23.44500000000051,1.30286e-05,23.44500000000051,1.442527e-05,23.44500000000051,5.644828e-06
23.46000000000051,0.0001628843,23.46000000000051,1.245369e-05,23.46000000000051,1.441355e-05,23.46000000000051,5.599728e-06
23.47500000000051,0.0001499101,23.47500000000051,1.274439e-05,23.47500000000051,1.443991e-05,23.47500000000051,5.706874e-06
23.49000000000051,0.0001473197,23.49000000000051,1.217804e-05,23.49000000000051,1.425533e-05,23.49000000000051,5.582091e-06
23.50500000000051,0.0001455655,23.50500000000051,1.2465e-05,23.50500000000051,1.349282e-05,23.50500000000051,5.577042e-06
23.52000000000051,0.0001379963,23.52000000000051,1.252362e-05,23.52000000000051,1.337012e-05,23.52000000000051,5.622323e-06
23.53500000000051,0.000133335,23.53500000000051,1.224379e-05,23.53500000000051,1.311911e-05,23.53500000000051,5.644828e-06
23.550000000000512,0.0001286521,23.550000000000512,1.20396e-05,23.550000000000512,1.244124e-05,23.550000000000512,5.662269e-06
23.565000000000513,0.00011597,23.565000000000513,1.186992e-05,23.565000000000513,1.216415e-05,23.565000000000513,5.518642e-06
23.580000000000513,0.00011143,23.580000000000513,1.104749e-05,23.580000000000513,1.078554e-05,23.580000000000513,5.392116e-06
23.595000000000514,0.0001083564,23.595000000000514,1.108186e-05,23.595000000000514,1.123838e-05,23.595000000000514,5.564399e-06
23.610000000000515,0.0001076857,23.610000000000515,1.054783e-05,23.610000000000515,1.140264e-05,23.610000000000515,5.647323e-06
23.625000000000515,0.0001083877,23.625000000000515,1.061041e-05,23.625000000000515,1.146424e-05,23.625000000000515,5.049445e-06
23.640000000000516,0.0001038229,23.640000000000516,1.066602e-05,23.640000000000516,1.135931e-05,23.640000000000516,5.389503e-06
23.655000000000516,0.0001001094,23.655000000000516,1.013231e-05,23.655000000000516,1.154871e-05,23.655000000000516,5.490492e-06
23.670000000000517,0.0001024334,23.670000000000517,1.001766e-05,23.670000000000517,1.181401e-05,23.670000000000517,5.609782e-06
23.685000000000517,0.000109924,23.685000000000517,1.001204e-05,23.685000000000517,1.189955e-05,23.685000000000517,5.912964e-06
23.700000000000518,0.0001125675,23.700000000000518,1.039175e-05,23.700000000000518,1.184259e-05,23.700000000000518,5.915346e-06
23.71500000000052,0.0001129448,23.71500000000052,1.05745e-05,23.71500000000052,1.301562e-05,23.71500000000052,5.946224e-06
23.73000000000052,0.0001130241,23.73000000000052,9.990908e-06,23.73000000000052,1.305561e-05,23.73000000000052,6.002811e-06
23.74500000000052,0.0001130464,23.74500000000052,9.877468e-06,23.74500000000052,1.311696e-05,23.74500000000052,6.13052e-06
23.76000000000052,0.0001139851,23.76000000000052,9.275854e-06,23.76000000000052,1.475833e-05,23.76000000000052,6.466009e-06
23.77500000000052,0.0001133508,23.77500000000052,9.262176e-06,23.77500000000052,1.429875e-05,23.77500000000052,6.922637e-06
23.79000000000052,0.0001174022,23.79000000000052,9.286478e-06,23.79000000000052,1.410733e-05,23.79000000000052,6.96726e-06
23.805000000000522,0.0001184188,23.805000000000522,9.178147e-06,23.805000000000522,1.462505e-05,23.805000000000522,6.965238e-06
23.820000000000523,0.0001154132,23.820000000000523,9.003043e-06,23.820000000000523,1.561088e-05,23.820000000000523,7.306746e-06
23.835000000000523,0.0001242937,23.835000000000523,9.895991e-06,23.835000000000523,1.549586e-05,23.835000000000523,7.279705e-06
23.850000000000524,0.000124248,23.850000000000524,1.01933e-05,23.850000000000524,1.601532e-05,23.850000000000524,7.266147e-06
23.865000000000524,0.0001255641,23.865000000000524,1.023468e-05,23.865000000000524,1.64458e-05,23.865000000000524,7.190141e-06
23.880000000000525,0.0001284781,23.880000000000525,1.184735e-05,23.880000000000525,1.698183e-05,23.880000000000525,6.987449e-06
23.895000000000525,0.0001359756,23.895000000000525,1.166643e-05,23.895000000000525,1.71814e-05,23.895000000000525,6.772462e-06
23.910000000000526,0.000141365,23.910000000000526,1.19232e-05,23.910000000000526,1.687448e-05,23.910000000000526,6.614623e-06
23.925000000000527,0.0001380786,23.925000000000527,1.219307e-05,23.925000000000527,1.652441e-05,23.925000000000527,6.371642e-06
23.940000000000527,0.0001389126,23.940000000000527,1.157186e-05,23.940000000000527,1.681343e-05,23.940000000000527,6.171741e-06
23.955000000000528,0.0001407946,23.955000000000528,1.136675e-05,23.955000000000528,1.667209e-05,23.955000000000528,6.221753e-06
23.970000000000528,0.00014194,23.970000000000528,1.23936e-05,23.970000000000528,1.690784e-05,23.970000000000528,6.463831e-06
23.98500000000053,0.0001453647,23.98500000000053,1.27753e-05,23.98500000000053,1.732103e-05,23.98500000000053,6.446372e-06
24.00000000000053,0.0001473788,24.00000000000053,1.324521e-05,24.00000000000053,1.871952e-05,24.00000000000053,6.353931e-06
24.01500000000053,0.0001465928,24.01500000000053,1.326328e-05,24.01500000000053,1.772698e-05,24.01500000000053,6.000464e-06
24.03000000000053,0.0001456952,24.03000000000053,1.382287e-05,24.03000000000053,1.774921e-05,24.03000000000053,5.81689e-06
24.04500000000053,0.0001432717,24.04500000000053,1.396381e-05,24.04500000000053,1.779835e-05,24.04500000000053,5.941484e-06
24.06000000000053,0.0001467577,24.06000000000053,1.413426e-05,24.06000000000053,1.733485e-05,24.06000000000053,6.028569e-06
24.075000000000532,0.0001479162,24.075000000000532,1.505693e-05,24.075000000000532,1.618592e-05,24.075000000000532,5.677176e-06
24.090000000000533,0.0001398414,24.090000000000533,1.425731e-05,24.090000000000533,1.639776e-05,24.090000000000533,5.862722e-06
24.105000000000533,0.0001417083,24.105000000000533,1.421575e-05,24.105000000000533,1.603114e-05,24.105000000000533,5.541568e-06
24.120000000000534,0.0001408144,24.120000000000534,1.392036e-05,24.120000000000534,1.50588e-05,24.120000000000534,5.554263e-06
24.135000000000534,0.0001400086,24.135000000000534,1.270121e-05,24.135000000000534,1.497625e-05,24.135000000000534,5.546649e-06
24.150000000000535,0.0001332364,24.150000000000535,1.321966e-05,24.150000000000535,1.603114e-05,24.150000000000535,5.602244e-06
24.165000000000536,0.000131191,24.165000000000536,1.294617e-05,24.165000000000536,1.632113e-05,24.165000000000536,5.602244e-06
24.180000000000536,0.0001280465,24.180000000000536,1.299613e-05,24.180000000000536,1.64518e-05,24.180000000000536,5.61731e-06
24.195000000000537,0.0001288144,24.195000000000537,1.352203e-05,24.195000000000537,1.580815e-05,24.195000000000537,6.095956e-06
24.210000000000537,0.0001338429,24.210000000000537,1.301346e-05,24.210000000000537,1.546674e-05,24.210000000000537,6.697164e-06
24.225000000000538,0.0001323935,24.225000000000538,1.250899e-05,24.225000000000538,1.569368e-05,24.225000000000538,6.74119e-06
24.24000000000054,0.0001291031,24.24000000000054,1.247516e-05,24.24000000000054,1.501008e-05,24.24000000000054,6.820134e-06
24.25500000000054,0.0001298853,24.25500000000054,1.231263e-05,24.25500000000054,1.431647e-05,24.25500000000054,6.997522e-06
24.27000000000054,0.0001321238,24.27000000000054,1.22966e-05,24.27000000000054,1.439301e-05,24.27000000000054,7.109361e-06
24.28500000000054,0.0001319077,24.28500000000054,1.148756e-05,24.28500000000054,1.57689e-05,24.28500000000054,7.037669e-06
24.30000000000054,0.0001344085,24.30000000000054,1.123462e-05,24.30000000000054,1.689784e-05,24.30000000000054,6.936866e-06
24.31500000000054,0.0001341786,24.31500000000054,1.091536e-05,24.31500000000054,1.699593e-05,24.31500000000054,6.803591e-06
24.330000000000542,0.0001550519,24.330000000000542,9.893143e-06,24.330000000000542,1.689284e-05,24.330000000000542,6.707672e-06
24.345000000000542,0.0001616782,24.345000000000542,1.002047e-05,24.345000000000542,1.723461e-05,24.345000000000542,6.770382e-06
24.360000000000543,0.0001600005,24.360000000000543,1.003733e-05,24.360000000000543,1.724768e-05,24.360000000000543,7.05566e-06
24.375000000000544,0.0001635921,24.375000000000544,1.003733e-05,24.375000000000544,1.80475e-05,24.375000000000544,7.238955e-06
24.390000000000544,0.0001627807,24.390000000000544,9.814517e-06,24.390000000000544,1.806934e-05,24.390000000000544,7.523317e-06
24.405000000000545,0.0001690179,24.405000000000545,9.911636e-06,24.405000000000545,1.669151e-05,24.405000000000545,7.582997e-06
24.420000000000545,0.000179055,24.420000000000545,9.958426e-06,24.420000000000545,1.701746e-05,24.420000000000545,7.704628e-06
24.435000000000546,0.0001791786,24.435000000000546,9.76271e-06,24.435000000000546,1.6826e-05,24.435000000000546,7.52706e-06
24.450000000000546,0.0001762562,24.450000000000546,9.518695e-06,24.450000000000546,1.696274e-05,24.450000000000546,7.065636e-06
24.465000000000547,0.0001720546,24.465000000000547,9.729466e-06,24.465000000000547,1.699676e-05,24.465000000000547,6.789081e-06
24.480000000000548,0.0001697647,24.480000000000548,9.131986e-06,24.480000000000548,1.70431e-05,24.480000000000548,6.766219e-06
24.495000000000548,0.0001691236,24.495000000000548,8.763595e-06,24.495000000000548,1.788756e-05,24.495000000000548,6.345057e-06
24.51000000000055,0.0001747776,24.51000000000055,8.792481e-06,24.51000000000055,1.79481e-05,24.51000000000055,6.25337e-06
24.52500000000055,0.00017757,24.52500000000055,8.739451e-06,24.52500000000055,1.803579e-05,24.52500000000055,6.342836e-06
24.54000000000055,0.0001792819,24.54000000000055,8.733001e-06,24.54000000000055,1.682432e-05,24.54000000000055,6.251117e-06
24.55500000000055,0.000180861,24.55500000000055,8.642199e-06,24.55500000000055,1.570803e-05,24.55500000000055,6.293787e-06
24.57000000000055,0.0001846651,24.57000000000055,8.805288e-06,24.57000000000055,1.580459e-05,24.57000000000055,6.676097e-06
24.58500000000055,0.0001695218,24.58500000000055,9.250001e-06,24.58500000000055,1.5928e-05,24.58500000000055,6.633762e-06
24.600000000000552,0.0001685174,24.600000000000552,9.063859e-06,24.600000000000552,1.685611e-05,24.600000000000552,6.548272e-06
24.615000000000553,0.0001684824,24.615000000000553,9.318279e-06,24.615000000000553,1.627099e-05,24.615000000000553,6.58688e-06
24.630000000000553,0.0001677475,24.630000000000553,9.574765e-06,24.630000000000553,1.664757e-05,24.630000000000553,6.688745e-06
24.645000000000554,0.0001634754,24.645000000000554,1.000922e-05,24.645000000000554,1.681176e-05,24.645000000000554,6.266871e-06
24.660000000000554,0.0001465114,24.660000000000554,9.271297e-06,24.660000000000554,1.664333e-05,24.660000000000554,6.11211e-06
24.675000000000555,0.0001499994,24.675000000000555,8.984247e-06,24.675000000000555,1.72248e-05,24.675000000000555,6.524566e-06
24.690000000000556,0.0001585585,24.690000000000556,9.287995e-06,24.690000000000556,1.763216e-05,24.690000000000556,6.541815e-06
24.705000000000556,0.0001634752,24.705000000000556,9.292544e-06,24.705000000000556,1.779835e-05,24.705000000000556,6.439814e-06
24.720000000000557,0.0001712885,24.720000000000557,9.306177e-06,24.720000000000557,1.722807e-05,24.720000000000557,6.513761e-06
24.735000000000557,0.0001736671,24.735000000000557,9.40555e-06,24.735000000000557,1.666955e-05,24.735000000000557,7.063642e-06
24.750000000000558,0.0001739795,24.750000000000558,1.042288e-05,24.750000000000558,1.538455e-05,24.750000000000558,6.99148e-06
24.76500000000056,0.0001714033,24.76500000000056,1.103218e-05,24.76500000000056,1.518456e-05,24.76500000000056,7.105398e-06
24.78000000000056,0.0001723155,24.78000000000056,1.128966e-05,24.78000000000056,1.526782e-05,24.78000000000056,7.05566e-06
24.79500000000056,0.0001670332,24.79500000000056,1.192911e-05,24.79500000000056,1.52207e-05,24.79500000000056,7.051666e-06
24.81000000000056,0.0001658292,24.81000000000056,1.188771e-05,24.81000000000056,1.584732e-05,24.81000000000056,6.951067e-06
24.82500000000056,0.0001598765,24.82500000000056,1.156456e-05,24.82500000000056,1.575996e-05,24.82500000000056,6.995509e-06
24.84000000000056,0.0001620079,24.84000000000056,1.176143e-05,24.84000000000056,1.531113e-05,24.84000000000056,7.233115e-06
24.85500000000056,0.0001600638,24.85500000000056,1.2215e-05,24.85500000000056,1.461445e-05,24.85500000000056,6.892046e-06
24.870000000000562,0.0001598914,24.870000000000562,1.191848e-05,24.870000000000562,1.459806e-05,24.870000000000562,6.737009e-06
24.885000000000563,0.0001578287,24.885000000000563,1.176023e-05,24.885000000000563,1.475738e-05,24.885000000000563,6.883865e-06
24.900000000000563,0.0001573257,24.900000000000563,1.169296e-05,24.900000000000563,1.59845e-05,24.900000000000563,7.00959e-06
24.915000000000564,0.0001572089,24.915000000000564,1.181043e-05,24.915000000000564,1.574029e-05,24.915000000000564,6.955118e-06
24.930000000000565,0.000145369,24.930000000000565,1.150961e-05,24.930000000000565,1.53992e-05,24.930000000000565,6.652846e-06
24.945000000000565,0.0001448388,24.945000000000565,1.144702e-05,24.945000000000565,1.527336e-05,24.945000000000565,6.918566e-06
24.960000000000566,0.0001354367,24.960000000000566,1.134691e-05,24.960000000000566,1.599595e-05,24.960000000000566,6.898175e-06
24.975000000000566,0.0001331635,24.975000000000566,1.139522e-05,24.975000000000566,1.589347e-05,24.975000000000566,6.699267e-06
24.990000000000567,0.0001350086,24.990000000000567,1.088305e-05,24.990000000000567,1.569009e-05,24.990000000000567,6.242096e-06
25.005000000000567,0.0001320982,25.005000000000567,1.105386e-05,25.005000000000567,1.564243e-05,25.005000000000567,6.340615e-06
25.020000000000568,0.000128927,25.020000000000568,1.07777e-05,25.020000000000568,1.613275e-05,25.020000000000568,6.093644e-06
25.03500000000057,0.0001244959,25.03500000000057,1.053446e-05,25.03500000000057,1.670416e-05,25.03500000000057,6.155743e-06
25.05000000000057,0.000123248,25.05000000000057,1.011979e-05,25.05000000000057,1.719533e-05,25.05000000000057,6.08439e-06
25.06500000000057,0.0001245844,25.06500000000057,9.958426e-06,25.06500000000057,1.738273e-05,25.06500000000057,6.023894e-06
25.08000000000057,0.0001301593,25.08000000000057,1.002328e-05,25.08000000000057,1.737625e-05,25.08000000000057,5.908198e-06
25.09500000000057,0.0001311216,25.09500000000057,9.546771e-06,25.09500000000057,1.697187e-05,25.09500000000057,5.862722e-06
25.11000000000057,0.0001340497,25.11000000000057,9.260655e-06,25.11000000000057,1.679919e-05,25.11000000000057,5.974584e-06
25.125000000000572,0.0001365336,25.125000000000572,9.292544e-06,25.125000000000572,1.654656e-05,25.125000000000572,6.075122e-06
25.140000000000573,0.0001395579,25.140000000000573,9.366529e-06,25.140000000000573,1.721416e-05,25.140000000000573,5.814468e-06
25.155000000000573,0.0001425311,25.155000000000573,9.490535e-06,25.155000000000573,1.610478e-05,25.155000000000573,6.217223e-06
25.170000000000574,0.0001435787,25.170000000000574,9.23781e-06,25.170000000000574,1.5928e-05,25.170000000000574,6.468188e-06
25.185000000000574,0.0001426402,25.185000000000574,9.481625e-06,25.185000000000574,1.806077e-05,25.185000000000574,6.406918e-06
25.200000000000575,0.0001425503,25.200000000000575,9.438442e-06,25.200000000000575,1.809349e-05,25.200000000000575,6.13052e-06
25.215000000000575,0.0001433183,25.215000000000575,9.316767e-06,25.215000000000575,1.851294e-05,25.215000000000575,6.167175e-06
25.230000000000576,0.0001394212,25.230000000000576,9.502402e-06,25.230000000000576,1.946834e-05,25.230000000000576,6.367219e-06
25.245000000000577,0.0001369934,25.245000000000577,9.649507e-06,25.245000000000577,1.991544e-05,25.245000000000577,6.367219e-06
25.260000000000577,0.0001389575,25.260000000000577,8.465993e-06,25.260000000000577,1.985877e-05,25.260000000000577,6.248863e-06
25.275000000000578,0.0001418315,25.275000000000578,8.538892e-06,25.275000000000578,1.926102e-05,25.275000000000578,6.230803e-06
25.29000000000058,0.0001465174,25.29000000000058,8.370614e-06,25.29000000000058,1.906549e-05,25.29000000000058,6.327271e-06
25.30500000000058,0.0001507646,25.30500000000058,8.622616e-06,25.30500000000058,1.880361e-05,25.30500000000058,6.404719e-06
25.32000000000058,0.000147196,25.32000000000058,9.37705e-06,25.32000000000058,1.817196e-05,25.32000000000058,6.722357e-06
25.33500000000058,0.0001379875,25.33500000000058,9.841749e-06,25.33500000000058,1.957154e-05,25.33500000000058,6.483414e-06
25.35000000000058,0.0001356632,25.35000000000058,1.00975e-05,25.35000000000058,2.020545e-05,25.35000000000058,6.21269e-06
25.36500000000058,0.0001365591,25.36500000000058,1.004575e-05,25.36500000000058,2.019987e-05,25.36500000000058,6.57832e-06
25.38000000000058,0.0001345959,25.38000000000058,1.034147e-05,25.38000000000058,2.04294e-05,25.38000000000058,6.448557e-06
25.395000000000582,0.0001279127,25.395000000000582,1.005976e-05,25.395000000000582,1.964983e-05,25.395000000000582,6.316129e-06
25.410000000000583,0.000128768,25.410000000000583,9.752604e-06,25.410000000000583,2.04294e-05,25.410000000000583,5.908198e-06
25.425000000000583,0.0001288247,25.425000000000583,9.741042e-06,25.425000000000583,2.197864e-05,25.425000000000583,5.716739e-06
25.440000000000584,0.0001354985,25.440000000000584,9.76848e-06,25.440000000000584,2.132214e-05,25.440000000000584,5.874723e-06
25.455000000000584,0.0001468722,25.455000000000584,9.924419e-06,25.455000000000584,2.13914e-05,25.455000000000584,6.455107e-06
25.470000000000585,0.0001469627,25.470000000000585,9.895991e-06,25.470000000000585,1.996983e-05,25.470000000000585,6.293787e-06
25.485000000000586,0.0001484759,25.485000000000586,9.693203e-06,25.485000000000586,2.041629e-05,25.485000000000586,6.271365e-06
25.500000000000586,0.0001478388,25.500000000000586,1.016701e-05,25.500000000000586,2.050236e-05,25.500000000000586,6.593293e-06
25.515000000000587,0.0001515747,25.515000000000587,1.03333e-05,25.515000000000587,2.051747e-05,25.515000000000587,6.922637e-06
25.530000000000587,0.000146934,25.530000000000587,1.103473e-05,25.530000000000587,2.041698e-05,25.530000000000587,6.993494e-06
25.545000000000588,0.0001456295,25.545000000000588,1.142485e-05,25.545000000000588,2.045834e-05,25.545000000000588,7.967094e-06
25.56000000000059,0.0001426551,25.56000000000059,1.136427e-05,25.56000000000059,2.015519e-05,25.56000000000059,8.026986e-06
25.57500000000059,0.0001426925,25.57500000000059,1.121831e-05,25.57500000000059,2.050373e-05,25.57500000000059,7.752019e-06
25.59000000000059,0.0001460959,25.59000000000059,1.05505e-05,25.59000000000059,1.99945e-05,25.59000000000059,7.741108e-06
25.60500000000059,0.0001402214,25.60500000000059,1.052108e-05,25.60500000000059,1.994018e-05,25.60500000000059,7.575563e-06
25.62000000000059,0.0001452976,25.62000000000059,1.05958e-05,25.62000000000059,1.98119e-05,25.62000000000059,7.354785e-06
25.63500000000059,0.0001476629,25.63500000000059,1.034828e-05,25.63500000000059,1.975137e-05,25.63500000000059,7.38918e-06
25.650000000000592,0.0001611637,25.650000000000592,1.053446e-05,25.650000000000592,2.003954e-05,25.650000000000592,7.425313e-06
25.665000000000592,0.0001636507,25.665000000000592,1.100661e-05,25.665000000000592,1.91407e-05,25.665000000000592,7.415822e-06
25.680000000000593,0.0001617959,25.680000000000593,1.113006e-05,25.680000000000593,1.664418e-05,25.680000000000593,7.470705e-06
25.695000000000594,0.0001656547,25.695000000000594,1.105131e-05,25.695000000000594,1.881409e-05,25.695000000000594,7.678988e-06
25.710000000000594,0.0001565775,25.710000000000594,1.09938e-05,25.710000000000594,1.915542e-05,25.710000000000594,7.203842e-06
25.725000000000595,0.00015353,25.725000000000595,1.114145e-05,25.725000000000595,1.880361e-05,25.725000000000595,7.176414e-06
25.740000000000595,0.0001540215,25.740000000000595,1.090504e-05,25.740000000000595,1.823696e-05,25.740000000000595,6.989465e-06
25.755000000000596,0.0001526758,25.755000000000596,1.023605e-05,25.755000000000596,1.850914e-05,25.755000000000596,6.559019e-06
25.770000000000596,0.0001512245,25.770000000000596,1.013787e-05,25.770000000000596,1.883879e-05,25.770000000000596,6.54612e-06
25.785000000000597,0.0001560457,25.785000000000597,9.506848e-06,25.785000000000597,1.88627e-05,25.785000000000597,6.226279e-06
25.800000000000598,0.0001557389,25.800000000000598,9.817387e-06,25.800000000000598,1.880586e-05,25.800000000000598,5.254512e-06
25.815000000000598,0.0001593224,25.815000000000598,9.833158e-06,25.815000000000598,1.882383e-05,25.815000000000598,5.289249e-06
25.8300000000006,0.0001622026,25.8300000000006,1.075284e-05,25.8300000000006,1.830557e-05,25.8300000000006,5.321112e-06
25.8450000000006,0.0001646575,25.8450000000006,1.104876e-05,25.8450000000006,1.77238e-05,25.8450000000006,5.425972e-06
25.8600000000006,0.0001659336,25.8600000000006,1.142855e-05,25.8600000000006,1.800921e-05,25.8600000000006,5.787757e-06
25.8750000000006,0.0001686048,25.8750000000006,1.196213e-05,25.8750000000006,1.842294e-05,25.8750000000006,5.95096e-06
25.8900000000006,0.0001683501,25.8900000000006,1.228285e-05,25.8900000000006,1.905144e-05,25.8900000000006,6.030905e-06
25.9050000000006,0.0001582832,25.9050000000006,1.210843e-05,25.9050000000006,1.884402e-05,25.9050000000006,6.699267e-06
25.920000000000602,0.0001529538,25.920000000000602,1.183545e-05,25.920000000000602,1.892161e-05,25.920000000000602,6.676097e-06
25.935000000000603,0.0001503731,25.935000000000603,1.188297e-05,25.935000000000603,1.871952e-05,25.935000000000603,6.280343e-06
25.950000000000603,0.0001478742,25.950000000000603,1.203726e-05,25.950000000000603,1.543757e-05,25.950000000000603,6.105191e-06
25.965000000000604,0.0001526016,25.965000000000604,1.196684e-05,25.965000000000604,1.554034e-05,25.965000000000604,6.089019e-06
25.980000000000604,0.0001551739,25.980000000000604,1.203258e-05,25.980000000000604,1.543848e-05,25.980000000000604,6.284828e-06
25.995000000000605,0.0001590355,25.995000000000605,1.256966e-05,25.995000000000605,1.527336e-05,25.995000000000605,6.50294e-06
26.010000000000606,0.0001681467,26.010000000000606,1.350013e-05,26.010000000000606,1.520959e-05,26.010000000000606,6.621009e-06
26.025000000000606,0.0001675452,26.025000000000606,1.394463e-05,26.025000000000606,1.647319e-05,26.025000000000606,7.343284e-06
26.040000000000607,0.0001674542,26.040000000000607,1.401416e-05,26.040000000000607,1.665264e-05,26.040000000000607,7.59599e-06
26.055000000000607,0.0001650615,26.055000000000607,1.400008e-05,26.055000000000607,1.670838e-05,26.055000000000607,7.549485e-06
26.070000000000608,0.0001652794,26.070000000000608,1.36196e-05,26.070000000000608,1.689367e-05,26.070000000000608,7.515824e-06
26.08500000000061,0.0001603051,26.08500000000061,1.34667e-05,26.08500000000061,1.65372e-05,26.08500000000061,7.645896e-06
26.10000000000061,0.0001574237,26.10000000000061,1.375954e-05,26.10000000000061,1.675552e-05,26.10000000000061,7.675319e-06
26.11500000000061,0.000151823,26.11500000000061,1.355948e-05,26.11500000000061,1.638143e-05,26.11500000000061,7.759284e-06
26.13000000000061,0.000154159,26.13000000000061,1.337222e-05,26.13000000000061,1.665264e-05,26.13000000000061,7.85312e-06
26.14500000000061,0.0001576271,26.14500000000061,1.317055e-05,26.14500000000061,1.623546e-05,26.14500000000061,7.656943e-06
26.16000000000061,0.0001591438,26.16000000000061,1.300696e-05,26.16000000000061,1.621549e-05,26.16000000000061,7.194059e-06
26.175000000000612,0.0001790574,26.175000000000612,1.286431e-05,26.175000000000612,1.627705e-05,26.175000000000612,7.156758e-06
26.190000000000612,0.0001802098,26.190000000000612,1.392845e-05,26.190000000000612,1.648772e-05,26.190000000000612,7.252564e-06
26.205000000000613,0.0001782039,26.205000000000613,1.452066e-05,26.205000000000613,1.634269e-05,26.205000000000613,7.24479e-06
26.220000000000613,0.0001742654,26.220000000000613,1.462987e-05,26.220000000000613,1.667969e-05,26.220000000000613,7.250621e-06
26.235000000000614,0.0001718474,26.235000000000614,1.462024e-05,26.235000000000614,1.627878e-05,26.235000000000614,6.99148e-06
26.250000000000615,0.0001682123,26.250000000000615,1.430367e-05,26.250000000000615,1.621114e-05,26.250000000000615,7.190141e-06
26.265000000000615,0.0001632792,26.265000000000615,1.346042e-05,26.265000000000615,1.58402e-05,26.265000000000615,6.857212e-06
26.280000000000616,0.0001623593,26.280000000000616,1.312019e-05,26.280000000000616,1.433417e-05,26.280000000000616,5.946224e-06
26.295000000000616,0.000164706,26.295000000000616,1.27466e-05,26.295000000000616,1.534054e-05,26.295000000000616,6.266871e-06
26.310000000000617,0.0001697644,26.310000000000617,1.255508e-05,26.310000000000617,1.585442e-05,26.310000000000617,6.356147e-06
26.325000000000617,0.0001735222,26.325000000000617,1.269677e-05,26.325000000000617,1.583754e-05,26.325000000000617,6.470365e-06
26.340000000000618,0.0001738642,26.340000000000618,1.249434e-05,26.340000000000618,1.589347e-05,26.340000000000618,6.644371e-06
26.35500000000062,0.0001746942,26.35500000000062,1.187585e-05,26.35500000000062,1.541565e-05,26.35500000000062,6.550423e-06
26.37000000000062,0.000176077,26.37000000000062,1.230004e-05,26.37000000000062,1.51567e-05,26.37000000000062,6.625263e-06
26.38500000000062,0.0001721853,26.38500000000062,1.294726e-05,26.38500000000062,1.49367e-05,26.38500000000062,6.567604e-06
26.40000000000062,0.0001726621,26.40000000000062,1.322392e-05,26.40000000000062,1.573581e-05,26.40000000000062,6.635885e-06
26.41500000000062,0.0001701539,26.41500000000062,1.325478e-05,26.41500000000062,1.564063e-05,26.41500000000062,6.633762e-06
26.43000000000062,0.0001521219,26.43000000000062,1.323457e-05,26.43000000000062,1.530284e-05,26.43000000000062,6.734918e-06
26.445000000000622,0.0001490664,26.445000000000622,1.223689e-05,26.445000000000622,1.488947e-05,26.445000000000622,6.686639e-06
26.460000000000623,0.0001483921,26.460000000000623,1.180924e-05,26.460000000000623,1.480883e-05,26.460000000000623,6.778699e-06
26.475000000000623,0.0001495713,26.475000000000623,1.210378e-05,26.475000000000623,1.498566e-05,26.475000000000623,6.730734e-06
26.490000000000624,0.0001558845,26.490000000000624,1.187111e-05,26.490000000000624,2.004376e-05,26.490000000000624,6.737009e-06
26.505000000000624,0.0001519084,26.505000000000624,1.192675e-05,26.505000000000624,2.098451e-05,26.505000000000624,6.500773e-06
26.520000000000625,0.0001552871,26.520000000000625,1.19739e-05,26.520000000000625,2.146174e-05,26.520000000000625,6.671875e-06
26.535000000000625,0.0001522595,26.535000000000625,1.241631e-05,26.535000000000625,2.114434e-05,26.535000000000625,6.507271e-06
26.550000000000626,0.0001694596,26.550000000000626,1.282812e-05,26.550000000000626,2.106892e-05,26.550000000000626,6.461651e-06
26.565000000000627,0.0001719612,26.565000000000627,1.300913e-05,26.565000000000627,2.072105e-05,26.565000000000627,6.80152e-06
26.580000000000627,0.0001730301,26.580000000000627,1.289821e-05,26.580000000000627,2.066455e-05,26.580000000000627,7.101431e-06
26.595000000000628,0.0001741976,26.595000000000628,1.286102e-05,26.595000000000628,2.063317e-05,26.595000000000628,7.252564e-06
26.61000000000063,0.0001693936,26.61000000000063,1.329192e-05,26.61000000000063,2.080112e-05,26.61000000000063,6.881819e-06
26.62500000000063,0.0001693021,26.62500000000063,1.282263e-05,26.62500000000063,2.107427e-05,26.62500000000063,6.803591e-06
26.64000000000063,0.0001721246,26.64000000000063,1.225759e-05,26.64000000000063,2.051953e-05,26.64000000000063,6.787006e-06
26.65500000000063,0.0001840758,26.65500000000063,1.213632e-05,26.65500000000063,2.106224e-05,26.65500000000063,6.910417e-06
26.67000000000063,0.0001884232,26.67000000000063,1.217804e-05,26.67000000000063,2.250808e-05,26.67000000000063,7.049668e-06
26.68500000000063,0.0001933177,26.68500000000063,1.177101e-05,26.68500000000063,2.522099e-05,26.68500000000063,6.932803e-06
26.70000000000063,0.000193039,26.70000000000063,1.203024e-05,26.70000000000063,2.608098e-05,26.70000000000063,6.906339e-06
26.715000000000632,0.0001989922,26.715000000000632,1.175544e-05,26.715000000000632,2.630257e-05,26.715000000000632,6.873626e-06
26.730000000000633,0.0001962824,26.730000000000633,1.148633e-05,26.730000000000633,2.483885e-05,26.730000000000633,7.087532e-06
26.745000000000633,0.0001947134,26.745000000000633,1.178297e-05,26.745000000000633,2.286264e-05,26.745000000000633,7.03967e-06
26.760000000000634,0.0001967023,26.760000000000634,1.144456e-05,26.760000000000634,2.190481e-05,26.760000000000634,7.073606e-06
26.775000000000635,0.000192359,26.775000000000635,1.114398e-05,26.775000000000635,2.189452e-05,26.775000000000635,7.05566e-06
26.790000000000635,0.0001946076,26.790000000000635,1.065677e-05,26.790000000000635,2.181653e-05,26.790000000000635,6.944984e-06
26.805000000000636,0.0001759889,26.805000000000636,1.292439e-05,26.805000000000636,2.212747e-05,26.805000000000636,6.548272e-06
26.820000000000636,0.0001718738,26.820000000000636,1.395573e-05,26.820000000000636,2.23271e-05,26.820000000000636,6.167175e-06
26.835000000000637,0.0001927372,26.835000000000637,1.373803e-05,26.835000000000637,2.240646e-05,26.835000000000637,6.044903e-06
26.850000000000637,0.0001989121,26.850000000000637,1.403123e-05,26.850000000000637,2.232458e-05,26.850000000000637,5.991066e-06
26.865000000000638,0.0002054704,26.865000000000638,1.477264e-05,26.865000000000638,2.155213e-05,26.865000000000638,6.709772e-06
26.88000000000064,0.0002056368,26.88000000000064,1.497343e-05,26.88000000000064,2.179456e-05,26.88000000000064,6.707672e-06
26.89500000000064,0.0002028259,26.89500000000064,1.525398e-05,26.89500000000064,2.210581e-05,26.89500000000064,6.730734e-06
26.91000000000064,0.0001946922,26.91000000000064,1.557565e-05,26.91000000000064,2.314555e-05,26.91000000000064,6.608231e-06
26.92500000000064,0.0001973927,26.92500000000064,1.578051e-05,26.92500000000064,2.253685e-05,26.92500000000064,7.037669e-06
26.94000000000064,0.0001968915,26.94000000000064,1.651247e-05,26.94000000000064,1.971068e-05,26.94000000000064,7.168558e-06
26.95500000000064,0.0002016788,26.95500000000064,1.698515e-05,26.95500000000064,1.911271e-05,26.95500000000064,7.233115e-06
26.970000000000642,0.0002026072,26.970000000000642,1.778331e-05,26.970000000000642,1.896474e-05,26.970000000000642,7.515824e-06
26.985000000000642,0.000202461,26.985000000000642,1.768959e-05,26.985000000000642,1.874659e-05,26.985000000000642,7.677153e-06
27.000000000000643,0.0002041836,27.000000000000643,1.777222e-05,27.000000000000643,1.853879e-05,27.000000000000643,7.822567e-06
27.015000000000644,0.0002019401,27.015000000000644,1.793475e-05,27.015000000000644,1.861916e-05,27.015000000000644,7.838757e-06
27.030000000000644,0.0002014659,27.030000000000644,1.801078e-05,27.030000000000644,1.887614e-05,27.030000000000644,7.797315e-06
27.045000000000645,0.0001992034,27.045000000000645,1.84451e-05,27.045000000000645,1.937187e-05,27.045000000000645,7.782849e-06
27.060000000000645,0.0001959569,27.060000000000645,1.661877e-05,27.060000000000645,1.89149e-05,27.060000000000645,7.680822e-06
27.075000000000646,0.0001946468,27.075000000000646,1.825008e-05,27.075000000000646,1.908616e-05,27.075000000000646,7.618211e-06
27.090000000000646,0.000181745,27.090000000000646,1.818823e-05,27.090000000000646,1.906475e-05,27.090000000000646,7.448044e-06
27.105000000000647,0.0001810492,27.105000000000647,1.77738e-05,27.105000000000647,1.941545e-05,27.105000000000647,7.474476e-06
27.120000000000648,0.0001792899,27.120000000000648,1.718468e-05,27.120000000000648,1.951171e-05,27.120000000000648,7.117283e-06
27.135000000000648,0.0001818858,27.135000000000648,1.742886e-05,27.135000000000648,1.876536e-05,27.135000000000648,7.029658e-06
27.15000000000065,0.0001830451,27.15000000000065,1.711898e-05,27.15000000000065,1.769676e-05,27.15000000000065,7.176414e-06
27.16500000000065,0.000173592,27.16500000000065,1.719533e-05,27.16500000000065,1.559915e-05,27.16500000000065,7.113323e-06
27.18000000000065,0.0001696653,27.18000000000065,1.702243e-05,27.18000000000065,1.500726e-05,27.18000000000065,6.832516e-06
27.19500000000065,0.0001706319,27.19500000000065,1.657378e-05,27.19500000000065,1.619376e-05,27.19500000000065,6.851046e-06
27.21000000000065,0.000166323,27.21000000000065,1.59986e-05,27.21000000000065,2.339917e-05,27.21000000000065,6.667651e-06
27.22500000000065,0.0001753776,27.22500000000065,1.582864e-05,27.22500000000065,2.458691e-05,27.22500000000065,7.017624e-06
27.240000000000652,0.0001815617,27.240000000000652,1.636595e-05,27.240000000000652,2.499658e-05,27.240000000000652,6.859265e-06
27.255000000000653,0.0001836077,27.255000000000653,1.692866e-05,27.255000000000653,2.560512e-05,27.255000000000653,6.737009e-06
27.270000000000653,0.0001918595,27.270000000000653,1.692616e-05,27.270000000000653,2.540353e-05,27.270000000000653,6.749543e-06
27.285000000000654,0.0002021738,27.285000000000654,1.687281e-05,27.285000000000654,2.487965e-05,27.285000000000654,7.421518e-06
27.300000000000654,0.0002087302,27.300000000000654,1.572238e-05,27.300000000000654,2.45284e-05,27.300000000000654,7.96002e-06
27.315000000000655,0.0002098364,27.315000000000655,1.546219e-05,27.315000000000655,2.529906e-05,27.315000000000655,7.99181e-06
27.330000000000656,0.0002104295,27.330000000000656,1.443796e-05,27.330000000000656,2.516451e-05,27.330000000000656,8.102095e-06
27.345000000000656,0.0002075988,27.345000000000656,1.444381e-05,27.345000000000656,2.524723e-05,27.345000000000656,9.028043e-06
27.360000000000657,0.0002068816,27.360000000000657,1.430072e-05,27.360000000000657,2.525448e-05,27.360000000000657,9.046747e-06
27.375000000000657,0.0002030091,27.375000000000657,1.481169e-05,27.375000000000657,2.580078e-05,27.375000000000657,9.068521e-06
27.390000000000658,0.0002056,27.390000000000658,1.413326e-05,27.390000000000658,2.680075e-05,27.390000000000658,8.970124e-06
27.40500000000066,0.0002062199,27.40500000000066,1.434301e-05,27.40500000000066,2.817268e-05,27.40500000000066,8.768416e-06
27.42000000000066,0.0002073171,27.42000000000066,1.482024e-05,27.42000000000066,2.82431e-05,27.42000000000066,8.502521e-06
27.43500000000066,0.0002099257,27.43500000000066,1.533687e-05,27.43500000000066,2.771648e-05,27.43500000000066,8.533942e-06
27.45000000000066,0.0002191489,27.45000000000066,1.584287e-05,27.45000000000066,2.33395e-05,27.45000000000066,8.640569e-06
27.46500000000066,0.0002181963,27.46500000000066,1.578586e-05,27.46500000000066,2.07557e-05,27.46500000000066,8.682853e-06
27.48000000000066,0.0002115775,27.48000000000066,1.537539e-05,27.48000000000066,2.00107e-05,27.48000000000066,8.277538e-06
27.495000000000662,0.0002046276,27.495000000000662,1.465104e-05,27.495000000000662,1.948353e-05,27.495000000000662,8.157542e-06
27.510000000000662,0.000207926,27.510000000000662,1.491782e-05,27.510000000000662,1.990482e-05,27.510000000000662,8.537242e-06
27.525000000000663,0.0002068905,27.525000000000663,1.518363e-05,27.525000000000663,2.008448e-05,27.525000000000663,8.58824e-06
27.540000000000664,0.0001946579,27.540000000000664,1.541108e-05,27.540000000000664,2.020127e-05,27.540000000000664,8.224612e-06
27.555000000000664,0.0001924074,27.555000000000664,1.5301e-05,27.555000000000664,2.07163e-05,27.555000000000664,7.71011e-06
27.570000000000665,0.0001932882,27.570000000000665,1.463468e-05,27.570000000000665,2.087953e-05,27.570000000000665,7.631143e-06
27.585000000000665,0.0001936562,27.585000000000665,1.477455e-05,27.585000000000665,2.097645e-05,27.585000000000665,7.542018e-06
27.600000000000666,0.0001870103,27.600000000000666,1.463276e-05,27.600000000000666,2.092737e-05,27.600000000000666,6.255622e-06
27.615000000000666,0.0001854424,27.615000000000666,1.511482e-05,27.615000000000666,2.099055e-05,27.615000000000666,5.998116e-06
27.630000000000667,0.0001992583,27.630000000000667,1.477931e-05,27.630000000000667,2.047073e-05,27.630000000000667,6.574036e-06
27.645000000000667,0.0002032174,27.645000000000667,1.479075e-05,27.645000000000667,1.927564e-05,27.645000000000667,6.684531e-06
27.660000000000668,0.0002060278,27.660000000000668,1.444772e-05,27.660000000000668,1.72958e-05,27.660000000000668,6.834577e-06
27.67500000000067,0.0002188195,27.67500000000067,1.38086e-05,27.67500000000067,1.72738e-05,27.67500000000067,6.846933e-06
27.69000000000067,0.0002197347,27.69000000000067,1.242991e-05,27.69000000000067,1.719943e-05,27.69000000000067,6.879772e-06
27.70500000000067,0.0002105121,27.70500000000067,1.231835e-05,27.70500000000067,1.713543e-05,27.70500000000067,6.728641e-06
27.72000000000067,0.0002074909,27.72000000000067,1.257526e-05,27.72000000000067,1.723625e-05,27.72000000000067,6.753716e-06
27.73500000000067,0.000208476,27.73500000000067,1.227941e-05,27.73500000000067,1.684775e-05,27.73500000000067,6.699267e-06
27.75000000000067,0.0002096853,27.75000000000067,1.179731e-05,27.75000000000067,1.798182e-05,27.75000000000067,6.642251e-06
27.765000000000672,0.0002084623,27.765000000000672,1.139398e-05,27.765000000000672,1.813471e-05,27.765000000000672,6.356147e-06
27.780000000000673,0.0002040867,27.780000000000673,1.098098e-05,27.780000000000673,1.928514e-05,27.780000000000673,6.221753e-06
27.795000000000673,0.0002056427,27.795000000000673,1.165435e-05,27.795000000000673,1.893426e-05,27.795000000000673,6.226279e-06
27.810000000000674,0.0002117949,27.810000000000674,1.220808e-05,27.810000000000674,1.934786e-05,27.810000000000674,6.439814e-06
27.825000000000674,0.0002126425,27.825000000000674,1.20513e-05,27.825000000000674,1.94611e-05,27.825000000000674,6.561167e-06
27.840000000000675,0.0002108429,27.840000000000675,1.197037e-05,27.840000000000675,1.948136e-05,27.840000000000675,6.333946e-06
27.855000000000675,0.0002096054,27.855000000000675,1.173865e-05,27.855000000000675,1.956434e-05,27.855000000000675,6.463831e-06
27.870000000000676,0.0002110685,27.870000000000676,1.146055e-05,27.870000000000676,1.918407e-05,27.870000000000676,6.616753e-06
27.885000000000677,0.0002078292,27.885000000000677,1.141375e-05,27.885000000000677,1.921929e-05,27.885000000000677,6.139704e-06
27.900000000000677,0.0001998459,27.900000000000677,1.163741e-05,27.900000000000677,2.000859e-05,27.900000000000677,6.079758e-06
27.915000000000678,0.0002048574,27.915000000000678,1.338065e-05,27.915000000000678,1.99938e-05,27.915000000000678,6.749543e-06
27.93000000000068,0.0001904973,27.93000000000068,1.571341e-05,27.93000000000068,2.052708e-05,27.93000000000068,7.575563e-06
27.94500000000068,0.0001867119,27.94500000000068,1.579032e-05,27.94500000000068,2.141509e-05,27.94500000000068,7.434793e-06
27.96000000000068,0.0001886956,27.96000000000068,1.583665e-05,27.96000000000068,2.139996e-05,27.96000000000068,7.472591e-06
27.97500000000068,0.0001966164,27.97500000000068,1.585442e-05,27.97500000000068,2.140588e-05,27.97500000000068,7.402513e-06
27.99000000000068,0.0002015338,27.99000000000068,1.67908e-05,27.99000000000068,2.035687e-05,27.99000000000068,7.370092e-06
28.00500000000068,0.0002084446,28.00500000000068,1.702739e-05,28.00500000000068,1.978273e-05,28.00500000000068,7.1921e-06
28.02000000000068,0.0002059417,28.02000000000068,1.750306e-05,28.02000000000068,1.953263e-05,28.02000000000068,7.287441e-06
28.035000000000682,0.0002155997,28.035000000000682,1.870371e-05,28.035000000000682,1.859948e-05,28.035000000000682,7.472591e-06
28.050000000000683,0.0002149022,28.050000000000683,1.799826e-05,28.050000000000683,1.881784e-05,28.050000000000683,7.425313e-06
28.065000000000683,0.0002097194,28.065000000000683,1.878487e-05,28.065000000000683,1.843058e-05,28.065000000000683,7.362442e-06
28.080000000000684,0.0002182017,28.080000000000684,1.896474e-05,28.080000000000684,1.746197e-05,28.080000000000684,7.320229e-06
28.095000000000685,0.0002189482,28.095000000000685,1.931288e-05,28.095000000000685,1.744906e-05,28.095000000000685,7.362442e-06
28.110000000000685,0.0002187972,28.110000000000685,1.926833e-05,28.110000000000685,1.76593e-05,28.110000000000685,7.366268e-06
28.125000000000686,0.0002169803,28.125000000000686,1.890969e-05,28.125000000000686,1.806311e-05,28.125000000000686,7.304818e-06
28.140000000000686,0.0002073884,28.140000000000686,1.905144e-05,28.140000000000686,1.787732e-05,28.140000000000686,7.275834e-06
28.155000000000687,0.0002029853,28.155000000000687,1.877662e-05,28.155000000000687,1.744986e-05,28.155000000000687,7.180339e-06
28.170000000000687,0.000205989,28.170000000000687,1.694612e-05,28.170000000000687,1.727624e-05,28.170000000000687,6.638008e-06
28.185000000000688,0.0002093362,28.185000000000688,1.542388e-05,28.185000000000688,1.603378e-05,28.185000000000688,5.95096e-06
28.20000000000069,0.0002129795,28.20000000000069,1.545581e-05,28.20000000000069,1.582419e-05,28.20000000000069,6.391509e-06
28.21500000000069,0.0001991349,28.21500000000069,1.530652e-05,28.21500000000069,1.590676e-05,28.21500000000069,6.360578e-06
28.23000000000069,0.0001955758,28.23000000000069,1.533319e-05,28.23000000000069,1.579567e-05,28.23000000000069,6.309435e-06
28.24500000000069,0.0001913626,28.24500000000069,1.433122e-05,28.24500000000069,1.574655e-05,28.24500000000069,6.269119e-06
28.26000000000069,0.0001838577,28.26000000000069,1.429579e-05,28.26000000000069,1.587662e-05,28.26000000000069,6.282586e-06
28.27500000000069,0.0001731315,28.27500000000069,1.255508e-05,28.27500000000069,1.86645e-05,28.27500000000069,6.005157e-06
28.290000000000692,0.0001694638,28.290000000000692,1.202789e-05,28.290000000000692,1.854411e-05,28.290000000000692,6.030905e-06
28.305000000000692,0.0001666501,28.305000000000692,1.173505e-05,28.305000000000692,2.100263e-05,28.305000000000692,6.075122e-06
28.320000000000693,0.0001689864,28.320000000000693,1.183664e-05,28.320000000000693,2.359282e-05,28.320000000000693,6.08439e-06
28.335000000000694,0.0001609191,28.335000000000694,1.165314e-05,28.335000000000694,2.804791e-05,28.335000000000694,6.11902e-06
28.350000000000694,0.0001622621,28.350000000000694,1.129963e-05,28.350000000000694,2.988659e-05,28.350000000000694,6.260124e-06
28.365000000000695,0.0001657619,28.365000000000695,1.121077e-05,28.365000000000695,3.023663e-05,28.365000000000695,6.365006e-06
28.380000000000695,0.0001760282,28.380000000000695,1.145809e-05,28.380000000000695,2.996849e-05,28.380000000000695,6.208153e-06
28.395000000000696,0.0001773307,28.395000000000696,1.150716e-05,28.395000000000696,3.063789e-05,28.395000000000696,6.224016e-06
28.410000000000696,0.0001778563,28.410000000000696,1.155846e-05,28.410000000000696,3.117074e-05,28.410000000000696,6.593293e-06
28.425000000000697,0.0001803034,28.425000000000697,1.185329e-05,28.425000000000697,3.129162e-05,28.425000000000697,6.663425e-06
28.440000000000698,0.0001755461,28.440000000000698,1.175784e-05,28.440000000000698,3.130782e-05,28.440000000000698,6.848989e-06
28.455000000000698,0.0001786075,28.455000000000698,1.219653e-05,28.455000000000698,3.13411e-05,28.455000000000698,6.934835e-06
28.4700000000007,0.0002012157,28.4700000000007,1.285226e-05,28.4700000000007,3.141562e-05,28.4700000000007,7.465047e-06
28.4850000000007,0.0002036933,28.4850000000007,1.298962e-05,28.4850000000007,3.157485e-05,28.4850000000007,7.532673e-06
28.5000000000007,0.0002062671,28.5000000000007,1.426324e-05,28.5000000000007,3.249086e-05,28.5000000000007,7.489538e-06
28.5150000000007,0.0002073773,28.5150000000007,1.673954e-05,28.5150000000007,3.323881e-05,28.5150000000007,7.491418e-06
28.5300000000007,0.0002092249,28.5300000000007,1.723951e-05,28.5300000000007,3.205657e-05,28.5300000000007,7.495178e-06
28.5450000000007,0.0002124242,28.5450000000007,1.712145e-05,28.5450000000007,3.19302e-05,28.5450000000007,7.387274e-06
28.560000000000702,0.0002130394,28.560000000000702,1.73015e-05,28.560000000000702,2.969793e-05,28.560000000000702,7.2971e-06
28.575000000000703,0.0002068588,28.575000000000703,1.77381e-05,28.575000000000703,2.917923e-05,28.575000000000703,7.067629e-06
28.590000000000703,0.0002047494,28.590000000000703,1.808882e-05,28.590000000000703,2.428599e-05,28.590000000000703,6.985433e-06
28.605000000000704,0.0002041508,28.605000000000704,1.876762e-05,28.605000000000704,2.371075e-05,28.605000000000704,6.877724e-06
28.620000000000704,0.0001919041,28.620000000000704,2.041284e-05,28.620000000000704,2.331413e-05,28.620000000000704,6.722357e-06
28.635000000000705,0.000190465,28.635000000000705,2.051129e-05,28.635000000000705,2.261235e-05,28.635000000000705,6.873626e-06
28.650000000000706,0.0001851687,28.650000000000706,2.200746e-05,28.650000000000706,2.161609e-05,28.650000000000706,6.705572e-06
28.665000000000706,0.0001796086,28.665000000000706,2.245607e-05,28.665000000000706,2.101738e-05,28.665000000000706,6.2781e-06
28.680000000000707,0.0001769032,28.680000000000707,2.222276e-05,28.680000000000707,2.091121e-05,28.680000000000707,5.812045e-06
28.695000000000707,0.0001731693,28.695000000000707,2.352645e-05,28.695000000000707,2.113101e-05,28.695000000000707,5.203327e-06
28.710000000000708,0.0001703655,28.710000000000708,2.309437e-05,28.710000000000708,2.100598e-05,28.710000000000708,4.466178e-06
28.72500000000071,0.0001454817,28.72500000000071,2.297144e-05,28.72500000000071,2.073261e-05,28.72500000000071,4.045829e-06
28.74000000000071,0.0001484408,28.74000000000071,2.293892e-05,28.74000000000071,2.029449e-05,28.74000000000071,4.354386e-06
28.75500000000071,0.0001415454,28.75500000000071,2.185072e-05,28.75500000000071,1.813083e-05,28.75500000000071,4.360851e-06
28.77000000000071,0.0001377145,28.77000000000071,2.021242e-05,28.77000000000071,1.70009e-05,28.77000000000071,4.660651e-06
28.78500000000071,0.0001334396,28.78500000000071,2.008588e-05,28.78500000000071,1.627359e-05,28.78500000000071,4.905105e-06
28.80000000000071,0.0001281512,28.80000000000071,1.974352e-05,28.80000000000071,1.545945e-05,28.80000000000071,4.853136e-06
28.815000000000712,0.0001299042,28.815000000000712,1.960462e-05,28.815000000000712,9.833158e-06,28.815000000000712,4.847328e-06
28.830000000000712,0.0001378744,28.830000000000712,1.831942e-05,28.830000000000712,9.951351e-06,28.830000000000712,4.962209e-06
28.845000000000713,0.0001581718,28.845000000000713,1.808882e-05,28.845000000000713,1.042964e-05,28.845000000000713,5.176183e-06
28.860000000000714,0.0001648113,28.860000000000714,1.695443e-05,28.860000000000714,1.094372e-05,28.860000000000714,5.115961e-06
28.875000000000714,0.0002196142,28.875000000000714,1.504476e-05,28.875000000000714,1.192557e-05,28.875000000000714,5.093886e-06
28.890000000000715,0.0002607122,28.890000000000715,1.497908e-05,28.890000000000715,1.19739e-05,28.890000000000715,4.893604e-06
28.905000000000715,0.000268721,28.905000000000715,1.307825e-05,28.905000000000715,1.223228e-05,28.905000000000715,4.899358e-06
28.920000000000716,0.0002744057,28.920000000000716,1.286869e-05,28.920000000000716,1.304265e-05,28.920000000000716,4.956529e-06
28.935000000000716,0.0002783743,28.935000000000716,1.285226e-05,28.935000000000716,1.340274e-05,28.935000000000716,5.029879e-06
28.950000000000717,0.0002788441,28.950000000000717,1.038633e-05,28.950000000000717,1.330463e-05,28.950000000000717,5.389503e-06
28.965000000000718,0.0002843553,28.965000000000718,1.097842e-05,28.965000000000718,1.344786e-05,28.965000000000718,5.326404e-06
28.980000000000718,0.0002860758,28.980000000000718,1.311696e-05,28.980000000000718,1.378818e-05,28.980000000000718,5.420777e-06
28.99500000000072,0.0002838507,28.99500000000072,1.322392e-05,28.99500000000072,1.457102e-05,28.99500000000072,5.206033e-06
29.01000000000072,0.0002857434,29.01000000000072,1.34782e-05,29.01000000000072,1.454683e-05,29.01000000000072,5.238403e-06
29.02500000000072,0.0002934329,29.02500000000072,1.378716e-05,29.02500000000072,1.400712e-05,29.02500000000072,4.847328e-06
29.04000000000072,0.0002963363,29.04000000000072,1.481454e-05,29.04000000000072,1.404127e-05,29.04000000000072,5.057808e-06
29.05500000000072,0.0003171789,29.05500000000072,1.491593e-05,29.05500000000072,1.415717e-05,29.05500000000072,5.08004e-06
29.07000000000072,0.0003433712,29.07000000000072,1.490838e-05,29.07000000000072,1.505599e-05,29.07000000000072,5.299891e-06
29.085000000000722,0.0003418912,29.085000000000722,1.501008e-05,29.085000000000722,1.563072e-05,29.085000000000722,5.024275e-06
29.100000000000723,0.0003316495,29.100000000000723,1.502602e-05,29.100000000000723,1.639089e-05,29.100000000000723,5.135199e-06
29.115000000000723,0.0003329755,29.115000000000723,1.5126e-05,29.115000000000723,1.585798e-05,29.115000000000723,5.148897e-06
29.130000000000724,0.0003049896,29.130000000000724,1.476406e-05,29.130000000000724,1.536715e-05,29.130000000000724,5.173461e-06
29.145000000000724,0.0002809473,29.145000000000724,1.45226e-05,29.145000000000724,1.538913e-05,29.145000000000724,5.208738e-06
29.160000000000725,0.0002826273,29.160000000000725,1.459806e-05,29.160000000000725,1.523365e-05,29.160000000000725,5.339611e-06
29.175000000000725,0.000276593,29.175000000000725,1.460867e-05,29.175000000000725,1.516228e-05,29.175000000000725,5.313164e-06
29.190000000000726,0.0002760434,29.190000000000726,1.464046e-05,29.190000000000726,1.520032e-05,29.190000000000726,5.313164e-06
29.205000000000727,0.0002774102,29.205000000000727,1.580192e-05,29.205000000000727,1.51892e-05,29.205000000000727,5.029879e-06
29.220000000000727,0.0002677491,29.220000000000727,1.527889e-05,29.220000000000727,1.513903e-05,29.220000000000727,4.867628e-06
29.235000000000728,0.0002665526,29.235000000000728,1.38137e-05,29.235000000000728,1.446818e-05,29.235000000000728,4.824024e-06
29.25000000000073,0.0002669352,29.25000000000073,1.371134e-05,29.25000000000073,1.431352e-05,29.25000000000073,5.246463e-06
29.26500000000073,0.0002635817,29.26500000000073,1.328768e-05,29.26500000000073,1.422269e-05,29.26500000000073,5.379038e-06
29.28000000000073,0.0002531839,29.28000000000073,1.274218e-05,29.28000000000073,1.453811e-05,29.28000000000073,5.189773e-06
29.29500000000073,0.0002492545,29.29500000000073,1.207348e-05,29.29500000000073,1.512786e-05,29.29500000000073,4.882076e-06
29.31000000000073,0.0002090995,29.31000000000073,1.279844e-05,29.31000000000073,1.496684e-05,29.31000000000073,4.867628e-06
29.32500000000073,0.0001745844,29.32500000000073,1.327708e-05,29.32500000000073,1.452939e-05,29.32500000000073,5.013047e-06
29.34000000000073,0.0001701634,29.34000000000073,1.342059e-05,29.34000000000073,1.301887e-05,29.34000000000073,5.243778e-06
29.355000000000732,0.0001669398,29.355000000000732,1.355012e-05,29.355000000000732,1.204779e-05,29.355000000000732,5.305204e-06
29.370000000000733,0.0001555096,29.370000000000733,1.348865e-05,29.370000000000733,1.202789e-05,29.370000000000733,5.405162e-06
29.385000000000733,0.0001361896,29.385000000000733,1.347402e-05,29.385000000000733,1.346565e-05,29.385000000000733,5.974584e-06
29.400000000000734,0.0001330573,29.400000000000734,1.366194e-05,29.400000000000734,1.401918e-05,29.400000000000734,6.089019e-06
29.415000000000735,0.0001305731,29.415000000000735,1.321859e-05,29.415000000000735,1.481549e-05,29.415000000000735,6.524566e-06
29.430000000000735,0.0001285625,29.430000000000735,1.320793e-05,29.430000000000735,1.590499e-05,29.430000000000735,6.764137e-06
29.445000000000736,0.0001255667,29.445000000000736,1.304157e-05,29.445000000000736,1.609953e-05,29.445000000000736,6.995509e-06
29.460000000000736,0.0001283224,29.460000000000736,1.126467e-05,29.460000000000736,1.687699e-05,29.460000000000736,7.3106e-06
29.475000000000737,0.0001338463,29.475000000000737,1.112247e-05,29.475000000000737,1.711239e-05,29.475000000000737,7.3567e-06
29.490000000000737,0.000133329,29.490000000000737,1.114777e-05,29.490000000000737,1.716418e-05,29.490000000000737,7.360529e-06
29.505000000000738,0.000133381,29.505000000000738,1.155968e-05,29.505000000000738,1.816498e-05,29.505000000000738,6.918566e-06
29.52000000000074,0.0001448848,29.52000000000074,1.259876e-05,29.52000000000074,1.833018e-05,29.52000000000074,6.918566e-06
29.53500000000074,0.0001490076,29.53500000000074,1.262891e-05,29.53500000000074,1.822769e-05,29.53500000000074,6.965238e-06
29.55000000000074,0.0001474517,29.55000000000074,1.277199e-05,29.55000000000074,1.827939e-05,29.55000000000074,6.993494e-06
29.56500000000074,0.0001558257,29.56500000000074,1.197978e-05,29.56500000000074,1.811917e-05,29.56500000000074,7.768356e-06
29.58000000000074,0.0001547184,29.58000000000074,1.19786e-05,29.58000000000074,1.847486e-05,29.58000000000074,7.97593e-06
29.59500000000074,0.0001555933,29.59500000000074,1.195388e-05,29.59500000000074,1.9787e-05,29.59500000000074,8.117728e-06
29.610000000000742,0.0001583849,29.610000000000742,1.259764e-05,29.610000000000742,2.014121e-05,29.610000000000742,8.205751e-06
29.625000000000743,0.000149894,29.625000000000743,1.347925e-05,29.625000000000743,2.01936e-05,29.625000000000743,8.233172e-06
29.640000000000743,0.0001473701,29.640000000000743,1.373085e-05,29.640000000000743,1.990624e-05,29.640000000000743,7.90675e-06
29.655000000000744,0.0001485401,29.655000000000744,1.418599e-05,29.655000000000744,1.94169e-05,29.655000000000744,7.790086e-06
29.670000000000744,0.0001458654,29.670000000000744,1.488758e-05,29.670000000000744,1.868939e-05,29.670000000000744,7.470705e-06
29.685000000000745,0.0001438708,29.685000000000745,1.512321e-05,29.685000000000745,1.829403e-05,29.685000000000745,7.254505e-06
29.700000000000745,0.0001451457,29.700000000000745,1.502977e-05,29.700000000000745,1.813859e-05,29.700000000000745,7.095478e-06
29.715000000000746,0.0001464698,29.715000000000746,1.545034e-05,29.715000000000746,1.789229e-05,29.715000000000746,7.335607e-06
29.730000000000746,0.0001426792,29.730000000000746,1.716746e-05,29.730000000000746,1.793397e-05,29.730000000000746,7.753835e-06
29.745000000000747,0.0001532485,29.745000000000747,1.714282e-05,29.745000000000747,1.941545e-05,29.745000000000747,8.188566e-06
29.760000000000748,0.000153607,29.760000000000748,1.616764e-05,29.760000000000748,1.941037e-05,29.760000000000748,8.36893e-06
29.775000000000748,0.0001415789,29.775000000000748,1.525767e-05,29.775000000000748,1.936241e-05,29.775000000000748,8.379024e-06
29.79000000000075,0.0001420826,29.79000000000075,1.521144e-05,29.79000000000075,1.94285e-05,29.79000000000075,8.358825e-06
29.80500000000075,0.0001406094,29.80500000000075,1.602762e-05,29.80500000000075,1.915247e-05,29.80500000000075,8.313199e-06
29.82000000000075,0.0001352048,29.82000000000075,1.701829e-05,29.82000000000075,2.00543e-05,29.82000000000075,7.573703e-06
29.83500000000075,0.0001407518,29.83500000000075,1.730883e-05,29.83500000000075,2.536801e-05,29.83500000000075,7.196016e-06
29.85000000000075,0.0001422755,29.85000000000075,1.670416e-05,29.85000000000075,2.538633e-05,29.85000000000075,6.816002e-06
29.86500000000075,0.0001438576,29.86500000000075,1.611615e-05,29.86500000000075,2.5328e-05,29.86500000000075,6.599699e-06
29.880000000000752,0.0001477804,29.880000000000752,1.589613e-05,29.880000000000752,2.577784e-05,29.880000000000752,7.00959e-06
29.895000000000753,0.0001613442,29.895000000000753,1.747568e-05,29.895000000000753,2.608423e-05,29.895000000000753,7.377733e-06
29.910000000000753,0.0001609158,29.910000000000753,1.724197e-05,29.910000000000753,2.60691e-05,29.910000000000753,7.817162e-06
29.925000000000754,0.0001732449,29.925000000000754,1.648686e-05,29.925000000000754,2.614356e-05,29.925000000000754,8.598076e-06
29.940000000000754,0.0001728894,29.940000000000754,1.648943e-05,29.940000000000754,2.606424e-05,29.940000000000754,8.647087e-06
29.955000000000755,0.0001724662,29.955000000000755,1.685611e-05,29.955000000000755,2.605937e-05,29.955000000000755,8.668239e-06
29.970000000000756,0.0001707098,29.970000000000756,1.641408e-05,29.970000000000756,2.607234e-05,29.970000000000756,8.147174e-06
29.985000000000756,0.0001719315,29.985000000000756,1.490838e-05,29.985000000000756,2.62162e-05,29.985000000000756,8.007658e-06
30.000000000000757,0.0001600165,30.000000000000757,1.489798e-05,30.000000000000757,2.733212e-05,30.000000000000757,7.558809e-06
30.015000000000757,0.0001614173,30.015000000000757,1.498096e-05,30.015000000000757,2.860783e-05,30.015000000000757,7.465047e-06
30.030000000000758,0.0001671682,30.030000000000758,1.510084e-05,30.030000000000758,3.030086e-05,30.030000000000758,7.461272e-06
30.04500000000076,0.0001767708,30.04500000000076,1.575728e-05,30.04500000000076,3.066317e-05,30.04500000000076,7.66246e-06
30.06000000000076,0.0001890127,30.06000000000076,1.670416e-05,30.06000000000076,3.188385e-05,30.06000000000076,7.761099e-06
30.07500000000076,0.0001876133,30.07500000000076,1.624933e-05,30.07500000000076,3.271898e-05,30.07500000000076,7.867457e-06
30.09000000000076,0.0001850991,30.09000000000076,1.938641e-05,30.09000000000076,3.177099e-05,30.09000000000076,8.440998e-06
30.10500000000076,0.000180781,30.10500000000076,1.995783e-05,30.10500000000076,3.794024e-05,30.10500000000076,8.70068e-06
30.12000000000076,0.0001809575,30.12000000000076,2.007606e-05,30.12000000000076,4.144075e-05,30.12000000000076,8.705536e-06
30.135000000000762,0.0001752266,30.135000000000762,2.008939e-05,30.135000000000762,4.115799e-05,30.135000000000762,8.277538e-06
30.150000000000762,0.0001661862,30.150000000000762,1.913481e-05,30.150000000000762,4.123732e-05,30.150000000000762,8.133331e-06
30.165000000000763,0.000170187,30.165000000000763,1.950449e-05,30.165000000000763,4.162695e-05,30.165000000000763,7.521444e-06
30.180000000000764,0.0001633032,30.180000000000764,1.95888e-05,30.180000000000764,4.249305e-05,30.180000000000764,6.890002e-06
30.195000000000764,0.0001617995,30.195000000000764,1.952686e-05,30.195000000000764,4.261388e-05,30.195000000000764,6.737009e-06
30.210000000000765,0.0001684567,30.210000000000765,1.942125e-05,30.210000000000765,4.263668e-05,30.210000000000765,6.435437e-06
30.225000000000765,0.0001705768,30.225000000000765,1.935514e-05,30.225000000000765,4.287094e-05,30.225000000000765,6.389304e-06
30.240000000000766,0.000176052,30.240000000000766,1.946328e-05,30.240000000000766,4.233862e-05,30.240000000000766,6.387099e-06
30.255000000000766,0.0001770894,30.255000000000766,1.980408e-05,30.255000000000766,4.228202e-05,30.255000000000766,6.571893e-06
