X[s],a: EMG RMS 1-1,X[s].1,a: EMG RMS 1-2,X[s].2,a: EMG RMS 1-3,X[s].3,a: EMG RMS 1-4
485.0099999996798,0.0005955856,485.0099999996798,6.402519e-06,485.0099999996798,7.023844e-05,485.0099999996798,4.556543e-05
485.0249999996798,0.0006561666,485.0249999996798,6.413511e-06,485.0249999996798,7.675171e-05,485.0249999996798,5.080595e-05
485.03999999967976,0.000708081,485.03999999967976,6.448557e-06,485.03999999967976,7.585598e-05,485.03999999967976,5.978992e-05
485.05499999967975,0.0007343632,485.05499999967975,6.625263e-06,485.05499999967975,7.249436e-05,485.05499999967975,6.19143e-05
485.06999999967974,0.001302376,485.06999999967974,7.065636e-06,485.06999999967974,7.129741e-05,485.06999999967974,6.540695e-05
485.0849999996797,0.001734958,485.0849999996797,7.023643e-06,485.0849999996797,6.867803e-05,485.0849999996797,7.249572e-05
485.0999999996797,0.002074112,485.0999999996797,7.543885e-06,485.0999999996797,6.933088e-05,485.0999999996797,7.233815e-05
485.1149999996797,0.002099631,485.1149999996797,7.480127e-06,485.1149999996797,6.728703e-05,485.1149999996797,7.658433e-05
485.1299999996797,0.002093819,485.1299999996797,8.072484e-06,485.1299999996797,6.363368e-05,485.1299999996797,7.951272e-05
485.14499999967967,0.002125603,485.14499999967967,1.047143e-05,485.14499999967967,6.111418e-05,485.14499999967967,0.0001490028
485.15999999967966,0.00222402,485.15999999967966,1.04983e-05,485.15999999967966,6.096672e-05,485.15999999967966,0.0001563413
485.17499999967964,0.002242874,485.17499999967964,1.090891e-05,485.17499999967964,5.881314e-05,485.17499999967964,0.0002029801
485.1899999996796,0.002256891,485.1899999996796,1.151451e-05,485.1899999996796,6.013385e-05,485.1899999996796,0.0002419555
485.2049999996796,0.002270111,485.2049999996796,1.159618e-05,485.2049999996796,5.791675e-05,485.2049999996796,0.0002495567
485.2199999996796,0.002269881,485.2199999996796,1.256405e-05,485.2199999996796,5.651312e-05,485.2199999996796,0.0002806432
485.2349999996796,0.002269616,485.2349999996796,1.299721e-05,485.2349999996796,5.769987e-05,485.2349999996796,0.000292288
485.2499999996796,0.002275126,485.2499999996796,1.371031e-05,485.2499999996796,5.91587e-05,485.2499999996796,0.0002945463
485.26499999967956,0.00227045,485.26499999967956,1.392542e-05,485.26499999967956,5.897578e-05,485.26499999967956,0.000303551
485.27999999967955,0.002253345,485.27999999967955,1.439008e-05,485.27999999967955,6.138212e-05,485.27999999967955,0.000303819
485.29499999967953,0.002240564,485.29499999967953,1.458841e-05,485.29499999967953,6.306644e-05,485.29499999967953,0.0003339302
485.3099999996795,0.00214368,485.3099999996795,1.459323e-05,485.3099999996795,6.537206e-05,485.3099999996795,0.0003374084
485.3249999996795,0.001887642,485.3249999996795,1.533135e-05,485.3249999996795,6.620413e-05,485.3249999996795,0.000544766
485.3399999996795,0.001409106,485.3399999996795,1.549495e-05,485.3399999996795,6.455173e-05,485.3399999996795,0.001236624
485.3549999996795,0.001055965,485.3549999996795,1.541657e-05,485.3549999996795,6.45995e-05,485.3549999996795,0.001832947
485.36999999967946,0.00103893,485.36999999967946,1.542022e-05,485.36999999967946,6.553583e-05,485.36999999967946,0.002254098
485.38499999967945,0.001023495,485.38499999967945,1.502884e-05,485.38499999967945,6.787795e-05,485.38499999967945,0.002599291
485.39999999967944,0.0008607366,485.39999999967944,1.348969e-05,485.39999999967944,6.820691e-05,485.39999999967944,0.002718136
485.4149999996794,0.0006705792,485.4149999996794,1.338802e-05,485.4149999996794,6.805226e-05,485.4149999996794,0.002732637
485.4299999996794,0.0007115473,485.4299999996794,1.303185e-05,485.4299999996794,6.557193e-05,485.4299999996794,0.00274219
485.4449999996794,0.0006679471,485.4449999996794,1.237653e-05,485.4449999996794,6.538907e-05,485.4449999996794,0.002753938
485.4599999996794,0.0007618048,485.4599999996794,1.207582e-05,485.4599999996794,6.576992e-05,485.4599999996794,0.002758719
485.47499999967937,0.0008214999,485.47499999967937,1.11465e-05,485.47499999967937,6.246405e-05,485.47499999967937,0.002762677
485.48999999967936,0.000764919,485.48999999967936,1.117553e-05,485.48999999967936,6.088487e-05,485.48999999967936,0.002768029
485.50499999967934,0.0007766701,485.50499999967934,1.080381e-05,485.50499999967934,5.735166e-05,485.50499999967934,0.002768797
485.5199999996793,0.0007724037,485.5199999996793,1.027863e-05,485.5199999996793,4.75295e-05,485.5199999996793,0.002768818
485.5349999996793,0.0007603247,485.5349999996793,9.864624e-06,485.5349999996793,4.227369e-05,485.5349999996793,0.002770553
485.5499999996793,0.0007479692,485.5499999996793,9.336401e-06,485.5499999996793,3.735768e-05,485.5499999996793,0.002774142
485.5649999996793,0.0007451464,485.5649999996793,8.405879e-06,485.5649999996793,3.657342e-05,485.5649999996793,0.00277562
485.5799999996793,0.0007415471,485.5799999996793,7.71011e-06,485.5799999996793,3.613596e-05,485.5799999996793,0.002663026
485.59499999967926,0.0007372685,485.59499999967926,7.459384e-06,485.59499999967926,3.591111e-05,485.59499999967926,0.002353305
485.60999999967925,0.0007128438,485.60999999967925,7.341366e-06,485.60999999967925,3.529427e-05,485.60999999967925,0.001978941
485.62499999967923,0.0006842281,485.62499999967923,7.322153e-06,485.62499999967923,3.266684e-05,485.62499999967923,0.001491565
485.6399999996792,0.0006812782,485.6399999996792,7.174451e-06,485.6399999996792,2.841961e-05,485.6399999996792,0.0007578047
485.6549999996792,0.0006817352,485.6549999996792,7.719241e-06,485.6549999996792,2.766306e-05,485.6549999996792,0.0006772438
485.6699999996792,0.00067529,485.6699999996792,8.019962e-06,485.6699999996792,2.784679e-05,485.6699999996792,0.0006254349
485.6849999996792,0.0005754095,485.6849999996792,8.075974e-06,485.6849999996792,2.909559e-05,485.6849999996792,0.0005131611
485.69999999967916,0.0005390482,485.69999999967916,8.102095e-06,485.69999999967916,2.900297e-05,485.69999999967916,0.0004764914
485.71499999967915,0.0003129261,485.71499999967915,8.246849e-06,485.71499999967915,2.718743e-05,485.71499999967915,0.0004479041
485.72999999967914,0.0002002695,485.72999999967914,8.528988e-06,485.72999999967914,2.723971e-05,485.72999999967914,0.0003992324
485.7449999996791,0.0001928751,485.7449999996791,8.39414e-06,485.7449999996791,2.627899e-05,485.7449999996791,0.0003669404
485.7599999996791,0.0001391131,485.7599999996791,7.802733e-06,485.7599999996791,2.58046e-05,485.7599999996791,0.00036287
485.7749999996791,0.0001042222,485.7749999996791,7.711938e-06,485.7749999996791,2.697364e-05,485.7749999996791,0.0003462087
485.7899999996791,8.892827e-05,485.7899999996791,7.614512e-06,485.7899999996791,2.74699e-05,485.7899999996791,0.0003287778
485.80499999967907,8.957348e-05,485.80499999967907,7.532673e-06,485.80499999967907,2.737796e-05,485.80499999967907,0.0002027199
485.81999999967906,9.385189e-05,485.81999999967906,8.692581e-06,485.81999999967906,2.692137e-05,485.81999999967906,0.0001700878
485.83499999967904,9.868693e-05,485.83499999967904,8.681231e-06,485.83499999967904,2.518018e-05,485.83499999967904,0.0001428497
485.849999999679,0.0001467137,485.849999999679,9.045189e-06,485.849999999679,2.52182e-05,485.849999999679,0.0001119227
485.864999999679,0.0004283452,485.864999999679,9.448883e-06,485.864999999679,2.682859e-05,485.864999999679,0.0001006358
485.879999999679,0.0005208788,485.879999999679,9.441426e-06,485.879999999679,2.612416e-05,485.879999999679,9.013348e-05
485.894999999679,0.0005693917,485.894999999679,9.517214e-06,485.894999999679,2.58297e-05,485.894999999679,8.625393e-05
485.909999999679,0.0005723429,485.909999999679,9.33791e-06,485.909999999679,2.563537e-05,485.909999999679,8.286926e-05
485.92499999967896,0.0005826184,485.92499999967896,9.193482e-06,485.92499999967896,2.557044e-05,485.92499999967896,7.972062e-05
485.93999999967895,0.0005903072,485.93999999967895,9.227129e-06,485.93999999967895,2.382632e-05,485.93999999967895,7.885307e-05
485.95499999967893,0.0005925238,485.95499999967893,9.310717e-06,485.95499999967893,2.713817e-05,485.95499999967893,7.605627e-05
485.9699999996789,0.0005924295,485.9699999996789,9.265217e-06,485.9699999996789,2.65515e-05,485.9699999996789,7.514624e-05
485.9849999996789,0.0005917219,485.9849999996789,8.611173e-06,485.9849999996789,2.610474e-05,485.9849999996789,7.374468e-05
485.9999999996789,0.0005902534,485.9999999996789,8.668239e-06,485.9999999996789,2.59825e-05,485.9999999996789,7.170542e-05
486.0149999996789,0.0005897402,486.0149999996789,8.66011e-06,486.0149999996789,2.498192e-05,486.0149999996789,7.160929e-05
486.02999999967886,0.0005895361,486.02999999967886,8.758771e-06,486.02999999967886,2.30962e-05,486.02999999967886,6.67065e-05
486.04499999967885,0.0005885273,486.04499999967885,8.741063e-06,486.04499999967885,2.283058e-05,486.04499999967885,6.666489e-05
486.05999999967884,0.0005884392,486.05999999967884,8.449338e-06,486.05999999967884,2.24341e-05,486.05999999967884,0.0002019143
486.0749999996788,0.000587973,486.0749999996788,7.673483e-06,486.0749999996788,2.238381e-05,486.0749999996788,0.0002729413
486.0899999996788,0.0005874672,486.0899999996788,8.089915e-06,486.0899999996788,2.226519e-05,486.0899999996788,0.0003063415
486.1049999996788,0.0004696676,486.1049999996788,7.429107e-06,486.1049999996788,2.129239e-05,486.1049999996788,0.000312064
486.1199999996788,0.0003580309,486.1199999996788,6.934835e-06,486.1199999996788,1.802563e-05,486.1199999996788,0.0003126939
486.13499999967877,0.0002482451,486.13499999967877,7.083556e-06,486.13499999967877,1.717648e-05,486.13499999967877,0.0003132267
486.14999999967876,0.0001448044,486.14999999967876,7.053663e-06,486.14999999967876,1.700173e-05,486.14999999967876,0.0003150134
486.16499999967874,0.0001367097,486.16499999967874,6.953093e-06,486.16499999967874,1.683353e-05,486.16499999967874,0.0003152691
486.1799999996787,9.184866e-05,486.1799999996787,7.455606e-06,486.1799999996787,1.626406e-05,486.1799999996787,0.0003160944
486.1949999996787,5.9999e-05,486.1949999996787,7.483893e-06,486.1949999996787,1.597569e-05,486.1949999996787,0.0003270439
486.2099999996787,4.734836e-05,486.2099999996787,7.656943e-06,486.2099999996787,8.128133e-06,486.2099999996787,0.0003383646
486.2249999996787,4.916092e-05,486.2249999996787,7.525189e-06,486.2249999996787,7.757469e-06,486.2249999996787,0.0003409678
486.2399999996787,5.526014e-05,486.2399999996787,7.343284e-06,486.2399999996787,9.291028e-06,486.2399999996787,0.0003795663
486.25499999967866,6.161828e-05,486.25499999967866,7.470705e-06,486.25499999967866,9.246955e-06,486.25499999967866,0.0005053936
486.26999999967865,6.881102e-05,486.26999999967865,7.590424e-06,486.26999999967865,9.369536e-06,486.26999999967865,0.0005211037
486.28499999967863,6.971525e-05,486.28499999967863,8.081204e-06,486.28499999967863,9.363521e-06,486.28499999967863,0.0005637205
486.2999999996786,7.42463e-05,486.2999999996786,8.490915e-06,486.2999999996786,9.334893e-06,486.2999999996786,0.0006139886
486.3149999996786,8.11981e-05,486.3149999996786,8.495891e-06,486.3149999996786,9.292544e-06,486.3149999996786,0.000643023
486.3299999996786,8.459718e-05,486.3299999996786,9.214908e-06,486.3299999996786,9.116548e-06,486.3299999996786,0.0007287014
486.3449999996786,8.765315e-05,486.3449999996786,1.062633e-05,486.3449999996786,9.339419e-06,486.3449999996786,0.0008264154
486.35999999967856,9.143748e-05,486.35999999967856,1.085324e-05,486.35999999967856,9.739596e-06,486.35999999967856,0.000840263
486.37499999967855,8.727644e-05,486.37499999967855,1.084675e-05,486.37499999967855,1.015731e-05,486.37499999967855,0.0008850947
486.38999999967854,0.0001002366,486.38999999967854,1.102835e-05,486.38999999967854,1.115408e-05,486.38999999967854,0.001320934
486.4049999996785,0.0001041112,486.4049999996785,1.131956e-05,486.4049999996785,1.152673e-05,486.4049999996785,0.001846289
486.4199999996785,0.0001095834,486.4199999996785,1.172665e-05,486.4199999996785,1.251012e-05,486.4199999996785,0.002130673
486.4349999996785,0.000110926,486.4349999996785,1.133076e-05,486.4349999996785,1.25135e-05,486.4349999996785,0.002443492
486.4499999996785,0.000111251,486.4499999996785,1.157551e-05,486.4499999996785,1.237995e-05,486.4499999996785,0.002775688
486.46499999967847,0.0001134774,486.46499999967847,1.163499e-05,486.46499999967847,1.287634e-05,486.46499999967847,0.002980578
486.47999999967845,0.0001120315,486.47999999967845,1.215836e-05,486.47999999967845,1.258086e-05,486.47999999967845,0.002996111
486.49499999967844,0.000111969,486.49499999967844,1.21572e-05,486.49499999967844,1.264118e-05,486.49499999967844,0.003086532
486.5099999996784,0.0001052822,486.5099999996784,1.227138e-05,486.5099999996784,1.410034e-05,486.5099999996784,0.003147429
486.5249999996784,0.0001032452,486.5249999996784,1.226908e-05,486.5249999996784,1.407834e-05,486.5249999996784,0.003167383
486.5399999996784,0.0001030105,486.5399999996784,1.190074e-05,486.5399999996784,1.431548e-05,486.5399999996784,0.003161154
486.5549999996784,0.0001001198,486.5549999996784,1.164951e-05,486.5549999996784,1.445649e-05,486.5549999996784,0.003159228
486.5699999996784,9.394626e-05,486.5699999996784,1.149247e-05,486.5699999996784,1.555574e-05,486.5699999996784,0.003147843
486.58499999967836,9.302862e-05,486.58499999967836,1.105386e-05,486.58499999967836,1.634183e-05,486.58499999967836,0.003128912
486.59999999967835,8.985642e-05,486.59999999967835,1.102707e-05,486.59999999967835,1.685694e-05,486.59999999967835,0.003107365
486.61499999967833,8.834565e-05,486.61499999967833,1.100021e-05,486.61499999967833,1.659757e-05,486.61499999967833,0.003104166
486.6299999996783,8.563371e-05,486.6299999996783,1.111233e-05,486.6299999996783,1.642437e-05,486.6299999996783,0.003086118
486.6449999996783,6.683962e-05,486.6449999996783,1.088823e-05,486.6449999996783,1.5768e-05,486.6449999996783,0.002885097
486.6599999996783,6.203046e-05,486.6599999996783,1.034011e-05,486.6599999996783,1.56865e-05,486.6599999996783,0.002562225
486.6749999996783,5.666994e-05,486.6749999996783,1.013092e-05,486.6749999996783,1.514462e-05,486.6749999996783,0.002315249
486.68999999967826,5.456546e-05,486.68999999967826,9.997955e-06,486.68999999967826,1.519476e-05,486.68999999967826,0.002062263
486.70499999967825,5.472735e-05,486.70499999967825,1.002328e-05,486.70499999967825,1.484304e-05,486.70499999967825,0.001561838
486.71999999967824,4.882336e-05,486.71999999967824,1.037547e-05,486.71999999967824,1.448375e-05,486.71999999967824,0.001233523
486.7349999996782,4.823059e-05,486.7349999996782,1.026354e-05,486.7349999996782,1.413725e-05,486.7349999996782,0.001367413
486.7499999996782,4.471505e-05,486.7499999996782,1.047546e-05,486.7499999996782,1.257638e-05,486.7499999996782,0.001259302
486.7649999996782,4.709719e-05,486.7649999996782,1.094758e-05,486.7649999996782,1.190074e-05,486.7649999996782,0.001166806
486.7799999996782,4.468952e-05,486.7799999996782,1.109203e-05,486.7799999996782,1.182355e-05,486.7799999996782,0.001140208
486.79499999967817,4.545771e-05,486.79499999967817,1.156334e-05,486.79499999967817,1.137047e-05,486.79499999967817,0.001117088
486.80999999967815,4.7707e-05,486.80999999967815,1.179611e-05,486.80999999967815,1.124214e-05,486.80999999967815,0.001143302
486.82499999967814,6.875143e-05,486.82499999967814,1.157186e-05,486.82499999967814,9.642205e-06,486.82499999967814,0.00115174
486.8399999996781,0.0001356939,486.8399999996781,1.082985e-05,486.8399999996781,8.557019e-06,486.8399999996781,0.001139076
486.8549999996781,0.0001457829,486.8549999996781,1.01684e-05,486.8549999996781,8.26732e-06,486.8549999996781,0.001138141
486.8699999996781,0.0001753233,486.8699999996781,1.052911e-05,486.8699999996781,8.37566e-06,486.8699999996781,0.001126392
486.8849999996781,0.0001885705,486.8849999996781,1.051439e-05,486.8849999996781,8.36051e-06,486.8849999996781,0.001077243
486.8999999996781,0.0001887775,486.8999999996781,1.052376e-05,486.8999999996781,8.664989e-06,486.8999999996781,0.001035005
486.91499999967806,0.0001901684,486.91499999967806,1.062368e-05,486.91499999967806,8.548785e-06,486.91499999967806,0.001033848
486.92999999967805,0.0001920429,486.92999999967805,1.073054e-05,486.92999999967805,8.477633e-06,486.92999999967805,0.001011984
486.94499999967803,0.0001929209,486.94499999967803,1.068977e-05,486.94499999967803,8.46433e-06,486.94499999967803,0.000885587
486.959999999678,0.000193827,486.959999999678,1.040395e-05,486.959999999678,8.340267e-06,486.959999999678,0.0008546187
486.974999999678,0.0001939199,486.974999999678,1.041071e-05,486.974999999678,8.367247e-06,486.974999999678,0.0006927556
486.989999999678,0.0001935345,486.989999999678,1.006676e-05,486.989999999678,8.425965e-06,486.989999999678,0.0004937135
487.004999999678,0.0001932166,487.004999999678,9.259134e-06,487.004999999678,8.612809e-06,487.004999999678,0.0004754112
487.01999999967796,0.0001932699,487.01999999967796,9.138154e-06,487.01999999967796,8.66011e-06,487.01999999967796,0.0004440697
487.03499999967795,0.0001932675,487.03499999967795,9.021799e-06,487.03499999967795,8.560311e-06,487.03499999967795,0.0004357303
487.04999999967794,0.0001923391,487.04999999967794,8.314893e-06,487.04999999967794,9.018676e-06,487.04999999967794,0.0003931311
487.0649999996779,0.0001917121,487.0649999996779,8.355453e-06,487.0649999996779,9.046747e-06,487.0649999996779,0.0002875532
487.0799999996779,0.0001707449,487.0799999996779,8.392462e-06,487.0799999996779,9.730914e-06,487.0799999996779,0.0002954426
487.0949999996779,0.0001363895,487.0949999996779,8.357139e-06,487.0949999996779,9.29709e-06,487.0949999996779,0.0003215521
487.1099999996779,0.0001211225,487.1099999996779,7.99181e-06,487.1099999996779,8.776445e-06,487.1099999996779,0.0003201672
487.12499999967787,7.912841e-05,487.12499999967787,7.434793e-06,487.12499999967787,8.957552e-06,487.12499999967787,0.0003543308
487.13999999967785,5.565614e-05,487.13999999967785,7.993573e-06,487.13999999967785,8.482616e-06,487.13999999967785,0.0003678378
487.15499999967784,5.210252e-05,487.15499999967784,8.231461e-06,487.15499999967784,8.456004e-06,487.15499999967784,0.0003710261
487.1699999996778,4.992492e-05,487.1699999996778,8.499207e-06,487.1699999996778,8.297934e-06,487.1699999996778,0.0003962344
487.1849999996778,4.884845e-05,487.1849999996778,8.557019e-06,487.1849999996778,8.43432e-06,487.1849999996778,0.0004112461
487.1999999996778,4.820051e-05,487.1999999996778,8.250264e-06,487.1999999996778,8.415928e-06,487.1999999996778,0.0004132075
487.2149999996778,4.76618e-05,487.2149999996778,7.616361e-06,487.2149999996778,8.474309e-06,487.2149999996778,0.0003949434
487.2299999996778,4.827526e-05,487.2299999996778,7.919212e-06,487.2299999996778,8.557019e-06,487.2299999996778,0.000396431
487.24499999967776,4.936223e-05,487.24499999967776,8.765202e-06,487.24499999967776,8.699061e-06,487.24499999967776,0.000395543
487.25999999967775,5.071548e-05,487.25999999967775,8.676361e-06,487.25999999967775,8.540542e-06,487.25999999967775,0.0004058841
487.27499999967773,5.093416e-05,487.27499999967773,8.645458e-06,487.27499999967773,8.635676e-06,487.27499999967773,0.0004080703
487.2899999996777,5.072353e-05,487.2899999996777,8.557019e-06,487.2899999996777,9.007736e-06,487.2899999996777,0.0004110151
487.3049999996777,5.152124e-05,487.3049999996777,8.452672e-06,487.3049999996777,8.561957e-06,487.3049999996777,0.0004150835
487.3199999996777,5.38885e-05,487.3199999996777,8.447671e-06,487.3199999996777,8.336888e-06,487.3199999996777,0.0004333926
487.3349999996777,5.534598e-05,487.3349999996777,8.343643e-06,487.3349999996777,8.454338e-06,487.3349999996777,0.0004096995
487.34999999967766,5.438963e-05,487.34999999967766,8.512456e-06,487.34999999967766,9.219493e-06,487.34999999967766,0.0004050696
487.36499999967765,5.21833e-05,487.36499999967765,8.634045e-06,487.36499999967765,9.808774e-06,487.36499999967765,0.0003889037
487.37999999967764,5.202514e-05,487.37999999967764,8.420948e-06,487.37999999967764,1.037004e-05,487.37999999967764,0.0003913969
487.3949999996776,5.151003e-05,487.3949999996776,8.093397e-06,487.3949999996776,1.058382e-05,487.3949999996776,0.0003882351
487.4099999996776,5.385816e-05,487.4099999996776,7.949394e-06,487.4099999996776,1.072398e-05,487.4099999996776,0.0004129869
487.4249999996776,5.243402e-05,487.4249999996776,8.296236e-06,487.4249999996776,1.135311e-05,487.4249999996776,0.0004750187
487.4399999996776,5.447891e-05,487.4399999996776,8.681231e-06,487.4399999996776,1.308901e-05,487.4399999996776,0.0006068398
487.45499999967757,5.273806e-05,487.45499999967757,9.038959e-06,487.45499999967757,1.532676e-05,487.45499999967757,0.0006448373
487.46999999967755,5.163295e-05,487.46999999967755,9.20267e-06,487.46999999967755,1.843746e-05,487.46999999967755,0.0006528712
487.48499999967754,5.1917e-05,487.48499999967754,8.682853e-06,487.48499999967754,1.951748e-05,487.48499999967754,0.0006568841
487.4999999996775,5.193354e-05,487.4999999996775,9.505367e-06,487.4999999996775,2.032709e-05,487.4999999996775,0.0007130125
487.5149999996775,5.550762e-05,487.5149999996775,9.494987e-06,487.5149999996775,2.041008e-05,487.5149999996775,0.0007262134
487.5299999996775,5.86092e-05,487.5299999996775,9.450374e-06,487.5299999996775,2.047417e-05,487.5299999996775,0.0007408628
487.5449999996775,8.153051e-05,487.5449999996775,9.408545e-06,487.5449999996775,2.034164e-05,487.5449999996775,0.0007378674
487.5599999996775,9.87336e-05,487.5599999996775,9.351477e-06,487.5599999996775,2.0379e-05,487.5599999996775,0.0008071777
487.57499999967746,0.0001011064,487.57499999967746,9.33791e-06,487.57499999967746,2.03264e-05,487.57499999967746,0.0008347432
487.58999999967745,0.0001064756,487.58999999967745,9.517214e-06,487.58999999967745,1.991261e-05,487.58999999967745,0.0008516386
487.60499999967743,0.0001203728,487.60499999967743,9.617337e-06,487.60499999967743,1.966703e-05,487.60499999967743,0.0008670794
487.6199999996774,0.0001232784,487.6199999996774,9.453355e-06,487.6199999996774,1.929609e-05,487.6199999996774,0.000896956
487.6349999996774,0.000123463,487.6349999996774,9.557095e-06,487.6349999996774,1.892979e-05,487.6349999996774,0.0008871806
487.6499999996774,0.0001244165,487.6499999996774,9.838886e-06,487.6499999996774,1.878412e-05,487.6499999996774,0.0008944827
487.6649999996774,0.0001245312,487.6649999996774,9.29709e-06,487.6649999996774,1.863353e-05,487.6649999996774,0.0008640235
487.67999999967736,0.000125256,487.67999999967736,8.977973e-06,487.67999999967736,1.837087e-05,487.67999999967736,0.0008081712
487.69499999967735,0.0001304661,487.69499999967735,8.50749e-06,487.69499999967735,1.679835e-05,487.69499999967735,0.0007446566
487.70999999967734,0.0001326435,487.70999999967734,8.335198e-06,487.70999999967734,1.188178e-05,487.70999999967734,0.0007418677
487.7249999996773,0.0001345064,487.7249999996773,8.373978e-06,487.7249999996773,1.063825e-05,487.7249999996773,0.0007387391
487.7399999996773,0.0001343626,487.7399999996773,7.984756e-06,487.7399999996773,8.561957e-06,487.7399999996773,0.0007461858
487.7549999996773,0.0001357818,487.7549999996773,6.762054e-06,487.7549999996773,6.391509e-06,487.7549999996773,0.000708703
487.7699999996773,0.0001332416,487.7699999996773,6.768301e-06,487.7699999996773,6.599699e-06,487.7699999996773,0.0007065145
487.78499999967727,0.0001346773,487.78499999967727,6.747456e-06,487.78499999967727,6.387099e-06,487.78499999967727,0.0007058699
487.79999999967725,0.0001181777,487.79999999967725,6.818068e-06,487.79999999967725,6.496438e-06,487.79999999967725,0.0007065256
487.81499999967724,0.0001066752,487.81499999967724,6.853102e-06,487.81499999967724,6.387099e-06,487.81499999967724,0.0006029903
487.8299999996772,0.000102875,487.8299999996772,6.80773e-06,487.8299999996772,6.219488e-06,487.8299999996772,0.0006148654
487.8449999996772,9.797393e-05,487.8449999996772,6.716067e-06,487.8449999996772,6.228541e-06,487.8449999996772,0.0006130321
487.8599999996772,8.879209e-05,487.8599999996772,6.940926e-06,487.8599999996772,6.237581e-06,487.8599999996772,0.0005767909
487.8749999996772,8.897609e-05,487.8749999996772,6.985433e-06,487.8749999996772,6.248863e-06,487.8749999996772,0.0005677822
487.8899999996772,8.889626e-05,487.8899999996772,6.743279e-06,487.8899999996772,6.280343e-06,487.8899999996772,0.001024081
487.90499999967716,8.801608e-05,487.90499999967716,6.296025e-06,487.90499999967716,6.300498e-06,487.90499999967716,0.001546383
487.91999999967715,8.646859e-05,487.91999999967715,6.25337e-06,487.91999999967715,6.535352e-06,487.91999999967715,0.002039707
487.93499999967713,8.400699e-05,487.93499999967713,6.051891e-06,487.93499999967713,6.358363e-06,487.93499999967713,0.002365832
487.9499999996771,7.403027e-05,487.9499999996771,5.903427e-06,487.9499999996771,6.463831e-06,487.9499999996771,0.002390334
487.9649999996771,6.804936e-05,487.9649999996771,5.760922e-06,487.9649999996771,6.19907e-06,487.9649999996771,0.002448061
487.9799999996771,6.667292e-05,487.9799999996771,5.841057e-06,487.9799999996771,6.309435e-06,487.9799999996771,0.002481044
487.9949999996771,6.115381e-05,487.9949999996771,5.903427e-06,487.9949999996771,6.701369e-06,487.9949999996771,0.002510234
488.00999999967706,6.033661e-05,488.00999999967706,5.979298e-06,488.00999999967706,7.947621e-06,488.00999999967706,0.00254318
488.02499999967705,5.870118e-05,488.02499999967705,5.879517e-06,488.02499999967705,9.50833e-06,488.02499999967705,0.002559336
488.03999999967704,5.361621e-05,488.03999999967704,5.841057e-06,488.03999999967704,1.126342e-05,488.03999999967704,0.00255903
488.054999999677,5.207602e-05,488.054999999677,5.75603e-06,488.054999999677,1.227252e-05,488.054999999677,0.00255594
488.069999999677,5.429553e-05,488.069999999677,5.726587e-06,488.069999999677,1.326752e-05,488.069999999677,0.002550943
488.084999999677,5.471113e-05,488.084999999677,5.652309e-06,488.084999999677,1.526782e-05,488.084999999677,0.002545288
488.099999999677,5.146735e-05,488.099999999677,5.200618e-06,488.099999999677,1.900703e-05,488.099999999677,0.002739308
488.11499999967697,4.325498e-05,488.11499999967697,4.967884e-06,488.11499999967697,1.935877e-05,488.11499999967697,0.002848445
488.12999999967695,4.511181e-05,488.12999999967695,4.782967e-06,488.12999999967695,1.969352e-05,488.12999999967695,0.002996668
488.14499999967694,4.588797e-05,488.14499999967694,4.864733e-06,488.14499999967694,1.977703e-05,488.14499999967694,0.002819655
488.1599999996769,4.769164e-05,488.1599999996769,4.812329e-06,488.1599999996769,1.989845e-05,488.1599999996769,0.002570499
488.1749999996769,5.058643e-05,488.1749999996769,4.844421e-06,488.1749999996769,1.981901e-05,488.1749999996769,0.002370671
488.1899999996769,5.222647e-05,488.1899999996769,5.948592e-06,488.1899999996769,1.985593e-05,488.1899999996769,0.002236956
488.2049999996769,5.959452e-05,488.2049999996769,5.927241e-06,488.2049999996769,1.984032e-05,488.2049999996769,0.002304729
488.2199999996769,6.676539e-05,488.2199999996769,5.939112e-06,488.2199999996769,2.003392e-05,488.2199999996769,0.002411469
488.23499999967686,6.929776e-05,488.23499999967686,6.098266e-06,488.23499999967686,2.012232e-05,488.23499999967686,0.002628618
488.24999999967685,6.940155e-05,488.24999999967685,6.16489e-06,488.24999999967685,2.003884e-05,488.24999999967685,0.002770469
488.26499999967683,7.230153e-05,488.26499999967683,6.444187e-06,488.26499999967683,1.984955e-05,488.26499999967683,0.003072828
488.2799999996768,7.278002e-05,488.2799999996768,6.373853e-06,488.2799999996768,1.921709e-05,488.2799999996768,0.003242439
488.2949999996768,7.233874e-05,488.2949999996768,6.483414e-06,488.2949999996768,1.811684e-05,488.2949999996768,0.003262711
488.3099999996768,7.111976e-05,488.3099999996768,6.563313e-06,488.3099999996768,1.74046e-05,488.3099999996768,0.003278544
488.3249999996768,6.944883e-05,488.3249999996768,6.561167e-06,488.3249999996768,1.702491e-05,488.3249999996768,0.003289348
488.33999999967676,6.977766e-05,488.33999999967676,6.424483e-06,488.33999999967676,1.524659e-05,488.33999999967676,0.003291849
488.35499999967675,7.266961e-05,488.35499999967675,6.316129e-06,488.35499999967675,1.045392e-05,488.35499999967675,0.003082732
488.36999999967674,7.332111e-05,488.36999999967674,6.463831e-06,488.36999999967674,9.904527e-06,488.36999999967674,0.003015714
488.3849999996767,7.264189e-05,488.3849999996767,6.652846e-06,488.3849999996767,9.401056e-06,488.3849999996767,0.002867023
488.3999999996767,7.180182e-05,488.3999999996767,6.97938e-06,488.3999999996767,9.704822e-06,488.3999999996767,0.002841912
488.4149999996767,6.965541e-05,488.4149999996767,7.123218e-06,488.4149999996767,9.523133e-06,488.4149999996767,0.002834139
488.4299999996767,7.04045e-05,488.4299999996767,6.989465e-06,488.4299999996767,9.68448e-06,488.4299999996767,0.00261606
488.44499999967667,6.717976e-05,488.44499999967667,6.13052e-06,488.44499999967667,9.700467e-06,488.44499999967667,0.002557011
488.45999999967665,5.688108e-05,488.45999999967665,6.248863e-06,488.45999999967665,9.586528e-06,488.45999999967665,0.00245025
488.47499999967664,5.564348e-05,488.47499999967664,6.174023e-06,488.47499999967664,9.697562e-06,488.47499999967664,0.002152079
488.4899999996766,0.0001494578,488.4899999996766,5.958057e-06,488.4899999996766,1.143717e-05,488.4899999996766,0.0018955
488.5049999996766,0.0002710803,488.5049999996766,6.116717e-06,488.5049999996766,1.147038e-05,488.5049999996766,0.00165868
488.5199999996766,0.0004039979,488.5199999996766,5.903427e-06,488.5199999996766,2.58575e-05,488.5199999996766,0.001049503
488.5349999996766,0.0004291461,488.5349999996766,5.93674e-06,488.5349999996766,2.715321e-05,488.5349999996766,0.0005274006
488.5499999996766,0.0004299287,488.5499999996766,5.874723e-06,488.5499999996766,2.947511e-05,488.5499999996766,0.0004867277
488.56499999967656,0.0004303073,488.56499999967656,6.086705e-06,488.56499999967656,3.436526e-05,488.56499999967656,0.000447919
488.57999999967655,0.0004343655,488.57999999967655,6.098266e-06,488.57999999967655,4.06157e-05,488.57999999967655,0.0004429557
488.59499999967653,0.0004407407,488.59499999967653,6.079758e-06,488.59499999967653,4.317447e-05,488.59499999967653,0.0004370473
488.6099999996765,0.0004452325,488.6099999996765,6.345057e-06,488.6099999996765,4.860388e-05,488.6099999996765,0.0003539739
488.6249999996765,0.0004454677,488.6249999996765,5.955692e-06,488.6249999996765,5.013413e-05,488.6249999996765,0.0003034194
488.6399999996765,0.0004464845,488.6399999996765,5.814468e-06,488.6399999996765,5.296355e-05,488.6399999996765,0.0002930938
488.6549999996765,0.0004506937,488.6549999996765,5.799914e-06,488.6549999996765,5.519816e-05,488.6549999996765,0.0002675823
488.66999999967646,0.0004531268,488.66999999967646,5.802342e-06,488.66999999967646,5.729686e-05,488.66999999967646,0.0002777956
488.68499999967645,0.0004535802,488.68499999967645,6.091332e-06,488.68499999967645,5.93935e-05,488.68499999967645,0.0003680385
488.69999999967644,0.0004554024,488.69999999967644,5.920107e-06,488.69999999967644,6.124037e-05,488.69999999967644,0.0003719181
488.7149999996764,0.0004557359,488.7149999996764,6.068162e-06,488.7149999996764,6.425053e-05,488.7149999996764,0.0004173144
488.7299999996764,0.0004558314,488.7299999996764,5.979298e-06,488.7299999996764,6.442219e-05,488.7299999996764,0.0004202397
488.7449999996764,0.0003913988,488.7449999996764,6.016875e-06,488.7449999996764,6.441082e-05,488.7449999996764,0.000423266
488.7599999996764,0.0003439803,488.7599999996764,5.984008e-06,488.7599999996764,6.484457e-05,488.7599999996764,0.0004321297
488.77499999967637,0.0001796615,488.77499999967637,5.955692e-06,488.77499999967637,6.037418e-05,488.77499999967637,0.0004344418
488.78999999967635,0.0001519649,488.78999999967635,5.934367e-06,488.78999999967635,6.004453e-05,488.78999999967635,0.0004486163
488.80499999967634,0.000151348,488.80499999967634,5.948592e-06,488.80499999967634,5.737449e-05,488.80499999967634,0.000448134
488.8199999996763,0.0001505511,488.8199999996763,6.322817e-06,488.8199999996763,5.629935e-05,488.8199999996763,0.0004524124
488.8349999996763,0.0001388537,488.8349999996763,6.442001e-06,488.8349999996763,5.222405e-05,488.8349999996763,0.0004398779
488.8499999996763,0.0001198398,488.8499999996763,6.610363e-06,488.8499999996763,5.001457e-05,488.8499999996763,0.0004363537
488.8649999996763,0.0001031421,488.8649999996763,6.461651e-06,488.8649999996763,4.47843e-05,488.8649999996763,0.0004359402
488.8799999996763,0.0001027192,488.8799999996763,6.571893e-06,488.8799999996763,4.389956e-05,488.8799999996763,0.0004371901
488.89499999967626,9.670899e-05,488.89499999967626,6.316129e-06,488.89499999967626,3.931078e-05,488.89499999967626,0.0004355833
488.90999999967624,7.0751e-05,488.90999999967624,6.692956e-06,488.90999999967624,3.540943e-05,488.90999999967624,0.000438162
488.92499999967623,6.257491e-05,488.92499999967623,6.747456e-06,488.92499999967623,3.44778e-05,488.92499999967623,0.0003930317
488.9399999996762,5.739806e-05,488.9399999996762,6.567604e-06,488.9399999996762,2.999856e-05,488.9399999996762,0.0003579529
488.9549999996762,4.90964e-05,488.9549999996762,6.629514e-06,488.9549999996762,2.171297e-05,488.9549999996762,0.0003288857
488.9699999996762,4.95215e-05,488.9699999996762,6.528882e-06,488.9699999996762,1.920022e-05,488.9699999996762,0.0002964652
488.9849999996762,0.0003052697,488.9849999996762,6.439814e-06,488.9849999996762,1.924492e-05,488.9849999996762,0.000293151
488.99999999967616,0.0003625053,488.99999999967616,6.413511e-06,488.99999999967616,1.678492e-05,488.99999999967616,0.000279339
489.01499999967615,0.0004370473,489.01499999967615,6.778699e-06,489.01499999967615,1.667716e-05,489.01499999967615,0.0002791629
489.02999999967614,0.0004594988,489.02999999967614,7.127172e-06,489.02999999967614,1.660266e-05,489.02999999967614,0.0002675
489.0449999996761,0.0004605418,489.0449999996761,7.762914e-06,489.0449999996761,1.681846e-05,489.0449999996761,0.0002263298
489.0599999996761,0.0004623024,489.0599999996761,7.472591e-06,489.0599999996761,1.614322e-05,489.0599999996761,0.0002291394
489.0749999996761,0.0004654987,489.0749999996761,7.795508e-06,489.0749999996761,1.639347e-05,489.0749999996761,0.0002297038
489.0899999996761,0.0004671648,489.0899999996761,7.799122e-06,489.0899999996761,1.584998e-05,489.0899999996761,0.0002228008
489.10499999967607,0.0004681756,489.10499999967607,7.879981e-06,489.10499999967607,1.63194e-05,489.10499999967607,0.000225965
489.11999999967605,0.0004684195,489.11999999967605,8.461e-06,489.11999999967605,1.713789e-05,489.11999999967605,0.0002373132
489.13499999967604,0.000468274,489.13499999967604,9.517214e-06,489.13499999967604,1.712309e-05,489.13499999967604,0.0002323139
489.149999999676,0.0004682882,489.149999999676,9.774246e-06,489.149999999676,1.701249e-05,489.149999999676,0.0002374093
489.164999999676,0.0004680156,489.164999999676,9.456335e-06,489.164999999676,1.761777e-05,489.164999999676,0.0002318855
489.179999999676,0.0004680029,489.179999999676,9.430977e-06,489.179999999676,1.844891e-05,489.179999999676,0.0002302353
489.194999999676,0.0004677593,489.194999999676,9.494987e-06,489.194999999676,1.896028e-05,489.194999999676,0.0002265221
489.209999999676,0.0004677234,489.209999999676,9.442919e-06,489.209999999676,1.848934e-05,489.209999999676,0.0002303787
489.22499999967596,0.0004670336,489.22499999967596,9.505367e-06,489.22499999967596,1.832557e-05,489.22499999967596,0.0002304803
489.23999999967594,0.0003000652,489.23999999967594,1.009889e-05,489.23999999967594,1.734135e-05,489.23999999967594,0.0002361217
489.25499999967593,0.0002581601,489.25499999967593,1.089599e-05,489.25499999967593,1.661284e-05,489.25499999967593,0.0002295527
489.2699999996759,0.0001358471,489.2699999996759,1.057317e-05,489.2699999996759,1.641922e-05,489.2699999996759,0.0002252253
489.2849999996759,8.052636e-05,489.2849999996759,1.043909e-05,489.2849999996759,1.690701e-05,489.2849999996759,0.0002216877
489.2999999996759,8.124198e-05,489.2999999996759,1.014065e-05,489.2999999996759,1.661538e-05,489.2999999996759,0.0002186051
489.3149999996759,7.572475e-05,489.3149999996759,1.009889e-05,489.3149999996759,1.820139e-05,489.3149999996759,0.000202309
489.32999999967586,6.399944e-05,489.32999999967586,9.924419e-06,489.32999999967586,1.85957e-05,489.32999999967586,0.0001976564
489.34499999967585,5.568878e-05,489.34499999967585,9.88887e-06,489.34499999967585,2.092805e-05,489.34499999967585,0.0002056878
489.35999999967584,4.930712e-05,489.35999999967584,9.713527e-06,489.35999999967584,2.16532e-05,489.35999999967584,0.0002000353
489.3749999996758,4.93628e-05,489.3749999996758,8.650345e-06,489.3749999996758,2.208796e-05,489.3749999996758,0.0001973008
489.3899999996758,5.007143e-05,489.3899999996758,8.313199e-06,489.3899999996758,2.235422e-05,489.3899999996758,0.0002010237
489.4049999996758,4.876244e-05,489.4049999996758,9.615872e-06,489.4049999996758,2.269257e-05,489.4049999996758,0.0001971627
489.4199999996758,5.060509e-05,489.4199999996758,9.564462e-06,489.4199999996758,2.168376e-05,489.4199999996758,0.0001901066
489.43499999967577,5.171173e-05,489.43499999967577,9.617337e-06,489.43499999967577,2.194978e-05,489.43499999967577,0.0001900486
489.44999999967575,5.023798e-05,489.44999999967575,9.68448e-06,489.44999999967575,2.147683e-05,489.44999999967575,0.0001860155
489.46499999967574,5.094107e-05,489.46499999967574,9.92016e-06,489.46499999967574,2.181782e-05,489.46499999967574,0.0001856948
489.4799999996757,5.221865e-05,489.4799999996757,1.030326e-05,489.4799999996757,2.206499e-05,489.4799999996757,0.0001973827
489.4949999996757,5.440025e-05,489.4949999996757,9.375548e-06,489.4949999996757,2.296715e-05,489.4949999996757,0.0001983478
489.5099999996757,5.435958e-05,489.5099999996757,9.113456e-06,489.5099999996757,2.359879e-05,489.5099999996757,0.0002058628
489.5249999996757,5.432069e-05,489.5249999996757,9.088692e-06,489.5249999996757,2.440807e-05,489.5249999996757,0.0002038367
489.5399999996757,5.352496e-05,489.5399999996757,9.236285e-06,489.5399999996757,2.491982e-05,489.5399999996757,0.0002085417
489.55499999967566,8.024037e-05,489.55499999967566,9.087142e-06,489.55499999967566,2.582425e-05,489.55499999967566,0.0002076578
489.56999999967564,8.453522e-05,489.56999999967564,9.398059e-06,489.56999999967564,2.4769e-05,489.56999999967564,0.000207007
489.58499999967563,8.978946e-05,489.58499999967563,1.026765e-05,489.58499999967563,2.532411e-05,489.58499999967563,0.0002074558
489.5999999996756,9.085374e-05,489.5999999996756,1.025255e-05,489.5999999996756,2.471662e-05,489.5999999996756,0.0002133193
489.6149999996756,0.0001158684,489.6149999996756,1.020297e-05,489.6149999996756,2.468069e-05,489.6149999996756,0.0002107997
489.6299999996756,0.0002288362,489.6299999996756,1.015869e-05,489.6299999996756,2.372738e-05,489.6299999996756,0.0002196433
489.6449999996756,0.0003239891,489.6449999996756,1.001485e-05,489.6449999996756,2.456857e-05,489.6449999996756,0.0002180934
489.65999999967556,0.0003491546,489.65999999967556,9.004607e-06,489.65999999967556,2.689257e-05,489.65999999967556,0.0002164922
489.67499999967555,0.0003531542,489.67499999967555,9.021799e-06,489.67499999967555,2.659391e-05,489.67499999967555,0.0002165322
489.68999999967554,0.000356149,489.68999999967554,1.024156e-05,489.68999999967554,2.647233e-05,489.68999999967554,0.0002144305
489.7049999996755,0.0003613971,489.7049999996755,1.089857e-05,489.7049999996755,2.6418e-05,489.7049999996755,0.0002132865
489.7199999996755,0.0003819428,489.7199999996755,1.055183e-05,489.7199999996755,2.605397e-05,489.7199999996755,0.000212159
489.7349999996755,0.0004051464,489.7349999996755,1.022917e-05,489.7349999996755,2.619578e-05,489.7349999996755,0.0001921043
489.7499999996755,0.0004250759,489.7499999996755,1.013231e-05,489.7499999996755,2.609179e-05,489.7499999996755,0.0001911092
489.76499999967547,0.0004302427,489.76499999967547,1.051573e-05,489.76499999967547,2.602854e-05,489.76499999967547,0.000183203
489.77999999967545,0.0004465558,489.77999999967545,1.146915e-05,489.77999999967545,2.543401e-05,489.77999999967545,0.0001856236
489.79499999967544,0.0004471982,489.79499999967544,1.132703e-05,489.79499999967544,2.536524e-05,489.79499999967544,0.0001786015
489.8099999996754,0.0004523394,489.8099999996754,1.149982e-05,489.8099999996754,2.515556e-05,489.8099999996754,0.0001807173
489.8249999996754,0.0004583094,489.8249999996754,1.047412e-05,489.8249999996754,2.47377e-05,489.8249999996754,0.0001794471
489.8399999996754,0.0004606429,489.8399999996754,1.098868e-05,489.8399999996754,2.2329e-05,489.8399999996754,0.0001746029
489.8549999996754,0.0004630966,489.8549999996754,1.102068e-05,489.8549999996754,2.196774e-05,489.8549999996754,0.000150081
489.8699999996754,0.0004323002,489.8699999996754,1.089211e-05,489.8699999996754,2.202538e-05,489.8699999996754,0.0001487153
489.88499999967536,0.0003930424,489.88499999967536,1.184973e-05,489.88499999967536,2.232963e-05,489.88499999967536,0.0001444751
489.89999999967534,0.0003271074,489.89999999967534,1.186161e-05,489.89999999967534,2.168051e-05,489.89999999967534,0.0001403833
489.91499999967533,0.0003167794,489.91499999967533,1.189482e-05,489.91499999967533,1.915468e-05,489.91499999967533,0.0001825532
489.9299999996753,0.0003119321,489.9299999996753,1.209796e-05,489.9299999996753,2.023471e-05,489.9299999996753,0.0001814682
489.9449999996753,0.0003109568,489.9449999996753,1.071609e-05,489.9449999996753,2.051884e-05,489.9449999996753,0.0001996317
489.9599999996753,0.0002960195,489.9599999996753,1.104111e-05,489.9599999996753,2.063181e-05,489.9599999996753,0.0002349624
489.9749999996753,0.0002736799,489.9749999996753,1.17734e-05,489.9749999996753,2.151484e-05,489.9749999996753,0.0003027519
489.98999999967526,0.0002253641,489.98999999967526,1.178655e-05,489.98999999967526,2.127319e-05,489.98999999967526,0.0003792099
490.00499999967525,0.0001981804,490.00499999967525,1.197978e-05,490.00499999967525,2.070541e-05,490.00499999967525,0.0005138314
490.01999999967524,0.0001682711,490.01999999967524,1.209447e-05,490.01999999967524,2.048586e-05,490.01999999967524,0.0006591804
490.0349999996752,0.0001573031,490.0349999996752,1.169417e-05,490.0349999996752,2.067682e-05,490.0349999996752,0.0006678562
490.0499999996752,0.0001512363,490.0499999996752,1.182355e-05,490.0499999996752,2.006764e-05,490.0499999996752,0.000687569
490.0649999996752,0.0001093674,490.0649999996752,1.25562e-05,490.0649999996752,2.066728e-05,490.0649999996752,0.0007008388
490.0799999996752,9.743703e-05,490.0799999996752,1.297986e-05,490.0799999996752,2.208159e-05,490.0799999996752,0.0007015611
490.09499999967517,7.69017e-05,490.09499999967517,1.321966e-05,490.09499999967517,2.287127e-05,490.09499999967517,0.000701464
490.10999999967515,6.728557e-05,490.10999999967515,1.327495e-05,490.10999999967515,2.292049e-05,490.10999999967515,0.0007000538
490.12499999967514,6.12215e-05,490.12499999967514,1.306531e-05,490.12499999967514,2.276694e-05,490.12499999967514,0.0006998279
490.1399999996751,5.981018e-05,490.1399999996751,1.295052e-05,490.1399999996751,2.210135e-05,490.1399999996751,0.0006974919
490.1549999996751,5.97041e-05,490.1549999996751,1.370826e-05,490.1549999996751,2.149585e-05,490.1549999996751,0.0006943872
490.1699999996751,5.869326e-05,490.1699999996751,1.410833e-05,490.1699999996751,2.101068e-05,490.1699999996751,0.0006872136
490.1849999996751,5.818416e-05,490.1849999996751,1.413227e-05,490.1849999996751,1.98254e-05,490.1849999996751,0.000686439
490.1999999996751,5.66411e-05,490.1999999996751,1.371134e-05,490.1999999996751,1.990836e-05,490.1999999996751,0.0006804746
490.21499999967506,5.15901e-05,490.21499999967506,1.37452e-05,490.21499999967506,1.998957e-05,490.21499999967506,0.000668451
490.22999999967504,5.143532e-05,490.22999999967504,1.482214e-05,490.22999999967504,1.876386e-05,490.22999999967504,0.0006114277
490.24499999967503,5.298642e-05,490.24499999967503,1.486674e-05,490.24499999967503,1.965198e-05,490.24499999967503,0.0005970346
490.259999999675,5.434351e-05,490.259999999675,1.494707e-05,490.259999999675,1.990482e-05,490.259999999675,0.00045717
490.274999999675,5.256201e-05,490.274999999675,1.438812e-05,490.274999999675,1.983748e-05,490.274999999675,0.0003864933
490.289999999675,5.358993e-05,490.289999999675,1.43695e-05,490.289999999675,1.908395e-05,490.289999999675,0.0003886521
490.304999999675,5.395563e-05,490.304999999675,1.510736e-05,490.304999999675,1.896771e-05,490.304999999675,0.0003749805
490.31999999967496,5.515578e-05,490.31999999967496,1.474878e-05,490.31999999967496,1.754727e-05,490.31999999967496,0.0003662288
490.33499999967495,5.610585e-05,490.33499999967495,1.411531e-05,490.33499999967495,1.575549e-05,490.33499999967495,0.0003682259
490.34999999967494,5.586481e-05,490.34999999967494,1.411232e-05,490.34999999967494,1.540377e-05,490.34999999967494,0.0003706782
490.3649999996749,5.665254e-05,490.3649999996749,1.411332e-05,490.3649999996749,1.564603e-05,490.3649999996749,0.000374055
490.3799999996749,5.695088e-05,490.3799999996749,1.478884e-05,490.3799999996749,1.569009e-05,490.3799999996749,0.0003748855
490.3949999996749,5.605336e-05,490.3949999996749,1.526506e-05,490.3949999996749,1.613275e-05,490.3949999996749,0.0005715665
490.4099999996749,5.76542e-05,490.4099999996749,1.549858e-05,490.4099999996749,1.672186e-05,490.4099999996749,0.0007729483
490.42499999967487,5.754096e-05,490.42499999967487,1.528811e-05,490.42499999967487,1.90677e-05,490.42499999967487,0.0008946569
490.43999999967485,5.715113e-05,490.43999999967485,1.543027e-05,490.43999999967485,2.005851e-05,490.43999999967485,0.0009156658
490.45499999967484,5.933109e-05,490.45499999967484,1.558017e-05,490.45499999967484,1.987366e-05,490.45499999967484,0.001241122
490.4699999996748,5.883613e-05,490.4699999996748,1.649028e-05,490.4699999996748,2.037554e-05,490.4699999996748,0.001306366
490.4849999996748,5.991136e-05,490.4849999996748,1.604519e-05,490.4849999996748,2.04666e-05,490.4849999996748,0.001322253
490.4999999996748,5.738996e-05,490.4999999996748,1.682349e-05,490.4999999996748,1.949148e-05,490.4999999996748,0.001318165
490.5149999996748,5.663339e-05,490.5149999996748,1.679919e-05,490.5149999996748,1.921782e-05,490.5149999996748,0.001349961
490.52999999967477,5.8166e-05,490.52999999967477,1.708356e-05,490.52999999967477,1.913113e-05,490.52999999967477,0.001348743
490.54499999967476,5.713165e-05,490.54499999967476,1.76609e-05,490.54499999967476,1.884776e-05,490.54499999967476,0.001353348
490.55999999967474,5.409227e-05,490.55999999967474,1.686446e-05,490.55999999967474,1.897736e-05,490.55999999967474,0.001359942
490.57499999967473,5.239962e-05,490.57499999967473,1.712638e-05,490.57499999967473,1.898404e-05,490.57499999967473,0.0013705
490.5899999996747,5.346624e-05,490.5899999996747,1.783472e-05,490.5899999996747,1.931288e-05,490.5899999996747,0.001403896
490.6049999996747,5.45745e-05,490.6049999996747,1.888584e-05,490.6049999996747,1.95016e-05,490.6049999996747,0.001481824
490.6199999996747,5.353602e-05,490.6199999996747,1.982896e-05,490.6199999996747,1.941472e-05,490.6199999996747,0.001517426
490.6349999996747,5.40558e-05,490.6349999996747,1.918921e-05,490.6349999996747,1.931434e-05,490.6349999996747,0.001602079
490.64999999967466,5.430669e-05,490.64999999967466,1.847486e-05,490.64999999967466,2.371431e-05,490.64999999967466,0.001521818
490.66499999967465,5.369077e-05,490.66499999967465,1.777538e-05,490.66499999967465,2.343346e-05,490.66499999967465,0.001442502
490.67999999967464,5.362068e-05,490.67999999967464,1.776984e-05,490.67999999967464,2.277498e-05,490.67999999967464,0.001440338
490.6949999996746,5.256951e-05,490.6949999996746,1.882083e-05,490.6949999996746,2.266027e-05,490.6949999996746,0.001374526
490.7099999996746,5.089432e-05,490.7099999996746,1.891863e-05,490.7099999996746,2.464756e-05,490.7099999996746,0.001137996
490.7249999996746,5.063737e-05,490.7249999996746,1.804984e-05,490.7249999996746,2.550038e-05,490.7249999996746,0.001075318
490.7399999996746,5.038861e-05,490.7399999996746,1.686864e-05,490.7399999996746,2.568916e-05,490.7399999996746,0.001053529
490.75499999967457,5.12339e-05,490.75499999967457,1.675973e-05,490.75499999967457,2.609232e-05,490.75499999967457,0.00103654
490.76999999967455,4.979751e-05,490.76999999967455,1.680422e-05,490.76999999967455,2.694281e-05,490.76999999967455,0.001017583
490.78499999967454,4.672846e-05,490.78499999967454,1.614235e-05,490.78499999967454,3.318919e-05,490.78499999967454,0.001010959
490.7999999996745,4.655449e-05,490.7999999996745,1.60074e-05,490.7999999996745,3.476708e-05,490.7999999996745,0.0009889213
490.8149999996745,4.790089e-05,490.8149999996745,1.606011e-05,490.8149999996745,3.654414e-05,490.8149999996745,0.0009832772
490.8299999996745,4.74509e-05,490.8299999996745,1.489231e-05,490.8299999996745,4.082741e-05,490.8299999996745,0.0009743038
490.8449999996745,4.923679e-05,490.8449999996745,1.500914e-05,490.8449999996745,4.382473e-05,490.8449999996745,0.0008260167
490.85999999967447,5.053182e-05,490.85999999967447,1.280064e-05,490.85999999967447,4.613656e-05,490.85999999967447,0.0007680047
490.87499999967446,5.159992e-05,490.87499999967446,1.841682e-05,490.87499999967446,5.340323e-05,490.87499999967446,0.0009490859
490.88999999967444,5.257568e-05,490.88999999967444,1.83655e-05,490.88999999967444,5.828213e-05,490.88999999967444,0.001237103
490.90499999967443,5.129765e-05,490.90499999967443,1.835783e-05,490.90499999967443,5.925078e-05,490.90499999967443,0.001319433
490.9199999996744,5.16515e-05,490.9199999996744,1.820449e-05,490.9199999996744,6.003562e-05,490.9199999996744,0.001515656
490.9349999996744,5.531238e-05,490.9349999996744,1.829249e-05,490.9349999996744,6.345123e-05,490.9349999996744,0.001708011
490.9499999996744,5.66396e-05,490.9499999996744,1.900406e-05,490.9499999996744,6.509521e-05,490.9499999996744,0.001968701
490.9649999996744,5.698822e-05,490.9649999996744,2.157304e-05,490.9649999996744,6.907072e-05,490.9649999996744,0.002101309
490.97999999967436,5.783935e-05,490.97999999967436,2.215674e-05,490.97999999967436,7.358385e-05,490.97999999967436,0.00235286
490.99499999967435,6.050587e-05,490.99499999967435,2.205286e-05,490.99499999967435,7.552955e-05,490.99499999967435,0.002416948
491.00999999967433,6.40982e-05,491.00999999967433,2.205031e-05,491.00999999967433,7.633174e-05,491.00999999967433,0.002451926
491.0249999996743,8.404908e-05,491.0249999996743,2.240646e-05,491.0249999996743,7.702012e-05,491.0249999996743,0.002743857
491.0399999996743,9.538697e-05,491.0399999996743,2.251809e-05,491.0399999996743,7.443901e-05,491.0399999996743,0.00294847
491.0549999996743,9.685265e-05,491.0549999996743,2.319662e-05,491.0549999996743,7.50881e-05,491.0549999996743,0.002957585
491.0699999996743,9.678994e-05,491.0699999996743,2.361132e-05,491.0699999996743,7.277479e-05,491.0699999996743,0.003004231
491.08499999967427,9.715905e-05,491.08499999967427,2.41802e-05,491.08499999967427,7.214218e-05,491.08499999967427,0.003064547
491.09999999967425,9.938759e-05,491.09999999967425,2.39219e-05,491.09999999967425,6.995166e-05,491.09999999967425,0.003085273
491.11499999967424,0.0001012578,491.11499999967424,2.243285e-05,491.11499999967424,6.809241e-05,491.11499999967424,0.003043156
491.1299999996742,0.0001066491,491.1299999996742,2.10435e-05,491.1299999996742,6.300833e-05,491.1299999996742,0.003071416
491.1449999996742,0.0001190422,491.1449999996742,2.121551e-05,491.1449999996742,5.813354e-05,491.1449999996742,0.002962726
491.1599999996742,0.0001379593,491.1599999996742,2.157369e-05,491.1599999996742,5.671044e-05,491.1599999996742,0.002958581
491.1749999996742,0.0001420734,491.1749999996742,2.162261e-05,491.1749999996742,5.525632e-05,491.1749999996742,0.002924159
491.18999999967417,0.0001443376,491.18999999967417,2.108363e-05,491.18999999967417,5.190913e-05,491.18999999967417,0.002759754
491.20499999967416,0.0001515671,491.20499999967416,1.891937e-05,491.20499999967416,4.625061e-05,491.20499999967416,0.002683016
491.21999999967414,0.0001715348,491.21999999967414,1.651162e-05,491.21999999967414,3.891352e-05,491.21999999967414,0.002605836
491.23499999967413,0.0001792993,491.23499999967413,1.64398e-05,491.23499999967413,3.360508e-05,491.23499999967413,0.002346636
491.2499999996741,0.0001782337,491.2499999996741,1.835936e-05,491.2499999996741,3.030179e-05,491.2499999996741,0.00231916
491.2649999996741,0.0001888623,491.2649999996741,1.847257e-05,491.2649999996741,2.982384e-05,491.2649999996741,0.002301594
491.2799999996741,0.0001925624,491.2799999996741,1.787181e-05,491.2799999996741,2.933379e-05,491.2799999996741,0.001912767
491.2949999996741,0.0002017572,491.2949999996741,1.870597e-05,491.2949999996741,3.003986e-05,491.2949999996741,0.001694139
491.30999999967406,0.0002126591,491.30999999967406,1.680422e-05,491.30999999967406,2.737847e-05,491.30999999967406,0.00168856
491.32499999967405,0.0002434357,491.32499999967405,1.754005e-05,491.32499999967405,2.761923e-05,491.32499999967405,0.001632139
491.33999999967403,0.0002466232,491.33999999967403,1.685026e-05,491.33999999967403,3.104349e-05,491.33999999967403,0.001561023
491.354999999674,0.0002456422,491.354999999674,1.678576e-05,491.354999999674,3.192932e-05,491.354999999674,0.001539768
491.369999999674,0.0002489744,491.369999999674,1.570534e-05,491.369999999674,3.229735e-05,491.369999999674,0.00153643
491.384999999674,0.0002505449,491.384999999674,1.511109e-05,491.384999999674,3.332051e-05,491.384999999674,0.001264848
491.399999999674,0.000242377,491.399999999674,1.479836e-05,491.399999999674,3.346267e-05,491.399999999674,0.001185566
491.41499999967397,0.0002377147,491.41499999967397,1.443211e-05,491.41499999967397,3.414195e-05,491.41499999967397,0.0009862154
491.42999999967395,0.0002362921,491.42999999967395,1.445259e-05,491.42999999967395,3.475209e-05,491.42999999967395,0.0008937218
491.44499999967394,0.0002335247,491.44499999967394,1.573223e-05,491.44499999967394,3.596559e-05,491.44499999967394,0.0008849028
491.4599999996739,0.0002283931,491.4599999996739,1.622591e-05,491.4599999996739,3.754687e-05,491.4599999996739,0.0008592386
491.4749999996739,0.000214069,491.4749999996739,1.614846e-05,491.4749999996739,3.873683e-05,491.4749999996739,0.0008054331
491.4899999996739,0.0002092057,491.4899999996739,1.572238e-05,491.4899999996739,4.162391e-05,491.4899999996739,0.0007873459
491.5049999996739,0.000206331,491.5049999996739,1.332896e-05,491.5049999996739,4.2766e-05,491.5049999996739,0.0006378584
491.51999999967387,0.0001978444,491.51999999967387,1.730476e-05,491.51999999967387,4.776483e-05,491.51999999967387,0.0004319407
491.53499999967386,0.0001805465,491.53499999967386,1.729906e-05,491.53499999967386,4.77781e-05,491.53499999967386,0.0003575184
491.54999999967384,0.0001696451,491.54999999967384,1.653038e-05,491.54999999967384,4.941557e-05,491.54999999967384,0.0002960265
491.56499999967383,0.0001466818,491.56499999967383,1.597745e-05,491.56499999967383,4.951951e-05,491.56499999967383,0.0002087254
491.5799999996738,0.0001000808,491.5799999996738,1.559644e-05,491.5799999996738,5.204896e-05,491.5799999996738,0.0001778633
491.5949999996738,9.290725e-05,491.5949999996738,1.565324e-05,491.5949999996738,5.287784e-05,491.5949999996738,0.0001729628
491.6099999996738,9.558377e-05,491.6099999996738,1.621636e-05,491.6099999996738,5.703516e-05,491.6099999996738,0.0001655782
491.6249999996738,8.48919e-05,491.6249999996738,1.911124e-05,491.6249999996738,5.863827e-05,491.6249999996738,0.000163647
491.63999999967376,6.948046e-05,491.63999999967376,2.037001e-05,491.63999999967376,5.858131e-05,491.63999999967376,0.0001645448
491.65499999967375,6.770382e-05,491.65499999967375,2.069452e-05,491.65499999967375,6.037629e-05,491.65499999967375,0.0001598648
491.66999999967373,6.772358e-05,491.66999999967373,2.118827e-05,491.66999999967373,6.07853e-05,491.66999999967373,0.0001654519
491.6849999996737,6.795531e-05,491.6849999996737,2.186297e-05,491.6849999996737,6.04926e-05,491.6849999996737,0.0001660806
491.6999999996737,6.983113e-05,491.6999999996737,2.22424e-05,491.6999999996737,5.976305e-05,491.6999999996737,0.0001778656
491.7149999996737,7.08278e-05,491.7149999996737,2.186748e-05,491.7149999996737,5.867093e-05,491.7149999996737,0.0001811651
491.7299999996737,7.449973e-05,491.7299999996737,2.191702e-05,491.7299999996737,5.622273e-05,491.7299999996737,0.0001654497
491.74499999967367,8.742062e-05,491.74499999967367,2.214084e-05,491.74499999967367,5.532536e-05,491.74499999967367,0.0002162066
491.75999999967365,8.71587e-05,491.75999999967365,2.142627e-05,491.75999999967365,5.093443e-05,491.75999999967365,0.0002581508
491.77499999967364,0.0001086818,491.77499999967364,1.960965e-05,491.77499999967364,4.837699e-05,491.77499999967364,0.0002638033
491.7899999996736,0.0001461866,491.7899999996736,1.97421e-05,491.7899999996736,4.702715e-05,491.7899999996736,0.0002808513
491.8049999996736,0.0002198738,491.8049999996736,1.959743e-05,491.8049999996736,4.521255e-05,491.8049999996736,0.0004750823
491.8199999996736,0.0002392904,491.8199999996736,1.965987e-05,491.8199999996736,4.218362e-05,491.8199999996736,0.0007324183
491.8349999996736,0.0002428237,491.8349999996736,2.003602e-05,491.8349999996736,4.044261e-05,491.8349999996736,0.0007647426
491.84999999967357,0.0002517512,491.84999999967357,2.088088e-05,491.84999999967357,3.519675e-05,491.84999999967357,0.0008053241
491.86499999967356,0.0002552285,491.86499999967356,2.019499e-05,491.86499999967356,2.899811e-05,491.86499999967356,0.0008054991
491.87999999967354,0.0002560061,491.87999999967354,1.929974e-05,491.87999999967354,2.602746e-05,491.87999999967354,0.0008149506
491.89499999967353,0.0002558388,491.89499999967353,1.807246e-05,491.89499999967353,2.289035e-05,491.89499999967353,0.0008274921
491.9099999996735,0.0002556916,491.9099999996735,1.773492e-05,491.9099999996735,1.912303e-05,491.9099999996735,0.0008285669
491.9249999996735,0.000255862,491.9249999996735,1.664164e-05,491.9249999996735,1.830634e-05,491.9249999996735,0.0008345574
491.9399999996735,0.0002559374,491.9399999996735,1.608378e-05,491.9399999996735,1.864487e-05,491.9399999996735,0.0008365746
491.9549999996735,0.0002563788,491.9549999996735,1.496308e-05,491.9549999996735,2.003532e-05,491.9549999996735,0.0008324748
491.96999999967346,0.0002575519,491.96999999967346,1.555936e-05,491.96999999967346,2.151091e-05,491.96999999967346,0.0008312615
491.98499999967345,0.0002567611,491.98499999967345,1.506815e-05,491.98499999967345,2.51634e-05,491.98499999967345,0.0008311037
491.99999999967343,0.0002537913,491.99999999967343,1.512507e-05,491.99999999967343,2.611984e-05,491.99999999967343,0.0008138577
492.0149999996734,0.0002526162,492.0149999996734,1.511482e-05,492.0149999996734,2.723144e-05,492.0149999996734,0.0008061545
492.0299999996734,0.000225303,492.0299999996734,1.455747e-05,492.0299999996734,2.73656e-05,492.0299999996734,0.0008043623
492.0449999996734,0.0002050574,492.0449999996734,1.431155e-05,492.0449999996734,2.784679e-05,492.0449999996734,0.0007888222
492.0599999996734,0.000137173,492.0599999996734,1.437538e-05,492.0599999996734,3.010029e-05,492.0599999996734,0.0005875371
492.07499999967337,0.00010754,492.07499999967337,1.426027e-05,492.07499999967337,3.052873e-05,492.07499999967337,0.0003946388
492.08999999967335,9.871162e-05,492.08999999967335,1.349596e-05,492.08999999967335,3.077643e-05,492.08999999967335,0.0002917696
492.10499999967334,8.315656e-05,492.10499999967334,1.124966e-05,492.10499999967334,3.221525e-05,492.10499999967334,0.0002626186
492.1199999996733,7.471743e-05,492.1199999996733,9.725122e-06,492.1199999996733,3.371306e-05,492.1199999996733,0.0002583084
492.1349999996733,7.431249e-05,492.1349999996733,1.101429e-05,492.1349999996733,3.514749e-05,492.1349999996733,0.0002428388
492.1499999996733,7.392725e-05,492.1499999996733,1.114777e-05,492.1499999996733,3.801406e-05,492.1499999996733,0.0002060738
492.1649999996733,7.299647e-05,492.1649999996733,1.117553e-05,492.1649999996733,4.144415e-05,492.1649999996733,0.0002261697
492.17999999967327,7.277518e-05,492.17999999967327,1.112247e-05,492.17999999967327,4.168511e-05,492.17999999967327,0.0002333545
492.19499999967326,6.901196e-05,492.19499999967326,1.060377e-05,492.19499999967326,4.251923e-05,492.19499999967326,0.0002241278
492.20999999967324,6.754467e-05,492.20999999967324,9.381556e-06,492.20999999967324,4.581085e-05,492.20999999967324,0.0002246168
492.22499999967323,5.64842e-05,492.22499999967323,2.31352e-05,492.22499999967323,5.057362e-05,492.22499999967323,0.0002250892
492.2399999996732,5.010124e-05,492.2399999996732,3.452435e-05,492.2399999996732,5.786905e-05,492.2399999996732,0.0002242961
492.2549999996732,4.982805e-05,492.2549999996732,3.458346e-05,492.2549999996732,6.024409e-05,492.2549999996732,0.0002240887
492.2699999996732,5.641932e-05,492.2699999996732,3.465304e-05,492.2699999996732,6.596177e-05,492.2699999996732,0.0002245625
492.2849999996732,5.762512e-05,492.2849999996732,3.513907e-05,492.2849999996732,6.902034e-05,492.2849999996732,0.0002253655
492.29999999967316,5.598923e-05,492.29999999967316,3.69981e-05,492.29999999967316,7.164902e-05,492.29999999967316,0.0002276346
492.31499999967315,0.0002878244,492.31499999967315,3.71751e-05,492.31499999967315,7.126362e-05,492.31499999967315,0.0002298481
492.32999999967313,0.0002974692,492.32999999967313,3.720351e-05,492.32999999967313,7.155478e-05,492.32999999967313,0.0002338976
492.3449999996731,0.0003024648,492.3449999996731,3.728483e-05,492.3449999996731,7.118985e-05,492.3449999996731,0.0002411513
492.3599999996731,0.0003033094,492.3599999996731,3.727954e-05,492.3599999996731,7.049149e-05,492.3599999996731,0.0002440156
492.3749999996731,0.000305604,492.3749999996731,3.733429e-05,492.3749999996731,6.986562e-05,492.3749999996731,0.0002699067
492.3899999996731,0.000310458,492.3899999996731,3.689057e-05,492.3899999996731,6.924813e-05,492.3899999996731,0.0002707833
492.40499999967307,0.0003790219,492.40499999967307,3.68539e-05,492.40499999967307,6.604969e-05,492.40499999967307,0.0003210258
492.41999999967305,0.0003952048,492.41999999967305,3.688217e-05,492.41999999967305,6.477241e-05,492.41999999967305,0.000334784
492.43499999967304,0.0004312342,492.43499999967304,3.709164e-05,492.43499999967304,6.40749e-05,492.43499999967304,0.0003319307
492.449999999673,0.0004382001,492.449999999673,3.709013e-05,492.449999999673,6.210739e-05,492.449999999673,0.0003423021
492.464999999673,0.0004389749,492.464999999673,3.723719e-05,492.464999999673,5.751917e-05,492.464999999673,0.0003505295
492.479999999673,0.0004409877,492.479999999673,1.712391e-05,492.479999999673,5.322065e-05,492.479999999673,0.0004039516
492.494999999673,0.0004420643,492.494999999673,1.655422e-05,492.494999999673,4.453164e-05,492.494999999673,0.0004896569
492.50999999967297,0.0004427032,492.50999999967297,1.655508e-05,492.50999999967297,4.259734e-05,492.50999999967297,0.0004993337
492.52499999967296,0.0004423165,492.52499999967296,1.826629e-05,492.52499999967296,3.047284e-05,492.52499999967296,0.0005093715
492.53999999967294,0.0004428409,492.53999999967294,1.712638e-05,492.53999999967294,2.162847e-05,492.53999999967294,0.0005094807
492.55499999967293,0.0003579411,492.55499999967293,1.377694e-05,492.55499999967293,1.814015e-05,492.55499999967293,0.0005080068
492.5699999996729,0.0003356489,492.5699999996729,1.324734e-05,492.5699999996729,1.727951e-05,492.5699999996729,0.0005070989
492.5849999996729,0.0003329881,492.5849999996729,1.32058e-05,492.5849999996729,1.617025e-05,492.5849999996729,0.000506205
492.5999999996729,0.0003317465,492.5999999996729,1.292657e-05,492.5999999996729,1.562531e-05,492.5999999996729,0.0005034576
492.6149999996729,0.0003333297,492.6149999996729,1.288509e-05,492.6149999996729,1.464815e-05,492.6149999996729,0.0005034608
492.62999999967286,0.0003271644,492.62999999967286,1.266011e-05,492.62999999967286,1.495649e-05,492.62999999967286,0.0004743275
492.64499999967285,0.0003254499,492.64499999967285,1.270786e-05,492.64499999967285,1.621636e-05,492.64499999967285,0.0004636865
492.65999999967283,0.0002310587,492.65999999967283,1.276537e-05,492.65999999967283,1.814946e-05,492.65999999967283,0.0004174442
492.6749999996728,0.0001884268,492.6749999996728,1.216531e-05,492.6749999996728,1.884327e-05,492.6749999996728,0.0004056813
492.6899999996728,0.0001084453,492.6899999996728,1.246613e-05,492.6899999996728,1.955354e-05,492.6899999996728,0.0003945342
492.7049999996728,0.0001025851,492.7049999996728,1.247516e-05,492.7049999996728,2.271243e-05,492.7049999996728,0.0003915341
492.7199999996728,9.679823e-05,492.7199999996728,1.244011e-05,492.7199999996728,2.393073e-05,492.7199999996728,0.0003631683
492.73499999967277,9.444261e-05,492.73499999967277,1.245256e-05,492.73499999967277,2.951284e-05,492.73499999967277,0.0002445982
492.74999999967275,9.040688e-05,492.74999999967275,1.21896e-05,492.74999999967275,3.556028e-05,492.74999999967275,0.000165334
492.76499999967274,8.846547e-05,492.76499999967274,1.306963e-05,492.76499999967274,4.533608e-05,492.76499999967274,0.0001237793
492.7799999996727,8.489456e-05,492.7799999996727,1.212006e-05,492.7799999996727,5.00703e-05,492.7799999996727,9.286114e-05
492.7949999996727,8.454271e-05,492.7949999996727,1.237767e-05,492.7949999996727,5.440543e-05,492.7949999996727,9.738439e-05
492.8099999996727,7.840303e-05,492.8099999996727,1.259093e-05,492.8099999996727,5.668932e-05,492.8099999996727,0.00010062
492.8249999996727,7.730236e-05,492.8249999996727,1.293638e-05,492.8249999996727,6.00037e-05,492.8249999996727,0.0001025093
492.83999999967267,7.549616e-05,492.83999999967267,1.309977e-05,492.83999999967267,6.744282e-05,492.83999999967267,0.0001034496
492.85499999967266,7.130235e-05,492.85499999967266,1.352203e-05,492.85499999967266,7.073546e-05,492.85499999967266,0.0001147796
492.86999999967264,6.726714e-05,492.86999999967264,1.90677e-05,492.86999999967264,7.549392e-05,492.86999999967264,0.0001251782
492.88499999967263,6.984667e-05,492.88499999967263,2.229617e-05,492.88499999967263,8.129502e-05,492.88499999967263,0.0001407938
492.8999999996726,7.235042e-05,492.8999999996726,2.277437e-05,492.8999999996726,8.107014e-05,492.8999999996726,0.000147287
492.9149999996726,7.460271e-05,492.9149999996726,2.584497e-05,492.9149999996726,8.151963e-05,492.9149999996726,0.0001766571
492.9299999996726,8.210436e-05,492.9299999996726,2.67065e-05,492.9299999996726,8.140515e-05,492.9299999996726,0.0001944998
492.9449999996726,8.427336e-05,492.9449999996726,2.674023e-05,492.9449999996726,8.109916e-05,492.9449999996726,0.0001989625
492.95999999967256,8.420044e-05,492.95999999967256,2.672284e-05,492.95999999967256,8.018346e-05,492.95999999967256,0.0002027765
492.97499999967255,8.452922e-05,492.97499999967255,2.6678e-05,492.97499999967255,8.013074e-05,492.97499999967255,0.0002027274
492.98999999967253,8.675225e-05,492.98999999967253,2.673022e-05,492.98999999967253,7.61207e-05,492.98999999967253,0.000231128
493.0049999996725,9.47287e-05,493.0049999996725,2.670386e-05,493.0049999996725,7.410882e-05,493.0049999996725,0.0002537769
493.0199999996725,9.847502e-05,493.0199999996725,2.617964e-05,493.0199999996725,6.815899e-05,493.0199999996725,0.000307427
493.0349999996725,0.0001097077,493.0349999996725,2.561558e-05,493.0349999996725,6.618796e-05,493.0349999996725,0.000317895
493.0499999996725,0.0001151102,493.0499999996725,2.560237e-05,493.0499999996725,6.16297e-05,493.0499999996725,0.0003167762
493.06499999967247,0.0001242854,493.06499999967247,2.549928e-05,493.06499999967247,5.939207e-05,493.06499999967247,0.0003237146
493.07999999967245,0.0001307241,493.07999999967245,2.548049e-05,493.07999999967245,5.421868e-05,493.07999999967245,0.0003272277
493.09499999967244,0.0001297449,493.09499999967244,2.547662e-05,493.09499999967244,4.639749e-05,493.09499999967244,0.0003288887
493.1099999996724,0.0001280178,493.1099999996724,2.289835e-05,493.1099999996724,4.281044e-05,493.1099999996724,0.0003287327
493.1249999996724,0.000129309,493.1249999996724,1.880736e-05,493.1249999996724,2.866981e-05,493.1249999996724,0.0003254542
493.1399999996724,0.0001296181,493.1399999996724,1.80311e-05,493.1399999996724,1.775001e-05,493.1399999996724,0.0003223855
493.1549999996724,0.0001253964,493.1549999996724,1.721826e-05,493.1549999996724,1.734785e-05,493.1549999996724,0.0003194586
493.16999999967237,0.0001230022,493.16999999967237,1.327283e-05,493.16999999967237,1.506722e-05,493.16999999967237,0.0002974521
493.18499999967236,0.0001197172,493.18499999967236,1.514089e-05,493.18499999967236,1.483069e-05,493.18499999967236,0.0002947665
493.19999999967234,0.0001197338,493.19999999967234,1.477073e-05,493.19999999967234,1.581528e-05,493.19999999967234,0.0002901179
493.21499999967233,0.0001197658,493.21499999967233,1.491971e-05,493.21499999967233,1.737463e-05,493.21499999967233,0.0002892402
493.2299999996723,0.0001219873,493.2299999996723,1.486201e-05,493.2299999996723,1.842982e-05,493.2299999996723,0.00028901
493.2449999996723,0.0001219238,493.2449999996723,1.515206e-05,493.2449999996723,2.041974e-05,493.2449999996723,0.0002481579
493.2599999996723,0.0001152874,493.2599999996723,1.514462e-05,493.2599999996723,2.137295e-05,493.2599999996723,0.0002227354
493.2749999996723,0.0001134444,493.2749999996723,1.49216e-05,493.2749999996723,2.17564e-05,493.2749999996723,0.0001591909
493.28999999967226,0.0001016857,493.28999999967226,1.442137e-05,493.28999999967226,2.703102e-05,493.28999999967226,0.0001480447
493.30499999967225,0.0001003183,493.30499999967225,1.399806e-05,493.30499999967225,3.109518e-05,493.30499999967225,0.0001473853
493.31999999967223,8.176791e-05,493.31999999967223,1.415816e-05,493.31999999967223,3.202579e-05,493.31999999967223,0.0001255557
493.3349999996722,8.012582e-05,493.3349999996722,1.411032e-05,493.3349999996722,3.50194e-05,493.3349999996722,0.0001182627
493.3499999996722,7.966069e-05,493.3499999996722,1.417208e-05,493.3499999996722,4.370209e-05,493.3499999996722,0.0001042305
493.3649999996722,7.832285e-05,493.3649999996722,1.426324e-05,493.3649999996722,5.49198e-05,493.3649999996722,9.526875e-05
493.3799999996722,8.184884e-05,493.3799999996722,1.768003e-05,493.3799999996722,5.789071e-05,493.3799999996722,7.887718e-05
493.39499999967217,8.197953e-05,493.39499999967217,2.414288e-05,493.39499999967217,6.510993e-05,493.39499999967217,7.715718e-05
493.40999999967215,8.312029e-05,493.40999999967215,2.398365e-05,493.40999999967215,7.414891e-05,493.40999999967215,7.801271e-05
493.42499999967214,8.288728e-05,493.42499999967214,2.299351e-05,493.42499999967214,8.573532e-05,493.42499999967214,7.767304e-05
493.4399999996721,8.452339e-05,493.4399999996721,2.219739e-05,493.4399999996721,8.723414e-05,493.4399999996721,8.490053e-05
493.4549999996721,8.491911e-05,493.4549999996721,2.419708e-05,493.4549999996721,8.749809e-05,493.4549999996721,8.444051e-05
493.4699999996721,8.54097e-05,493.4699999996721,3.066271e-05,493.4699999996721,8.74008e-05,493.4699999996721,8.712022e-05
493.4849999996721,8.319534e-05,493.4849999996721,3.369508e-05,493.4849999996721,8.740272e-05,493.4849999996721,8.618646e-05
493.49999999967207,8.747281e-05,493.49999999967207,3.715956e-05,493.49999999967207,8.71013e-05,493.49999999967207,9.041202e-05
493.51499999967206,8.873147e-05,493.51499999967206,3.784433e-05,493.51499999967206,8.73995e-05,493.51499999967206,9.790245e-05
493.52999999967204,9.127419e-05,493.52999999967204,3.783018e-05,493.52999999967204,8.682755e-05,493.52999999967204,0.0001137098
493.54499999967203,9.364513e-05,493.54499999967203,3.786442e-05,493.54499999967203,8.572463e-05,493.54499999967203,0.0001200356
493.559999999672,0.0001457142,493.559999999672,3.782348e-05,493.559999999672,8.460417e-05,493.559999999672,0.0001415752
493.574999999672,0.0001957075,493.574999999672,3.776496e-05,493.574999999672,8.348977e-05,493.574999999672,0.0001898646
493.589999999672,0.0002902509,493.589999999672,3.76873e-05,493.589999999672,8.283815e-05,493.589999999672,0.0001916919
493.604999999672,0.0003287845,493.604999999672,3.76499e-05,493.604999999672,7.774138e-05,493.604999999672,0.0001949396
493.61999999967196,0.0003287052,493.61999999967196,3.762894e-05,493.61999999967196,7.134106e-05,493.61999999967196,0.0002035313
493.63499999967195,0.0003352714,493.63499999967195,3.229168e-05,493.63499999967195,6.775373e-05,493.63499999967195,0.0002064372
493.64999999967193,0.0003374485,493.64999999967193,3.206931e-05,493.64999999967193,6.171354e-05,493.64999999967193,0.0002096947
493.6649999996719,0.0003431678,493.6649999996719,3.197209e-05,493.6649999996719,3.710418e-05,493.6649999996719,0.0002127832
493.6799999996719,0.0003431242,493.6799999996719,3.182724e-05,493.6799999996719,2.27688e-05,493.6799999996719,0.0002274327
493.6949999996719,0.0003430592,493.6949999996719,3.224235e-05,493.6949999996719,1.941763e-05,493.6949999996719,0.000230156
493.7099999996719,0.0003431906,493.7099999996719,2.850226e-05,493.7099999996719,1.873306e-05,493.7099999996719,0.0002332075
493.72499999967187,0.0003434125,493.72499999967187,1.999943e-05,493.72499999967187,1.917893e-05,493.72499999967187,0.0002326388
493.73999999967185,0.000343434,493.73999999967185,1.941908e-05,493.73999999967185,1.872855e-05,493.73999999967185,0.0002331768
493.75499999967184,0.0003424354,493.75499999967184,1.220808e-05,493.75499999967184,1.81417e-05,493.75499999967184,0.0002316453
493.7699999996718,0.0003430576,493.7699999996718,1.168573e-05,493.7699999996718,1.62068e-05,493.7699999996718,0.0002258854
493.7849999996718,0.0003436831,493.7849999996718,1.162409e-05,493.7849999996718,1.88126e-05,493.7849999996718,0.0002183885
493.7999999996718,0.0003428969,493.7999999996718,1.154505e-05,493.7999999996718,2.329116e-05,493.7999999996718,0.0002141205
493.8149999996718,0.0002983781,493.8149999996718,1.218382e-05,493.8149999996718,3.041871e-05,493.8149999996718,0.0001844668
493.82999999967177,0.0002788489,493.82999999967177,1.340379e-05,493.82999999967177,3.061719e-05,493.82999999967177,0.0001547442
493.84499999967176,0.0001679132,493.84499999967176,1.534697e-05,493.84499999967176,3.285603e-05,493.84499999967176,0.000156572
493.85999999967174,0.0001258134,493.85999999967174,1.719451e-05,493.85999999967174,3.511661e-05,493.85999999967174,0.0001534764
493.87499999967173,0.0001210319,493.87499999967173,1.763296e-05,493.87499999967173,3.617531e-05,493.87499999967173,0.0001413115
493.8899999996717,0.0001104431,493.8899999996717,1.758336e-05,493.8899999996717,3.785103e-05,493.8899999996717,0.0001388291
493.9049999996717,0.0001026941,493.9049999996717,1.747729e-05,493.9049999996717,3.948883e-05,493.9049999996717,0.0001286138
493.9199999996717,8.880462e-05,493.9199999996717,1.741593e-05,493.9199999996717,5.441371e-05,493.9199999996717,0.0001106351
493.9349999996717,9.007954e-05,493.9349999996717,1.812306e-05,493.9349999996717,6.208947e-05,493.9349999996717,9.116362e-05
493.94999999967166,8.889626e-05,493.94999999967166,2.623178e-05,493.94999999967166,6.414938e-05,493.94999999967166,7.942391e-05
493.96499999967165,8.869113e-05,493.96499999967165,3.259172e-05,493.96499999967165,6.727991e-05,493.96499999967165,8.436825e-05
493.97999999967163,8.787208e-05,493.97999999967163,3.521836e-05,493.97999999967163,6.765574e-05,493.97999999967163,9.388686e-05
493.9949999996716,8.40028e-05,493.9949999996716,3.826447e-05,493.9949999996716,6.928718e-05,493.9949999996716,9.541369e-05
494.0099999996716,8.53475e-05,494.0099999996716,4.138258e-05,494.0099999996716,6.962001e-05,494.0099999996716,9.520456e-05
494.0249999996716,0.0001031278,494.0249999996716,4.315325e-05,494.0249999996716,6.950803e-05,494.0249999996716,9.57147e-05
494.0399999996716,0.0001327993,494.0399999996716,4.489991e-05,494.0399999996716,6.774459e-05,494.0399999996716,9.747576e-05
494.05499999967157,0.0001485826,494.05499999967157,4.575116e-05,494.05499999967157,6.634824e-05,494.05499999967157,9.839702e-05
494.06999999967155,0.0001722572,494.06999999967155,4.531152e-05,494.06999999967155,6.470604e-05,494.06999999967155,9.920359e-05
494.08499999967154,0.0001767138,494.08499999967154,4.527296e-05,494.08499999967154,6.428626e-05,494.08499999967154,0.0001099618
494.0999999996715,0.0001759649,494.0999999996715,4.419601e-05,494.0999999996715,6.336436e-05,494.0999999996715,0.0001084513
494.1149999996715,0.0002134425,494.1149999996715,4.407793e-05,494.1149999996715,6.162582e-05,494.1149999996715,0.0001342687
494.1299999996715,0.0002423039,494.1299999996715,4.404116e-05,494.1299999996715,6.14805e-05,494.1299999996715,0.0001448592
494.1449999996715,0.0002446821,494.1449999996715,4.403252e-05,494.1449999996715,6.022654e-05,494.1449999996715,0.0001478343
494.15999999967147,0.0002506385,494.15999999967147,4.408879e-05,494.15999999967147,5.82773e-05,494.15999999967147,0.0001523369
494.17499999967146,0.0002581119,494.17499999967146,4.394894e-05,494.17499999967146,3.893668e-05,494.17499999967146,0.0001602103
494.18999999967144,0.0002615322,494.18999999967144,4.295957e-05,494.18999999967144,3.32422e-05,494.18999999967144,0.000181121
494.20499999967143,0.0002619285,494.20499999967143,3.84536e-05,494.20499999967143,2.838489e-05,494.20499999967143,0.0001965541
494.2199999996714,0.0002619649,494.2199999996714,3.338386e-05,494.2199999996714,2.223797e-05,494.2199999996714,0.0002000586
494.2349999996714,0.0002626082,494.2349999996714,3.039277e-05,494.2349999996714,1.967276e-05,494.2349999996714,0.0001957329
494.2499999996714,0.000263368,494.2499999996714,2.519752e-05,494.2499999996714,1.258981e-05,494.2499999996714,0.0001979412
494.2649999996714,0.0002633372,494.2649999996714,2.125597e-05,494.2649999996714,1.127842e-05,494.2649999996714,0.0001995714
494.27999999967136,0.00025267,494.27999999967136,1.808804e-05,494.27999999967136,1.16253e-05,494.27999999967136,0.0001990707
494.29499999967135,0.0002322453,494.29499999967135,1.407033e-05,494.29499999967135,1.040801e-05,494.29499999967135,0.0001987168
494.30999999967133,0.0002255778,494.30999999967133,1.164346e-05,494.30999999967133,1.168091e-05,494.30999999967133,0.0001997232
494.3249999996713,0.0002146248,494.3249999996713,1.15304e-05,494.3249999996713,1.160711e-05,494.3249999996713,0.0001966867
494.3399999996713,0.0002106544,494.3399999996713,1.195153e-05,494.3399999996713,1.268234e-05,494.3399999996713,0.000191299
494.3549999996713,0.0002033535,494.3549999996713,1.209097e-05,494.3549999996713,1.502415e-05,494.3549999996713,0.0001899106
494.3699999996713,0.0001505182,494.3699999996713,1.288837e-05,494.3699999996713,2.049136e-05,494.3699999996713,0.00017248
494.38499999967127,0.0001146907,494.38499999967127,1.450027e-05,494.38499999967127,2.387239e-05,494.38499999967127,0.0001667786
494.39999999967125,0.0001172224,494.39999999967125,1.480788e-05,494.39999999967125,2.982195e-05,494.39999999967125,0.000167491
494.41499999967124,0.0001157598,494.41499999967124,1.443796e-05,494.41499999967124,3.595462e-05,494.41499999967124,0.0001674775
494.4299999996712,0.0001068084,494.4299999996712,1.446623e-05,494.4299999996712,4.288671e-05,494.4299999996712,0.0001502777
494.4449999996712,0.0001029589,494.4449999996712,1.553218e-05,494.4449999996712,4.393548e-05,494.4449999996712,0.0001376234
494.4599999996712,0.000103081,494.4599999996712,1.556027e-05,494.4599999996712,4.69279e-05,494.4599999996712,0.0001140913
494.4749999996712,0.000102915,494.4749999996712,1.604256e-05,494.4749999996712,5.364668e-05,494.4749999996712,0.0001149237
494.48999999967117,0.0001004678,494.48999999967117,1.994018e-05,494.48999999967117,5.459721e-05,494.48999999967117,0.0001169684
494.50499999967116,0.0001218596,494.50499999967116,2.07163e-05,494.50499999967116,5.83517e-05,494.50499999967116,0.0001593142
494.51999999967114,0.0001270335,494.51999999967114,2.083969e-05,494.51999999967114,5.980829e-05,494.51999999967114,0.000166495
494.53499999967113,0.0001367123,494.53499999967113,2.092872e-05,494.53499999967113,6.435328e-05,494.53499999967113,0.0001681553
494.5499999996711,0.000137956,494.5499999996711,2.09731e-05,494.5499999996711,6.91883e-05,494.5499999996711,0.0001736798
494.5649999996711,0.0001373172,494.5649999996711,2.117962e-05,494.5649999996711,7.000521e-05,494.5649999996711,0.0001804544
494.5799999996711,0.0001395619,494.5799999996711,2.257806e-05,494.5799999996711,7.7e-05,494.5799999996711,0.0001817169
494.5949999996711,0.0001412916,494.5949999996711,3.010637e-05,494.5949999996711,7.680694e-05,494.5949999996711,0.0001812132
494.60999999967106,0.0001446943,494.60999999967106,3.204778e-05,494.60999999967106,7.69202e-05,494.60999999967106,0.0001811117
494.62499999967105,0.0001585102,494.62499999967105,4.439731e-05,494.62499999967105,7.587844e-05,494.62499999967105,0.0001850904
494.63999999967103,0.0001798811,494.63999999967103,4.44062e-05,494.63999999967103,7.494596e-05,494.63999999967103,0.0001916216
494.654999999671,0.0001813457,494.654999999671,4.4687e-05,494.654999999671,7.29318e-05,494.654999999671,0.0001942131
494.669999999671,0.0001949501,494.669999999671,4.470591e-05,494.669999999671,6.95362e-05,494.669999999671,0.0002189787
494.684999999671,0.0001995797,494.684999999671,4.461413e-05,494.684999999671,6.749544e-05,494.684999999671,0.0002158263
494.699999999671,0.0002035667,494.699999999671,4.671097e-05,494.699999999671,6.708323e-05,494.699999999671,0.0002208146
494.71499999967097,0.0002080075,494.71499999967097,4.686452e-05,494.71499999967097,6.509024e-05,494.71499999967097,0.0002247337
494.72999999967095,0.0002113442,494.72999999967095,4.643512e-05,494.72999999967095,5.947005e-05,494.72999999967095,0.0002256379
494.74499999967094,0.0002125426,494.74499999967094,4.460497e-05,494.74499999967094,5.862458e-05,494.74499999967094,0.0002240765
494.7599999996709,0.0002287601,494.7599999996709,4.45876e-05,494.7599999996709,5.470109e-05,494.7599999996709,0.0002162474
494.7749999996709,0.0006069972,494.7749999996709,4.477738e-05,494.7749999996709,5.240688e-05,494.7749999996709,0.00022091
494.7899999996709,0.0008286934,494.7899999996709,4.474591e-05,494.7899999996709,4.485973e-05,494.7899999996709,0.0002626344
494.8049999996709,0.0009832466,494.8049999996709,4.475473e-05,494.8049999996709,4.023553e-05,494.8049999996709,0.0002667206
494.81999999967087,0.0009864719,494.81999999967087,4.514708e-05,494.81999999967087,2.818368e-05,494.81999999967087,0.0002808411
494.83499999967086,0.001002692,494.83499999967086,4.230134e-05,494.83499999967086,2.319358e-05,494.83499999967086,0.0002808428
494.84999999967084,0.001010701,494.84999999967084,3.95804e-05,494.84999999967084,2.154102e-05,494.84999999967084,0.0002806031
494.86499999967083,0.001014338,494.86499999967083,2.755643e-05,494.86499999967083,2.132016e-05,494.86499999967083,0.0002797066
494.8799999996708,0.00101331,494.8799999996708,2.305102e-05,494.8799999996708,2.105354e-05,494.8799999996708,0.0002731061
494.8949999996708,0.001012001,494.8949999996708,2.250745e-05,494.8949999996708,2.112168e-05,494.8949999996708,0.0002695539
494.9099999996708,0.001010017,494.9099999996708,2.243222e-05,494.9099999996708,2.289651e-05,494.9099999996708,0.0002600289
494.9249999996708,0.001007239,494.9249999996708,2.35492e-05,494.9249999996708,2.187134e-05,494.9249999996708,0.0002442738
494.93999999967076,0.001006036,494.93999999967076,2.180942e-05,494.93999999967076,2.134129e-05,494.93999999967076,0.0002403904
494.95499999967075,0.001005888,494.95499999967075,1.938495e-05,494.95499999967075,2.662726e-05,494.95499999967075,0.0002355462
494.96999999967073,0.001005499,494.96999999967073,1.915027e-05,494.96999999967073,2.817618e-05,494.96999999967073,0.0002328727
494.9849999996707,0.001005314,494.9849999996707,1.90714e-05,494.9849999996707,2.91488e-05,494.9849999996707,0.0002330657
494.9999999996707,0.001004126,494.9999999996707,1.962473e-05,494.9999999996707,3.342392e-05,494.9999999996707,0.0002170585
495.0149999996707,0.0009959507,495.0149999996707,1.965485e-05,495.0149999996707,4.345189e-05,495.0149999996707,0.0002042316
495.0299999996707,0.0007920815,495.0299999996707,1.992887e-05,495.0299999996707,4.389057e-05,495.0299999996707,0.0001900202
495.04499999967067,0.000424751,495.04499999967067,1.997829e-05,495.04499999967067,4.590823e-05,495.04499999967067,0.0001362108
495.05999999967065,0.0002291976,495.05999999967065,1.985168e-05,495.05999999967065,4.707475e-05,495.05999999967065,0.00010719
495.07499999967064,0.0002194527,495.07499999967064,1.878712e-05,495.07499999967064,5.10648e-05,495.07499999967064,9.154157e-05
495.0899999996706,0.0001610265,495.0899999996706,1.734623e-05,495.0899999996706,5.890504e-05,495.0899999996706,9.099828e-05
495.1049999996706,0.0001263907,495.1049999996706,2.272297e-05,495.1049999996706,6.053287e-05,495.1049999996706,9.704938e-05
495.1199999996706,0.0001006879,495.1199999996706,3.540266e-05,495.1199999996706,6.116372e-05,495.1199999996706,0.0001005404
495.1349999996706,7.924796e-05,495.1349999996706,3.574637e-05,495.1349999996706,6.268444e-05,495.1349999996706,0.0001042298
495.14999999967057,8.120608e-05,495.14999999967057,3.566747e-05,495.14999999967057,6.411841e-05,495.14999999967057,0.00010918
495.16499999967056,8.658678e-05,495.16499999967056,3.752998e-05,495.16499999967056,6.538455e-05,495.16499999967056,0.0001096767
495.17999999967054,0.0001027272,495.17999999967054,3.647469e-05,495.17999999967054,6.614091e-05,495.17999999967054,0.0001126404
495.19499999967053,0.0001106502,495.19499999967053,3.798366e-05,495.19499999967053,6.579969e-05,495.19499999967053,0.0001123545
495.2099999996705,0.0001379272,495.2099999996705,4.04238e-05,495.2099999996705,6.338837e-05,495.2099999996705,0.0001113029
495.2249999996705,0.0001515342,495.2249999996705,4.089636e-05,495.2249999996705,6.283954e-05,495.2249999996705,0.0001185131
495.2399999996705,0.0001576513,495.2399999996705,4.096485e-05,495.2399999996705,6.273903e-05,495.2399999996705,0.0001128654
495.2549999996705,0.0001959121,495.2549999996705,4.082568e-05,495.2549999996705,5.877049e-05,495.2549999996705,0.0001105839
495.26999999967046,0.0002219078,495.26999999967046,4.064898e-05,495.26999999967046,5.387987e-05,495.26999999967046,0.0001103509
495.28499999967045,0.0002326475,495.28499999967045,4.064829e-05,495.28499999967045,5.254995e-05,495.28499999967045,0.0001277079
495.29999999967043,0.0002460803,495.29999999967043,4.060564e-05,495.29999999967043,5.180264e-05,495.29999999967043,0.0001870142
495.3149999996704,0.0002559132,495.3149999996704,4.057753e-05,495.3149999996704,5.045734e-05,495.3149999996704,0.0002065759
495.3299999996704,0.0002566044,495.3299999996704,4.107576e-05,495.3299999996704,4.203811e-05,495.3299999996704,0.0002116242
495.3449999996704,0.0002564352,495.3449999996704,4.105347e-05,495.3449999996704,3.435501e-05,495.3449999996704,0.0002114707
495.3599999996704,0.0002569314,495.3599999996704,2.821665e-05,495.3599999996704,3.207897e-05,495.3599999996704,0.0002206244
495.37499999967037,0.0002577033,495.37499999967037,2.639613e-05,495.37499999967037,2.957768e-05,495.37499999967037,0.0002393318
495.38999999967035,0.000259877,495.38999999967035,2.606964e-05,495.38999999967035,2.481445e-05,495.38999999967035,0.0002414103
495.40499999967034,0.0002619606,495.40499999967034,2.59179e-05,495.40499999967034,1.776587e-05,495.40499999967034,0.0002418106
495.4199999996703,0.0002601628,495.4199999996703,2.352466e-05,495.4199999996703,1.537356e-05,495.4199999996703,0.0002410663
495.4349999996703,0.0002538445,495.4349999996703,2.155801e-05,495.4349999996703,1.326221e-05,495.4349999996703,0.0002409651
495.4499999996703,0.0002475799,495.4499999996703,2.006483e-05,495.4499999996703,1.345205e-05,495.4499999996703,0.0002412102
495.4649999996703,0.0002296497,495.4649999996703,1.357713e-05,495.4649999996703,1.358542e-05,495.4649999996703,0.0005777039
495.47999999967027,0.0002196909,495.47999999967027,1.400108e-05,495.47999999967027,1.447888e-05,495.47999999967027,0.0006589426
495.49499999967026,0.0002104433,495.49499999967026,1.373495e-05,495.49499999967026,1.390011e-05,495.49499999967026,0.0008098675
495.50999999967024,0.0001695043,495.50999999967024,1.338591e-05,495.50999999967024,1.515206e-05,495.50999999967024,0.0008462289
495.52499999967023,0.0001467239,495.52499999967023,1.273112e-05,495.52499999967023,1.51567e-05,495.52499999967023,0.0008468108
495.5399999996702,0.0001290346,495.5399999996702,1.26356e-05,495.5399999996702,1.583665e-05,495.5399999996702,0.0008433905
495.5549999996702,9.836653e-05,495.5549999996702,1.260323e-05,495.5549999996702,1.627186e-05,495.5549999996702,0.0008430749
495.5699999996702,7.957718e-05,495.5699999996702,1.277089e-05,495.5699999996702,1.933912e-05,495.5699999996702,0.0008433401
495.5849999996702,7.639501e-05,495.5849999996702,1.094114e-05,495.5849999996702,2.09166e-05,495.5849999996702,0.0008425404
495.59999999967016,7.679594e-05,495.59999999967016,1.067131e-05,495.59999999967016,2.730531e-05,495.59999999967016,0.0008422223
495.61499999967015,7.879337e-05,495.61499999967015,1.185805e-05,495.61499999967015,3.097535e-05,495.61499999967015,0.0008375145
495.62999999967013,7.74542e-05,495.62999999967013,1.20968e-05,495.62999999967013,3.382652e-05,495.62999999967013,0.0008349634
495.6449999996701,6.599443e-05,495.6449999996701,1.145071e-05,495.6449999996701,3.842978e-05,495.6449999996701,0.0008352937
495.6599999996701,6.234351e-05,495.6599999996701,1.149737e-05,495.6599999996701,4.30215e-05,495.6599999996701,0.0008361394
495.6749999996701,6.340926e-05,495.6749999996701,1.71814e-05,495.6749999996701,4.933055e-05,495.6749999996701,0.0008368783
495.6899999996701,7.012463e-05,495.6899999996701,1.848477e-05,495.6899999996701,5.904764e-05,495.6899999996701,0.0008366639
495.70499999967006,7.930837e-05,495.70499999967006,1.889255e-05,495.70499999967006,6.754446e-05,495.70499999967006,0.0008367377
495.71999999967005,9.395406e-05,495.71999999967005,1.994371e-05,495.71999999967005,6.861093e-05,495.71999999967005,0.0005817765
495.73499999967004,0.000114201,495.73499999967004,2.21039e-05,495.73499999967004,7.180123e-05,495.73499999967004,0.0004966386
495.74999999967,0.0001272757,495.74999999967,3.285775e-05,495.74999999967,7.258078e-05,495.74999999967,0.000254001
495.76499999967,0.0001299742,495.76499999967,3.353122e-05,495.76499999967,7.240453e-05,495.76499999967,0.0002074518
495.77999999967,0.0001343094,495.77999999967,3.381027e-05,495.77999999967,7.244907e-05,495.77999999967,0.0002072675
495.79499999967,0.0001361518,495.79499999967,3.459039e-05,495.79499999967,7.235821e-05,495.79499999967,0.0001949673
495.80999999966997,0.0001374681,495.80999999966997,3.469935e-05,495.80999999966997,7.169422e-05,495.80999999966997,0.0001691478
495.82499999966996,0.0001389052,495.82499999966996,3.464573e-05,495.82499999966996,7.129129e-05,495.82499999966996,0.0001569767
495.83999999966994,0.0001529081,495.83999999966994,3.464979e-05,495.83999999966994,6.973869e-05,495.83999999966994,0.0001662774
495.85499999966993,0.0001525923,495.85499999966993,3.4468e-05,495.85499999966993,6.848825e-05,495.85499999966993,0.0001685286
495.8699999996699,0.0001555516,495.8699999996699,3.419679e-05,495.8699999996699,6.616199e-05,495.8699999996699,0.0001719721
495.8849999996699,0.0001978704,495.8849999996699,3.42219e-05,495.8849999996699,6.535072e-05,495.8849999996699,0.0001747686
495.8999999996699,0.0002114631,495.8999999996699,3.41733e-05,495.8999999996699,6.223383e-05,495.8999999996699,0.0001779002
495.9149999996699,0.0002150541,495.9149999996699,3.303988e-05,495.9149999996699,5.996565e-05,495.9149999996699,0.0001775889
495.92999999966986,0.0002261978,495.92999999966986,3.144117e-05,495.92999999966986,5.094715e-05,495.92999999966986,0.0001881916
495.94499999966985,0.0002296023,495.94499999966985,3.100762e-05,495.94499999966985,3.436403e-05,495.94499999966985,0.0002134974
495.95999999966983,0.000224018,495.95999999966983,3.062823e-05,495.95999999966983,2.949088e-05,495.95999999966983,0.0002113257
495.9749999996698,0.0002216362,495.9749999996698,2.896555e-05,495.9749999996698,2.496331e-05,495.9749999996698,0.0002109946
495.9899999996698,0.0002165566,495.9899999996698,2.123807e-05,495.9899999996698,1.78584e-05,495.9899999996698,0.0002149737
496.0049999996698,0.0002108306,496.0049999996698,1.280944e-05,496.0049999996698,1.713131e-05,496.0049999996698,0.0002128843
496.0199999996698,0.0002105139,496.0199999996698,1.271783e-05,496.0199999996698,2.038038e-05,496.0199999996698,0.0001997942
496.03499999966976,0.0002096345,496.03499999966976,1.026765e-05,496.03499999966976,2.20017e-05,496.03499999966976,0.0001998833
496.04999999966975,0.0002086482,496.04999999966975,9.878894e-06,496.04999999966975,2.364292e-05,496.04999999966975,0.000199125
496.06499999966974,0.0002083355,496.06499999966974,9.769921e-06,496.06499999966974,2.411428e-05,496.06499999966974,0.0001964341
496.0799999996697,0.0002054828,496.0799999996697,1.17026e-05,496.0799999996697,3.066546e-05,496.0799999996697,0.0001942441
496.0949999996697,0.0001961407,496.0949999996697,1.189718e-05,496.0949999996697,3.172395e-05,496.0949999996697,0.0002020117
496.1099999996697,0.0001985159,496.1099999996697,1.191966e-05,496.1099999996697,3.373143e-05,496.1099999996697,0.0001982585
496.1249999996697,0.0001900929,496.1249999996697,1.150716e-05,496.1249999996697,3.617297e-05,496.1249999996697,0.0001994993
496.13999999966967,0.0001357126,496.13999999966967,1.185924e-05,496.13999999966967,4.176344e-05,496.13999999966967,0.0001877206
496.15499999966966,0.000124926,496.15499999966966,1.222537e-05,496.15499999966966,4.354095e-05,496.15499999966966,0.000183955
496.16999999966964,0.0001339586,496.16999999966964,1.202087e-05,496.16999999966964,4.526922e-05,496.16999999966964,0.0001814105
496.1849999996696,0.000151132,496.1849999996696,1.307825e-05,496.1849999996696,5.239263e-05,496.1849999996696,0.0001757107
496.1999999996696,0.0001573673,496.1999999996696,1.499505e-05,496.1999999996696,5.461372e-05,496.1999999996696,0.0001549465
496.2149999996696,0.0001597703,496.2149999996696,1.66856e-05,496.2149999996696,5.902998e-05,496.2149999996696,0.0001521245
496.2299999996696,0.0001531804,496.2299999996696,1.673281e-05,496.2299999996696,6.562154e-05,496.2299999996696,0.0001397631
496.2449999996696,0.0001509167,496.2449999996696,1.678912e-05,496.2449999996696,6.998367e-05,496.2449999996696,0.0001322922
496.25999999966956,0.0001548751,496.25999999966956,1.67908e-05,496.25999999966956,7.314395e-05,496.25999999966956,0.0001317929
496.27499999966955,0.0001598351,496.27499999966955,1.746842e-05,496.27499999966955,8.060365e-05,496.27499999966955,0.0001313626
496.28999999966953,0.0001790485,496.28999999966953,1.904849e-05,496.28999999966953,8.222746e-05,496.28999999966953,0.0001465665
496.3049999996695,0.0001809248,496.3049999996695,2.161413e-05,496.3049999996695,8.230297e-05,496.3049999996695,0.0001495715
496.3199999996695,0.0001831622,496.3199999996695,2.479401e-05,496.3199999996695,8.139511e-05,496.3199999996695,0.0001652482
496.3349999996695,0.000186016,496.3349999996695,2.956721e-05,496.3349999996695,8.090873e-05,496.3349999996695,0.0001719776
496.3499999996695,0.0001988683,496.3499999996695,3.032038e-05,496.3499999996695,8.033809e-05,496.3499999996695,0.0001580786
496.36499999966946,0.0002044008,496.36499999966946,3.156726e-05,496.36499999966946,7.941451e-05,496.36499999966946,0.0001632948
496.37999999966945,0.0002223441,496.37999999966945,3.186794e-05,496.37999999966945,7.791857e-05,496.37999999966945,0.0001562346
496.39499999966944,0.0002284922,496.39499999966944,3.189489e-05,496.39499999966944,7.564099e-05,496.39499999966944,0.0001549332
496.4099999996694,0.0002694631,496.4099999996694,3.181573e-05,496.4099999996694,7.456588e-05,496.4099999996694,0.0001545758
496.4249999996694,0.0002840692,496.4249999996694,3.19377e-05,496.4249999996694,7.170581e-05,496.4249999996694,0.0001533526
496.4399999996694,0.0003242509,496.4399999996694,3.151769e-05,496.4399999996694,6.785138e-05,496.4399999996694,0.0001434517
496.4549999996694,0.0003433368,496.4549999996694,3.062087e-05,496.4549999996694,6.630066e-05,496.4549999996694,0.0001469382
496.46999999966937,0.0003451162,496.46999999966937,3.017787e-05,496.46999999966937,6.15286e-05,496.46999999966937,0.0001501057
496.48499999966936,0.0003459173,496.48499999966936,3.000138e-05,496.48499999966936,5.287198e-05,496.48499999966936,0.000155347
496.49999999966934,0.0003475133,496.49999999966934,3.01676e-05,496.49999999966934,4.950215e-05,496.49999999966934,0.0001660533
496.5149999996693,0.0003479155,496.5149999996693,2.985028e-05,496.5149999996693,4.421482e-05,496.5149999996693,0.000182086
496.5299999996693,0.0003427595,496.5299999996693,2.960863e-05,496.5299999996693,2.559577e-05,496.5299999996693,0.0001831275
496.5449999996693,0.0003365357,496.5449999996693,2.830488e-05,496.5449999996693,2.054628e-05,496.5449999996693,0.0001800994
496.5599999996693,0.0003360238,496.5599999996693,2.578221e-05,496.5599999996693,1.987579e-05,496.5599999996693,0.0001783343
496.5749999996693,0.0003350708,496.5749999996693,2.06591e-05,496.5749999996693,2.020894e-05,496.5749999996693,0.0001656515
496.58999999966926,0.0003265258,496.58999999966926,1.88343e-05,496.58999999966926,1.824082e-05,496.58999999966926,0.0001634615
496.60499999966925,0.0003239991,496.60499999966925,1.81075e-05,496.60499999966925,1.900184e-05,496.60499999966925,0.0001641189
496.61999999966923,0.0003161189,496.61999999966923,1.620419e-05,496.61999999966923,2.033887e-05,496.61999999966923,0.0001618827
496.6349999996692,0.0003065947,496.6349999996692,1.569458e-05,496.6349999996692,2.038107e-05,496.6349999996692,0.0001612018
496.6499999996692,0.0002982607,496.6499999996692,1.531573e-05,496.6499999996692,2.264908e-05,496.6499999996692,0.0001594525
496.6649999996692,0.0002419705,496.6649999996692,1.523919e-05,496.6649999996692,2.293585e-05,496.6649999996692,0.0001582732
496.6799999996692,0.0002192901,496.6799999996692,1.537723e-05,496.6799999996692,2.385468e-05,496.6799999996692,0.0001575351
496.69499999966916,0.0001261255,496.69499999966916,1.617548e-05,496.69499999966916,2.672706e-05,496.69499999966916,0.0001545561
496.70999999966915,9.087405e-05,496.70999999966915,1.596334e-05,496.70999999966915,2.892028e-05,496.70999999966915,0.0001530625
496.72499999966914,8.780377e-05,496.72499999966914,1.593154e-05,496.72499999966914,3.075766e-05,496.72499999966914,0.0001645967
496.7399999996691,8.243466e-05,496.7399999996691,1.598538e-05,496.7399999996691,3.095988e-05,496.7399999996691,0.0001612925
496.7549999996691,7.352659e-05,496.7549999996691,1.632976e-05,496.7549999996691,3.827404e-05,496.7549999996691,0.0001434322
496.7699999996691,6.902462e-05,496.7699999996691,1.691534e-05,496.7699999996691,4.21559e-05,496.7699999996691,0.0001338338
496.7849999996691,6.866737e-05,496.7849999996691,1.700504e-05,496.7849999996691,4.311864e-05,496.7849999996691,0.0001349767
496.79999999966907,6.764616e-05,496.79999999966907,1.698764e-05,496.79999999966907,4.639081e-05,496.79999999966907,0.0001255625
496.81499999966906,6.774376e-05,496.81499999966906,1.458551e-05,496.81499999966906,5.153682e-05,496.81499999966906,0.0001243612
496.82999999966904,7.21123e-05,496.82999999966904,1.972282e-05,496.82999999966904,6.579176e-05,496.82999999966904,0.0001274186
496.844999999669,7.271806e-05,496.844999999669,2.30443e-05,496.844999999669,7.001346e-05,496.844999999669,0.0001251535
496.859999999669,7.054363e-05,496.859999999669,2.402004e-05,496.859999999669,7.094743e-05,496.859999999669,0.0001211455
496.874999999669,7.1028e-05,496.874999999669,2.486606e-05,496.874999999669,7.119598e-05,496.874999999669,0.0001201769
496.889999999669,8.327387e-05,496.889999999669,2.618125e-05,496.889999999669,7.13221e-05,496.889999999669,0.0001209769
496.904999999669,9.350227e-05,496.904999999669,2.681651e-05,496.904999999669,7.082323e-05,496.904999999669,0.0001221745
496.91999999966896,0.000127145,496.91999999966896,2.708569e-05,496.91999999966896,7.091387e-05,496.91999999966896,0.0001230085
496.93499999966895,0.000136369,496.93499999966895,2.78306e-05,496.93499999966895,7.067988e-05,496.93499999966895,0.000121997
496.94999999966893,0.0001466611,496.94999999966893,2.725987e-05,496.94999999966893,6.947884e-05,496.94999999966893,0.0001212699
496.9649999996689,0.0001672054,496.9649999996689,2.732955e-05,496.9649999996689,6.851745e-05,496.9649999996689,0.000111873
496.9799999996689,0.0001737847,496.9799999996689,2.723868e-05,496.9799999996689,6.803052e-05,496.9799999996689,0.0001064884
496.9949999996689,0.0001865593,496.9949999996689,2.715166e-05,496.9949999996689,6.768405e-05,496.9949999996689,0.0001133421
497.0099999996689,0.0002003812,497.0099999996689,2.647765e-05,497.0099999996689,6.191521e-05,497.0099999996689,0.0001120993
497.02499999966886,0.0002147355,497.02499999966886,2.652655e-05,497.02499999966886,6.090199e-05,497.02499999966886,0.0001249751
497.03999999966885,0.0002149725,497.03999999966885,2.656794e-05,497.03999999966885,5.967223e-05,497.03999999966885,0.0001285062
497.05499999966884,0.0002171599,497.05499999966884,2.64734e-05,497.05499999966884,5.547995e-05,497.05499999966884,0.000128222
497.0699999996688,0.0002246772,497.0699999996688,2.568203e-05,497.0699999996688,4.702715e-05,497.0699999996688,0.0001430566
497.0849999996688,0.000226841,497.0849999996688,2.240583e-05,497.0849999996688,2.639239e-05,497.0849999996688,0.0001668908
497.0999999996688,0.000228904,497.0999999996688,1.750628e-05,497.0999999996688,1.747487e-05,497.0999999996688,0.0001708445
497.1149999996688,0.0002313542,497.1149999996688,1.741431e-05,497.1149999996688,1.480027e-05,497.1149999996688,0.0001761906
497.12999999966877,0.0002295293,497.12999999966877,1.492349e-05,497.12999999966877,1.304913e-05,497.12999999966877,0.0001767715
497.14499999966876,0.0002258921,497.14499999966876,1.351681e-05,497.14499999966876,1.251124e-05,497.14499999966876,0.0001798952
497.15999999966874,0.000219581,497.15999999966874,1.388693e-05,497.15999999966874,1.157673e-05,497.15999999966874,0.000179056
497.1749999996687,0.0002006752,497.1749999996687,1.337328e-05,497.1749999996687,1.129465e-05,497.1749999996687,0.0001794814
497.1899999996687,0.0002007483,497.1899999996687,1.11174e-05,497.1899999996687,1.232978e-05,497.1899999996687,0.0001805871
497.2049999996687,0.0001933981,497.2049999996687,1.11982e-05,497.2049999996687,1.463661e-05,497.2049999996687,0.0001814825
497.2199999996687,0.0001726789,497.2199999996687,1.142732e-05,497.2199999996687,1.44672e-05,497.2199999996687,0.000179919
497.2349999996687,0.0001731805,497.2349999996687,1.110345e-05,497.2349999996687,1.697187e-05,497.2349999996687,0.0001751514
497.24999999966866,0.0001551007,497.24999999966866,1.412429e-05,497.24999999966866,2.194143e-05,497.24999999966866,0.0001718981
497.26499999966865,0.0001305764,497.26499999966865,1.523457e-05,497.26499999966865,2.772359e-05,497.26499999966865,0.0001682554
497.27999999966863,0.0001120517,497.27999999966863,1.549586e-05,497.27999999966863,2.931169e-05,497.27999999966863,0.0001563415
497.2949999996686,0.0001111897,497.2949999996686,1.594391e-05,497.2949999996686,3.147117e-05,497.2949999996686,0.0001550406
497.3099999996686,0.0001079247,497.3099999996686,1.610566e-05,497.3099999996686,3.386813e-05,497.3099999996686,0.0001726833
497.3249999996686,9.567009e-05,497.3249999996686,1.60408e-05,497.3249999996686,4.112649e-05,497.3249999996686,0.0001615742
497.3399999996686,9.628096e-05,497.3399999996686,1.623806e-05,497.3399999996686,4.787589e-05,497.3399999996686,0.0001728859
497.35499999966856,8.721299e-05,497.35499999966856,1.596245e-05,497.35499999966856,5.138408e-05,497.35499999966856,0.0001703294
497.36999999966855,8.282591e-05,497.36999999966855,1.698764e-05,497.36999999966855,5.303505e-05,497.36999999966855,0.0001671496
497.38499999966854,8.237773e-05,497.38499999966854,1.923614e-05,497.38499999966854,5.61899e-05,497.38499999966854,0.0001651865
497.3999999996685,8.403935e-05,497.3999999996685,2.038937e-05,497.3999999996685,6.541061e-05,497.3999999996685,0.0001618966
497.4149999996685,0.00010937,497.4149999996685,2.035548e-05,497.4149999996685,7.062046e-05,497.4149999996685,0.0001620534
497.4299999996685,0.0001296606,497.4299999996685,2.242091e-05,497.4299999996685,8.056589e-05,497.4299999996685,0.0001608831
497.4449999996685,0.0001527909,497.4449999996685,3.161185e-05,497.4449999996685,8.083854e-05,497.4449999996685,0.0001596514
497.45999999966847,0.0001540978,497.45999999966847,3.88084e-05,497.45999999966847,8.078973e-05,497.45999999966847,0.0001601434
497.47499999966846,0.000155135,497.47499999966846,4.109668e-05,497.47499999966846,8.080019e-05,497.47499999966846,0.0001598671
497.48999999966844,0.0001733318,497.48999999966844,4.142409e-05,497.48999999966844,8.010789e-05,497.48999999966844,0.0001562992
497.5049999996684,0.0001887623,497.5049999996684,4.019069e-05,497.5049999996684,7.905753e-05,497.5049999996684,0.0001555754
497.5199999996684,0.0001918631,497.5199999996684,4.015037e-05,497.5199999996684,7.77122e-05,497.5199999996684,0.0001584364
497.5349999996684,0.0002045892,497.5349999996684,3.989943e-05,497.5349999996684,7.730565e-05,497.5349999996684,0.0001598197
497.5499999996684,0.0002073131,497.5499999996684,3.978063e-05,497.5499999996684,7.669866e-05,497.5499999996684,0.0001618357
497.5649999996684,0.0002385762,497.5649999996684,3.976575e-05,497.5649999996684,7.42391e-05,497.5649999996684,0.0001469553
497.57999999966836,0.0002463931,497.57999999966836,3.977992e-05,497.57999999966836,7.204331e-05,497.57999999966836,0.0001418678
497.59499999966835,0.0002476969,497.59499999966835,3.972002e-05,497.59499999966835,6.660909e-05,497.59499999966835,0.0001272802
497.60999999966833,0.000255228,497.60999999966833,3.970194e-05,497.60999999966833,6.478393e-05,497.60999999966833,0.0001272438
497.6249999996683,0.0002585441,497.6249999996683,3.884903e-05,497.6249999996683,6.342214e-05,497.6249999996683,0.0001325555
497.6399999996683,0.0002647482,497.6399999996683,3.76686e-05,497.6399999996683,5.873908e-05,497.6399999996683,0.0001438757
497.6549999996683,0.0002629157,497.6549999996683,3.721335e-05,497.6549999996683,4.654481e-05,497.6549999996683,0.0001544146
497.6699999996683,0.0002551703,497.6699999996683,3.729314e-05,497.6699999996683,3.248479e-05,497.6699999996683,0.0001599102
497.68499999966826,0.0002435055,497.68499999966826,3.379944e-05,497.68499999966826,1.976064e-05,497.68499999966826,0.0001668722
497.69999999966825,0.0002331366,497.69999999966825,2.703102e-05,497.69999999966825,1.686446e-05,497.69999999966825,0.0001652428
497.71499999966824,0.0002293445,497.71499999966824,1.81417e-05,497.71499999966824,1.689784e-05,497.71499999966824,0.0001646963
497.7299999996682,0.000227731,497.7299999996682,1.187111e-05,497.7299999996682,1.680254e-05,497.7299999996682,0.0001647653
497.7449999996682,0.0002128976,497.7449999996682,1.119568e-05,497.7449999996682,1.693615e-05,497.7449999996682,0.0001636726
497.7599999996682,0.0002049349,497.7599999996682,1.091407e-05,497.7599999996682,1.654997e-05,497.7599999996682,0.0001634957
497.7749999996682,0.0001957599,497.7749999996682,1.184259e-05,497.7749999996682,1.769278e-05,497.7749999996682,0.0001616285
497.78999999966817,0.000186263,497.78999999966817,1.369387e-05,497.78999999966817,1.842523e-05,497.78999999966817,0.0001580329
497.80499999966815,0.0001777987,497.80499999966815,1.420385e-05,497.80499999966815,1.826629e-05,497.80499999966815,0.0001521022
497.81999999966814,0.0001335577,497.81999999966814,1.407234e-05,497.81999999966814,2.615164e-05,497.81999999966814,0.000141035
497.8349999996681,0.0001159001,497.8349999996681,1.475928e-05,497.8349999996681,2.80087e-05,497.8349999996681,0.0001402702
497.8499999996681,0.0001104632,497.8499999996681,1.459516e-05,497.8499999996681,2.873165e-05,497.8499999996681,0.0001358862
497.8649999996681,0.0001062315,497.8649999996681,1.479075e-05,497.8649999996681,3.267331e-05,497.8649999996681,0.0001450473
497.8799999996681,9.95977e-05,497.8799999996681,2.45284e-05,497.8799999996681,3.470585e-05,497.8799999996681,0.0001347821
497.8949999996681,8.503714e-05,497.8949999996681,2.481729e-05,497.8949999996681,4.218529e-05,497.8949999996681,0.0001293059
497.90999999966806,7.739251e-05,497.90999999966806,2.545947e-05,497.90999999966806,4.80521e-05,497.90999999966806,0.0001188619
497.92499999966805,7.126223e-05,497.92499999966805,2.581879e-05,497.92499999966805,5.043891e-05,497.92499999966805,0.0001195054
497.93999999966803,7.310542e-05,497.93999999966803,3.163279e-05,497.93999999966803,5.202189e-05,497.93999999966803,0.0001115888
497.954999999668,7.841003e-05,497.954999999668,3.423055e-05,497.954999999668,5.54266e-05,497.954999999668,0.000111294
497.969999999668,8.449805e-05,497.969999999668,3.774742e-05,497.969999999668,5.598017e-05,497.969999999668,0.0001138565
497.984999999668,8.873035e-05,497.984999999668,3.823685e-05,497.984999999668,5.656221e-05,497.984999999668,0.0001225687
497.999999999668,8.98685e-05,497.999999999668,3.85743e-05,497.999999999668,5.662443e-05,497.999999999668,0.0001337045
498.01499999966796,8.968303e-05,498.01499999966796,3.941778e-05,498.01499999966796,5.607798e-05,498.01499999966796,0.000134018
498.02999999966795,9.851249e-05,498.02999999966795,3.962167e-05,498.02999999966795,5.557686e-05,498.02999999966795,0.0001335472
498.04499999966794,0.0001238576,498.04499999966794,3.887876e-05,498.04499999966794,5.539889e-05,498.04499999966794,0.000133276
498.0599999996679,0.0001281599,498.0599999996679,3.892402e-05,498.0599999996679,5.343013e-05,498.0599999996679,0.0001503568
498.0749999996679,0.0001448255,498.0749999996679,3.884395e-05,498.0749999996679,5.183797e-05,498.0749999996679,0.0001552556
498.0899999996679,0.0001711252,498.0899999996679,3.870991e-05,498.0899999996679,5.073186e-05,498.0899999996679,0.0001577258
498.1049999996679,0.0001761713,498.1049999996679,3.867386e-05,498.1049999996679,4.961642e-05,498.1049999996679,0.0001881154
498.11999999966787,0.0001768263,498.11999999966787,3.679193e-05,498.11999999966787,4.707505e-05,498.11999999966787,0.0001959116
498.13499999966785,0.0001896857,498.13499999966785,3.336022e-05,498.13499999966785,4.575362e-05,498.13499999966785,0.0001978181
498.14999999966784,0.0002040062,498.14999999966784,3.297672e-05,498.14999999966784,3.857868e-05,498.14999999966784,0.0002305616
498.1649999996678,0.0002092358,498.1649999996678,3.278221e-05,498.1649999996678,3.042705e-05,498.1649999996678,0.0002354497
498.1799999996678,0.0002097016,498.1799999996678,3.155477e-05,498.1799999996678,2.666268e-05,498.1799999996678,0.0002360378
498.1949999996678,0.0002097605,498.1949999996678,2.403353e-05,498.1949999996678,2.421513e-05,498.1949999996678,0.0002425155
498.2099999996678,0.0002070603,498.2099999996678,1.98183e-05,498.2099999996678,1.651162e-05,498.2099999996678,0.0002516689
498.2249999996678,0.0002045702,498.2249999996678,1.592623e-05,498.2249999996678,1.421377e-05,498.2249999996678,0.0002517441
498.23999999966776,0.0002043393,498.23999999966776,1.47268e-05,498.23999999966776,1.240041e-05,498.23999999966776,0.0002484593
498.25499999966775,0.00020245,498.25499999966775,1.439986e-05,498.25499999966775,1.198566e-05,498.25499999966775,0.0002472607
498.26999999966773,0.0002027099,498.26999999966773,1.05184e-05,498.26999999966773,1.384222e-05,498.26999999966773,0.0002522532
498.2849999996677,0.0001892443,498.2849999996677,1.010307e-05,498.2849999996677,1.331522e-05,498.2849999996677,0.0002585684
498.2999999996677,0.0001822012,498.2999999996677,1.072923e-05,498.2999999996677,1.350743e-05,498.2999999996677,0.0002590777
498.3149999996677,0.0001765666,498.3149999996677,1.07777e-05,498.3149999996677,3.580976e-05,498.3149999996677,0.0002461702
498.3299999996677,0.0001631927,498.3299999996677,1.402722e-05,498.3299999996677,4.140198e-05,498.3299999996677,0.0002405672
498.34499999966766,0.0001285699,498.34499999966766,1.410433e-05,498.34499999966766,4.443569e-05,498.34499999966766,0.000237825
498.35999999966765,0.0001246255,498.35999999966765,1.406032e-05,498.35999999966765,4.839708e-05,498.35999999966765,0.0002077595
498.37499999966764,0.0001187647,498.37499999966764,1.401416e-05,498.37499999966764,5.090511e-05,498.37499999966764,0.0002007883
498.3899999996676,0.0001113662,498.3899999996676,1.408234e-05,498.3899999996676,5.598294e-05,498.3899999996676,0.0001965466
498.4049999996676,9.512403e-05,498.4049999996676,1.422269e-05,498.4049999996676,5.818924e-05,498.4049999996676,0.0001565319
498.4199999996676,8.442467e-05,498.4199999996676,2.260425e-05,498.4199999996676,7.026391e-05,498.4199999996676,0.0001536396
498.4349999996676,8.334775e-05,498.4349999996676,2.258991e-05,498.4349999996676,7.932258e-05,498.4349999996676,0.0001443824
498.44999999966757,8.100982e-05,498.44999999966757,2.226519e-05,498.44999999966757,8.02063e-05,498.44999999966757,0.0001346829
498.46499999966755,8.623646e-05,498.46499999966755,2.240709e-05,498.46499999966755,8.201046e-05,498.46499999966755,0.0001124534
498.47999999966754,8.603317e-05,498.47999999966754,2.262356e-05,498.47999999966754,8.20709e-05,498.47999999966754,0.000112729
498.4949999996675,8.603842e-05,498.4949999996675,2.691299e-05,498.4949999996675,8.246012e-05,498.4949999996675,0.0001122184
498.5099999996675,8.694331e-05,498.5099999996675,3.386855e-05,498.5099999996675,8.2497e-05,498.5099999996675,0.0001186599
498.5249999996675,8.853646e-05,498.5249999996675,3.456431e-05,498.5249999996675,8.246746e-05,498.5249999996675,0.0001086328
498.5399999996675,0.0001020413,498.5399999996675,3.497231e-05,498.5399999996675,8.245021e-05,498.5399999996675,9.626736e-05
498.5549999996675,0.000103518,498.5549999996675,3.510257e-05,498.5549999996675,8.08793e-05,498.5549999996675,9.715572e-05
498.56999999966746,0.0001097536,498.56999999966746,3.464532e-05,498.56999999966746,7.39644e-05,498.56999999966746,0.0001035061
498.58499999966745,0.0001189254,498.58499999966745,3.398978e-05,498.58499999966745,7.185301e-05,498.58499999966745,0.0001168135
498.59999999966743,0.0001244648,498.59999999966743,3.433163e-05,498.59999999966743,6.993797e-05,498.59999999966743,0.0001149993
498.6149999996674,0.0001256172,498.6149999996674,3.453088e-05,498.6149999996674,6.686975e-05,498.6149999996674,0.000117408
498.6299999996674,0.0001335764,498.6299999996674,3.463637e-05,498.6299999996674,6.538584e-05,498.6299999996674,0.000132193
498.6449999996674,0.0001314156,498.6449999996674,3.480798e-05,498.6449999996674,6.229423e-05,498.6449999996674,0.0001322449
498.6599999996674,0.0001409289,498.6599999996674,3.32422e-05,498.6599999996674,5.681839e-05,498.6599999996674,0.0001370585
498.67499999966736,0.0001475027,498.67499999966736,3.004314e-05,498.67499999966736,4.048856e-05,498.67499999966736,0.00014136
498.68999999966735,0.000147765,498.68999999966735,3.012555e-05,498.68999999966735,2.692817e-05,498.68999999966735,0.0001497145
498.70499999966734,0.000146372,498.70499999966734,3.011947e-05,498.70499999966734,2.493395e-05,498.70499999966734,0.0001507205
498.7199999996673,0.0001459009,498.7199999996673,2.986207e-05,498.7199999996673,1.861689e-05,498.7199999996673,0.0001497791
498.7349999996673,0.0001460562,498.7349999996673,3.069393e-05,498.7349999996673,1.921782e-05,498.7349999996673,0.0001477628
498.7499999996673,0.0001454466,498.7499999996673,2.171362e-05,498.7499999996673,1.738192e-05,498.7499999996673,0.0001534129
498.7649999996673,0.0001470142,498.7649999996673,1.777697e-05,498.7649999996673,1.693365e-05,498.7649999996673,0.0001605057
498.77999999966727,0.0001451511,498.77999999966727,1.657038e-05,498.77999999966727,1.79481e-05,498.77999999966727,0.0001589393
498.79499999966725,0.0001341233,498.79499999966725,1.580102e-05,498.79499999966725,1.965127e-05,498.79499999966725,0.0001575933
498.80999999966724,0.000134245,498.80999999966724,1.531665e-05,498.80999999966724,2.101537e-05,498.80999999966724,0.0001566133
498.8249999996672,0.0001226232,498.8249999996672,1.529364e-05,498.8249999996672,2.170648e-05,498.8249999996672,0.0001468048
498.8399999996672,0.0001180497,498.8399999996672,1.52355e-05,498.8399999996672,2.222022e-05,498.8399999996672,0.0001430922
498.8549999996672,0.000112293,498.8549999996672,1.537539e-05,498.8549999996672,2.477468e-05,498.8549999996672,0.000144157
498.8699999996672,0.0001116272,498.8699999996672,1.623719e-05,498.8699999996672,2.453586e-05,498.8699999996672,0.0001409809
498.8849999996672,9.954182e-05,498.8849999996672,1.609603e-05,498.8849999996672,2.737898e-05,498.8849999996672,0.0001297153
498.89999999966716,9.11511e-05,498.89999999966716,1.577158e-05,498.89999999966716,3.209829e-05,498.89999999966716,0.0001279781
498.91499999966715,7.497997e-05,498.91499999966715,1.527244e-05,498.91499999966715,3.534612e-05,498.91499999966715,0.0001218479
498.92999999966713,7.195018e-05,498.92999999966713,1.726483e-05,498.92999999966713,4.040463e-05,498.92999999966713,0.0001149951
498.9449999996671,7.761045e-05,498.9449999996671,2.169739e-05,498.9449999996671,4.270073e-05,498.9449999996671,0.0001062825
498.9599999996671,7.758013e-05,498.9599999996671,2.253622e-05,498.9599999996671,4.491183e-05,498.9599999996671,0.0001179081
498.9749999996671,7.775189e-05,498.9749999996671,2.146831e-05,498.9749999996671,4.556821e-05,498.9749999996671,0.0001233123
498.9899999996671,7.874778e-05,498.9899999996671,2.206627e-05,498.9899999996671,4.53572e-05,498.9899999996671,0.0001235299
499.00499999966706,7.908977e-05,499.00499999966706,2.222529e-05,499.00499999966706,4.50418e-05,499.00499999966706,0.000115375
499.01999999966705,7.544464e-05,499.01999999966705,2.368935e-05,499.01999999966705,4.491653e-05,499.01999999966705,0.0001113707
499.03499999966704,7.753872e-05,499.03499999966704,2.388124e-05,499.03499999966704,4.467565e-05,499.03499999966704,0.0001132344
499.049999999667,7.759719e-05,499.049999999667,2.390777e-05,499.049999999667,4.417753e-05,499.049999999667,0.0001122702
499.064999999667,7.729253e-05,499.064999999667,2.38836e-05,499.064999999667,4.33477e-05,499.064999999667,0.0001124082
499.079999999667,8.194739e-05,499.079999999667,2.397778e-05,499.079999999667,4.313791e-05,499.079999999667,0.0001137859
499.094999999667,8.387896e-05,499.094999999667,2.393956e-05,499.094999999667,4.226802e-05,499.094999999667,0.0001146671
499.10999999966697,8.566907e-05,499.10999999966697,2.241714e-05,499.10999999966697,4.147031e-05,499.10999999966697,0.0001266016
499.12499999966695,8.441532e-05,499.12499999966695,2.234791e-05,499.12499999966695,4.053446e-05,499.12499999966695,0.0001282213
499.13999999966694,8.191989e-05,499.13999999966694,2.251871e-05,499.13999999966694,3.69089e-05,499.13999999966694,0.0002759749
499.1549999996669,8.379915e-05,499.1549999996669,2.29604e-05,499.1549999996669,3.482902e-05,499.1549999996669,0.0003510674
499.1699999996669,8.313012e-05,499.1699999996669,2.294813e-05,499.1699999996669,3.06999e-05,499.1699999996669,0.0003637022
499.1849999996669,8.107675e-05,499.1849999996669,1.771903e-05,499.1849999996669,2.380502e-05,499.1849999996669,0.0003685965
499.1999999996669,7.701445e-05,499.1999999996669,1.642094e-05,499.1999999996669,2.014471e-05,499.1999999996669,0.0003701378
499.2149999996669,7.890521e-05,499.2149999996669,1.590765e-05,499.2149999996669,1.560908e-05,499.2149999996669,0.0003704473
499.22999999966686,7.781745e-05,499.22999999966686,1.586952e-05,499.22999999966686,1.420385e-05,499.22999999966686,0.0003687221
499.24499999966685,7.752018e-05,499.24499999966685,1.399706e-05,499.24499999966685,1.399806e-05,499.24499999966685,0.0003680611
499.25999999966683,7.725078e-05,499.25999999966683,1.347715e-05,499.25999999966683,1.608903e-05,499.25999999966683,0.0003662946
499.2749999996668,7.678548e-05,499.2749999996668,1.00289e-05,499.2749999996668,1.834708e-05,499.2749999996668,0.0003645785
499.2899999996668,7.552395e-05,499.2899999996668,9.898837e-06,499.2899999996668,2.50208e-05,499.2899999996668,0.0003644877
499.3049999996668,7.729544e-05,499.3049999996668,1.030053e-05,499.3049999996668,3.334248e-05,499.3049999996668,0.0003650752
499.3199999996668,7.608664e-05,499.3199999996668,1.089987e-05,499.3199999996668,3.684855e-05,499.3199999996668,0.0003648408
499.33499999966676,7.357811e-05,499.33499999966676,1.039446e-05,499.33499999966676,3.904687e-05,499.33499999966676,0.0003653779
499.34999999966675,6.902523e-05,499.34999999966675,1.060111e-05,499.34999999966675,3.933478e-05,499.34999999966675,0.0003654494
499.36499999966674,6.890513e-05,499.36499999966674,1.054783e-05,499.36499999966674,4.24164e-05,499.36499999966674,0.0003606742
499.3799999996667,6.840284e-05,499.3799999996667,1.055717e-05,499.3799999996667,4.918441e-05,499.3799999996667,0.0003076291
499.3949999996667,7.166573e-05,499.3949999996667,1.060775e-05,499.3949999996667,5.09922e-05,499.3949999996667,0.0002360616
