X[s],a: EMG RMS 1-1,X[s].1,a: EMG RMS 1-2,X[s].2,a: EMG RMS 1-3,X[s].3,a: EMG RMS 1-4
440.0099999997207,3.685619e-05,440.0099999997207,7.156758e-06,440.0099999997207,5.99572e-05,440.0099999997207,7.841596e-05
440.0249999997207,3.532419e-05,440.0249999997207,7.379642e-06,440.0249999997207,5.91768e-05,440.0249999997207,7.499481e-05
440.0399999997207,3.719518e-05,440.0399999997207,7.562535e-06,440.0399999997207,5.952735e-05,440.0399999997207,7.627783e-05
440.0549999997207,3.833178e-05,440.0549999997207,7.56626e-06,440.0549999997207,6.025437e-05,440.0549999997207,7.069184e-05
440.06999999972066,3.802813e-05,440.06999999972066,7.849532e-06,440.06999999972066,6.006799e-05,440.06999999972066,6.726923e-05
440.08499999972065,4.026773e-05,440.08499999972065,7.887128e-06,440.08499999972065,5.957182e-05,440.08499999972065,6.813542e-05
440.09999999972064,3.901583e-05,440.09999999972064,7.967094e-06,440.09999999972064,5.760482e-05,440.09999999972064,6.601727e-05
440.1149999997206,3.840668e-05,440.1149999997206,7.842351e-06,440.1149999997206,5.747948e-05,440.1149999997206,6.522018e-05
440.1299999997206,3.82328e-05,440.1299999997206,7.742928e-06,440.1299999997206,5.661274e-05,440.1299999997206,6.012518e-05
440.1449999997206,3.78447e-05,440.1449999997206,7.528932e-06,440.1449999997206,5.491954e-05,440.1449999997206,5.922034e-05
440.1599999997206,3.928892e-05,440.1599999997206,7.04567e-06,440.1599999997206,5.452156e-05,440.1599999997206,5.793839e-05
440.17499999972057,4.05876e-05,440.17499999972057,6.963215e-06,440.17499999972057,5.306027e-05,440.17499999972057,5.606692e-05
440.18999999972056,4.126634e-05,440.18999999972056,6.894089e-06,440.18999999972056,5.174005e-05,440.18999999972056,5.432795e-05
440.20499999972054,4.146012e-05,440.20499999972054,6.904299e-06,440.20499999972054,5.111278e-05,440.20499999972054,4.886345e-05
440.2199999997205,3.92552e-05,440.2199999997205,6.734918e-06,440.2199999997205,4.911247e-05,440.2199999997205,4.969953e-05
440.2349999997205,4.047673e-05,440.2349999997205,6.764137e-06,440.2349999997205,4.882307e-05,440.2349999997205,4.848723e-05
440.2499999997205,4.281176e-05,440.2499999997205,6.799448e-06,440.2499999997205,4.89228e-05,440.2499999997205,4.432142e-05
440.2649999997205,4.387291e-05,440.2649999997205,7.237009e-06,440.2649999997205,4.53081e-05,440.2649999997205,4.002914e-05
440.2799999997205,4.438018e-05,440.2799999997205,7.178377e-06,440.2799999997205,4.529815e-05,440.2799999997205,3.860423e-05
440.29499999972046,4.399924e-05,440.29499999972046,6.912455e-06,440.29499999972046,4.536962e-05,440.29499999972046,3.802702e-05
440.30999999972045,4.39265e-05,440.30999999972045,7.003558e-06,440.30999999972045,4.076906e-05,440.30999999972045,3.957186e-05
440.32499999972043,4.461097e-05,440.32499999972043,6.713969e-06,440.32499999972043,4.032436e-05,440.32499999972043,3.76873e-05
440.3399999997204,4.205687e-05,440.3399999997204,6.770382e-06,440.3399999997204,3.855275e-05,440.3399999997204,3.879824e-05
440.3549999997204,4.193981e-05,440.3549999997204,6.483414e-06,440.3549999997204,3.556741e-05,440.3549999997204,3.744581e-05
440.3699999997204,4.39249e-05,440.3699999997204,6.522406e-06,440.3699999997204,3.50829e-05,440.3699999997204,3.615778e-05
440.3849999997204,4.423329e-05,440.3849999997204,6.476893e-06,440.3849999997204,3.461563e-05,440.3849999997204,3.693866e-05
440.39999999972036,4.672303e-05,440.39999999972036,6.446372e-06,440.39999999972036,3.495538e-05,440.39999999972036,3.821548e-05
440.41499999972035,4.582961e-05,440.41499999972035,6.50294e-06,440.41499999972035,3.503107e-05,440.41499999972035,3.82884e-05
440.42999999972034,4.657386e-05,440.42999999972034,6.402519e-06,440.42999999972034,3.583689e-05,440.42999999972034,3.794024e-05
440.4449999997203,4.683716e-05,440.4449999997203,6.230803e-06,440.4449999997203,3.524355e-05,440.4449999997203,3.752622e-05
440.4599999997203,4.688735e-05,440.4599999997203,6.732826e-06,440.4599999997203,3.602234e-05,440.4599999997203,3.919091e-05
440.4749999997203,4.668563e-05,440.4749999997203,7.250621e-06,440.4749999997203,3.568326e-05,440.4749999997203,4.052716e-05
440.4899999997203,4.549365e-05,440.4899999997203,7.21166e-06,440.4899999997203,3.640123e-05,440.4899999997203,4.055531e-05
440.50499999972027,4.404116e-05,440.50499999972027,7.27196e-06,440.50499999972027,3.85107e-05,440.50499999972027,4.033624e-05
440.51999999972026,4.465042e-05,440.51999999972026,7.087532e-06,440.51999999972026,3.940706e-05,440.51999999972026,4.073899e-05
440.53499999972024,4.384497e-05,440.53499999972024,6.989465e-06,440.53499999972024,3.739009e-05,440.53499999972024,4.069193e-05
440.5499999997202,4.307353e-05,440.5499999997202,6.832516e-06,440.5499999997202,3.769103e-05,440.5499999997202,4.229201e-05
440.5649999997202,4.448227e-05,440.5649999997202,6.820134e-06,440.5649999997202,3.982769e-05,440.5649999997202,4.083327e-05
440.5799999997202,4.387548e-05,440.5799999997202,7.067629e-06,440.5799999997202,3.998759e-05,440.5799999997202,3.952627e-05
440.5949999997202,4.446199e-05,440.5949999997202,6.985433e-06,440.5949999997202,4.166044e-05,440.5949999997202,4.174489e-05
440.6099999997202,4.365984e-05,440.6099999997202,7.013608e-06,440.6099999997202,4.32224e-05,440.6099999997202,4.380158e-05
440.62499999972016,4.199184e-05,440.62499999972016,7.22142e-06,440.62499999972016,4.586586e-05,440.62499999972016,4.551563e-05
440.63999999972015,4.115559e-05,440.63999999972015,7.22337e-06,440.63999999972015,4.593185e-05,440.63999999972015,4.666541e-05
440.65499999972013,3.976575e-05,440.65499999972013,7.213613e-06,440.65499999972013,4.605772e-05,440.65499999972013,4.649909e-05
440.6699999997201,3.949454e-05,440.6699999997201,7.19993e-06,440.6699999997201,4.686271e-05,440.6699999997201,4.708134e-05
440.6849999997201,3.818487e-05,440.6849999997201,7.237009e-06,440.6849999997201,5.016306e-05,440.6849999997201,4.813148e-05
440.6999999997201,4.128238e-05,440.6999999997201,7.00959e-06,440.6999999997201,5.064654e-05,440.6999999997201,5.447503e-05
440.7149999997201,4.151818e-05,440.7149999997201,6.803591e-06,440.7149999997201,5.102534e-05,440.7149999997201,5.21436e-05
440.72999999972006,4.164894e-05,440.72999999972006,6.548272e-06,440.72999999972006,5.229171e-05,440.72999999972006,5.408602e-05
440.74499999972005,4.050456e-05,440.74499999972005,6.7391e-06,440.74499999972005,5.238967e-05,440.74499999972005,5.402556e-05
440.75999999972004,3.933836e-05,440.75999999972004,6.554722e-06,440.75999999972004,5.060286e-05,440.75999999972004,5.413105e-05
440.77499999972,3.906599e-05,440.77499999972,6.313899e-06,440.77499999972,5.01945e-05,440.77499999972,5.454894e-05
440.78999999972,4.048613e-05,440.78999999972,6.33617e-06,440.78999999972,5.083283e-05,440.78999999972,5.291432e-05
440.80499999972,4.013458e-05,440.80499999972,6.260124e-06,440.80499999972,5.138243e-05,440.80499999972,5.497722e-05
440.81999999972,3.888129e-05,440.81999999972,6.257873e-06,440.81999999972,5.087937e-05,440.81999999972,5.513407e-05
440.83499999971997,3.8719e-05,440.83499999971997,5.958057e-06,440.83499999971997,5.119567e-05,440.83499999971997,5.669554e-05
440.84999999971996,3.795695e-05,440.84999999971996,6.077441e-06,440.84999999971996,4.981193e-05,440.84999999971996,5.470366e-05
440.86499999971994,3.820479e-05,440.86499999971994,6.077441e-06,440.86499999971994,4.909239e-05,440.86499999971994,5.54172e-05
440.8799999997199,3.79187e-05,440.8799999997199,6.005157e-06,440.8799999997199,4.921047e-05,440.8799999997199,5.272524e-05
440.8949999997199,3.856845e-05,440.8949999997199,6.061194e-06,440.8949999997199,5.063848e-05,440.8949999997199,5.392404e-05
440.9099999997199,3.843564e-05,440.9099999997199,6.452925e-06,440.9099999997199,5.021134e-05,440.9099999997199,5.373745e-05
440.9249999997199,3.877972e-05,440.9249999997199,6.349495e-06,440.9249999997199,4.662555e-05,440.9249999997199,5.348257e-05
440.9399999997199,3.826852e-05,440.9399999997199,6.280343e-06,440.9399999997199,4.754135e-05,440.9399999997199,5.815922e-05
440.95499999971986,4.013914e-05,440.95499999971986,6.144291e-06,440.95499999971986,4.738554e-05,440.95499999971986,5.259175e-05
440.96999999971985,4.072239e-05,440.96999999971985,6.248863e-06,440.96999999971985,4.507932e-05,440.96999999971985,5.32696e-05
440.98499999971983,4.028032e-05,440.98499999971983,6.556871e-06,440.98499999971983,4.765677e-05,440.98499999971983,5.347336e-05
440.9999999997198,4.269611e-05,440.9999999997198,6.470365e-06,440.9999999997198,4.651877e-05,440.9999999997198,5.404693e-05
441.0149999997198,4.291758e-05,441.0149999997198,6.673986e-06,441.0149999997198,4.808551e-05,441.0149999997198,5.448537e-05
441.0299999997198,4.16966e-05,441.0299999997198,6.7391e-06,441.0299999997198,4.833971e-05,441.0299999997198,5.317166e-05
441.0449999997198,4.165638e-05,441.0449999997198,6.896133e-06,441.0449999997198,4.724293e-05,441.0449999997198,5.394336e-05
441.05999999971976,4.028626e-05,441.05999999971976,6.930771e-06,441.05999999971976,4.579886e-05,441.05999999971976,5.310937e-05
441.07499999971975,4.037184e-05,441.07499999971975,7.013608e-06,441.07499999971975,4.506682e-05,441.07499999971975,5.503408e-05
441.08999999971974,4.071927e-05,441.08999999971974,7.049668e-06,441.08999999971974,4.665152e-05,441.08999999971974,5.437331e-05
441.1049999997197,4.188637e-05,441.1049999997197,6.959168e-06,441.1049999997197,4.609777e-05,441.1049999997197,5.585951e-05
441.1199999997197,4.260297e-05,441.1199999997197,7.381551e-06,441.1199999997197,4.491998e-05,441.1199999997197,5.584438e-05
441.1349999997197,4.269215e-05,441.1349999997197,7.764728e-06,441.1349999997197,4.507619e-05,441.1349999997197,5.516778e-05
441.1499999997197,4.207763e-05,441.1499999997197,7.940529e-06,441.1499999997197,4.518045e-05,441.1499999997197,5.674571e-05
441.16499999971967,4.071719e-05,441.16499999971967,7.737468e-06,441.16499999971967,4.59671e-05,441.16499999971967,5.653281e-05
441.17999999971966,3.945314e-05,441.17999999971966,7.579281e-06,441.17999999971966,4.541059e-05,441.17999999971966,5.627657e-05
441.19499999971964,4.135091e-05,441.19499999971964,7.702799e-06,441.19499999971964,4.355162e-05,441.19499999971964,5.174115e-05
441.2099999997196,3.493684e-05,441.2099999997196,7.759284e-06,441.2099999997196,4.345967e-05,441.2099999997196,5.294626e-05
441.2249999997196,3.534372e-05,441.2249999997196,7.536412e-06,441.2249999997196,4.541772e-05,441.2249999997196,5.205357e-05
441.2399999997196,3.760385e-05,441.2399999997196,7.264208e-06,441.2399999997196,4.477329e-05,441.2399999997196,5.214765e-05
441.2549999997196,3.454719e-05,441.2549999997196,7.196016e-06,441.2549999997196,4.543881e-05,441.2549999997196,5.214495e-05
441.2699999997196,3.45219e-05,441.2699999997196,7.63668e-06,441.2699999997196,4.512367e-05,441.2699999997196,5.422102e-05
441.28499999971956,3.756862e-05,441.28499999971956,7.461272e-06,441.28499999971956,4.49908e-05,441.28499999971956,5.601112e-05
441.29999999971955,3.729427e-05,441.29999999971955,7.924546e-06,441.29999999971955,4.590454e-05,441.29999999971955,5.716936e-05
441.31499999971953,3.784023e-05,441.31499999971953,7.887128e-06,441.31499999971953,4.61048e-05,441.31499999971953,5.947621e-05
441.3299999997195,3.766374e-05,441.3299999997195,7.879981e-06,441.3299999997195,4.511274e-05,441.3299999997195,5.942124e-05
441.3449999997195,3.851363e-05,441.3449999997195,8.115992e-06,441.3449999997195,4.674353e-05,441.3449999997195,6.039448e-05
441.3599999997195,3.878189e-05,441.3599999997195,8.117728e-06,441.3599999997195,4.709899e-05,441.3599999997195,5.819021e-05
441.3749999997195,3.83123e-05,441.3749999997195,7.788277e-06,441.3749999997195,4.687864e-05,441.3749999997195,5.90691e-05
441.38999999971946,3.752773e-05,441.38999999971946,7.109361e-06,441.38999999971946,4.453196e-05,441.38999999971946,5.831306e-05
441.40499999971945,3.779815e-05,441.40499999971945,7.246734e-06,441.40499999971945,4.379129e-05,441.40499999971945,5.949137e-05
441.41999999971944,3.816458e-05,441.41999999971944,7.638524e-06,441.41999999971944,4.324391e-05,441.41999999971944,6.019496e-05
441.4349999997194,3.727803e-05,441.4349999997194,7.784659e-06,441.4349999997194,4.358008e-05,441.4349999997194,5.924531e-05
441.4499999997194,3.664999e-05,441.4499999997194,7.601551e-06,441.4499999997194,4.457622e-05,441.4499999997194,6.044787e-05
441.4649999997194,3.9124e-05,441.4649999997194,7.549485e-06,441.4649999997194,4.642693e-05,441.4649999997194,6.049655e-05
441.4799999997194,3.752998e-05,441.4799999997194,7.724713e-06,441.4799999997194,4.364887e-05,441.4799999997194,6.328362e-05
441.49499999971937,3.852021e-05,441.49499999971937,7.669811e-06,441.49499999971937,4.266145e-05,441.49499999971937,6.562862e-05
441.50999999971935,3.805368e-05,441.50999999971935,7.664298e-06,441.50999999971935,4.275282e-05,441.50999999971935,6.554959e-05
441.52499999971934,3.823575e-05,441.52499999971934,7.352869e-06,441.52499999971934,4.25646e-05,441.52499999971934,6.540695e-05
441.5399999997193,3.484964e-05,441.5399999997193,7.283574e-06,441.5399999997193,4.475882e-05,441.5399999997193,6.50963e-05
441.5549999997193,3.748378e-05,441.5549999997193,6.953093e-06,441.5549999997193,4.505244e-05,441.5549999997193,6.618349e-05
441.5699999997193,3.704832e-05,441.5699999997193,7.089519e-06,441.5699999997193,4.646666e-05,441.5699999997193,6.267321e-05
441.5849999997193,3.751984e-05,441.5849999997193,6.987449e-06,441.5849999997193,4.548838e-05,441.5849999997193,6.312604e-05
441.5999999997193,3.948063e-05,441.5999999997193,6.74119e-06,441.5999999997193,4.426799e-05,441.5999999997193,6.370824e-05
441.61499999971926,4.153921e-05,441.61499999971926,7.207752e-06,441.61499999971926,4.370435e-05,441.61499999971926,6.630555e-05
441.62999999971925,4.132672e-05,441.62999999971925,7.287441e-06,441.62999999971925,4.367146e-05,441.62999999971925,6.679135e-05
441.64499999971923,4.558119e-05,441.64499999971923,7.184261e-06,441.64499999971923,4.355842e-05,441.64499999971923,7.011519e-05
441.6599999997192,4.541183e-05,441.6599999997192,6.629514e-06,441.6599999997192,4.403444e-05,441.6599999997192,7.234848e-05
441.6749999997192,4.481638e-05,441.6749999997192,6.663425e-06,441.6749999997192,4.404372e-05,441.6749999997192,7.332342e-05
441.6899999997192,4.518949e-05,441.6899999997192,6.749543e-06,441.6899999997192,4.388897e-05,441.6899999997192,7.422088e-05
441.7049999997192,4.543726e-05,441.7049999997192,7.337527e-06,441.7049999997192,4.333079e-05,441.7049999997192,7.287306e-05
441.71999999971916,4.365371e-05,441.71999999971916,7.327922e-06,441.71999999971916,3.948633e-05,441.71999999971916,7.219098e-05
441.73499999971915,4.56994e-05,441.73499999971915,7.071614e-06,441.73499999971915,4.054141e-05,441.73499999971915,6.93193e-05
441.74999999971914,4.497702e-05,441.74999999971914,7.089519e-06,441.74999999971914,3.997949e-05,441.74999999971914,7.000461e-05
441.7649999997191,4.68531e-05,441.7649999997191,7.091506e-06,441.7649999997191,4.380319e-05,441.7649999997191,7.138232e-05
441.7799999997191,4.847096e-05,441.7799999997191,7.079578e-06,441.7799999997191,4.295662e-05,441.7799999997191,7.124602e-05
441.7949999997191,4.709659e-05,441.7949999997191,7.083556e-06,441.7949999997191,4.057406e-05,441.7949999997191,6.972758e-05
441.8099999997191,4.767273e-05,441.8099999997191,6.940926e-06,441.8099999997191,4.037219e-05,441.8099999997191,7.186711e-05
441.82499999971907,4.75046e-05,441.82499999971907,7.127172e-06,441.82499999971907,4.10157e-05,441.82499999971907,7.167792e-05
441.83999999971905,4.647454e-05,441.83999999971905,7.510198e-06,441.83999999971905,4.219097e-05,441.83999999971905,7.192864e-05
441.85499999971904,4.254473e-05,441.85499999971904,7.302889e-06,441.85499999971904,4.147541e-05,441.85499999971904,6.858423e-05
441.869999999719,4.114943e-05,441.869999999719,7.260328e-06,441.869999999719,4.260495e-05,441.869999999719,7.003096e-05
441.884999999719,4.055878e-05,441.884999999719,7.327922e-06,441.884999999719,4.330283e-05,441.884999999719,6.961253e-05
441.899999999719,3.808883e-05,441.899999999719,7.68449e-06,441.899999999719,4.379225e-05,441.899999999719,6.503546e-05
441.914999999719,3.867787e-05,441.914999999719,7.647739e-06,441.914999999719,4.347976e-05,441.914999999719,6.330342e-05
441.929999999719,3.944386e-05,441.929999999719,7.571843e-06,441.929999999719,4.485596e-05,441.929999999719,6.277786e-05
441.94499999971896,4.079496e-05,441.94499999971896,7.176414e-06,441.94499999971896,4.44509e-05,441.94499999971896,6.700465e-05
441.95999999971895,4.090428e-05,441.95999999971895,7.493299e-06,441.95999999971895,4.466556e-05,441.95999999971895,6.727175e-05
441.97499999971893,4.230234e-05,441.97499999971893,7.466933e-06,441.97499999971893,4.555925e-05,441.97499999971893,6.734479e-05
441.9899999997189,4.169728e-05,441.9899999997189,7.444261e-06,441.9899999997189,4.534509e-05,441.9899999997189,6.663679e-05
442.0049999997189,3.99661e-05,442.0049999997189,7.379642e-06,442.0049999997189,4.491653e-05,442.0049999997189,6.722566e-05
442.0199999997189,3.963624e-05,442.0199999997189,7.139021e-06,442.0199999997189,3.971825e-05,442.0199999997189,6.560522e-05
442.0349999997189,3.921642e-05,442.0349999997189,7.031661e-06,442.0349999997189,3.971471e-05,442.0349999997189,6.701453e-05
442.04999999971886,3.833031e-05,442.04999999971886,7.59228e-06,442.04999999971886,4.06857e-05,442.04999999971886,6.677278e-05
442.06499999971885,3.999675e-05,442.06499999971885,7.651422e-06,442.06499999971885,4.014686e-05,442.06499999971885,6.540351e-05
442.07999999971884,4.013949e-05,442.07999999971884,7.564397e-06,442.07999999971884,3.889723e-05,442.07999999971884,6.643396e-05
442.0949999997188,4.151852e-05,442.0949999997188,7.525189e-06,442.0949999997188,3.745897e-05,442.0949999997188,6.713445e-05
442.1099999997188,4.074659e-05,442.1099999997188,8.192006e-06,442.1099999997188,3.927206e-05,442.1099999997188,6.774168e-05
442.1249999997188,4.010122e-05,442.1249999997188,8.70068e-06,442.1249999997188,3.830568e-05,442.1249999997188,6.707462e-05
442.1399999997188,4.021067e-05,442.1399999997188,9.259134e-06,442.1399999997188,3.75097e-05,442.1399999997188,6.626347e-05
442.15499999971877,4.119391e-05,442.15499999971877,9.176611e-06,442.15499999971877,3.988071e-05,442.15499999971877,6.655577e-05
442.16999999971875,4.039975e-05,442.16999999971875,9.262176e-06,442.16999999971875,3.970832e-05,442.16999999971875,6.605097e-05
442.18499999971874,3.995588e-05,442.18499999971874,9.224075e-06,442.18499999971874,3.946242e-05,442.18499999971874,6.578041e-05
442.1999999997187,3.835015e-05,442.1999999997187,9.158172e-06,442.1999999997187,4.144823e-05,442.1999999997187,6.024502e-05
442.2149999997187,3.827257e-05,442.2149999997187,9.020237e-06,442.2149999997187,4.16912e-05,442.2149999997187,6.111072e-05
442.2299999997187,3.603016e-05,442.2299999997187,9.170469e-06,442.2299999997187,4.274162e-05,442.2299999997187,6.174411e-05
442.2449999997187,3.514428e-05,442.2449999997187,9.222548e-06,442.2449999997187,4.336069e-05,442.2449999997187,6.296718e-05
442.2599999997187,3.518914e-05,442.2599999997187,9.216436e-06,442.2599999997187,4.396689e-05,442.2599999997187,6.150478e-05
442.27499999971866,3.407836e-05,442.27499999971866,9.30012e-06,442.27499999971866,4.456421e-05,442.27499999971866,6.09651e-05
442.28999999971865,3.322143e-05,442.28999999971865,9.278891e-06,442.28999999971865,4.404148e-05,442.28999999971865,6.089921e-05
442.30499999971863,3.481365e-05,442.30499999971863,8.949686e-06,442.30499999971863,4.416636e-05,442.30499999971863,6.120309e-05
442.3199999997186,3.378902e-05,442.3199999997186,8.843601e-06,442.3199999997186,4.509494e-05,442.3199999997186,6.158993e-05
442.3349999997186,3.651791e-05,442.3349999997186,8.779654e-06,442.3349999997186,4.509432e-05,442.3349999997186,6.214277e-05
442.3499999997186,3.526313e-05,442.3499999997186,8.169621e-06,442.3499999997186,4.488422e-05,442.3499999997186,6.108167e-05
442.3649999997186,3.554404e-05,442.3649999997186,7.463159e-06,442.3649999997186,4.330803e-05,442.3649999997186,6.277113e-05
442.37999999971856,3.592954e-05,442.37999999971856,6.853102e-06,442.37999999971856,4.55017e-05,442.37999999971856,6.271859e-05
442.39499999971855,3.589502e-05,442.39499999971855,6.813935e-06,442.39499999971855,4.563771e-05,442.39499999971855,6.381892e-05
442.40999999971854,3.399517e-05,442.40999999971854,6.654963e-06,442.40999999971854,4.264857e-05,442.40999999971854,6.376791e-05
442.4249999997185,3.440172e-05,442.4249999997185,7.532673e-06,442.4249999997185,4.309217e-05,442.4249999997185,6.363147e-05
442.4399999997185,3.415392e-05,442.4399999997185,8.216045e-06,442.4399999997185,4.213283e-05,442.4399999997185,6.427333e-05
442.4549999997185,3.437018e-05,442.4549999997185,8.475971e-06,442.4549999997185,3.982309e-05,442.4549999997185,6.497674e-05
442.4699999997185,3.661269e-05,442.4699999997185,8.612809e-06,442.4699999997185,3.952663e-05,442.4699999997185,6.486847e-05
442.48499999971847,3.784247e-05,442.48499999971847,8.489256e-06,442.48499999971847,3.859876e-05,442.48499999971847,6.303024e-05
442.49999999971845,3.746386e-05,442.49999999971845,8.442667e-06,442.49999999971845,3.789083e-05,442.49999999971845,6.471432e-05
442.51499999971844,3.74443e-05,442.51499999971844,8.647087e-06,442.51499999971844,3.852021e-05,442.51499999971844,6.573329e-05
442.5299999997184,3.744995e-05,442.5299999997184,9.051417e-06,442.5299999997184,3.812839e-05,442.5299999997184,6.607634e-05
442.5449999997184,3.542096e-05,442.5449999997184,9.08249e-06,442.5449999997184,3.937952e-05,442.5449999997184,6.764762e-05
442.5599999997184,3.727009e-05,442.5599999997184,9.155096e-06,442.5599999997184,4.104489e-05,442.5599999997184,6.574764e-05
442.5749999997184,3.541539e-05,442.5749999997184,9.115002e-06,442.5749999997184,4.057163e-05,442.5749999997184,6.560587e-05
442.5899999997184,3.563388e-05,442.5899999997184,9.178147e-06,442.5899999997184,4.156633e-05,442.5899999997184,6.390649e-05
442.60499999971836,3.649476e-05,442.60499999971836,9.457824e-06,442.60499999971836,4.52966e-05,442.60499999971836,6.363346e-05
442.61999999971835,3.626864e-05,442.61999999971835,9.328855e-06,442.61999999971835,4.435224e-05,442.61999999971835,5.980358e-05
442.63499999971833,3.63873e-05,442.63499999971833,9.315255e-06,442.63499999971833,4.284991e-05,442.63499999971833,5.920535e-05
442.6499999997183,3.640317e-05,442.6499999997183,9.170469e-06,442.6499999997183,4.50318e-05,442.6499999997183,5.810736e-05
442.6649999997183,3.626981e-05,442.6649999997183,9.125813e-06,442.6649999997183,4.553326e-05,442.6649999997183,5.739389e-05
442.6799999997183,3.752435e-05,442.6799999997183,8.171345e-06,442.6799999997183,4.979637e-05,442.6799999997183,5.775039e-05
442.6949999997183,3.71205e-05,442.6949999997183,8.166172e-06,442.6949999997183,4.985349e-05,442.6949999997183,5.580325e-05
442.70999999971826,3.705213e-05,442.70999999971826,7.899621e-06,442.70999999971826,5.028002e-05,442.70999999971826,5.492134e-05
442.72499999971825,3.56955e-05,442.72499999971825,7.99181e-06,442.72499999971825,5.074935e-05,442.72499999971825,5.439351e-05
442.73999999971824,3.470666e-05,442.73999999971824,8.39414e-06,442.73999999971824,5.25175e-05,442.73999999971824,5.179693e-05
442.7549999997182,3.609851e-05,442.7549999997182,8.294538e-06,442.7549999997182,5.26953e-05,442.7549999997182,4.909755e-05
442.7699999997182,3.622473e-05,442.7699999997182,7.896054e-06,442.7699999997182,5.175122e-05,442.7699999997182,4.889976e-05
442.7849999997182,3.687644e-05,442.7849999997182,7.874616e-06,442.7849999997182,5.463641e-05,442.7849999997182,4.764879e-05
442.7999999997182,3.664384e-05,442.7999999997182,8.037508e-06,442.7999999997182,5.479166e-05,442.7999999997182,4.768189e-05
442.81499999971817,3.282043e-05,442.81499999971817,8.373978e-06,442.81499999971817,5.404433e-05,442.81499999971817,4.824666e-05
442.82999999971815,3.301002e-05,442.82999999971815,8.487596e-06,442.82999999971815,5.347915e-05,442.82999999971815,4.999372e-05
442.84499999971814,3.261462e-05,442.84499999971814,8.45767e-06,442.84499999971814,5.116071e-05,442.84499999971814,4.834233e-05
442.8599999997181,3.183654e-05,442.8599999997181,8.233172e-06,442.8599999997181,5.293269e-05,442.8599999997181,4.748473e-05
442.8749999997181,3.340411e-05,442.8749999997181,8.402527e-06,442.8749999997181,5.465239e-05,442.8749999997181,4.775274e-05
442.8899999997181,3.368756e-05,442.8899999997181,8.21433e-06,442.8899999997181,5.375134e-05,442.8899999997181,4.680466e-05
442.9049999997181,3.482619e-05,442.9049999997181,8.15236e-06,442.9049999997181,5.332087e-05,442.9049999997181,4.742417e-05
442.9199999997181,3.471113e-05,442.9199999997181,7.93343e-06,442.9199999997181,5.390104e-05,442.9199999997181,4.770936e-05
442.93499999971806,3.437797e-05,442.93499999971806,7.621908e-06,442.93499999971806,5.018664e-05,442.93499999971806,4.827147e-05
442.94999999971805,3.55016e-05,442.94999999971805,7.497057e-06,442.94999999971805,5.140409e-05,442.94999999971805,4.933997e-05
442.96499999971803,3.753786e-05,442.96499999971803,7.449935e-06,442.96499999971803,5.215306e-05,442.96499999971803,5.201946e-05
442.979999999718,3.796882e-05,442.979999999718,7.217518e-06,442.979999999718,5.308098e-05,442.979999999718,5.278558e-05
442.994999999718,4.135228e-05,442.994999999718,7.172487e-06,442.994999999718,5.184287e-05,442.994999999718,5.409044e-05
443.009999999718,4.043774e-05,443.009999999718,7.52706e-06,443.009999999718,5.293136e-05,443.009999999718,5.321456e-05
443.024999999718,4.140913e-05,443.024999999718,7.46882e-06,443.024999999718,5.139888e-05,443.024999999718,5.189555e-05
443.03999999971796,4.16168e-05,443.03999999971796,7.333686e-06,443.03999999971796,5.023434e-05,443.03999999971796,5.081232e-05
443.05499999971795,4.132638e-05,443.05499999971795,7.62745e-06,443.05499999971795,5.051481e-05,443.05499999971795,4.909468e-05
443.06999999971794,4.206122e-05,443.06999999971794,7.343284e-06,443.06999999971794,5.036065e-05,443.06999999971794,4.88695e-05
443.0849999997179,4.197573e-05,443.0849999997179,7.345202e-06,443.0849999997179,5.004272e-05,443.0849999997179,5.137914e-05
443.0999999997179,4.181367e-05,443.0999999997179,7.063642e-06,443.0999999997179,5.034946e-05,443.0999999997179,5.366899e-05
443.1149999997179,4.199889e-05,443.1149999997179,7.15282e-06,443.1149999997179,5.060481e-05,443.1149999997179,5.956544e-05
443.1299999997179,4.033868e-05,443.1299999997179,7.129148e-06,443.1299999997179,4.943039e-05,443.1299999997179,6.181594e-05
443.14499999971787,3.971116e-05,443.14499999971787,7.320229e-06,443.14499999971787,4.864502e-05,443.14499999971787,6.369984e-05
443.15999999971785,4.188536e-05,443.15999999971785,7.865667e-06,443.15999999971785,5.064821e-05,443.15999999971785,6.581788e-05
443.17499999971784,4.209972e-05,443.17499999971784,8.629149e-06,443.17499999971784,5.090372e-05,443.17499999971784,6.421807e-05
443.1899999997178,4.091392e-05,443.1899999997178,9.059196e-06,443.1899999997178,5.192323e-05,443.1899999997178,6.44106e-05
443.2049999997178,3.86877e-05,443.2049999997178,9.018676e-06,443.2049999997178,5.235739e-05,443.2049999997178,6.27516e-05
443.2199999997178,3.831193e-05,443.2199999997178,9.0374e-06,443.2199999997178,5.168203e-05,443.2199999997178,6.162674e-05
443.2349999997178,3.413659e-05,443.2349999997178,9.242383e-06,443.2349999997178,5.531059e-05,443.2349999997178,6.162651e-05
443.2499999997178,3.576804e-05,443.2499999997178,9.138154e-06,443.2499999997178,5.540601e-05,443.2499999997178,6.194365e-05
443.26499999971776,4.030444e-05,443.26499999971776,9.049861e-06,443.26499999971776,5.548503e-05,443.26499999971776,6.265275e-05
443.27999999971775,4.025268e-05,443.27999999971775,9.161248e-06,443.27999999971775,5.558725e-05,443.27999999971775,6.273745e-05
443.29499999971773,4.220632e-05,443.29499999971773,9.457824e-06,443.29499999971773,5.799938e-05,443.29499999971773,6.387739e-05
443.3099999997177,4.281044e-05,443.3099999997177,9.110365e-06,443.3099999997177,5.808335e-05,443.3099999997177,6.346499e-05
443.3249999997177,4.295859e-05,443.3249999997177,8.999913e-06,443.3249999997177,5.742014e-05,443.3249999997177,6.204454e-05
443.3399999997177,4.309772e-05,443.3399999997177,8.954407e-06,443.3399999997177,5.73207e-05,443.3399999997177,5.965523e-05
443.3549999997177,4.459486e-05,443.3549999997177,9.012426e-06,443.3549999997177,5.518157e-05,443.3549999997177,5.692243e-05
443.36999999971766,4.482172e-05,443.36999999971766,9.045189e-06,443.36999999971766,5.389424e-05,443.36999999971766,5.314702e-05
443.38499999971765,4.466399e-05,443.38499999971765,9.585059e-06,443.38499999971765,5.480862e-05,443.38499999971765,4.881153e-05
443.39999999971764,4.416158e-05,443.39999999971764,9.289512e-06,443.39999999971764,5.518208e-05,443.39999999971764,4.71934e-05
443.4149999997176,4.42145e-05,443.4149999997176,8.957552e-06,443.4149999997176,5.325664e-05,443.4149999997176,4.667054e-05
443.4299999997176,4.46318e-05,443.4299999997176,8.379024e-06,443.4299999997176,5.407638e-05,443.4299999997176,4.62981e-05
443.4449999997176,4.497169e-05,443.4449999997176,8.345331e-06,443.4449999997176,5.129133e-05,443.4449999997176,4.672997e-05
443.4599999997176,4.416477e-05,443.4599999997176,8.340267e-06,443.4599999997176,5.110506e-05,443.4599999997176,4.610022e-05
443.47499999971757,4.387163e-05,443.47499999971757,8.449338e-06,443.47499999971757,5.172018e-05,443.47499999971757,4.599131e-05
443.48999999971755,4.456674e-05,443.48999999971755,7.979462e-06,443.48999999971755,4.783144e-05,443.48999999971755,4.634646e-05
443.50499999971754,4.13049e-05,443.50499999971754,8.042764e-06,443.50499999971754,4.878555e-05,443.50499999971754,4.415807e-05
443.5199999997175,3.842282e-05,443.5199999997175,8.43599e-06,443.5199999997175,4.922964e-05,443.5199999997175,4.409294e-05
443.5349999997175,3.681106e-05,443.5349999997175,8.355453e-06,443.5349999997175,5.043108e-05,443.5349999997175,4.506307e-05
443.5499999997175,3.623056e-05,443.5499999997175,8.365563e-06,443.5499999997175,4.565685e-05,443.5499999997175,4.496919e-05
443.5649999997175,3.603446e-05,443.5649999997175,8.607901e-06,443.5649999997175,4.580901e-05,443.5649999997175,4.319828e-05
443.5799999997175,3.790904e-05,443.5799999997175,8.656856e-06,443.5799999997175,4.879681e-05,443.5799999997175,4.180255e-05
443.59499999971746,3.601178e-05,443.59499999971746,8.666614e-06,443.59499999971746,4.943723e-05,443.59499999971746,4.180255e-05
443.60999999971745,3.540346e-05,443.60999999971745,8.563602e-06,443.60999999971745,4.926511e-05,443.60999999971745,3.950916e-05
443.62499999971743,3.492353e-05,443.62499999971743,8.357139e-06,443.62499999971743,4.961131e-05,443.62499999971743,4.187023e-05
443.6399999997174,3.440459e-05,443.6399999997174,7.728359e-06,443.6399999997174,4.959796e-05,443.6399999997174,4.342789e-05
443.6549999997174,3.405727e-05,443.6549999997174,7.741108e-06,443.6549999997174,5.094162e-05,443.6549999997174,4.129774e-05
443.6699999997174,3.294252e-05,443.6699999997174,7.762914e-06,443.6699999997174,4.954169e-05,443.6699999997174,4.256162e-05
443.6849999997174,3.288774e-05,443.6849999997174,7.831566e-06,443.6849999997174,4.917095e-05,443.6849999997174,4.228568e-05
443.69999999971736,3.273275e-05,443.69999999971736,7.538281e-06,443.69999999971736,5.055161e-05,443.69999999971736,4.122331e-05
443.71499999971735,3.221962e-05,443.71499999971735,7.573703e-06,443.71499999971735,5.22715e-05,443.71499999971735,4.138224e-05
443.72999999971734,3.256621e-05,443.72999999971734,7.41962e-06,443.72999999971734,5.294919e-05,443.72999999971734,3.812026e-05
443.7449999997173,3.539271e-05,443.7449999997173,7.614512e-06,443.7449999997173,4.984699e-05,443.7449999997173,3.782757e-05
443.7599999997173,3.445001e-05,443.7599999997173,7.2971e-06,443.7599999997173,4.82192e-05,443.7599999997173,3.8207e-05
443.7749999997173,3.605244e-05,443.7749999997173,6.795303e-06,443.7749999997173,4.552646e-05,443.7749999997173,3.511942e-05
443.7899999997173,3.53959e-05,443.7899999997173,6.671875e-06,443.7899999997173,4.678871e-05,443.7899999997173,3.360005e-05
443.80499999971727,3.497432e-05,443.80499999971727,6.316129e-06,443.80499999971727,4.884355e-05,443.80499999971727,3.430495e-05
443.81999999971725,3.438657e-05,443.81999999971725,6.582601e-06,443.81999999971725,4.940074e-05,443.81999999971725,3.427085e-05
443.83499999971724,3.231479e-05,443.83499999971724,6.682424e-06,443.83499999971724,4.806207e-05,443.83499999971724,3.487792e-05
443.8499999997172,3.313524e-05,443.8499999997172,6.688745e-06,443.8499999997172,4.820255e-05,443.8499999997172,3.496143e-05
443.8649999997172,3.263837e-05,443.8649999997172,6.718165e-06,443.8649999997172,4.771526e-05,443.8649999997172,3.465223e-05
443.8799999997172,3.26129e-05,443.8799999997172,6.652846e-06,443.8799999997172,4.750756e-05,443.8799999997172,3.369174e-05
443.8949999997172,3.304542e-05,443.8949999997172,6.665538e-06,443.8949999997172,4.633429e-05,443.8949999997172,3.221438e-05
443.9099999997172,3.217762e-05,443.9099999997172,6.631638e-06,443.9099999997172,4.572929e-05,443.9099999997172,3.2694e-05
443.92499999971716,3.157619e-05,443.92499999971716,6.571893e-06,443.92499999971716,4.634007e-05,443.92499999971716,3.119333e-05
443.93999999971714,3.210048e-05,443.93999999971714,6.732826e-06,443.93999999971714,4.669166e-05,443.93999999971714,3.238751e-05
443.95499999971713,3.571641e-05,443.95499999971713,6.770382e-06,443.95499999971713,4.337693e-05,443.95499999971713,3.155164e-05
443.9699999997171,3.599691e-05,443.9699999997171,6.846933e-06,443.9699999997171,4.215022e-05,443.9699999997171,3.133076e-05
443.9849999997171,3.420502e-05,443.9849999997171,6.716067e-06,443.9849999997171,4.378485e-05,443.9849999997171,3.204778e-05
443.9999999997171,3.403617e-05,443.9999999997171,6.58688e-06,443.9999999997171,4.384947e-05,443.9999999997171,3.23466e-05
444.0149999997171,3.498922e-05,444.0149999997171,6.623136e-06,444.0149999997171,4.578717e-05,444.0149999997171,3.282687e-05
444.02999999971706,3.557454e-05,444.02999999971706,6.762054e-06,444.02999999971706,4.585726e-05,444.02999999971706,3.404072e-05
444.04499999971705,3.554166e-05,444.04499999971705,6.813935e-06,444.04499999971705,4.393837e-05,444.04499999971705,3.426057e-05
444.05999999971704,3.582549e-05,444.05999999971704,7.017624e-06,444.05999999971704,4.314117e-05,444.05999999971704,3.413577e-05
444.074999999717,3.826484e-05,444.074999999717,6.97938e-06,444.074999999717,4.219564e-05,444.074999999717,3.356103e-05
444.089999999717,3.970548e-05,444.089999999717,6.99148e-06,444.089999999717,4.058205e-05,444.089999999717,3.435788e-05
444.104999999717,3.910419e-05,444.104999999717,7.605257e-06,444.104999999717,4.007135e-05,444.104999999717,3.480515e-05
444.119999999717,3.904326e-05,444.119999999717,7.603404e-06,444.119999999717,4.027368e-05,444.119999999717,3.535927e-05
444.13499999971697,3.935483e-05,444.13499999971697,7.779228e-06,444.13499999971697,4.08519e-05,444.13499999971697,3.827184e-05
444.14999999971695,3.923474e-05,444.14999999971695,8.333508e-06,444.14999999971695,4.073726e-05,444.14999999971695,3.901042e-05
444.16499999971694,3.9574e-05,444.16499999971694,8.377342e-06,444.16499999971694,3.994248e-05,444.16499999971694,3.874955e-05
444.1799999997169,3.89403e-05,444.1799999997169,8.596438e-06,444.1799999997169,4.100952e-05,444.1799999997169,3.884142e-05
444.1949999997169,3.697677e-05,444.1949999997169,8.745896e-06,444.1949999997169,4.107576e-05,444.1949999997169,3.804295e-05
444.2099999997169,3.562953e-05,444.2099999997169,9.043632e-06,444.2099999997169,4.067843e-05,444.2099999997169,3.797513e-05
444.2249999997169,3.632763e-05,444.2249999997169,9.210321e-06,444.2249999997169,3.84492e-05,444.2249999997169,4.110216e-05
444.2399999997169,3.646658e-05,444.2399999997169,9.243908e-06,444.2399999997169,4.022013e-05,444.2399999997169,4.006361e-05
444.25499999971686,3.341212e-05,444.25499999971686,9.142777e-06,444.25499999971686,4.090531e-05,444.25499999971686,4.637259e-05
444.26999999971684,3.306843e-05,444.26999999971684,9.438442e-06,444.26999999971684,4.013598e-05,444.26999999971684,4.677456e-05
444.28499999971683,3.160963e-05,444.28499999971683,9.18275e-06,444.28499999971683,3.983052e-05,444.28499999971683,4.601641e-05
444.2999999997168,3.169063e-05,444.2999999997168,9.306177e-06,444.2999999997168,4.104626e-05,444.2999999997168,4.729151e-05
444.3149999997168,3.149981e-05,444.3149999997168,9.059196e-06,444.3149999997168,4.075385e-05,444.3149999997168,4.7668e-05
444.3299999997168,3.047423e-05,444.3299999997168,9.079387e-06,444.3299999997168,4.097241e-05,444.3299999997168,4.80304e-05
444.3449999997168,3.068429e-05,444.3449999997168,9.227129e-06,444.3449999997168,4.206122e-05,444.3449999997168,4.738167e-05
444.35999999971676,3.240012e-05,444.35999999971676,8.872225e-06,444.35999999971676,4.214721e-05,444.35999999971676,4.569786e-05
444.37499999971675,3.567418e-05,444.37499999971675,8.937085e-06,444.37499999971675,4.247316e-05,444.37499999971675,4.414243e-05
444.38999999971674,3.595541e-05,444.38999999971674,8.897593e-06,444.38999999971674,4.111724e-05,444.38999999971674,4.271557e-05
444.4049999997167,3.630824e-05,444.4049999997167,8.58824e-06,444.4049999997167,4.075973e-05,444.4049999997167,4.149646e-05
444.4199999997167,3.708443e-05,444.4199999997167,8.432649e-06,444.4199999997167,4.150461e-05,444.4199999997167,4.129671e-05
444.4349999997167,3.757949e-05,444.4349999997167,8.048017e-06,444.4349999997167,4.129091e-05,444.4349999997167,4.135262e-05
444.4499999997167,3.948063e-05,444.4499999997167,7.797315e-06,444.4499999997167,4.258478e-05,444.4499999997167,4.201163e-05
444.46499999971667,4.096381e-05,444.46499999971667,7.449935e-06,444.46499999971667,4.30804e-05,444.46499999971667,4.183826e-05
444.47999999971665,4.04353e-05,444.47999999971665,7.254505e-06,444.47999999971665,4.235126e-05,444.47999999971665,4.193511e-05
444.49499999971664,4.242836e-05,444.49499999971664,7.377733e-06,444.49499999971664,3.92254e-05,444.49499999971664,4.205721e-05
444.5099999997166,4.310197e-05,444.5099999997166,7.562535e-06,444.5099999997166,4.021592e-05,444.5099999997166,3.509575e-05
444.5249999997166,4.376876e-05,444.5249999997166,7.333686e-06,444.5249999997166,4.146454e-05,444.5249999997166,3.635244e-05
444.5399999997166,4.552677e-05,444.5399999997166,7.502692e-06,444.5399999997166,4.154091e-05,444.5399999997166,3.693217e-05
444.5549999997166,4.631088e-05,444.5549999997166,7.125195e-06,444.5549999997166,4.243101e-05,444.5549999997166,3.400636e-05
444.5699999997166,4.795203e-05,444.5699999997166,7.275834e-06,444.5699999997166,4.340453e-05,444.5699999997166,3.395163e-05
444.58499999971656,4.675618e-05,444.58499999971656,7.70097e-06,444.58499999971656,4.330998e-05,444.58499999971656,3.496264e-05
444.59999999971654,4.661376e-05,444.59999999971654,7.421518e-06,444.59999999971654,4.331649e-05,444.59999999971654,3.951237e-05
444.61499999971653,4.594687e-05,444.61499999971653,7.091506e-06,444.61499999971653,4.302641e-05,444.61499999971653,3.965045e-05
444.6299999997165,4.467345e-05,444.6299999997165,6.875675e-06,444.6299999997165,4.494976e-05,444.6299999997165,3.985739e-05
444.6449999997165,4.534105e-05,444.6449999997165,7.097463e-06,444.6449999997165,4.602253e-05,444.6449999997165,4.13642e-05
444.6599999997165,4.625853e-05,444.6599999997165,7.067629e-06,444.6599999997165,4.621832e-05,444.6599999997165,4.250929e-05
444.6749999997165,4.629902e-05,444.6749999997165,7.087532e-06,444.6749999997165,4.75769e-05,444.6749999997165,4.246221e-05
444.68999999971646,4.590915e-05,444.68999999971646,6.97938e-06,444.68999999971646,4.835107e-05,444.68999999971646,4.245458e-05
444.70499999971645,4.501271e-05,444.70499999971645,7.123218e-06,444.70499999971645,4.829452e-05,444.70499999971645,4.190218e-05
444.71999999971644,4.332657e-05,444.71999999971644,7.023643e-06,444.71999999971644,4.926054e-05,444.71999999971644,3.944314e-05
444.7349999997164,4.3665e-05,444.7349999997164,7.15085e-06,444.7349999997164,5.089597e-05,444.7349999997164,3.947991e-05
444.7499999997164,4.144925e-05,444.7499999997164,7.22337e-06,444.7499999997164,5.019085e-05,444.7499999997164,3.876882e-05
444.7649999997164,4.317447e-05,444.7649999997164,7.209706e-06,444.7649999997164,5.06023e-05,444.7649999997164,3.863997e-05
444.7799999997164,4.297072e-05,444.7799999997164,6.963215e-06,444.7799999997164,5.008915e-05,444.7799999997164,3.771233e-05
444.79499999971637,4.297924e-05,444.79499999971637,6.671875e-06,444.79499999971637,4.991222e-05,444.79499999971637,3.801368e-05
444.80999999971635,4.359688e-05,444.80999999971635,6.654963e-06,444.80999999971635,5.009224e-05,444.80999999971635,3.867751e-05
444.82499999971634,4.179884e-05,444.82499999971634,6.079758e-06,444.82499999971634,4.968451e-05,444.82499999971634,3.947313e-05
444.8399999997163,4.419346e-05,444.8399999997163,5.969867e-06,444.8399999997163,4.963799e-05,444.8399999997163,3.964335e-05
444.8549999997163,4.410508e-05,444.8549999997163,6.005157e-06,444.8549999997163,4.905134e-05,444.8549999997163,3.513266e-05
444.8699999997163,4.315162e-05,444.8699999997163,6.121322e-06,444.8699999997163,4.878439e-05,444.8699999997163,3.493402e-05
444.8849999997163,4.304539e-05,444.8849999997163,6.082075e-06,444.8849999997163,4.597844e-05,444.8849999997163,3.690317e-05
444.8999999997163,4.321197e-05,444.8999999997163,5.848288e-06,444.8999999997163,4.785205e-05,444.8999999997163,3.727122e-05
444.91499999971626,4.21218e-05,444.91499999971626,5.884307e-06,444.91499999971626,4.782938e-05,444.91499999971626,3.71948e-05
444.92999999971624,4.160156e-05,444.92999999971624,6.178585e-06,444.92999999971624,4.454176e-05,444.92999999971624,3.746348e-05
444.94499999971623,4.182041e-05,444.94499999971623,6.404719e-06,444.94499999971623,4.439668e-05,444.94499999971623,3.752773e-05
444.9599999997162,4.149001e-05,444.9599999997162,6.251117e-06,444.9599999997162,4.431856e-05,444.9599999997162,4.467155e-05
444.9749999997162,4.210942e-05,444.9749999997162,6.476893e-06,444.9749999997162,4.330966e-05,444.9749999997162,4.754935e-05
444.9899999997162,4.255036e-05,444.9899999997162,6.716067e-06,444.9899999997162,4.19519e-05,444.9899999997162,4.837059e-05
445.0049999997162,4.307811e-05,445.0049999997162,6.75163e-06,445.0049999997162,4.422437e-05,445.0049999997162,4.85688e-05
445.01999999971616,4.017807e-05,445.01999999971616,7.085544e-06,445.01999999971616,4.472576e-05,445.01999999971616,4.84727e-05
445.03499999971615,4.232631e-05,445.03499999971615,7.370092e-06,445.03499999971615,4.529442e-05,445.03499999971615,4.811567e-05
445.04999999971614,4.154294e-05,445.04999999971614,7.415822e-06,445.04999999971614,4.592172e-05,445.04999999971614,4.848374e-05
445.0649999997161,4.20696e-05,445.0649999997161,7.331766e-06,445.0649999997161,4.319404e-05,445.0649999997161,4.895072e-05
445.0799999997161,4.077113e-05,445.0799999997161,7.594135e-06,445.0799999997161,4.477172e-05,445.0799999997161,4.892712e-05
445.0949999997161,3.870518e-05,445.0949999997161,7.59599e-06,445.0949999997161,4.908206e-05,445.0949999997161,5.003794e-05
445.1099999997161,3.873537e-05,445.1099999997161,7.616361e-06,445.1099999997161,5.013666e-05,445.1099999997161,5.104494e-05
445.12499999971607,3.970051e-05,445.12499999971607,7.717415e-06,445.12499999971607,5.039253e-05,445.12499999971607,5.232322e-05
445.13999999971605,3.977673e-05,445.13999999971605,7.874616e-06,445.13999999971605,4.973835e-05,445.13999999971605,5.338582e-05
445.15499999971604,4.547321e-05,445.15499999971604,7.951166e-06,445.15499999971604,5.101816e-05,445.15499999971604,5.472889e-05
445.169999999716,4.600539e-05,445.169999999716,8.234882e-06,445.169999999716,5.375816e-05,445.169999999716,5.597388e-05
445.184999999716,4.776719e-05,445.184999999716,8.155816e-06,445.184999999716,5.483226e-05,445.184999999716,5.581864e-05
445.199999999716,5.072464e-05,445.199999999716,8.129866e-06,445.199999999716,5.711562e-05,445.199999999716,5.400991e-05
445.214999999716,5.152261e-05,445.214999999716,8.309809e-06,445.214999999716,5.720828e-05,445.214999999716,5.072658e-05
445.229999999716,5.087881e-05,445.229999999716,7.967094e-06,445.229999999716,5.658711e-05,445.229999999716,4.752861e-05
445.24499999971596,5.091009e-05,445.24499999971596,8.063755e-06,445.24499999971596,5.590337e-05,445.24499999971596,4.960676e-05
445.25999999971594,5.179557e-05,445.25999999971594,7.777418e-06,445.25999999971594,6.211533e-05,445.25999999971594,5.01712e-05
445.27499999971593,5.032707e-05,445.27499999971593,7.597844e-06,445.27499999971593,6.23365e-05,445.27499999971593,5.146872e-05
445.2899999997159,4.977714e-05,445.2899999997159,7.519571e-06,445.2899999997159,6.1137e-05,445.2899999997159,5.582621e-05
445.3049999997159,4.922621e-05,445.3049999997159,7.744747e-06,445.3049999997159,6.297814e-05,445.3049999997159,5.517212e-05
445.3199999997159,4.929827e-05,445.3199999997159,7.717415e-06,445.3199999997159,6.326492e-05,445.3199999997159,5.484305e-05
445.3349999997159,4.925482e-05,445.3349999997159,7.442368e-06,445.3349999997159,5.974702e-05,445.3349999997159,5.621747e-05
445.34999999971586,4.997766e-05,445.34999999971586,7.603404e-06,445.34999999971586,5.949658e-05,445.34999999971586,5.463409e-05
445.36499999971585,5.032819e-05,445.36499999971585,7.392992e-06,445.36499999971585,5.875874e-05,445.36499999971585,5.481119e-05
445.37999999971584,4.869133e-05,445.37999999971584,7.137048e-06,445.37999999971584,5.880787e-05,445.37999999971584,5.400913e-05
445.3949999997158,4.961074e-05,445.3949999997158,7.22337e-06,445.3949999997158,5.926219e-05,445.3949999997158,5.093637e-05
445.4099999997158,4.41418e-05,445.4099999997158,7.067629e-06,445.4099999997158,5.79289e-05,445.4099999997158,4.980939e-05
445.4249999997158,4.298645e-05,445.4249999997158,6.846933e-06,445.4249999997158,5.465033e-05,445.4249999997158,5.123665e-05
445.4399999997158,3.910563e-05,445.4399999997158,6.599699e-06,445.4399999997158,5.459282e-05,445.4399999997158,5.1202e-05
445.45499999971577,3.79135e-05,445.45499999971577,6.612493e-06,445.45499999971577,5.143094e-05,445.45499999971577,5.358178e-05
445.46999999971575,3.622084e-05,445.46999999971575,6.824264e-06,445.46999999971575,5.321695e-05,445.46999999971575,5.349337e-05
445.48499999971574,3.630126e-05,445.48499999971574,6.787006e-06,445.48499999971574,5.30316e-05,445.48499999971574,5.26461e-05
445.4999999997157,3.599378e-05,445.4999999997157,6.944984e-06,445.4999999997157,5.193273e-05,445.4999999997157,5.171337e-05
445.5149999997157,3.436239e-05,445.5149999997157,7.073606e-06,445.5149999997157,4.338765e-05,445.5149999997157,5.076212e-05
445.5299999997157,3.470057e-05,445.5299999997157,7.04567e-06,445.5299999997157,4.472545e-05,445.5299999997157,4.821336e-05
445.5449999997157,3.490659e-05,445.5449999997157,6.722357e-06,445.5449999997157,4.69822e-05,445.5449999997157,4.506463e-05
445.55999999971567,3.534213e-05,445.55999999971567,6.716067e-06,445.55999999971567,4.507776e-05,445.55999999971567,4.438335e-05
445.57499999971566,3.525314e-05,445.57499999971566,6.676097e-06,445.57499999971566,4.583391e-05,445.57499999971566,4.433953e-05
445.58999999971564,3.473141e-05,445.58999999971564,6.650728e-06,445.58999999971564,4.623691e-05,445.58999999971564,4.263139e-05
445.60499999971563,3.797401e-05,445.60499999971563,6.928738e-06,445.60499999971563,4.610266e-05,445.60499999971563,4.235558e-05
445.6199999997156,3.781603e-05,445.6199999997156,7.48201e-06,445.6199999997156,4.618691e-05,445.6199999997156,4.140572e-05
445.6349999997156,3.946778e-05,445.6349999997156,7.735647e-06,445.6349999997156,4.64424e-05,445.6349999997156,4.052647e-05
445.6499999997156,3.982309e-05,445.6499999997156,7.904969e-06,445.6499999997156,4.574623e-05,445.6499999997156,4.435573e-05
445.6649999997156,3.906923e-05,445.6649999997156,7.856707e-06,445.6649999997156,4.797083e-05,445.6649999997156,4.445724e-05
445.67999999971556,3.941778e-05,445.67999999971556,7.840554e-06,445.67999999971556,4.802248e-05,445.67999999971556,4.320121e-05
445.69499999971555,3.96206e-05,445.69499999971555,8.032248e-06,445.69499999971555,4.717937e-05,445.69499999971555,4.399123e-05
445.70999999971554,3.885157e-05,445.70999999971554,8.041013e-06,445.70999999971554,4.72778e-05,445.70999999971554,4.11097e-05
445.7249999997155,3.890338e-05,445.7249999997155,7.56626e-06,445.7249999997155,4.636529e-05,445.7249999997155,4.079807e-05
445.7399999997155,3.885121e-05,445.7399999997155,7.314453e-06,445.7399999997155,4.77489e-05,445.7399999997155,4.175838e-05
445.7549999997155,4.043495e-05,445.7549999997155,7.176414e-06,445.7549999997155,4.800429e-05,445.7549999997155,4.081671e-05
445.7699999997155,3.978841e-05,445.7699999997155,7.229218e-06,445.7699999997155,4.688255e-05,445.7699999997155,4.102875e-05
445.78499999971547,4.190016e-05,445.78499999971547,7.246734e-06,445.78499999971547,4.350761e-05,445.78499999971547,4.0353e-05
445.79999999971545,4.090084e-05,445.79999999971545,7.324076e-06,445.79999999971545,4.279003e-05,445.79999999971545,4.11881e-05
445.81499999971544,4.061848e-05,445.81499999971544,7.421518e-06,445.81499999971544,4.267895e-05,445.81499999971544,4.208734e-05
445.8299999997154,4.089739e-05,445.8299999997154,7.500814e-06,445.8299999997154,4.322403e-05,445.8299999997154,4.118536e-05
445.8449999997154,4.04231e-05,445.8449999997154,7.500814e-06,445.8449999997154,4.313856e-05,445.8449999997154,4.192402e-05
445.8599999997154,3.817971e-05,445.8599999997154,6.934835e-06,445.8599999997154,4.290116e-05,445.8599999997154,4.137577e-05
445.8749999997154,3.823427e-05,445.8749999997154,6.900217e-06,445.8749999997154,4.358848e-05,445.8749999997154,4.029081e-05
445.88999999971537,3.560027e-05,445.88999999971537,6.678206e-06,445.88999999971537,4.534074e-05,445.88999999971537,4.088292e-05
445.90499999971536,3.52775e-05,445.90499999971536,6.846933e-06,445.90499999971536,4.439763e-05,445.90499999971536,3.647469e-05
445.91999999971534,3.607158e-05,445.91999999971534,7.41962e-06,445.91999999971534,4.230001e-05,445.91999999971534,3.550954e-05
445.93499999971533,3.651483e-05,445.93499999971533,7.366268e-06,445.93499999971533,4.320512e-05,445.93499999971533,3.341507e-05
445.9499999997153,3.729012e-05,445.9499999997153,7.329844e-06,445.9499999997153,4.24257e-05,445.9499999997153,3.40076e-05
445.9649999997153,3.700457e-05,445.9649999997153,7.262268e-06,445.9649999997153,4.434334e-05,445.9649999997153,3.429961e-05
445.9799999997153,3.664192e-05,445.9799999997153,7.46882e-06,445.9799999997153,4.305128e-05,445.9799999997153,3.429058e-05
445.9949999997153,3.605244e-05,445.9949999997153,7.753835e-06,445.9949999997153,4.243832e-05,445.9949999997153,3.470747e-05
446.00999999971526,3.356145e-05,446.00999999971526,8.166172e-06,446.00999999971526,4.201029e-05,446.00999999971526,3.678044e-05
446.02499999971525,3.552897e-05,446.02499999971525,8.198881e-06,446.02499999971525,4.29202e-05,446.02499999971525,3.726404e-05
446.03999999971523,3.554879e-05,446.03999999971523,8.229749e-06,446.03999999971523,4.24642e-05,446.03999999971523,3.837255e-05
446.0549999997152,3.615934e-05,446.0549999997152,8.150632e-06,446.0549999997152,4.33909e-05,446.0549999997152,3.699353e-05
446.0699999997152,3.48557e-05,446.0699999997152,8.11252e-06,446.0699999997152,4.211344e-05,446.0699999997152,3.697182e-05
446.0849999997152,3.641129e-05,446.0849999997152,8.176516e-06,446.0849999997152,4.020646e-05,446.0849999997152,3.755812e-05
446.0999999997152,3.693828e-05,446.0999999997152,8.297934e-06,446.0999999997152,4.032471e-05,446.0999999997152,3.760235e-05
446.11499999971517,3.880513e-05,446.11499999971517,8.115992e-06,446.11499999971517,4.511243e-05,446.11499999971517,3.966146e-05
446.12999999971515,3.80248e-05,446.12999999971515,7.97593e-06,446.12999999971515,4.435986e-05,446.12999999971515,4.104214e-05
446.14499999971514,3.784731e-05,446.14499999971514,7.746566e-06,446.14499999971514,4.405843e-05,446.14499999971514,4.041822e-05
446.1599999997151,3.969377e-05,446.1599999997151,7.543885e-06,446.1599999997151,4.384915e-05,446.1599999997151,4.011035e-05
446.1749999997151,4.017597e-05,446.1749999997151,7.139021e-06,446.1749999997151,4.413063e-05,446.1749999997151,4.170741e-05
446.1899999997151,3.982097e-05,446.1899999997151,7.246734e-06,446.1899999997151,4.365049e-05,446.1899999997151,4.091908e-05
446.2049999997151,4.005306e-05,446.2049999997151,7.101431e-06,446.2049999997151,4.270799e-05,446.2049999997151,4.176547e-05
446.21999999971507,4.05928e-05,446.21999999971507,7.087532e-06,446.21999999971507,4.073069e-05,446.21999999971507,4.185912e-05
446.23499999971506,4.0676e-05,446.23499999971506,6.74119e-06,446.23499999971506,3.966537e-05,446.23499999971506,4.125234e-05
446.24999999971504,4.208567e-05,446.24999999971504,6.406918e-06,446.24999999971504,4.072411e-05,446.24999999971504,3.986835e-05
446.26499999971503,4.116894e-05,446.26499999971503,5.659781e-06,446.26499999971503,4.147065e-05,446.26499999971503,3.852606e-05
446.279999999715,3.788562e-05,446.279999999715,5.741327e-06,446.279999999715,4.031772e-05,446.279999999715,3.758886e-05
446.294999999715,3.799293e-05,446.294999999715,6.116717e-06,446.294999999715,4.070681e-05,446.294999999715,3.728219e-05
446.309999999715,3.816199e-05,446.309999999715,6.056544e-06,446.309999999715,3.909987e-05,446.309999999715,3.707759e-05
446.324999999715,3.68921e-05,446.324999999715,6.203613e-06,446.324999999715,3.95861e-05,446.324999999715,3.737766e-05
446.33999999971496,3.586715e-05,446.33999999971496,5.819312e-06,446.33999999971496,4.043356e-05,446.33999999971496,3.625971e-05
446.35499999971495,3.533496e-05,446.35499999971495,5.729046e-06,446.35499999971495,3.934731e-05,446.35499999971495,3.495659e-05
446.36999999971493,3.269659e-05,446.36999999971493,5.714275e-06,446.36999999971493,3.561807e-05,446.36999999971493,3.651174e-05
446.3849999997149,3.307823e-05,446.3849999997149,5.927241e-06,446.3849999997149,3.201171e-05,446.3849999997149,3.61071e-05
446.3999999997149,3.197561e-05,446.3999999997149,6.01219e-06,446.3999999997149,3.169241e-05,446.3999999997149,3.802369e-05
446.4149999997149,2.954051e-05,446.4149999997149,5.941484e-06,446.4149999997149,3.221307e-05,446.4149999997149,3.859401e-05
446.4299999997149,2.943781e-05,446.4299999997149,5.867525e-06,446.4299999997149,3.294894e-05,446.4299999997149,3.772353e-05
446.44499999971487,2.797801e-05,446.44499999971487,5.785323e-06,446.44499999971487,3.435624e-05,446.44499999971487,3.755849e-05
446.45999999971485,2.879874e-05,446.45999999971485,5.838645e-06,446.45999999971485,3.519235e-05,446.45999999971485,3.829833e-05
446.47499999971484,2.936786e-05,446.47499999971484,5.733962e-06,446.47499999971484,3.511461e-05,446.47499999971484,3.952057e-05
446.4899999997148,2.914686e-05,446.4899999997148,5.826569e-06,446.4899999997148,3.498962e-05,446.4899999997148,4.012299e-05
446.5049999997148,2.701226e-05,446.5049999997148,5.797484e-06,446.5049999997148,3.434271e-05,446.5049999997148,4.027472e-05
446.5199999997148,2.797045e-05,446.5199999997148,6.169459e-06,446.5199999997148,3.674403e-05,446.5199999997148,4.082568e-05
446.5349999997148,2.782554e-05,446.5349999997148,6.091332e-06,446.5349999997148,3.656032e-05,446.5349999997148,4.07542e-05
446.54999999971477,2.803635e-05,446.54999999971477,6.040241e-06,446.54999999971477,3.66473e-05,446.54999999971477,4.095418e-05
446.56499999971476,2.810761e-05,446.56499999971476,5.927241e-06,446.56499999971476,3.684128e-05,446.56499999971476,4.044993e-05
446.57999999971474,2.892808e-05,446.57999999971474,6.023894e-06,446.57999999971474,3.68604e-05,446.57999999971474,4.055114e-05
446.59499999971473,2.970647e-05,446.59499999971473,6.061194e-06,446.59499999971473,3.650519e-05,446.59499999971473,4.040149e-05
446.6099999997147,2.86531e-05,446.6099999997147,6.353931e-06,446.6099999997147,3.615466e-05,446.6099999997147,3.950631e-05
446.6249999997147,3.012508e-05,446.6249999997147,6.242096e-06,446.6249999997147,3.504112e-05,446.6249999997147,3.843528e-05
446.6399999997147,3.116034e-05,446.6399999997147,6.01219e-06,446.6399999997147,3.546985e-05,446.6399999997147,3.548215e-05
446.6549999997147,3.097353e-05,446.6549999997147,6.000464e-06,446.6549999997147,3.771009e-05,446.6549999997147,3.714705e-05
446.66999999971466,3.05398e-05,446.66999999971466,5.943854e-06,446.66999999971466,3.712126e-05,446.66999999971466,3.629776e-05
446.68499999971465,2.934051e-05,446.68499999971465,6.007502e-06,446.68499999971465,3.777242e-05,446.68499999971465,3.558879e-05
446.69999999971463,2.863589e-05,446.69999999971463,5.972226e-06,446.69999999971463,3.757687e-05,446.69999999971463,3.412338e-05
446.7149999997146,2.773883e-05,446.7149999997146,6.061194e-06,446.7149999997146,3.725875e-05,446.7149999997146,3.199279e-05
446.7299999997146,2.815968e-05,446.7299999997146,6.08439e-06,446.7299999997146,3.701751e-05,446.7299999997146,3.180865e-05
446.7449999997146,2.88442e-05,446.7449999997146,6.141998e-06,446.7449999997146,4.334217e-05,446.7449999997146,3.174792e-05
446.7599999997146,2.944833e-05,446.7599999997146,6.284828e-06,446.7599999997146,4.283215e-05,446.7599999997146,3.104621e-05
446.77499999971457,2.911301e-05,446.77499999971457,5.855509e-06,446.77499999971457,4.026283e-05,446.77499999971457,3.073154e-05
446.78999999971455,3.007547e-05,446.78999999971455,5.746233e-06,446.78999999971455,4.026318e-05,446.78999999971455,3.014284e-05
446.80499999971454,2.732285e-05,446.80499999971454,5.809621e-06,446.80499999971454,4.090634e-05,446.80499999971454,3.117842e-05
446.8199999997145,2.680443e-05,446.8199999997145,6.135114e-06,446.8199999997145,4.170099e-05,446.8199999997145,3.281914e-05
446.8349999997145,2.641907e-05,446.8349999997145,5.867525e-06,446.8349999997145,4.431315e-05,446.8349999997145,3.390305e-05
446.8499999997145,2.571875e-05,446.8499999997145,5.841057e-06,446.8499999997145,4.409358e-05,446.8499999997145,3.313907e-05
446.8649999997145,2.638332e-05,446.8649999997145,5.790191e-06,446.8649999997145,4.435319e-05,446.8649999997145,3.348035e-05
446.87999999971447,2.408213e-05,446.87999999971447,5.946224e-06,446.87999999971447,4.493284e-05,446.87999999971447,3.326635e-05
446.89499999971446,2.442077e-05,446.89499999971446,6.217223e-06,446.89499999971446,4.395247e-05,446.89499999971446,3.253246e-05
446.90999999971444,2.503937e-05,446.90999999971444,6.709772e-06,446.90999999971444,4.339609e-05,446.90999999971444,3.009514e-05
446.92499999971443,2.550977e-05,446.92499999971443,6.787006e-06,446.92499999971443,4.324586e-05,446.92499999971443,3.120868e-05
446.9399999997144,2.544231e-05,446.9399999997144,6.663425e-06,446.9399999997144,4.14788e-05,446.9399999997144,3.232003e-05
446.9549999997144,2.543013e-05,446.9549999997144,6.652846e-06,446.9549999997144,4.094902e-05,446.9549999997144,3.544005e-05
446.9699999997144,2.552412e-05,446.9699999997144,6.597564e-06,446.9699999997144,4.208935e-05,446.9699999997144,3.591895e-05
446.9849999997144,2.510679e-05,446.9849999997144,6.686639e-06,446.9849999997144,4.149171e-05,446.9849999997144,3.712581e-05
446.99999999971436,2.471206e-05,446.99999999971436,6.820134e-06,446.99999999971436,3.707303e-05,446.99999999971436,3.644455e-05
447.01499999971435,2.375941e-05,447.01499999971435,7.331766e-06,447.01499999971435,3.715122e-05,447.01499999971435,3.648318e-05
447.02999999971433,2.190481e-05,447.02999999971433,8.077717e-06,447.02999999971433,3.828361e-05,447.02999999971433,3.672831e-05
447.0449999997143,2.227594e-05,447.0449999997143,8.790878e-06,447.0449999997143,3.805183e-05,447.0449999997143,3.681872e-05
447.0599999997143,2.340278e-05,447.0599999997143,8.985815e-06,447.0599999997143,3.792464e-05,447.0599999997143,3.538197e-05
447.0749999997143,2.34941e-05,447.0749999997143,9.152018e-06,447.0749999997143,3.647932e-05,447.0749999997143,3.542772e-05
447.0899999997143,2.490964e-05,447.0899999997143,9.193482e-06,447.0899999997143,3.478936e-05,447.0899999997143,3.770112e-05
447.10499999971427,2.544397e-05,447.10499999971427,9.172005e-06,447.10499999971427,3.542653e-05,447.10499999971427,3.775228e-05
447.11999999971425,2.577074e-05,447.11999999971425,9.147398e-06,447.11999999971425,3.794135e-05,447.11999999971425,3.791833e-05
447.13499999971424,2.504106e-05,447.13499999971424,9.389061e-06,447.13499999971424,3.88182e-05,447.13499999971424,3.796808e-05
447.1499999997142,2.470408e-05,447.1499999997142,9.372543e-06,447.1499999997142,4.112238e-05,447.1499999997142,3.786517e-05
447.1649999997142,2.427439e-05,447.1649999997142,8.981111e-06,447.1649999997142,4.107131e-05,447.1649999997142,3.824938e-05
447.1799999997142,2.593692e-05,447.1799999997142,9.088692e-06,447.1799999997142,4.089739e-05,447.1799999997142,3.846092e-05
447.1949999997142,2.613009e-05,447.1949999997142,9.357501e-06,447.1949999997142,4.218963e-05,447.1949999997142,3.663922e-05
447.20999999971417,2.627899e-05,447.20999999971417,9.435456e-06,447.20999999971417,4.222701e-05,447.20999999971417,3.45859e-05
447.22499999971416,2.536579e-05,447.22499999971416,9.671379e-06,447.22499999971416,4.034881e-05,447.22499999971416,3.459812e-05
447.23999999971414,2.602151e-05,447.23999999971414,9.674292e-06,447.23999999971414,4.143463e-05,447.23999999971414,3.604189e-05
447.25499999971413,2.662726e-05,447.25499999971413,9.554146e-06,447.25499999971413,4.328981e-05,447.25499999971413,3.621306e-05
447.2699999997141,2.732542e-05,447.2699999997141,8.563602e-06,447.2699999997141,4.366404e-05,447.2699999997141,3.775787e-05
447.2849999997141,2.778703e-05,447.2849999997141,8.367247e-06,447.2849999997141,4.32781e-05,447.2849999997141,3.776347e-05
447.2999999997141,2.798254e-05,447.2999999997141,7.584854e-06,447.2999999997141,4.294547e-05,447.2999999997141,3.870263e-05
447.3149999997141,2.668433e-05,447.3149999997141,7.508323e-06,447.3149999997141,4.43732e-05,447.3149999997141,3.865929e-05
447.32999999971406,2.713142e-05,447.32999999971406,7.095478e-06,447.32999999971406,4.368565e-05,447.32999999971406,3.559631e-05
447.34499999971405,2.495258e-05,447.34499999971405,7.04567e-06,447.34499999971405,4.34334e-05,447.34499999971405,3.425276e-05
447.35999999971403,2.386176e-05,447.35999999971403,7.027653e-06,447.35999999971403,4.260892e-05,447.35999999971403,3.354844e-05
447.374999999714,2.32954e-05,447.374999999714,7.067629e-06,447.374999999714,3.944314e-05,447.374999999714,3.396159e-05
447.389999999714,2.373094e-05,447.389999999714,6.734918e-06,447.389999999714,3.9436e-05,447.389999999714,3.374062e-05
447.404999999714,2.423432e-05,447.404999999714,6.682424e-06,447.404999999714,3.782422e-05,447.404999999714,3.490377e-05
447.419999999714,2.375408e-05,447.419999999714,6.928738e-06,447.419999999714,3.866694e-05,447.419999999714,3.362477e-05
447.43499999971397,2.256433e-05,447.43499999971397,6.766219e-06,447.43499999971397,3.847154e-05,447.43499999971397,3.369633e-05
447.44999999971395,2.229427e-05,447.44999999971395,6.444187e-06,447.44999999971395,3.825269e-05,447.44999999971395,3.282386e-05
447.46499999971394,2.246172e-05,447.46499999971394,6.526725e-06,447.46499999971394,4.021417e-05,447.46499999971394,3.2196e-05
447.4799999997139,2.307851e-05,447.4799999997139,6.171741e-06,447.4799999997139,3.905986e-05,447.4799999997139,2.872283e-05
447.4949999997139,2.20273e-05,447.4949999997139,6.178585e-06,447.4949999997139,3.76701e-05,447.4949999997139,2.800166e-05
447.5099999997139,2.183976e-05,447.5099999997139,6.428867e-06,447.5099999997139,3.718382e-05,447.5099999997139,2.728105e-05
447.5249999997139,2.225506e-05,447.5249999997139,6.522406e-06,447.5249999997139,3.87779e-05,447.5249999997139,2.675024e-05
447.53999999971387,2.250432e-05,447.53999999971387,6.699267e-06,447.53999999971387,3.904831e-05,447.53999999971387,2.567216e-05
447.55499999971386,2.194079e-05,447.55499999971386,6.591156e-06,447.55499999971386,3.797624e-05,447.55499999971386,2.467726e-05
447.56999999971384,2.334915e-05,447.56999999971384,6.7391e-06,447.56999999971384,3.797179e-05,447.56999999971384,2.586894e-05
447.58499999971383,2.310535e-05,447.58499999971383,6.745368e-06,447.58499999971383,3.8715e-05,447.58499999971383,2.680337e-05
447.5999999997138,2.3407e-05,447.5999999997138,6.805661e-06,447.5999999997138,3.900283e-05,447.5999999997138,3.037515e-05
447.6149999997138,2.340339e-05,447.6149999997138,6.684531e-06,447.6149999997138,4.037115e-05,447.6149999997138,3.026969e-05
447.6299999997138,2.311754e-05,447.6299999997138,6.682424e-06,447.6299999997138,4.063824e-05,447.6299999997138,2.992569e-05
447.6449999997138,2.449219e-05,447.6449999997138,6.603967e-06,447.6449999997138,3.998548e-05,447.6449999997138,2.965426e-05
447.65999999971376,2.642013e-05,447.65999999971376,6.757886e-06,447.65999999971376,4.066769e-05,447.65999999971376,3.022405e-05
447.67499999971375,2.610258e-05,447.67499999971375,6.589018e-06,447.67499999971375,4.088223e-05,447.67499999971375,3.110695e-05
447.68999999971373,2.59179e-05,447.68999999971373,6.507271e-06,447.68999999971373,4.124381e-05,447.68999999971373,3.112008e-05
447.7049999997137,2.646701e-05,447.7049999997137,6.444187e-06,447.7049999997137,4.238285e-05,447.7049999997137,3.288517e-05
447.7199999997137,2.59418e-05,447.7199999997137,6.466009e-06,447.7199999997137,4.180356e-05,447.7199999997137,3.349676e-05
447.7349999997137,2.613171e-05,447.7349999997137,6.400318e-06,447.7349999997137,4.249603e-05,447.7349999997137,3.383026e-05
447.7499999997137,2.609125e-05,447.7499999997137,6.373853e-06,447.7499999997137,4.248311e-05,447.7499999997137,3.402499e-05
447.76499999971367,2.603666e-05,447.76499999971367,6.442001e-06,447.76499999971367,4.174691e-05,447.76499999971367,3.747439e-05
447.77999999971365,2.466413e-05,447.77999999971365,6.21269e-06,447.77999999971365,4.104386e-05,447.77999999971365,3.728672e-05
447.79499999971364,2.452208e-05,447.79499999971364,6.082075e-06,447.79499999971364,4.062853e-05,447.79499999971364,3.736258e-05
447.8099999997136,2.587384e-05,447.8099999997136,6.526725e-06,447.8099999997136,3.968135e-05,447.8099999997136,3.711594e-05
447.8249999997136,2.486436e-05,447.8249999997136,6.393712e-06,447.8249999997136,4.034322e-05,447.8249999997136,3.623406e-05
447.8399999997136,2.53369e-05,447.8399999997136,6.599699e-06,447.8399999997136,4.046107e-05,447.8399999997136,3.710228e-05
447.8549999997136,2.524332e-05,447.8549999997136,6.753716e-06,447.8549999997136,3.903063e-05,447.8549999997136,3.542017e-05
447.86999999971357,2.510567e-05,447.86999999971357,6.836638e-06,447.86999999971357,4.25732e-05,447.86999999971357,3.715615e-05
447.88499999971356,2.64276e-05,447.88499999971356,7.190141e-06,447.88499999971356,4.29412e-05,447.88499999971356,3.707607e-05
447.89999999971354,2.339977e-05,447.89999999971354,7.00959e-06,447.89999999971354,4.105656e-05,447.89999999971354,3.703311e-05
447.91499999971353,2.266773e-05,447.91499999971353,6.993494e-06,447.91499999971353,4.144551e-05,447.91499999971353,3.635128e-05
447.9299999997135,2.443403e-05,447.9299999997135,7.031661e-06,447.9299999997135,4.179143e-05,447.9299999997135,3.65075e-05
447.9449999997135,2.41866e-05,447.9449999997135,7.575563e-06,447.9449999997135,4.200995e-05,447.9449999997135,3.618816e-05
447.9599999997135,2.42e-05,447.9599999997135,7.491418e-06,447.9599999997135,3.952983e-05,447.9599999997135,3.486217e-05
447.9749999997135,2.379792e-05,447.9749999997135,7.194059e-06,447.9749999997135,3.904687e-05,447.9749999997135,3.588207e-05
447.98999999971346,2.393485e-05,447.98999999971346,7.333686e-06,447.98999999971346,3.878443e-05,447.98999999971346,3.59366e-05
448.00499999971345,2.471263e-05,448.00499999971345,7.377733e-06,448.00499999971345,3.969448e-05,448.00499999971345,3.592719e-05
448.01999999971343,2.438267e-05,448.01999999971343,7.248678e-06,448.01999999971343,4.109805e-05,448.01999999971343,3.433081e-05
448.0349999997134,2.488645e-05,448.0349999997134,7.341366e-06,448.0349999997134,4.092322e-05,448.0349999997134,3.464613e-05
448.0499999997134,2.444556e-05,448.0499999997134,7.314453e-06,448.0499999997134,4.100678e-05,448.0499999997134,3.680915e-05
448.0649999997134,2.457716e-05,448.0649999997134,7.285508e-06,448.0649999997134,4.211611e-05,448.0649999997134,3.798625e-05
448.0799999997134,2.516228e-05,448.0799999997134,7.279705e-06,448.0799999997134,4.166044e-05,448.0799999997134,3.811028e-05
448.09499999971337,2.635874e-05,448.09499999971337,7.156758e-06,448.09499999971337,4.118434e-05,448.09499999971337,3.831157e-05
448.10999999971335,2.712674e-05,448.10999999971335,7.03967e-06,448.10999999971335,3.938453e-05,448.10999999971335,3.722206e-05
448.12499999971334,2.681914e-05,448.12499999971334,7.00959e-06,448.12499999971334,3.654491e-05,448.12499999971334,3.617959e-05
448.1399999997133,2.68564e-05,448.1399999997133,6.79323e-06,448.1399999997133,3.632376e-05,448.1399999997133,3.677546e-05
448.1549999997133,2.656582e-05,448.1549999997133,6.865424e-06,448.1549999997133,3.575071e-05,448.1549999997133,3.793207e-05
448.1699999997133,2.643666e-05,448.1699999997133,6.762054e-06,448.1699999997133,3.708291e-05,448.1699999997133,3.679575e-05
448.1849999997133,2.517403e-05,448.1849999997133,6.684531e-06,448.1849999997133,3.695581e-05,448.1849999997133,3.671143e-05
448.19999999971327,2.51634e-05,448.19999999971327,6.448557e-06,448.19999999971327,3.597147e-05,448.19999999971327,3.797921e-05
448.21499999971326,2.498756e-05,448.21499999971326,6.66131e-06,448.21499999971326,3.639659e-05,448.21499999971326,3.871464e-05
448.22999999971324,2.524332e-05,448.22999999971324,6.942956e-06,448.22999999971324,3.793244e-05,448.22999999971324,3.730825e-05
448.24499999971323,2.540907e-05,448.24499999971323,6.985433e-06,448.24499999971323,3.79536e-05,448.24499999971323,3.781863e-05
448.2599999997132,2.520199e-05,448.2599999997132,7.702799e-06,448.2599999997132,3.560066e-05,448.2599999997132,3.821142e-05
448.2749999997132,2.482354e-05,448.2749999997132,7.881768e-06,448.2749999997132,3.529547e-05,448.2749999997132,3.637297e-05
448.2899999997132,2.51522e-05,448.2899999997132,7.974164e-06,448.2899999997132,3.635283e-05,448.2899999997132,3.605986e-05
448.3049999997132,2.447781e-05,448.3049999997132,7.860292e-06,448.3049999997132,3.743076e-05,448.3049999997132,3.394375e-05
448.31999999971316,2.38275e-05,448.31999999971316,7.726537e-06,448.31999999971316,3.632802e-05,448.31999999971316,3.352576e-05
448.33499999971315,2.30388e-05,448.33499999971315,7.640368e-06,448.33499999971315,3.53756e-05,448.33499999971315,3.373728e-05
448.34999999971313,2.305469e-05,448.34999999971313,7.922768e-06,448.34999999971313,3.55258e-05,448.34999999971313,3.448025e-05
448.3649999997131,2.246861e-05,448.3649999997131,7.761099e-06,448.3649999997131,3.641516e-05,448.3649999997131,3.512824e-05
448.3799999997131,2.22519e-05,448.3799999997131,7.70097e-06,448.3799999997131,3.593581e-05,448.3799999997131,3.725686e-05
448.3949999997131,2.170389e-05,448.3949999997131,7.52706e-06,448.3949999997131,3.635748e-05,448.3949999997131,3.656187e-05
448.4099999997131,2.206563e-05,448.4099999997131,7.753835e-06,448.4099999997131,3.619361e-05,448.4099999997131,3.666036e-05
448.42499999971307,2.175381e-05,448.42499999971307,7.733825e-06,448.42499999971307,3.66861e-05,448.42499999971307,3.699391e-05
448.43999999971305,2.242594e-05,448.43999999971305,7.607108e-06,448.43999999971305,3.705859e-05,448.43999999971305,3.747326e-05
448.45499999971304,2.239011e-05,448.45499999971304,7.63668e-06,448.45499999971304,3.756862e-05,448.45499999971304,3.685428e-05
448.469999999713,2.283614e-05,448.469999999713,7.579281e-06,448.469999999713,3.690241e-05,448.469999999713,3.629311e-05
448.484999999713,2.196646e-05,448.484999999713,7.27196e-06,448.484999999713,3.692531e-05,448.484999999713,3.849753e-05
448.499999999713,2.121086e-05,448.499999999713,7.158726e-06,448.499999999713,3.721184e-05,448.499999999713,3.957827e-05
448.514999999713,2.168311e-05,448.514999999713,6.174023e-06,448.514999999713,3.67425e-05,448.514999999713,3.908329e-05
448.52999999971297,2.242217e-05,448.52999999971297,6.072803e-06,448.52999999971297,3.507487e-05,448.52999999971297,4.088533e-05
448.54499999971296,2.34617e-05,448.54499999971296,6.196798e-06,448.54499999971296,3.458224e-05,448.54499999971296,4.157751e-05
448.55999999971294,2.307729e-05,448.55999999971294,6.724452e-06,448.55999999971294,3.444878e-05,448.55999999971294,4.16601e-05
448.57499999971293,2.310169e-05,448.57499999971293,6.713969e-06,448.57499999971293,3.551985e-05,448.57499999971293,4.192234e-05
448.5899999997129,2.243787e-05,448.5899999997129,6.728641e-06,448.5899999997129,3.772465e-05,448.5899999997129,4.135841e-05
448.6049999997129,2.208796e-05,448.6049999997129,6.610363e-06,448.6049999997129,3.819594e-05,448.6049999997129,4.242238e-05
448.6199999997129,2.258991e-05,448.6199999997129,6.631638e-06,448.6199999997129,3.768393e-05,448.6199999997129,4.226236e-05
448.6349999997129,2.238759e-05,448.6349999997129,6.813935e-06,448.6349999997129,3.814095e-05,448.6349999997129,4.340842e-05
448.64999999971286,2.192666e-05,448.64999999971286,6.576178e-06,448.64999999971286,3.934803e-05,448.64999999971286,4.326768e-05
448.66499999971285,2.145977e-05,448.66499999971285,6.816002e-06,448.66499999971285,3.952983e-05,448.66499999971285,4.334087e-05
448.67999999971283,2.128643e-05,448.67999999971283,6.680315e-06,448.67999999971283,3.961242e-05,448.67999999971283,4.448005e-05
448.6949999997128,2.171946e-05,448.6949999997128,6.665538e-06,448.6949999997128,3.896344e-05,448.6949999997128,4.492563e-05
448.7099999997128,2.181072e-05,448.7099999997128,6.730734e-06,448.7099999997128,3.914128e-05,448.7099999997128,4.48726e-05
448.7249999997128,2.164995e-05,448.7249999997128,6.678206e-06,448.7249999997128,4.065175e-05,448.7249999997128,4.427117e-05
448.7399999997128,2.405989e-05,448.7399999997128,6.69506e-06,448.7399999997128,4.097172e-05,448.7399999997128,4.512773e-05
448.75499999971277,2.454332e-05,448.75499999971277,6.7391e-06,448.75499999971277,4.139517e-05,448.75499999971277,4.401812e-05
448.76999999971275,2.512362e-05,448.76999999971275,6.387099e-06,448.76999999971275,4.252254e-05,448.76999999971275,4.436526e-05
448.78499999971274,2.359879e-05,448.78499999971274,6.413511e-06,448.78499999971274,4.452974e-05,448.78499999971274,4.350178e-05
448.7999999997127,2.390011e-05,448.7999999997127,6.102884e-06,448.7999999997127,4.388961e-05,448.7999999997127,4.456611e-05
448.8149999997127,2.506524e-05,448.8149999997127,5.787757e-06,448.8149999997127,4.320708e-05,448.8149999997127,4.422246e-05
448.8299999997127,2.514435e-05,448.8299999997127,5.874723e-06,448.8299999997127,4.16841e-05,448.8299999997127,4.527078e-05
448.8449999997127,2.470921e-05,448.8449999997127,5.516089e-06,448.8449999997127,4.277028e-05,448.8449999997127,4.44081e-05
448.85999999971267,2.457545e-05,448.85999999971267,5.602244e-06,448.85999999971267,4.331161e-05,448.85999999971267,4.387709e-05
448.87499999971266,2.460581e-05,448.87499999971266,5.915346e-06,448.87499999971266,4.479343e-05,448.87499999971266,4.49789e-05
448.88999999971264,2.491982e-05,448.88999999971264,5.792623e-06,448.88999999971264,4.308171e-05,448.88999999971264,4.363499e-05
448.90499999971263,2.553351e-05,448.90499999971263,5.711809e-06,448.90499999971263,4.301888e-05,448.90499999971263,4.437605e-05
448.9199999997126,2.618179e-05,448.9199999997126,5.477649e-06,448.9199999997126,4.072999e-05,448.9199999997126,4.445756e-05
448.9349999997126,2.636302e-05,448.9349999997126,5.614802e-06,448.9349999997126,4.070231e-05,448.9349999997126,4.409773e-05
448.9499999997126,2.632773e-05,448.9499999997126,6.082075e-06,448.9499999997126,4.010824e-05,448.9499999997126,4.362305e-05
448.9649999997126,2.602042e-05,448.9649999997126,6.049562e-06,448.9649999997126,4.066977e-05,448.9649999997126,4.709989e-05
448.97999999971256,2.575925e-05,448.97999999971256,6.203613e-06,448.97999999971256,3.888781e-05,448.97999999971256,4.58849e-05
448.99499999971255,2.371847e-05,448.99499999971255,6.318359e-06,448.99499999971255,3.850265e-05,448.99499999971255,4.585511e-05
449.00999999971253,2.363041e-05,449.00999999971253,6.680315e-06,449.00999999971253,3.800775e-05,449.00999999971253,4.776808e-05
449.0249999997125,2.252934e-05,449.0249999997125,6.580461e-06,449.0249999997125,3.837916e-05,449.0249999997125,4.798023e-05
449.0399999997125,2.195363e-05,449.0399999997125,6.7391e-06,449.0399999997125,3.77713e-05,449.0399999997125,4.751171e-05
449.0549999997125,2.229554e-05,449.0549999997125,6.826328e-06,449.0549999997125,3.888781e-05,449.0549999997125,4.666299e-05
449.0699999997125,2.159588e-05,449.0699999997125,6.918566e-06,449.0699999997125,3.9183e-05,449.0699999997125,4.732575e-05
449.08499999971247,2.156455e-05,449.08499999971247,6.932803e-06,449.08499999971247,4.109942e-05,449.08499999971247,4.66974e-05
449.09999999971245,2.251121e-05,449.09999999971245,6.942956e-06,449.09999999971245,3.996258e-05,449.09999999971245,4.805093e-05
449.11499999971244,2.29469e-05,449.11499999971244,6.938897e-06,449.11499999971244,3.958716e-05,449.11499999971244,4.837961e-05
449.1299999997124,2.302045e-05,449.1299999997124,6.711871e-06,449.1299999997124,3.984643e-05,449.1299999997124,4.841396e-05
449.1449999997124,2.332742e-05,449.1449999997124,7.019631e-06,449.1449999997124,4.038928e-05,449.1449999997124,4.822621e-05
449.1599999997124,2.289528e-05,449.1599999997124,7.485775e-06,449.1599999997124,4.172835e-05,449.1599999997124,4.757334e-05
449.1749999997124,2.244666e-05,449.1749999997124,7.579281e-06,449.1749999997124,4.24423e-05,449.1749999997124,4.838806e-05
449.18999999971237,2.232206e-05,449.18999999971237,7.658783e-06,449.18999999971237,4.303918e-05,449.18999999971237,4.971314e-05
449.20499999971236,2.176546e-05,449.20499999971236,7.497057e-06,449.20499999971236,4.511118e-05,449.20499999971236,4.834204e-05
449.21999999971234,2.229554e-05,449.21999999971234,7.682656e-06,449.21999999971234,4.467439e-05,449.21999999971234,4.756979e-05
449.23499999971233,2.23643e-05,449.23499999971233,7.929877e-06,449.23499999971233,4.481198e-05,449.23499999971233,4.770906e-05
449.2499999997123,2.244038e-05,449.2499999997123,7.85312e-06,449.2499999997123,4.578132e-05,449.2499999997123,4.757009e-05
449.2649999997123,2.223353e-05,449.2649999997123,7.708283e-06,449.2649999997123,4.674081e-05,449.2649999997123,4.722682e-05
449.2799999997123,2.276447e-05,449.2799999997123,7.764728e-06,449.2799999997123,4.588091e-05,449.2799999997123,4.695551e-05
449.2949999997123,2.324879e-05,449.2949999997123,7.691819e-06,449.2949999997123,4.594135e-05,449.2949999997123,4.794733e-05
449.30999999971226,2.255372e-05,449.30999999971226,7.719241e-06,449.30999999971226,4.463086e-05,449.30999999971226,5.065989e-05
449.32499999971225,2.292786e-05,449.32499999971225,7.997096e-06,449.32499999971225,4.447435e-05,449.32499999971225,4.988089e-05
449.33999999971223,2.40985e-05,449.33999999971223,8.136793e-06,449.33999999971223,4.306012e-05,449.33999999971223,4.995313e-05
449.3549999997122,2.336182e-05,449.3549999997122,8.037508e-06,449.3549999997122,4.286141e-05,449.3549999997122,5.016671e-05
449.3699999997122,2.283675e-05,449.3699999997122,8.263912e-06,449.3699999997122,4.502648e-05,449.3699999997122,4.851685e-05
449.3849999997122,2.41767e-05,449.3849999997122,8.566891e-06,449.3849999997122,4.616342e-05,449.3849999997122,4.863691e-05
449.3999999997122,2.451748e-05,449.3999999997122,8.729774e-06,449.3999999997122,4.587906e-05,449.3999999997122,5.121658e-05
449.41499999971217,2.440692e-05,449.41499999971217,8.494233e-06,449.41499999971217,4.531681e-05,449.41499999971217,5.065044e-05
449.42999999971215,2.424303e-05,449.42999999971215,8.284342e-06,449.42999999971215,4.620064e-05,449.42999999971215,5.062039e-05
449.44499999971214,2.532133e-05,449.44499999971214,7.92099e-06,449.44499999971214,4.516985e-05,449.44499999971214,5.17357e-05
449.4599999997121,2.66912e-05,449.4599999997121,7.759284e-06,449.4599999997121,4.39018e-05,449.4599999997121,5.230841e-05
449.4749999997121,2.653717e-05,449.4749999997121,7.56626e-06,449.4749999997121,4.804184e-05,449.4749999997121,5.324791e-05
449.4899999997121,2.708621e-05,449.4899999997121,7.194059e-06,449.4899999997121,4.823177e-05,449.4899999997121,5.342618e-05
449.5049999997121,2.701956e-05,449.5049999997121,7.115304e-06,449.5049999997121,4.665786e-05,449.5049999997121,5.418178e-05
449.51999999971207,2.700965e-05,449.51999999971207,7.21166e-06,449.51999999971207,4.768396e-05,449.51999999971207,5.449778e-05
449.53499999971206,2.65223e-05,449.53499999971206,7.146909e-06,449.53499999971206,4.762513e-05,449.53499999971206,5.419062e-05
449.54999999971204,2.633522e-05,449.54999999971204,7.203842e-06,449.54999999971204,4.824461e-05,449.54999999971204,5.359913e-05
449.56499999971203,2.631007e-05,449.56499999971203,7.22727e-06,449.56499999971203,5.02534e-05,449.56499999971203,5.717577e-05
449.579999999712,2.533134e-05,449.579999999712,6.879772e-06,449.579999999712,5.106039e-05,449.579999999712,5.761778e-05
449.594999999712,2.557595e-05,449.594999999712,6.881819e-06,449.594999999712,5.106756e-05,449.594999999712,5.790556e-05
449.609999999712,2.562877e-05,449.609999999712,6.859265e-06,449.609999999712,5.100933e-05,449.609999999712,5.890791e-05
449.624999999712,2.547385e-05,449.624999999712,6.293787e-06,449.624999999712,4.818297e-05,449.624999999712,5.927431e-05
449.63999999971196,2.441788e-05,449.63999999971196,6.266871e-06,449.63999999971196,4.925367e-05,449.63999999971196,5.921725e-05
449.65499999971195,2.432424e-05,449.65499999971195,6.098266e-06,449.65499999971195,4.904473e-05,449.65499999971195,5.841781e-05
449.66999999971193,2.450254e-05,449.66999999971193,5.960421e-06,449.66999999971193,5.262361e-05,449.66999999971193,5.94274e-05
449.6849999997119,2.483091e-05,449.6849999997119,6.002811e-06,449.6849999997119,5.100794e-05,449.6849999997119,5.919227e-05
449.6999999997119,2.422327e-05,449.6999999997119,6.331722e-06,449.6999999997119,5.108962e-05,449.6999999997119,5.844963e-05
449.7149999997119,2.308461e-05,449.7149999997119,6.376062e-06,449.7149999997119,5.58247e-05,449.7149999997119,5.859405e-05
449.7299999997119,2.289466e-05,449.7299999997119,6.338393e-06,449.7299999997119,5.301858e-05,449.7299999997119,5.82328e-05
449.74499999971187,2.284107e-05,449.74499999971187,6.228541e-06,449.74499999971187,5.357363e-05,449.74499999971187,6.090962e-05
449.75999999971185,2.20937e-05,449.75999999971185,6.640129e-06,449.75999999971185,5.507092e-05,449.75999999971185,6.037512e-05
449.77499999971184,2.216754e-05,449.77499999971184,6.618881e-06,449.77499999971184,5.40073e-05,449.77499999971184,6.129716e-05
449.7899999997118,2.286388e-05,449.7899999997118,6.635885e-06,449.7899999997118,5.280026e-05,449.7899999997118,6.375687e-05
449.8049999997118,2.441731e-05,449.8049999997118,6.50294e-06,449.8049999997118,5.216791e-05,449.8049999997118,6.131738e-05
449.8199999997118,2.580952e-05,449.8199999997118,6.690851e-06,449.8199999997118,5.074935e-05,449.8199999997118,6.040684e-05
449.8349999997118,2.530519e-05,449.8349999997118,6.755802e-06,449.8349999997118,5.338925e-05,449.8349999997118,5.975315e-05
449.84999999971177,2.448586e-05,449.84999999971177,7.113323e-06,449.84999999971177,5.397965e-05,449.84999999971177,6.022982e-05
449.86499999971176,2.443345e-05,449.86499999971176,7.178377e-06,449.86499999971176,5.309451e-05,449.86499999971176,5.979463e-05
449.87999999971174,2.34076e-05,449.87999999971174,6.947012e-06,449.87999999971174,5.339321e-05,449.87999999971174,5.990102e-05
449.89499999971173,2.384405e-05,449.89499999971173,6.690851e-06,449.89499999971173,5.327092e-05,449.89499999971173,6.174366e-05
449.9099999997117,2.404056e-05,449.9099999997117,7.069622e-06,449.9099999997117,5.402582e-05,449.9099999997117,6.34661e-05
449.9249999997117,2.466242e-05,449.9249999997117,7.049668e-06,449.9249999997117,5.676655e-05,449.9249999997117,6.289936e-05
449.9399999997117,2.475933e-05,449.9399999997117,7.00557e-06,449.9399999997117,5.645551e-05,449.9399999997117,6.373654e-05
449.9549999997117,2.643452e-05,449.9549999997117,6.902258e-06,449.9549999997117,5.625229e-05,449.9549999997117,6.6113e-05
449.96999999971166,2.748631e-05,449.96999999971166,7.15282e-06,449.96999999971166,5.341827e-05,449.96999999971166,6.771755e-05
449.98499999971165,2.747862e-05,449.98499999971165,7.1921e-06,449.98499999971165,5.318305e-05,449.98499999971165,6.73199e-05
449.99999999971163,2.849584e-05,449.99999999971163,7.341366e-06,449.99999999971163,5.339901e-05,449.99999999971163,6.884336e-05
450.0149999997116,2.958959e-05,450.0149999997116,7.109361e-06,450.0149999997116,5.202921e-05,450.0149999997116,6.939383e-05
450.0299999997116,2.90922e-05,450.0299999997116,7.053663e-06,450.0299999997116,5.331136e-05,450.0299999997116,7.422201e-05
450.0449999997116,2.918647e-05,450.0449999997116,7.27196e-06,450.0449999997116,5.387046e-05,450.0449999997116,8.01933e-05
450.0599999997116,2.788925e-05,450.0599999997116,7.786468e-06,450.0599999997116,5.346123e-05,450.0599999997116,8.550729e-05
450.07499999971157,2.784932e-05,450.07499999971157,7.655103e-06,450.07499999971157,5.329762e-05,450.07499999971157,8.545158e-05
450.08999999971155,2.824958e-05,450.08999999971155,7.530803e-06,450.08999999971155,5.173924e-05,450.08999999971155,8.652103e-05
450.10499999971154,2.846616e-05,450.10499999971154,7.233115e-06,450.10499999971154,5.063542e-05,450.10499999971154,9.08021e-05
450.1199999997115,2.881928e-05,450.1199999997115,7.285508e-06,450.1199999997115,5.050059e-05,450.1199999997115,9.331844e-05
450.1349999997115,3.016153e-05,450.1349999997115,7.186222e-06,450.1349999997115,5.228362e-05,450.1349999997115,9.390051e-05
450.1499999997115,2.993604e-05,450.1499999997115,7.231167e-06,450.1499999997115,5.191537e-05,450.1499999997115,9.46314e-05
450.1649999997115,2.941291e-05,450.1649999997115,6.896133e-06,450.1649999997115,4.630115e-05,450.1649999997115,9.556019e-05
450.17999999971147,2.91575e-05,450.17999999971147,6.912455e-06,450.17999999971147,4.494161e-05,450.17999999971147,9.63171e-05
450.19499999971146,2.947989e-05,450.19499999971146,6.938897e-06,450.19499999971146,4.499956e-05,450.19499999971146,9.811732e-05
450.20999999971144,2.765389e-05,450.20999999971144,6.869526e-06,450.20999999971144,4.693931e-05,450.20999999971144,9.426704e-05
450.22499999971143,2.767935e-05,450.22499999971143,6.762054e-06,450.22499999971143,4.736115e-05,450.22499999971143,9.535994e-05
450.2399999997114,2.962052e-05,450.2399999997114,6.969281e-06,450.2399999997114,4.850233e-05,450.2399999997114,9.598189e-05
450.2549999997114,2.863785e-05,450.2549999997114,6.682424e-06,450.2549999997114,4.885076e-05,450.2549999997114,9.435904e-05
450.2699999997114,2.843051e-05,450.2699999997114,6.709772e-06,450.2699999997114,4.775097e-05,450.2699999997114,9.472856e-05
450.2849999997114,2.876399e-05,450.2849999997114,6.406918e-06,450.2849999997114,4.657113e-05,450.2849999997114,9.140389e-05
450.29999999971136,2.909462e-05,450.29999999971136,6.255622e-06,450.29999999971136,4.628197e-05,450.29999999971136,8.254173e-05
450.31499999971135,2.934867e-05,450.31499999971135,5.879517e-06,450.31499999971135,4.563802e-05,450.31499999971135,8.011562e-05
450.32999999971133,2.874048e-05,450.32999999971133,5.677176e-06,450.32999999971133,4.495572e-05,450.32999999971133,7.874563e-05
450.3449999997113,2.949183e-05,450.3449999997113,5.941484e-06,450.3449999997113,4.489614e-05,450.3449999997113,7.639722e-05
450.3599999997113,2.912898e-05,450.3599999997113,5.845879e-06,450.3599999997113,4.699749e-05,450.3599999997113,7.324672e-05
450.3749999997113,2.925252e-05,450.3749999997113,5.915346e-06,450.3749999997113,4.88323e-05,450.3749999997113,6.954875e-05
450.3899999997113,2.776827e-05,450.3899999997113,5.974584e-06,450.3899999997113,4.854588e-05,450.3899999997113,6.614751e-05
450.40499999971126,2.826354e-05,450.40499999971126,5.939112e-06,450.40499999971126,4.726946e-05,450.40499999971126,6.679345e-05
450.41999999971125,2.887788e-05,450.41999999971125,5.969867e-06,450.41999999971125,4.802219e-05,450.41999999971125,6.274667e-05
450.43499999971124,2.818268e-05,450.43499999971124,6.246608e-06,450.43499999971124,4.835952e-05,450.43499999971124,6.223609e-05
450.4499999997112,2.903501e-05,450.4499999997112,6.307202e-06,450.4499999997112,4.81347e-05,450.4499999997112,6.0422e-05
450.4649999997112,2.93904e-05,450.4649999997112,6.19225e-06,450.4649999997112,4.546453e-05,450.4649999997112,5.989584e-05
450.4799999997112,2.904131e-05,450.4799999997112,6.452925e-06,450.4799999997112,4.447942e-05,450.4799999997112,5.968262e-05
450.4949999997112,2.726349e-05,450.4949999997112,6.176305e-06,450.4949999997112,4.418454e-05,450.4949999997112,5.841298e-05
450.50999999971117,2.764371e-05,450.50999999971117,6.2781e-06,450.50999999971117,4.208834e-05,450.50999999971117,5.703491e-05
450.52499999971116,2.755438e-05,450.52499999971116,6.697164e-06,450.52499999971116,4.184061e-05,450.52499999971116,5.801177e-05
450.53999999971114,2.84087e-05,450.53999999971114,6.732826e-06,450.53999999971114,4.18359e-05,450.53999999971114,6.085571e-05
450.55499999971113,2.844636e-05,450.55499999971113,6.524566e-06,450.55499999971113,4.241109e-05,450.55499999971113,6.115059e-05
450.5699999997111,2.778653e-05,450.5699999997111,6.398117e-06,450.5699999997111,4.189142e-05,450.5699999997111,6.24999e-05
450.5849999997111,2.853289e-05,450.5849999997111,6.395915e-06,450.5849999997111,4.304539e-05,450.5849999997111,6.234826e-05
450.5999999997111,2.86703e-05,450.5999999997111,6.151165e-06,450.5999999997111,4.472261e-05,450.5999999997111,6.161256e-05
450.6149999997111,2.983376e-05,450.6149999997111,6.009847e-06,450.6149999997111,3.88581e-05,450.6149999997111,6.132817e-05
450.62999999971106,2.894609e-05,450.62999999971106,6.091332e-06,450.62999999971106,3.80122e-05,450.62999999971106,6.174959e-05
450.64499999971105,2.879043e-05,450.64499999971105,6.160319e-06,450.64499999971105,3.936521e-05,450.64499999971105,6.031045e-05
450.65999999971103,2.872871e-05,450.65999999971103,6.776621e-06,450.65999999971103,4.094386e-05,450.65999999971103,6.124681e-05
450.674999999711,2.84315e-05,450.674999999711,6.690851e-06,450.674999999711,4.031143e-05,450.674999999711,6.113654e-05
450.689999999711,2.898985e-05,450.689999999711,7.057657e-06,450.689999999711,4.006045e-05,450.689999999711,5.926314e-05
450.704999999711,2.742114e-05,450.704999999711,7.27777e-06,450.704999999711,4.323511e-05,450.704999999711,6.057242e-05
450.719999999711,2.690619e-05,450.719999999711,7.229218e-06,450.719999999711,4.105861e-05,450.719999999711,5.948592e-05
450.73499999971096,2.780173e-05,450.73499999971096,7.219469e-06,450.73499999971096,4.141219e-05,450.73499999971096,5.899393e-05
450.74999999971095,2.762076e-05,450.74999999971095,7.215565e-06,450.74999999971095,4.147745e-05,450.74999999971095,6.023473e-05
450.76499999971094,2.725729e-05,450.76499999971094,7.097463e-06,450.76499999971094,4.273074e-05,450.76499999971094,5.826303e-05
450.7799999997109,2.671599e-05,450.7799999997109,7.021637e-06,450.7799999997109,4.324456e-05,450.7799999997109,6.07605e-05
450.7949999997109,2.608044e-05,450.7949999997109,7.209706e-06,450.7949999997109,4.293792e-05,450.7949999997109,5.58875e-05
450.8099999997109,2.583406e-05,450.8099999997109,7.404416e-06,450.8099999997109,4.253049e-05,450.8099999997109,5.632611e-05
450.8249999997109,2.709765e-05,450.8249999997109,7.391086e-06,450.8249999997109,4.560097e-05,450.8249999997109,5.560017e-05
450.83999999971087,2.678077e-05,450.83999999971087,7.350954e-06,450.83999999971087,4.30647e-05,450.83999999971087,5.570724e-05
450.85499999971086,2.562327e-05,450.85499999971086,7.508323e-06,450.85499999971086,4.416892e-05,450.85499999971086,5.753803e-05
450.86999999971084,2.531131e-05,450.86999999971084,7.666136e-06,450.86999999971084,4.481763e-05,450.86999999971084,5.753533e-05
450.88499999971083,2.562932e-05,450.88499999971083,7.666136e-06,450.88499999971083,4.409582e-05,450.88499999971083,5.924864e-05
450.8999999997108,2.60961e-05,450.8999999997108,7.493299e-06,450.8999999997108,4.251194e-05,450.8999999997108,5.981771e-05
450.9149999997108,2.655999e-05,450.9149999997108,7.248678e-06,450.9149999997108,4.197674e-05,450.9149999997108,5.872301e-05
450.9299999997108,2.688262e-05,450.9299999997108,7.345202e-06,450.9299999997108,4.27716e-05,450.9299999997108,5.857698e-05
450.9449999997108,2.623554e-05,450.9449999997108,6.987449e-06,450.9449999997108,4.135364e-05,450.9449999997108,5.993323e-05
450.95999999971076,2.616726e-05,450.95999999971076,6.667651e-06,450.95999999971076,4.131956e-05,450.95999999971076,5.969843e-05
450.97499999971075,2.595809e-05,450.97499999971075,6.713969e-06,450.97499999971075,4.123629e-05,450.97499999971075,6.162491e-05
450.98999999971073,2.482183e-05,450.98999999971073,6.867475e-06,450.98999999971073,4.148967e-05,450.98999999971073,6.212758e-05
451.0049999997107,2.58297e-05,451.0049999997107,6.922637e-06,451.0049999997107,4.122263e-05,451.0049999997107,6.125255e-05
451.0199999997107,2.584497e-05,451.0199999997107,6.711871e-06,451.0199999997107,4.016545e-05,451.0199999997107,6.47698e-05
451.0349999997107,2.695744e-05,451.0349999997107,6.69506e-06,451.0349999997107,4.33399e-05,451.0349999997107,6.267973e-05
451.0499999997107,2.671915e-05,451.0499999997107,6.569749e-06,451.0499999997107,4.38138e-05,451.0499999997107,6.563721e-05
451.06499999971066,2.614303e-05,451.06499999971066,6.356147e-06,451.06499999971066,4.397362e-05,451.06499999971066,6.556678e-05
451.07999999971065,2.486096e-05,451.07999999971065,6.635885e-06,451.07999999971065,4.167971e-05,451.07999999971065,6.608786e-05
451.09499999971064,2.532577e-05,451.09499999971064,6.795303e-06,451.09499999971064,4.366726e-05,451.09499999971064,6.583714e-05
451.1099999997106,2.534746e-05,451.1099999997106,6.906339e-06,451.1099999997106,4.436303e-05,451.1099999997106,6.478807e-05
451.1249999997106,2.521764e-05,451.1249999997106,6.936866e-06,451.1249999997106,4.393099e-05,451.1249999997106,6.367639e-05
451.1399999997106,2.522992e-05,451.1399999997106,6.890002e-06,451.1399999997106,4.459739e-05,451.1399999997106,6.482437e-05
451.1549999997106,2.466185e-05,451.1549999997106,6.612493e-06,451.1549999997106,4.297203e-05,451.1549999997106,6.497197e-05
451.16999999971057,2.351028e-05,451.16999999971057,6.784931e-06,451.16999999971057,4.273601e-05,451.16999999971057,6.496546e-05
451.18499999971056,2.457487e-05,451.18499999971056,6.638008e-06,451.18499999971056,4.243068e-05,451.18499999971056,6.568591e-05
451.19999999971054,2.456283e-05,451.19999999971054,6.500773e-06,451.19999999971054,4.242138e-05,451.19999999971054,6.401023e-05
451.2149999997105,2.491416e-05,451.2149999997105,6.633762e-06,451.2149999997105,4.049135e-05,451.2149999997105,6.602004e-05
451.2299999997105,2.545947e-05,451.2299999997105,6.485587e-06,451.2299999997105,4.126908e-05,451.2299999997105,6.567282e-05
451.2449999997105,2.560403e-05,451.2449999997105,6.365006e-06,451.2449999997105,4.266244e-05,451.2449999997105,6.553326e-05
451.2599999997105,2.496726e-05,451.2599999997105,6.255622e-06,451.2599999997105,4.328851e-05,451.2599999997105,6.781732e-05
451.2749999997105,2.41563e-05,451.2749999997105,6.275856e-06,451.2749999997105,4.23762e-05,451.2749999997105,6.377829e-05
451.28999999971046,2.334734e-05,451.28999999971046,6.524566e-06,451.28999999971046,4.046873e-05,451.28999999971046,6.332834e-05
451.30499999971045,2.425697e-05,451.30499999971045,6.629514e-06,451.30499999971045,4.05494e-05,451.30499999971045,6.178699e-05
451.31999999971043,2.390305e-05,451.31999999971043,6.472542e-06,451.31999999971043,4.255301e-05,451.31999999971043,6.165073e-05
451.3349999997104,2.330023e-05,451.3349999997104,6.518086e-06,451.3349999997104,4.154125e-05,451.3349999997104,5.959381e-05
451.3499999997104,2.213893e-05,451.3499999997104,6.287069e-06,451.3499999997104,3.944386e-05,451.3499999997104,6.102768e-05
451.3649999997104,2.279415e-05,451.3649999997104,6.333946e-06,451.3649999997104,3.873173e-05,451.3649999997104,6.162742e-05
451.3799999997104,2.236745e-05,451.3799999997104,6.764137e-06,451.3799999997104,3.758024e-05,451.3799999997104,6.261452e-05
451.39499999971036,2.267767e-05,451.39499999971036,6.65708e-06,451.39499999971036,3.695505e-05,451.39499999971036,5.991277e-05
451.40999999971035,2.259054e-05,451.40999999971035,6.79323e-06,451.40999999971035,3.750632e-05,451.40999999971035,6.061961e-05
451.42499999971034,2.149322e-05,451.42499999971034,6.638008e-06,451.42499999971034,3.877499e-05,451.42499999971034,6.212349e-05
451.4399999997103,2.143087e-05,451.4399999997103,6.580461e-06,451.4399999997103,3.945564e-05,451.4399999997103,6.241442e-05
451.4549999997103,2.193951e-05,451.4549999997103,6.881819e-06,451.4549999997103,3.937272e-05,451.4549999997103,6.207881e-05
451.4699999997103,2.208095e-05,451.4699999997103,6.969281e-06,451.4699999997103,3.781193e-05,451.4699999997103,6.094661e-05
451.4849999997103,2.180296e-05,451.4849999997103,6.963215e-06,451.4849999997103,3.812469e-05,451.4849999997103,6.274509e-05
451.49999999971027,2.113968e-05,451.49999999971027,7.043671e-06,451.49999999971027,3.711291e-05,451.49999999971027,6.360468e-05
451.51499999971026,2.194785e-05,451.51499999971026,7.229218e-06,451.51499999971026,3.712467e-05,451.51499999971026,6.291795e-05
451.52999999971024,2.205605e-05,451.52999999971024,7.03967e-06,451.52999999971024,3.645189e-05,451.52999999971024,6.402013e-05
451.5449999997102,2.24918e-05,451.5449999997102,7.059652e-06,451.5449999997102,3.749092e-05,451.5449999997102,6.39717e-05
451.5599999997102,2.271801e-05,451.5599999997102,7.279705e-06,451.5599999997102,3.668073e-05,451.5599999997102,6.309614e-05
451.5749999997102,2.304491e-05,451.5749999997102,7.417721e-06,451.5749999997102,3.794544e-05,451.5749999997102,6.417617e-05
451.5899999997102,2.370659e-05,451.5899999997102,7.523317e-06,451.5899999997102,3.851509e-05,451.5899999997102,6.548896e-05
451.6049999997102,2.329358e-05,451.6049999997102,7.532673e-06,451.6049999997102,4.083638e-05,451.6049999997102,6.593634e-05
451.61999999971016,2.382927e-05,451.61999999971016,7.201887e-06,451.61999999971016,4.159513e-05,451.61999999971016,6.669173e-05
451.63499999971015,2.410084e-05,451.63499999971015,7.077588e-06,451.63499999971015,4.182411e-05,451.63499999971015,6.774729e-05
451.64999999971013,2.406867e-05,451.64999999971013,7.063642e-06,451.64999999971013,4.28854e-05,451.64999999971013,6.761679e-05
451.6649999997101,2.435723e-05,451.6649999997101,6.963215e-06,451.6649999997101,4.438526e-05,451.6649999997101,6.865095e-05
451.6799999997101,2.486039e-05,451.6799999997101,7.091506e-06,451.6799999997101,4.354354e-05,451.6799999997101,6.777328e-05
451.6949999997101,2.432772e-05,451.6949999997101,7.375824e-06,451.6949999997101,4.363531e-05,451.6949999997101,6.795407e-05
451.7099999997101,2.359163e-05,451.7099999997101,7.14888e-06,451.7099999997101,4.318099e-05,451.7099999997101,6.882003e-05
451.72499999971006,2.368162e-05,451.72499999971006,7.252564e-06,451.72499999971006,4.306633e-05,451.72499999971006,6.958783e-05
451.73999999971005,2.370183e-05,451.73999999971005,7.180339e-06,451.73999999971005,4.267532e-05,451.73999999971005,6.884806e-05
451.75499999971004,2.301188e-05,451.75499999971004,7.137048e-06,451.75499999971004,4.244363e-05,451.75499999971004,6.897787e-05
451.76999999971,2.280342e-05,451.76999999971,6.97938e-06,451.76999999971,4.335452e-05,451.76999999971,6.882249e-05
451.78499999971,2.324394e-05,451.78499999971,6.900217e-06,451.78499999971,4.373979e-05,451.78499999971,6.982972e-05
451.79999999971,2.402473e-05,451.79999999971,6.606099e-06,451.79999999971,4.196902e-05,451.79999999971,7.028295e-05
451.81499999971,2.566886e-05,451.81499999971,6.57832e-06,451.81499999971,4.070509e-05,451.81499999971,7.22838e-05
451.82999999970997,2.61371e-05,451.82999999970997,6.511599e-06,451.82999999970997,3.847118e-05,451.82999999970997,6.997965e-05
451.84499999970996,2.705447e-05,451.84499999970996,6.737009e-06,451.84499999970996,3.775526e-05,451.84499999970996,7.193589e-05
451.85999999970994,2.703936e-05,451.85999999970994,6.66131e-06,451.85999999970994,3.434476e-05,451.85999999970994,7.180084e-05
451.8749999997099,2.707632e-05,451.8749999997099,6.556871e-06,451.8749999997099,3.499405e-05,451.8749999997099,7.148703e-05
451.8899999997099,2.750014e-05,451.8899999997099,6.718165e-06,451.8899999997099,3.429058e-05,451.8899999997099,7.179809e-05
451.9049999997099,2.78746e-05,451.9049999997099,6.832516e-06,451.9049999997099,3.251253e-05,451.9049999997099,7.204527e-05
451.9199999997099,2.802831e-05,451.9199999997099,6.865424e-06,451.9199999997099,3.138287e-05,451.9199999997099,7.115679e-05
451.9349999997099,2.769156e-05,451.9349999997099,6.599699e-06,451.9349999997099,3.254068e-05,451.9349999997099,7.247959e-05
451.94999999970986,2.800216e-05,451.94999999970986,6.435437e-06,451.94999999970986,3.260339e-05,451.94999999970986,6.932174e-05
451.96499999970985,2.821815e-05,451.96499999970985,6.021555e-06,451.96499999970985,3.329851e-05,451.96499999970985,6.982589e-05
451.97999999970983,2.798757e-05,451.97999999970983,6.042573e-06,451.97999999970983,3.342771e-05,451.97999999970983,6.906216e-05
451.9949999997098,2.871547e-05,451.9949999997098,6.139704e-06,451.9949999997098,3.272242e-05,451.9949999997098,6.901442e-05
452.0099999997098,2.896312e-05,452.0099999997098,6.082075e-06,452.0099999997098,3.261419e-05,452.0099999997098,6.79462e-05
452.0249999997098,2.895485e-05,452.0249999997098,6.214957e-06,452.0249999997098,3.298526e-05,452.0249999997098,6.871966e-05
452.0399999997098,2.871547e-05,452.0399999997098,6.091332e-06,452.0399999997098,3.314162e-05,452.0399999997098,6.76751e-05
452.05499999970976,2.64228e-05,452.05499999970976,6.125922e-06,452.05499999970976,3.343993e-05,452.05499999970976,6.865732e-05
452.06999999970975,2.58117e-05,452.06999999970975,5.729046e-06,452.06999999970975,3.552263e-05,452.06999999970975,6.907542e-05
452.08499999970974,2.393132e-05,452.08499999970974,5.770695e-06,452.08499999970974,3.597891e-05,452.08499999970974,6.869424e-05
452.0999999997097,2.505793e-05,452.0999999997097,5.159829e-06,452.0999999997097,3.620489e-05,452.0999999997097,6.848187e-05
452.1149999997097,2.445996e-05,452.1149999997097,5.057808e-06,452.1149999997097,3.625116e-05,452.1149999997097,6.782999e-05
452.1299999997097,2.48065e-05,452.1299999997097,5.159829e-06,452.1299999997097,3.574834e-05,452.1299999997097,6.825544e-05
452.1449999997097,2.423199e-05,452.1449999997097,5.118714e-06,452.1449999997097,3.638769e-05,452.1449999997097,6.764637e-05
452.15999999970967,2.408447e-05,452.15999999970967,5.055022e-06,452.15999999970967,3.777168e-05,452.15999999970967,6.761534e-05
452.17499999970966,2.356056e-05,452.17499999970966,4.970719e-06,452.17499999970966,3.610281e-05,452.17499999970966,6.63064e-05
452.18999999970964,2.370065e-05,452.18999999970964,5.536481e-06,452.18999999970964,3.635864e-05,452.18999999970964,6.664397e-05
452.2049999997096,2.335036e-05,452.2049999997096,5.804769e-06,452.2049999997096,3.645074e-05,452.2049999997096,6.617476e-05
452.2199999997096,2.366496e-05,452.2199999997096,6.040241e-06,452.2199999997096,3.765364e-05,452.2199999997096,6.652592e-05
452.2349999997096,2.366377e-05,452.2349999997096,5.931993e-06,452.2349999997096,4.353545e-05,452.2349999997096,6.65691e-05
452.2499999997096,2.367031e-05,452.2499999997096,5.696992e-06,452.2499999997096,4.391528e-05,452.2499999997096,6.72154e-05
452.2649999997096,2.280651e-05,452.2649999997096,6.105191e-06,452.2649999997096,4.494099e-05,452.2649999997096,6.732533e-05
452.27999999970956,2.324879e-05,452.27999999970956,5.95096e-06,452.27999999970956,4.392009e-05,452.27999999970956,6.790015e-05
452.29499999970955,2.271057e-05,452.29499999970955,6.16489e-06,452.29499999970955,4.434461e-05,452.29499999970955,6.636458e-05
452.30999999970953,2.295058e-05,452.30999999970953,6.141998e-06,452.30999999970953,4.37974e-05,452.30999999970953,6.32344e-05
452.3249999997095,2.285217e-05,452.3249999997095,6.139704e-06,452.3249999997095,4.314509e-05,452.3249999997095,6.369674e-05
452.3399999997095,2.270002e-05,452.3399999997095,6.116717e-06,452.3399999997095,4.597476e-05,452.3399999997095,6.142686e-05
452.3549999997095,2.156912e-05,452.3549999997095,6.300498e-06,452.3549999997095,4.834757e-05,452.3549999997095,6.133391e-05
452.3699999997095,2.10716e-05,452.3699999997095,6.726546e-06,452.3699999997095,4.77728e-05,452.3699999997095,5.9921e-05
452.38499999970946,2.180426e-05,452.38499999970946,7.021637e-06,452.38499999970946,4.827351e-05,452.38499999970946,5.840599e-05
452.39999999970945,2.114434e-05,452.39999999970945,7.129148e-06,452.39999999970945,4.819028e-05,452.39999999970945,5.882799e-05
452.41499999970944,2.121683e-05,452.41499999970944,7.252564e-06,452.41499999970944,4.755942e-05,452.41499999970944,5.779452e-05
452.4299999997094,2.22791e-05,452.4299999997094,7.266147e-06,452.4299999997094,4.781259e-05,452.4299999997094,5.75696e-05
452.4449999997094,2.167206e-05,452.4449999997094,6.789081e-06,452.4449999997094,4.800429e-05,452.4449999997094,5.677896e-05
452.4599999997094,2.162326e-05,452.4599999997094,6.74119e-06,452.4599999997094,4.688375e-05,452.4599999997094,5.614626e-05
452.4749999997094,2.16024e-05,452.4749999997094,6.692956e-06,452.4749999997094,4.46561e-05,452.4749999997094,5.386575e-05
452.48999999970937,2.199722e-05,452.48999999970937,6.730734e-06,452.48999999970937,4.230833e-05,452.48999999970937,5.391646e-05
452.50499999970936,2.169739e-05,452.50499999970936,6.799448e-06,452.50499999970936,4.381926e-05,452.50499999970936,5.259737e-05
452.51999999970934,2.191574e-05,452.51999999970934,6.548272e-06,452.51999999970934,4.439795e-05,452.51999999970934,5.211766e-05
452.5349999997093,2.134129e-05,452.5349999997093,6.446372e-06,452.5349999997093,4.413861e-05,452.5349999997093,5.087051e-05
452.5499999997093,2.149322e-05,452.5499999997093,6.309435e-06,452.5499999997093,4.356585e-05,452.5499999997093,5.167576e-05
452.5649999997093,2.111834e-05,452.5649999997093,6.463831e-06,452.5649999997093,4.503586e-05,452.5649999997093,5.075879e-05
452.5799999997093,2.109298e-05,452.5799999997093,6.618881e-06,452.5799999997093,4.630936e-05,452.5799999997093,4.996413e-05
452.5949999997093,2.09731e-05,452.5949999997093,6.830453e-06,452.5949999997093,4.394061e-05,452.5949999997093,4.962011e-05
452.60999999970926,2.114034e-05,452.60999999970926,6.665538e-06,452.60999999970926,4.288474e-05,452.60999999970926,4.833971e-05
452.62499999970925,2.095832e-05,452.62499999970925,6.089019e-06,452.62499999970925,4.289755e-05,452.62499999970925,4.786353e-05
452.63999999970923,1.980905e-05,452.63999999970923,6.11211e-06,452.63999999970923,4.254142e-05,452.63999999970923,4.713457e-05
452.6549999997092,1.974566e-05,452.6549999997092,5.867525e-06,452.6549999997092,4.240611e-05,452.6549999997092,4.66062e-05
452.6699999997092,1.979056e-05,452.6699999997092,5.910582e-06,452.6699999997092,4.269875e-05,452.6699999997092,4.543664e-05
452.6849999997092,1.955642e-05,452.6849999997092,5.993417e-06,452.6849999997092,4.295498e-05,452.6849999997092,4.516922e-05
452.6999999997092,1.975779e-05,452.6999999997092,5.974584e-06,452.6999999997092,4.310099e-05,452.6999999997092,4.419984e-05
452.71499999970916,1.942995e-05,452.71499999970916,6.000464e-06,452.71499999970916,4.203878e-05,452.71499999970916,4.454398e-05
452.72999999970915,1.864336e-05,452.72999999970915,6.300498e-06,452.72999999970915,4.10912e-05,452.72999999970915,4.41319e-05
452.74499999970914,1.859418e-05,452.74499999970914,6.448557e-06,452.74499999970914,4.175163e-05,452.74499999970914,4.335322e-05
452.7599999997091,1.926833e-05,452.7599999997091,6.550423e-06,452.7599999997091,4.002457e-05,452.7599999997091,4.318654e-05
452.7749999997091,1.891416e-05,452.7749999997091,7.12124e-06,452.7749999997091,4.463212e-05,452.7749999997091,4.161612e-05
452.7899999997091,1.856309e-05,452.7899999997091,7.196016e-06,452.7899999997091,4.528509e-05,452.7899999997091,4.205754e-05
452.8049999997091,1.819829e-05,452.8049999997091,7.362442e-06,452.8049999997091,4.482172e-05,452.8049999997091,4.142171e-05
452.81999999970907,1.791825e-05,452.81999999970907,7.266147e-06,452.81999999970907,4.072723e-05,452.81999999970907,4.210574e-05
452.83499999970905,1.861614e-05,452.83499999970905,7.27777e-06,452.83499999970905,4.097206e-05,452.83499999970905,4.150936e-05
452.84999999970904,1.875335e-05,452.84999999970904,7.448044e-06,452.84999999970904,4.090014e-05,452.84999999970904,4.12619e-05
452.864999999709,1.869542e-05,452.864999999709,7.673483e-06,452.864999999709,4.138803e-05,452.864999999709,4.25348e-05
452.879999999709,1.830173e-05,452.879999999709,7.844146e-06,452.879999999709,4.213016e-05,452.879999999709,4.186316e-05
452.894999999709,1.896845e-05,452.894999999709,7.660622e-06,452.894999999709,4.2737e-05,452.894999999709,4.085156e-05
452.909999999709,1.879312e-05,452.909999999709,7.682656e-06,452.909999999709,4.27604e-05,452.909999999709,3.979514e-05
452.924999999709,1.933985e-05,452.924999999709,7.818965e-06,452.924999999709,4.050352e-05,452.924999999709,3.930254e-05
452.93999999970896,1.882981e-05,452.93999999970896,7.688155e-06,452.93999999970896,4.009138e-05,452.93999999970896,3.931365e-05
452.95499999970895,1.874959e-05,452.95499999970895,7.800928e-06,452.95499999970895,4.020996e-05,452.95499999970895,3.932583e-05
452.96999999970893,1.865695e-05,452.96999999970893,7.809951e-06,452.96999999970893,4.091013e-05,452.96999999970893,3.877208e-05
452.9849999997089,1.84084e-05,452.9849999997089,7.331766e-06,452.9849999997089,4.082948e-05,452.9849999997089,4.013949e-05
452.9999999997089,1.809739e-05,452.9999999997089,7.174451e-06,452.9999999997089,4.241474e-05,452.9999999997089,3.995517e-05
453.0149999997089,1.708108e-05,453.0149999997089,6.838698e-06,453.0149999997089,4.065383e-05,453.0149999997089,3.96142e-05
453.0299999997089,1.701912e-05,453.0299999997089,6.840758e-06,453.0299999997089,3.957791e-05,453.0299999997089,3.883307e-05
453.04499999970886,1.713543e-05,453.04499999970886,7.073606e-06,453.04499999970886,3.893596e-05,453.04499999970886,3.892836e-05
453.05999999970885,1.725095e-05,453.05999999970885,7.625604e-06,453.05999999970885,4.121408e-05,453.05999999970885,3.954124e-05
453.07499999970884,1.696855e-05,453.07499999970884,8.289442e-06,453.07499999970884,4.20495e-05,453.07499999970884,3.822138e-05
453.0899999997088,1.656868e-05,453.0899999997088,8.198881e-06,453.0899999997088,4.165198e-05,453.0899999997088,3.786033e-05
453.1049999997088,1.686697e-05,453.1049999997088,7.96002e-06,453.1049999997088,4.254606e-05,453.1049999997088,3.735014e-05
453.1199999997088,1.760098e-05,453.1199999997088,7.795508e-06,453.1199999997088,4.343632e-05,453.1199999997088,3.552144e-05
453.1349999997088,1.832788e-05,453.1349999997088,7.793701e-06,453.1349999997088,4.39813e-05,453.1349999997088,3.739198e-05
453.14999999970877,1.784025e-05,453.14999999970877,8.012934e-06,453.14999999970877,4.43643e-05,453.14999999970877,3.910995e-05
453.16499999970875,1.799278e-05,453.16499999970875,7.874616e-06,453.16499999970875,4.428899e-05,453.16499999970875,3.910419e-05
453.17999999970874,1.722316e-05,453.17999999970874,7.704628e-06,453.17999999970874,4.453638e-05,453.17999999970874,3.888672e-05
453.1949999997087,1.844968e-05,453.1949999997087,7.603404e-06,453.1949999997087,4.649606e-05,453.1949999997087,3.916394e-05
453.2099999997087,1.838236e-05,453.2099999997087,7.555081e-06,453.2099999997087,4.591344e-05,453.2099999997087,3.898585e-05
453.2249999997087,1.831711e-05,453.2249999997087,7.498936e-06,453.2249999997087,4.541958e-05,453.2249999997087,3.967993e-05
453.2399999997087,1.783314e-05,453.2399999997087,7.597844e-06,453.2399999997087,4.379611e-05,453.2399999997087,3.820737e-05
453.2549999997087,1.73649e-05,453.2549999997087,7.59599e-06,453.2549999997087,4.214688e-05,453.2549999997087,3.78406e-05
453.26999999970866,1.794496e-05,453.26999999970866,7.40822e-06,453.26999999970866,4.047464e-05,453.26999999970866,3.838724e-05
453.28499999970865,1.786471e-05,453.28499999970865,7.27777e-06,453.28499999970865,3.758324e-05,453.28499999970865,3.798329e-05
453.29999999970863,1.783393e-05,453.29999999970863,6.608231e-06,453.29999999970863,3.676818e-05,453.29999999970863,3.751759e-05
453.3149999997086,1.805531e-05,453.3149999997086,5.807196e-06,453.3149999997086,3.41667e-05,453.3149999997086,3.763942e-05
453.3299999997086,1.820835e-05,453.3299999997086,5.903427e-06,453.3299999997086,3.363776e-05,453.3299999997086,3.755287e-05
453.3449999997086,1.86713e-05,453.3449999997086,6.293787e-06,453.3449999997086,3.317603e-05,453.3449999997086,3.820737e-05
453.3599999997086,1.807246e-05,453.3599999997086,6.452925e-06,453.3599999997086,2.980163e-05,453.3599999997086,3.770897e-05
453.37499999970856,1.753683e-05,453.37499999970856,6.526725e-06,453.37499999970856,2.678287e-05,453.37499999970856,3.776906e-05
453.38999999970855,1.702408e-05,453.38999999970855,6.522406e-06,453.38999999970855,2.219358e-05,453.38999999970855,3.642638e-05
453.40499999970854,1.773651e-05,453.40499999970854,6.678206e-06,453.40499999970854,2.174344e-05,453.40499999970854,3.676971e-05
453.4199999997085,1.779598e-05,453.4199999997085,6.881819e-06,453.4199999997085,2.203177e-05,453.4199999997085,3.778696e-05
453.4349999997085,1.652271e-05,453.4349999997085,6.809799e-06,453.4349999997085,1.819133e-05,453.4349999997085,3.72648e-05
453.4499999997085,1.644323e-05,453.4499999997085,6.892046e-06,453.4499999997085,1.418202e-05,453.4499999997085,3.698439e-05
453.4649999997085,1.737382e-05,453.4649999997085,6.983416e-06,453.4649999997085,1.375135e-05,453.4649999997085,3.715919e-05
453.47999999970847,1.767764e-05,453.47999999970847,7.117283e-06,453.47999999970847,1.386256e-05,453.47999999970847,3.77754e-05
453.49499999970845,1.782366e-05,453.49499999970845,7.029658e-06,453.49499999970845,1.402722e-05,453.49499999970845,3.71497e-05
453.50999999970844,1.763536e-05,453.50999999970844,7.117283e-06,453.50999999970844,1.36382e-05,453.50999999970844,3.630126e-05
453.5249999997084,1.782445e-05,453.5249999997084,7.56626e-06,453.5249999997084,1.378e-05,453.5249999997084,3.73867e-05
453.5399999997084,1.826166e-05,453.5399999997084,7.474476e-06,453.5399999997084,1.381676e-05,453.5399999997084,3.831818e-05
453.5549999997084,1.843058e-05,453.5549999997084,7.449935e-06,453.5549999997084,1.343528e-05,453.5549999997084,4.165266e-05
453.5699999997084,1.915468e-05,453.5699999997084,7.34712e-06,453.5699999997084,1.29614e-05,453.5699999997084,4.500583e-05
453.5849999997084,1.877962e-05,453.5849999997084,6.944984e-06,453.5849999997084,1.269455e-05,453.5849999997084,4.806295e-05
453.59999999970836,1.86494e-05,453.59999999970836,6.774542e-06,453.59999999970836,1.286212e-05,453.59999999970836,5.165777e-05
453.61499999970835,1.835859e-05,453.61499999970835,6.625263e-06,453.61499999970835,1.348551e-05,453.61499999970835,6.822489e-05
453.62999999970833,1.895656e-05,453.62999999970833,6.965238e-06,453.62999999970833,1.391732e-05,453.62999999970833,8.764061e-05
453.6449999997083,1.906032e-05,453.6449999997083,6.601833e-06,453.6449999997083,1.425533e-05,453.6449999997083,0.0004294596
453.6599999997083,1.827939e-05,453.6599999997083,6.457289e-06,453.6599999997083,1.218266e-05,453.6599999997083,0.0006041282
453.6749999997083,1.884402e-05,453.6749999997083,6.444187e-06,453.6749999997083,1.231149e-05,453.6749999997083,0.0008434429
453.6899999997083,1.910829e-05,453.6899999997083,6.787006e-06,453.6899999997083,1.188178e-05,453.6899999997083,0.001173864
453.70499999970826,2.070541e-05,453.70499999970826,6.646491e-06,453.70499999970826,1.150472e-05,453.70499999970826,0.001375339
453.71999999970825,2.051335e-05,453.71999999970825,6.515924e-06,453.71999999970825,1.15974e-05,453.71999999970825,0.001687171
453.73499999970824,2.098451e-05,453.73499999970824,6.404719e-06,453.73499999970824,1.099893e-05,453.73499999970824,0.002153359
453.7499999997082,2.114434e-05,453.7499999997082,6.472542e-06,453.7499999997082,1.122584e-05,453.7499999997082,0.002222512
453.7649999997082,2.117097e-05,453.7649999997082,6.479067e-06,453.7649999997082,1.130586e-05,453.7649999997082,0.002238321
453.7799999997082,2.162326e-05,453.7799999997082,6.123622e-06,453.7799999997082,1.145932e-05,453.7799999997082,0.002411957
453.7949999997082,2.277684e-05,453.7949999997082,6.148874e-06,453.7949999997082,1.161924e-05,453.7949999997082,0.002518635
453.80999999970817,2.493056e-05,453.80999999970817,6.452925e-06,453.80999999970817,1.156212e-05,453.80999999970817,0.002590745
453.82499999970815,2.590757e-05,453.82499999970815,6.612493e-06,453.82499999970815,1.149001e-05,453.82499999970815,0.002704025
453.83999999970814,2.749092e-05,453.83999999970814,6.571893e-06,453.83999999970814,1.165676e-05,453.83999999970814,0.00295553
453.8549999997081,2.908833e-05,453.8549999997081,6.896133e-06,453.8549999997081,1.142855e-05,453.8549999997081,0.003090017
453.8699999997081,2.937985e-05,453.8699999997081,6.999535e-06,453.8699999997081,1.060775e-05,453.8699999997081,0.003094897
453.8849999997081,2.942345e-05,453.8849999997081,7.188182e-06,453.8849999997081,9.767037e-06,453.8849999997081,0.003114064
453.8999999997081,2.986066e-05,453.8999999997081,7.910313e-06,453.8999999997081,9.37104e-06,453.8999999997081,0.003101448
453.9149999997081,2.978745e-05,453.9149999997081,9.359006e-06,453.9149999997081,9.318279e-06,453.9149999997081,0.003085835
453.92999999970806,2.988612e-05,453.92999999970806,9.52757e-06,453.92999999970806,8.899176e-06,453.92999999970806,0.003000939
453.94499999970805,3.091571e-05,453.94499999970805,9.990908e-06,453.94499999970805,8.888089e-06,453.94499999970805,0.003000608
453.95999999970803,3.04025e-05,453.95999999970803,1.087658e-05,453.95999999970803,1.17746e-05,453.95999999970803,0.002929518
453.974999999708,3.083816e-05,453.974999999708,1.182474e-05,453.974999999708,1.210262e-05,453.974999999708,0.002803301
453.989999999708,3.04289e-05,453.989999999708,1.438322e-05,453.989999999708,1.308578e-05,453.989999999708,0.002530216
454.004999999708,3.062041e-05,454.004999999708,1.441941e-05,454.004999999708,1.381778e-05,454.004999999708,0.002500099
454.019999999708,3.063099e-05,454.019999999708,1.46568e-05,454.019999999708,1.391935e-05,454.019999999708,0.00247174
454.03499999970796,3.147744e-05,454.03499999970796,1.498284e-05,454.03499999970796,1.463757e-05,454.03499999970796,0.002319192
454.04999999970795,2.943446e-05,454.04999999970795,1.553309e-05,454.04999999970795,1.620245e-05,454.04999999970795,0.002261226
454.06499999970794,2.933907e-05,454.06499999970794,1.663825e-05,454.06499999970794,1.636078e-05,454.06499999970794,0.002122208
454.0799999997079,2.853783e-05,454.0799999997079,1.732754e-05,454.0799999997079,1.71732e-05,454.0799999997079,0.001972565
454.0949999997079,2.855954e-05,454.0949999997079,1.74539e-05,454.0949999997079,1.704558e-05,454.0949999997079,0.00180547
454.1099999997079,2.72888e-05,454.1099999997079,1.756974e-05,454.1099999997079,1.706953e-05,454.1099999997079,0.001693125
454.1249999997079,2.743758e-05,454.1249999997079,1.790095e-05,454.1249999997079,1.712967e-05,454.1249999997079,0.001697095
454.13999999970787,2.757125e-05,454.13999999970787,1.850762e-05,454.13999999970787,1.727135e-05,454.13999999970787,0.001729372
454.15499999970785,2.709973e-05,454.15499999970785,1.906844e-05,454.15499999970785,1.739326e-05,454.15499999970785,0.001710296
454.16999999970784,2.725574e-05,454.16999999970784,1.856765e-05,454.16999999970784,1.74046e-05,454.16999999970784,0.001710195
454.1849999997078,2.713401e-05,454.1849999997078,1.887987e-05,454.1849999997078,1.722807e-05,454.1849999997078,0.001684457
454.1999999997078,2.538744e-05,454.1999999997078,1.951387e-05,454.1999999997078,1.736003e-05,454.1999999997078,0.00151796
454.2149999997078,2.498079e-05,454.2149999997078,1.94922e-05,454.2149999997078,1.52752e-05,454.2149999997078,0.00138736
454.2299999997078,2.464585e-05,454.2299999997078,1.93464e-05,454.2299999997078,1.468945e-05,454.2299999997078,0.001245803
454.2449999997078,2.504725e-05,454.2449999997078,1.848248e-05,454.2449999997078,1.39153e-05,454.2449999997078,0.001265583
454.25999999970776,2.49571e-05,454.25999999970776,1.849696e-05,454.25999999970776,1.323031e-05,454.25999999970776,0.001265979
454.27499999970775,2.450944e-05,454.27499999970775,1.847562e-05,454.27499999970775,1.28358e-05,454.27499999970775,0.001278864
454.28999999970773,2.253935e-05,454.28999999970773,1.915689e-05,454.28999999970773,1.115029e-05,454.28999999970773,0.001259667
454.3049999997077,2.188744e-05,454.3049999997077,1.838236e-05,454.3049999997077,8.973265e-06,454.3049999997077,0.001193502
454.3199999997077,2.086198e-05,454.3199999997077,1.834478e-05,454.3199999997077,8.449338e-06,454.3199999997077,0.001187173
454.3349999997077,1.992534e-05,454.3349999997077,1.861235e-05,454.3349999997077,7.164627e-06,454.3349999997077,0.001173089
454.3499999997077,1.89149e-05,454.3499999997077,2.05949e-05,454.3499999997077,7.025649e-06,454.3499999997077,0.0008178948
454.36499999970766,1.992392e-05,454.36499999970766,2.079841e-05,454.36499999970766,7.053663e-06,454.36499999970766,0.0008402938
454.37999999970765,1.953119e-05,454.37999999970765,2.040318e-05,454.37999999970765,7.117283e-06,454.37999999970765,0.0007915614
