X[s],a: EMG RMS 1-1,X[s].1,a: EMG RMS 1-2,X[s].2,a: EMG RMS 1-3,X[s].3,a: EMG RMS 1-4
295.0049999998526,3.296091e-05,295.0049999998526,5.53139e-06,295.0049999998526,7.451826e-06,295.0049999998526,0.0007767912
295.0199999998526,3.290787e-05,295.0199999998526,5.556798e-06,295.0199999998526,7.466933e-06,295.0199999998526,0.0007849652
295.0349999998526,3.205701e-05,295.0349999998526,5.526294e-06,295.0349999998526,7.474476e-06,295.0349999998526,0.0007790247
295.04999999985256,3.208951e-05,295.04999999985256,5.472503e-06,295.04999999985256,7.744747e-06,295.04999999985256,0.0008244633
295.06499999985255,3.133705e-05,295.06499999985255,5.459618e-06,295.06499999985255,7.513949e-06,295.06499999985255,0.0008325708
295.07999999985253,3.125784e-05,295.07999999985253,5.627332e-06,295.07999999985253,7.325999e-06,295.07999999985253,0.0008427041
295.0949999998525,3.060339e-05,295.0949999998525,5.587136e-06,295.0949999998525,7.229218e-06,295.0949999998525,0.0008439812
295.1099999998525,2.965854e-05,295.1099999998525,5.425972e-06,295.1099999998525,7.394897e-06,295.1099999998525,0.000838079
295.1249999998525,2.999433e-05,295.1249999998525,5.493057e-06,295.1249999998525,7.354785e-06,295.1249999998525,0.0008423089
295.1399999998525,2.983187e-05,295.1399999998525,5.526294e-06,295.1399999998525,7.364355e-06,295.1399999998525,0.0008512975
295.15499999985246,2.96875e-05,295.15499999985246,5.472503e-06,295.15499999985246,7.256447e-06,295.15499999985246,0.0008398268
295.16999999985245,2.921204e-05,295.16999999985245,5.457037e-06,295.16999999985245,7.215565e-06,295.16999999985245,0.0008459951
295.18499999985244,2.903064e-05,295.18499999985244,5.464775e-06,295.18499999985244,7.12124e-06,295.18499999985244,0.0008569402
295.1999999998524,2.927081e-05,295.1999999998524,5.523745e-06,295.1999999998524,7.442368e-06,295.1999999998524,0.0008497324
295.2149999998524,2.880608e-05,295.2149999998524,6.026232e-06,295.2149999998524,7.549485e-06,295.2149999998524,0.0008649782
295.2299999998524,2.971311e-05,295.2299999998524,6.282586e-06,295.2299999998524,7.480127e-06,295.2299999998524,0.001009608
295.2449999998524,3.09107e-05,295.2449999998524,6.302733e-06,295.2449999998524,7.757469e-06,295.2449999998524,0.001045894
295.25999999985237,3.054395e-05,295.25999999985237,6.16489e-06,295.25999999985237,7.702799e-06,295.25999999985237,0.001119147
295.27499999985235,3.058819e-05,295.27499999985235,6.079758e-06,295.27499999985235,7.896054e-06,295.27499999985235,0.001117623
295.28999999985234,3.107478e-05,295.28999999985234,6.109804e-06,295.28999999985234,8.135063e-06,295.28999999985234,0.001138209
295.3049999998523,3.017834e-05,295.3049999998523,5.991066e-06,295.3049999998523,7.781039e-06,295.3049999998523,0.00108753
295.3199999998523,3.052734e-05,295.3199999998523,6.047233e-06,295.3199999998523,7.867457e-06,295.3199999998523,0.001085506
295.3349999998523,3.02082e-05,295.3349999998523,5.896265e-06,295.3349999998523,8.056763e-06,295.3349999998523,0.001112024
295.3499999998523,2.96267e-05,295.3499999998523,5.860319e-06,295.3499999998523,7.833364e-06,295.3499999998523,0.001111226
295.3649999998523,3.032874e-05,295.3649999998523,6.08439e-06,295.3649999998523,7.808148e-06,295.3649999998523,0.00111048
295.37999999985226,2.99012e-05,295.37999999985226,5.986361e-06,295.37999999985226,7.822567e-06,295.37999999985226,0.001095915
295.39499999985225,3.010777e-05,295.39499999985225,5.948592e-06,295.39499999985225,7.926324e-06,295.39499999985225,0.001097849
295.40999999985223,2.97969e-05,295.40999999985223,6.044903e-06,295.40999999985223,8.140256e-06,295.40999999985223,0.001079685
295.4249999998522,2.942584e-05,295.4249999998522,6.135114e-06,295.4249999998522,8.012934e-06,295.4249999998522,0.001079057
295.4399999998522,2.933427e-05,295.4399999998522,5.917727e-06,295.4399999998522,7.947621e-06,295.4399999998522,0.001064632
295.4549999998522,2.875567e-05,295.4549999998522,5.709342e-06,295.4549999998522,7.817162e-06,295.4549999998522,0.001056517
295.4699999998522,2.829741e-05,295.4699999998522,5.526294e-06,295.4699999998522,7.766543e-06,295.4699999998522,0.001043315
295.48499999985216,2.610636e-05,295.48499999985216,5.313164e-06,295.48499999985216,7.70097e-06,295.48499999985216,0.0008979978
295.49999999985215,2.52059e-05,295.49999999985215,5.259872e-06,295.49999999985215,7.582997e-06,295.49999999985215,0.0008537472
295.51499999985214,2.52595e-05,295.51499999985214,5.462197e-06,295.51499999985214,7.480127e-06,295.51499999985214,0.0006990206
295.5299999998521,2.537912e-05,295.5299999998521,5.438937e-06,295.5299999998521,7.00758e-06,295.5299999998521,0.0006705035
295.5449999998521,2.487059e-05,295.5449999998521,5.860319e-06,295.5449999998521,6.957143e-06,295.5449999998521,0.0006673104
295.5599999998521,2.48241e-05,295.5599999998521,5.912964e-06,295.5599999998521,7.12124e-06,295.5599999998521,0.0006534577
295.5749999998521,2.442077e-05,295.5749999998521,5.953326e-06,295.5749999998521,7.019631e-06,295.5749999998521,0.0006533082
295.58999999985207,2.419417e-05,295.58999999985207,5.905813e-06,295.58999999985207,7.061647e-06,295.58999999985207,0.0006348765
295.60499999985205,2.401242e-05,295.60499999985205,5.986361e-06,295.60499999985205,7.1921e-06,295.60499999985205,0.000627177
295.61999999985204,2.342204e-05,295.61999999985204,5.848288e-06,295.61999999985204,7.231167e-06,295.61999999985204,0.0006218348
295.634999999852,2.350189e-05,295.634999999852,5.790191e-06,295.634999999852,7.354785e-06,295.634999999852,0.0006197421
295.649999999852,2.327422e-05,295.649999999852,5.896265e-06,295.649999999852,7.087532e-06,295.649999999852,0.0006127641
295.664999999852,2.375111e-05,295.664999999852,5.741327e-06,295.664999999852,7.258388e-06,295.664999999852,0.0006093227
295.679999999852,2.389126e-05,295.679999999852,5.709342e-06,295.679999999852,7.312527e-06,295.679999999852,0.000608141
295.694999999852,2.363041e-05,295.694999999852,5.721665e-06,295.694999999852,7.085544e-06,295.694999999852,0.0005974395
295.70999999985196,2.375526e-05,295.70999999985196,5.612292e-06,295.70999999985196,7.392992e-06,295.70999999985196,0.0005914976
295.72499999985195,2.389598e-05,295.72499999985195,5.587136e-06,295.72499999985195,7.075597e-06,295.72499999985195,0.0005965002
295.73999999985193,2.414697e-05,295.73999999985193,5.597212e-06,295.73999999985193,7.41962e-06,295.73999999985193,0.0005930397
295.7549999998519,2.391778e-05,295.7549999998519,5.614802e-06,295.7549999998519,7.343284e-06,295.7549999998519,0.0005868893
295.7699999998519,2.427149e-05,295.7699999998519,5.441526e-06,295.7699999998519,7.775606e-06,295.7699999998519,0.000590763
295.7849999998519,2.399598e-05,295.7849999998519,5.521194e-06,295.7849999998519,7.826167e-06,295.7849999998519,0.0005784823
295.7999999998519,2.441904e-05,295.7999999998519,5.162558e-06,295.7999999998519,7.682656e-06,295.7999999998519,0.0005696653
295.81499999985186,2.41493e-05,295.81499999985186,5.107694e-06,295.81499999985186,7.689987e-06,295.81499999985186,0.0005681869
295.82999999985185,2.399716e-05,295.82999999985185,5.088352e-06,295.82999999985185,7.337527e-06,295.82999999985185,0.0005600199
295.84499999985184,2.420582e-05,295.84499999985184,5.093886e-06,295.84499999985184,7.30096e-06,295.84499999985184,0.0005733332
295.8599999998518,2.372441e-05,295.8599999998518,5.189773e-06,295.8599999998518,7.123218e-06,295.8599999998518,0.000559903
295.8749999998518,2.445881e-05,295.8749999998518,5.230329e-06,295.8749999998518,6.910417e-06,295.8749999998518,0.000607634
295.8899999998518,2.399481e-05,295.8899999998518,5.091119e-06,295.8899999998518,6.745368e-06,295.8899999998518,0.0006070607
295.9049999998518,2.437689e-05,295.9049999998518,5.032679e-06,295.9049999998518,6.633762e-06,295.9049999998518,0.0006033113
295.91999999985177,2.489663e-05,295.91999999985177,4.942298e-06,295.91999999985177,6.563313e-06,295.91999999985177,0.0006112068
295.93499999985175,2.781186e-05,295.93499999985175,5.294573e-06,295.93499999985175,7.442368e-06,295.93499999985175,0.0007312711
295.94999999985174,2.770631e-05,295.94999999985174,5.052234e-06,295.94999999985174,7.375824e-06,295.94999999985174,0.00073446
295.9649999998517,2.824509e-05,295.9649999998517,5.046655e-06,295.9649999998517,7.686323e-06,295.9649999998517,0.0007420849
295.9799999998517,2.814217e-05,295.9799999998517,5.352786e-06,295.9799999998517,7.913874e-06,295.9799999998517,0.0007527107
295.9949999998517,2.80725e-05,295.9949999998517,5.315815e-06,295.9949999998517,7.412022e-06,295.9949999998517,0.000752927
296.0099999998517,2.825407e-05,296.0099999998517,5.28392e-06,296.0099999998517,7.741108e-06,296.0099999998517,0.0007662173
296.0249999998517,2.798958e-05,296.0249999998517,5.176183e-06,296.0249999998517,7.59599e-06,296.0249999998517,0.0007784893
296.03999999985166,2.804389e-05,296.03999999985166,5.208738e-06,296.03999999985166,7.59228e-06,296.03999999985166,0.0007745498
296.05499999985165,2.812464e-05,296.05499999985165,5.203327e-06,296.05499999985165,7.782849e-06,296.05499999985165,0.0007809005
296.06999999985163,2.863589e-05,296.06999999985163,5.251831e-06,296.06999999985163,8.065501e-06,296.06999999985163,0.0007851563
296.0849999998516,2.857137e-05,296.0849999998516,5.151632e-06,296.0849999998516,8.095138e-06,296.0849999998516,0.0007787247
296.0999999998516,2.873459e-05,296.0999999998516,5.743781e-06,296.0999999998516,8.138525e-06,296.0999999998516,0.0007685683
296.1149999998516,2.858074e-05,296.1149999998516,5.765811e-06,296.1149999998516,8.141986e-06,296.1149999998516,0.0007659713
296.1299999998516,2.819967e-05,296.1299999998516,5.824151e-06,296.1299999998516,8.167896e-06,296.1299999998516,0.0007487023
296.14499999985156,2.820716e-05,296.14499999985156,5.841057e-06,296.14499999985156,8.274134e-06,296.14499999985156,0.0007459027
296.15999999985155,2.813516e-05,296.15999999985155,5.915346e-06,296.15999999985155,8.345331e-06,296.15999999985155,0.0007479818
296.17499999985154,2.579532e-05,296.17499999985154,5.804769e-06,296.17499999985154,8.005899e-06,296.17499999985154,0.0007191043
296.1899999998515,2.419359e-05,296.1899999998515,5.619817e-06,296.1899999998515,7.564397e-06,296.1899999998515,0.0006692652
296.2049999998515,2.514379e-05,296.2049999998515,5.758477e-06,296.2049999998515,7.675319e-06,296.2049999998515,0.0006665308
296.2199999998515,2.486493e-05,296.2199999998515,5.848288e-06,296.2199999998515,7.3567e-06,296.2199999998515,0.0006933767
296.2349999998515,2.504162e-05,296.2349999998515,5.819312e-06,296.2349999998515,7.184261e-06,296.2349999998515,0.0006805565
296.24999999985147,2.501461e-05,296.24999999985147,5.768253e-06,296.24999999985147,7.415822e-06,296.24999999985147,0.0006712064
296.26499999985145,2.481559e-05,296.26499999985145,5.891484e-06,296.26499999985145,6.951067e-06,296.26499999985145,0.0006698554
296.27999999985144,2.462011e-05,296.27999999985144,5.903427e-06,296.27999999985144,6.671875e-06,296.27999999985144,0.0006658842
296.2949999998514,2.453471e-05,296.2949999998514,5.778013e-06,296.2949999998514,6.563313e-06,296.2949999998514,0.0006651541
296.3099999998514,2.435723e-05,296.3099999998514,5.790191e-06,296.3099999998514,6.176305e-06,296.3099999998514,0.0006574405
296.3249999998514,2.390187e-05,296.3249999998514,5.699464e-06,296.3249999998514,6.014533e-06,296.3249999998514,0.0006329197
296.3399999998514,2.402532e-05,296.3399999998514,5.81689e-06,296.3399999998514,5.965146e-06,296.3399999998514,0.0006362609
296.3549999998514,2.358506e-05,296.3549999998514,4.982041e-06,296.3549999998514,6.075122e-06,296.3549999998514,0.000628486
296.36999999985136,2.35982e-05,296.36999999985136,5.043863e-06,296.36999999985136,6.730734e-06,296.36999999985136,0.0006166095
296.38499999985135,2.374399e-05,296.38499999985135,4.916579e-06,296.38499999985135,6.791156e-06,296.38499999985135,0.0006195737
296.39999999985133,2.329056e-05,296.39999999985133,4.79767e-06,296.39999999985133,6.938897e-06,296.39999999985133,0.0006093964
296.4149999998513,2.312424e-05,296.4149999998513,4.812329e-06,296.4149999998513,7.105398e-06,296.4149999998513,0.0006123942
296.4299999998513,2.313094e-05,296.4299999998513,4.708762e-06,296.4299999998513,7.258388e-06,296.4299999998513,0.0005961339
296.4449999998513,2.187521e-05,296.4449999998513,4.73561e-06,296.4449999998513,7.219469e-06,296.4449999998513,0.0005422735
296.4599999998513,2.164735e-05,296.4599999998513,4.645514e-06,296.4599999998513,7.197973e-06,296.4599999998513,0.0005139477
296.47499999985126,2.149585e-05,296.47499999985126,4.581393e-06,296.47499999985126,7.352869e-06,296.47499999985126,0.0004400943
296.48999999985125,2.155736e-05,296.48999999985125,4.663672e-06,296.48999999985125,7.513949e-06,296.48999999985125,0.0004330648
296.50499999985124,2.186103e-05,296.50499999985124,4.605925e-06,296.50499999985124,7.56626e-06,296.50499999985124,0.0004397131
296.5199999998512,2.171427e-05,296.5199999998512,4.648545e-06,296.5199999998512,7.71011e-06,296.5199999998512,0.0004208983
296.5349999998512,2.147224e-05,296.5349999998512,4.850233e-06,296.5349999998512,8.058511e-06,296.5349999998512,0.0004290839
296.5499999998512,2.143153e-05,296.5499999998512,4.884961e-06,296.5499999998512,8.188566e-06,296.5499999998512,0.0004278107
296.5649999998512,2.135119e-05,296.5649999998512,4.922306e-06,296.5649999998512,8.231461e-06,296.5649999998512,0.0004261808
296.57999999985117,2.119092e-05,296.57999999985117,4.873412e-06,296.57999999985117,8.174792e-06,296.57999999985117,0.0004292376
296.59499999985115,2.139403e-05,296.59499999985115,5.027078e-06,296.59499999985115,8.336888e-06,296.59499999985115,0.000431128
296.60999999985114,2.113901e-05,296.60999999985114,5.176183e-06,296.60999999985114,8.195444e-06,296.60999999985114,0.0004345314
296.6249999998511,2.102408e-05,296.6249999998511,5.137942e-06,296.6249999998511,8.063755e-06,296.6249999998511,0.0004421365
296.6399999998511,2.074484e-05,296.6399999998511,5.113207e-06,296.6399999998511,7.732004e-06,296.6399999998511,0.0004382364
296.6549999998511,2.134525e-05,296.6549999998511,5.200618e-06,296.6549999998511,7.854914e-06,296.6549999998511,0.0004391908
296.6699999998511,2.133733e-05,296.6699999998511,5.187057e-06,296.6699999998511,7.625604e-06,296.6699999998511,0.0004380369
296.6849999998511,2.187134e-05,296.6849999998511,5.420777e-06,296.6849999998511,7.436688e-06,296.6849999998511,0.0004316334
296.69999999985106,2.177452e-05,296.69999999985106,5.373798e-06,296.69999999985106,7.360529e-06,296.69999999985106,0.000429347
296.71499999985105,2.238193e-05,296.71499999985105,5.462197e-06,296.71499999985105,7.343284e-06,296.71499999985105,0.000430585
296.72999999985103,2.212874e-05,296.72999999985103,5.157098e-06,296.72999999985103,7.04567e-06,296.72999999985103,0.0004263973
296.744999999851,2.238318e-05,296.744999999851,5.187057e-06,296.744999999851,7.033664e-06,296.744999999851,0.0004256812
296.759999999851,2.210518e-05,296.759999999851,5.270573e-06,296.759999999851,6.707672e-06,296.759999999851,0.0004195794
296.774999999851,2.229996e-05,296.774999999851,5.107694e-06,296.774999999851,6.417902e-06,296.774999999851,0.0004167261
296.789999999851,2.243285e-05,296.789999999851,5.093886e-06,296.789999999851,6.591156e-06,296.789999999851,0.0004120001
296.80499999985096,2.218977e-05,296.80499999985096,5.577042e-06,296.80499999985096,6.457289e-06,296.80499999985096,0.0004007342
296.81999999985095,2.23643e-05,296.81999999985095,5.582091e-06,296.81999999985095,6.533196e-06,296.81999999985095,0.0004017322
296.83499999985094,2.231006e-05,296.83499999985094,5.614802e-06,296.83499999985094,6.565459e-06,296.83499999985094,0.0003963106
296.8499999998509,2.251371e-05,296.8499999998509,5.696992e-06,296.8499999998509,6.787006e-06,296.8499999998509,0.0003961007
296.8649999998509,2.30663e-05,296.8649999998509,5.731505e-06,296.8649999998509,6.433248e-06,296.8649999998509,0.0003990124
296.8799999998509,2.274156e-05,296.8799999998509,5.773135e-06,296.8799999998509,6.398117e-06,296.8799999998509,0.0003967054
296.8949999998509,2.261671e-05,296.8949999998509,5.797484e-06,296.8949999998509,6.185421e-06,296.8949999998509,0.0003932207
296.90999999985087,2.268636e-05,296.90999999985087,5.704405e-06,296.90999999985087,6.037908e-06,296.90999999985087,0.0004071133
296.92499999985085,2.279909e-05,296.92499999985085,5.790191e-06,296.92499999985085,6.515924e-06,296.92499999985085,0.0004232604
296.93999999985084,2.270126e-05,296.93999999985084,5.753582e-06,296.93999999985084,6.582601e-06,296.93999999985084,0.0004281443
296.9549999998508,2.415338e-05,296.9549999998508,6.102884e-06,296.9549999998508,7.085544e-06,296.9549999998508,0.0005169143
296.9699999998508,2.366436e-05,296.9699999998508,6.06584e-06,296.9699999998508,7.15282e-06,296.9699999998508,0.0005520637
296.9849999998508,2.42221e-05,296.9849999998508,6.246608e-06,296.9849999998508,7.513949e-06,296.9849999998508,0.0005543987
296.9999999998508,2.395368e-05,296.9999999998508,6.42229e-06,296.9999999998508,8.185125e-06,296.9999999998508,0.0005763035
297.0149999998508,2.362027e-05,297.0149999998508,6.391509e-06,297.0149999998508,8.250264e-06,297.0149999998508,0.0005774312
297.02999999985076,2.361848e-05,297.02999999985076,6.437625e-06,297.02999999985076,8.326743e-06,297.02999999985076,0.000588019
297.04499999985075,2.32215e-05,297.04499999985075,6.307202e-06,297.04499999985075,8.143716e-06,297.04499999985075,0.0005865146
297.05999999985073,2.34671e-05,297.05999999985073,5.929618e-06,297.05999999985073,8.167896e-06,297.05999999985073,0.0005928939
297.0749999998507,2.338412e-05,297.0749999998507,6.107498e-06,297.0749999998507,8.049767e-06,297.0749999998507,0.0005960274
297.0899999998507,2.34941e-05,297.0899999998507,6.262374e-06,297.0899999998507,8.056763e-06,297.0899999998507,0.0006128635
297.1049999998507,2.301923e-05,297.1049999998507,6.100575e-06,297.1049999998507,7.771981e-06,297.1049999998507,0.000613592
297.1199999998507,2.266711e-05,297.1199999998507,6.11211e-06,297.1199999998507,7.97593e-06,297.1199999998507,0.0006331801
297.13499999985066,2.35462e-05,297.13499999985066,6.183143e-06,297.13499999985066,8.138525e-06,297.13499999985066,0.000675439
297.14999999985065,2.406691e-05,297.14999999985065,6.48993e-06,297.14999999985065,8.328435e-06,297.14999999985065,0.0007173426
297.16499999985064,2.359342e-05,297.16499999985064,6.550423e-06,297.16499999985064,8.395818e-06,297.16499999985064,0.0007328308
297.1799999998506,2.373391e-05,297.1799999998506,6.559019e-06,297.1799999998506,8.209184e-06,297.1799999998506,0.0007273238
297.1949999998506,2.21866e-05,297.1949999998506,6.4921e-06,297.1949999998506,8.067247e-06,297.1949999998506,0.0007433063
297.2099999998506,2.148208e-05,297.2099999998506,6.169459e-06,297.2099999998506,7.779228e-06,297.2099999998506,0.0007113433
297.2249999998506,2.121883e-05,297.2249999998506,6.169459e-06,297.2249999998506,7.515824e-06,297.2249999998506,0.000675923
297.23999999985057,2.105287e-05,297.23999999985057,6.061194e-06,297.23999999985057,7.532673e-06,297.23999999985057,0.0006830363
297.25499999985055,2.06666e-05,297.25499999985055,5.746233e-06,297.25499999985055,6.867475e-06,297.25499999985055,0.0006688567
297.26999999985054,2.099793e-05,297.26999999985054,5.831403e-06,297.26999999985054,6.665538e-06,297.26999999985054,0.0006713405
297.2849999998505,2.070881e-05,297.2849999998505,5.758477e-06,297.2849999998505,6.426676e-06,297.2849999998505,0.0006656133
297.2999999998505,2.066387e-05,297.2999999998505,5.746233e-06,297.2999999998505,6.556871e-06,297.2999999998505,0.0006655174
297.3149999998505,2.01922e-05,297.3149999998505,5.721665e-06,297.3149999998505,6.569749e-06,297.3149999998505,0.0006673848
297.3299999998505,2.007676e-05,297.3299999998505,5.294573e-06,297.3299999998505,6.48993e-06,297.3299999998505,0.0006556372
297.3449999998505,2.04087e-05,297.3449999998505,5.350154e-06,297.3449999998505,6.325044e-06,297.3449999998505,0.0006471688
297.35999999985046,2.019499e-05,297.35999999985046,5.475077e-06,297.35999999985046,6.135114e-06,297.35999999985046,0.0006442473
297.37499999985044,2.000929e-05,297.37499999985044,5.444114e-06,297.37499999985044,6.167175e-06,297.37499999985044,0.0005962228
297.38999999985043,1.791982e-05,297.38999999985043,5.251831e-06,297.38999999985043,6.035575e-06,297.38999999985043,0.000557393
297.4049999998504,1.81075e-05,297.4049999998504,5.007424e-06,297.4049999998504,5.943854e-06,297.4049999998504,0.0005086222
297.4199999998504,1.742886e-05,297.4199999998504,4.847328e-06,297.4199999998504,5.574516e-06,297.4199999998504,0.0004808071
297.4349999998504,1.745229e-05,297.4349999998504,4.826943e-06,297.4349999998504,5.438937e-06,297.4349999998504,0.0004721062
297.4499999998504,1.747003e-05,297.4499999998504,4.690778e-06,297.4499999998504,5.326404e-06,297.4499999998504,0.0004403358
297.46499999985036,1.721335e-05,297.46499999985036,4.687774e-06,297.46499999985036,5.599728e-06,297.46499999985036,0.0004215471
297.47999999985035,1.766728e-05,297.47999999985035,4.732634e-06,297.47999999985035,5.397339e-06,297.47999999985035,0.0004285695
297.49499999985034,1.763695e-05,297.49499999985034,4.762306e-06,297.49499999985034,5.614802e-06,297.49499999985034,0.0004095485
297.5099999998503,1.81859e-05,297.5099999998503,4.717728e-06,297.5099999998503,5.821732e-06,297.5099999998503,0.0003981221
297.5249999998503,1.770312e-05,297.5249999998503,4.624239e-06,297.5249999998503,5.898653e-06,297.5249999998503,0.0004015292
297.5399999998503,1.802329e-05,297.5399999998503,4.642481e-06,297.5399999998503,6.023894e-06,297.5399999998503,0.0004182806
297.5549999998503,1.830942e-05,297.5549999998503,4.663672e-06,297.5549999998503,5.943854e-06,297.5549999998503,0.0004196181
297.56999999985027,1.911493e-05,297.56999999985027,4.642481e-06,297.56999999985027,5.862722e-06,297.56999999985027,0.0004471371
297.58499999985025,2.013002e-05,297.58499999985025,4.723696e-06,297.58499999985025,6.237581e-06,297.58499999985025,0.0004871778
297.59999999985024,2.524444e-05,297.59999999985024,5.632336e-06,297.59999999985024,8.002378e-06,297.59999999985024,0.0007657832
297.6149999998502,2.578931e-05,297.6149999998502,5.472503e-06,297.6149999998502,7.968863e-06,297.6149999998502,0.000919823
297.6299999998502,2.709973e-05,297.6299999998502,5.797484e-06,297.6299999998502,8.440998e-06,297.6299999998502,0.0009143803
297.6449999998502,2.819567e-05,297.6449999998502,5.910582e-06,297.6449999998502,8.373978e-06,297.6449999998502,0.0009390101
297.6599999998502,2.792105e-05,297.6599999998502,5.922486e-06,297.6599999998502,8.425965e-06,297.6599999998502,0.0009587893
297.6749999998502,2.840969e-05,297.6749999998502,5.893875e-06,297.6749999998502,8.632413e-06,297.6749999998502,0.0009709562
297.68999999985016,2.875126e-05,297.68999999985016,5.763367e-06,297.68999999985016,9.20267e-06,297.68999999985016,0.0009786214
297.70499999985014,2.88227e-05,297.70499999985014,5.826569e-06,297.70499999985014,9.291028e-06,297.70499999985014,0.0009776694
297.71999999985013,2.907719e-05,297.71999999985013,5.804769e-06,297.71999999985013,9.225602e-06,297.71999999985013,0.0009751681
297.7349999998501,2.938896e-05,297.7349999998501,5.917727e-06,297.7349999998501,9.10263e-06,297.7349999998501,0.0009733337
297.7499999998501,2.942632e-05,297.7499999998501,6.132817e-06,297.7499999998501,9.188883e-06,297.7499999998501,0.0009672411
297.7649999998501,2.944881e-05,297.7649999998501,6.132817e-06,297.7649999998501,9.357501e-06,297.7649999998501,0.0009742579
297.7799999998501,2.95753e-05,297.7799999998501,6.167175e-06,297.7799999998501,9.420515e-06,297.7799999998501,0.0009842301
297.79499999985006,2.911108e-05,297.79499999985006,6.06584e-06,297.79499999985006,9.456335e-06,297.79499999985006,0.0009759654
297.80999999985005,2.888031e-05,297.80999999985005,6.06584e-06,297.80999999985005,9.453355e-06,297.80999999985005,0.0009802254
297.82499999985004,2.879581e-05,297.82499999985004,6.155743e-06,297.82499999985004,9.430977e-06,297.82499999985004,0.000965133
297.83999999985,2.482978e-05,297.83999999985,5.986361e-06,297.83999999985,9.020237e-06,297.83999999985,0.000912493
297.85499999985,2.331353e-05,297.85499999985,6.049562e-06,297.85499999985,8.110784e-06,297.85499999985,0.0006476387
297.86999999985,2.10716e-05,297.86999999985,6.402519e-06,297.86999999985,7.840554e-06,297.86999999985,0.0005088064
297.88499999985,2.036655e-05,297.88499999985,6.515924e-06,297.88499999985,7.786468e-06,297.88499999985,0.0005084882
297.89999999984997,1.996136e-05,297.89999999984997,7.335607e-06,297.89999999984997,7.93343e-06,297.89999999984997,0.0005001698
297.91499999984995,2.00564e-05,297.91499999984995,7.519571e-06,297.91499999984995,7.878193e-06,297.91499999984995,0.000468008
297.92999999984994,1.941327e-05,297.92999999984994,7.655103e-06,297.92999999984994,7.463159e-06,297.92999999984994,0.0004382474
297.9449999998499,1.924858e-05,297.9449999998499,7.952937e-06,297.9449999998499,7.146909e-06,297.9449999998499,0.0004444905
297.9599999998499,1.947413e-05,297.9599999998499,7.926324e-06,297.9599999998499,7.035667e-06,297.9599999998499,0.0004451237
297.9749999998499,1.870371e-05,297.9749999998499,8.000618e-06,297.9749999998499,7.075597e-06,297.9749999998499,0.0004447548
297.9899999998499,1.908395e-05,297.9899999998499,7.881768e-06,297.9899999998499,6.924671e-06,297.9899999998499,0.0004502589
298.0049999998499,1.903665e-05,298.0049999998499,7.773794e-06,298.0049999998499,6.936866e-06,298.0049999998499,0.0004625857
298.01999999984986,1.908543e-05,298.01999999984986,7.817162e-06,298.01999999984986,6.69506e-06,298.01999999984986,0.001019867
298.03499999984984,1.971139e-05,298.03499999984984,7.847737e-06,298.03499999984984,6.597564e-06,298.03499999984984,0.001188631
298.04999999984983,2.001422e-05,298.04999999984983,7.854914e-06,298.04999999984983,6.944984e-06,298.04999999984983,0.001272862
298.0649999998498,2.008378e-05,298.0649999998498,7.949394e-06,298.0649999998498,7.061647e-06,298.0649999998498,0.001271172
298.0799999998498,2.050098e-05,298.0799999998498,7.66246e-06,298.0799999998498,6.867475e-06,298.0799999998498,0.001281807
298.0949999998498,2.072105e-05,298.0949999998498,7.523317e-06,298.0949999998498,6.470365e-06,298.0949999998498,0.001560355
298.1099999998498,2.129239e-05,298.1099999998498,6.881819e-06,298.1099999998498,6.466009e-06,298.1099999998498,0.001780568
298.12499999984976,2.185717e-05,298.12499999984976,6.511599e-06,298.12499999984976,6.300498e-06,298.12499999984976,0.001888394
298.13999999984975,2.204392e-05,298.13999999984975,6.214957e-06,298.13999999984975,6.158032e-06,298.13999999984975,0.001895193
298.15499999984974,2.272793e-05,298.15499999984974,5.516089e-06,298.15499999984974,6.509435e-06,298.15499999984974,0.001902942
298.1699999998497,2.292848e-05,298.1699999998497,5.275916e-06,298.1699999998497,6.537507e-06,298.1699999998497,0.001910008
298.1849999998497,2.328027e-05,298.1849999998497,5.350154e-06,298.1849999998497,6.474718e-06,298.1849999998497,0.001917529
298.1999999998497,2.353124e-05,298.1999999998497,5.168013e-06,298.1999999998497,6.652846e-06,298.1999999998497,0.001917829
298.2149999998497,2.41172e-05,298.2149999998497,5.093886e-06,298.2149999998497,6.787006e-06,298.2149999998497,0.001918792
298.22999999984967,2.431208e-05,298.22999999984967,5.262549e-06,298.22999999984967,6.625263e-06,298.22999999984967,0.001932399
298.24499999984965,2.446226e-05,298.24499999984965,5.368553e-06,298.24499999984965,6.826328e-06,298.24499999984965,0.001944339
298.25999999984964,2.530797e-05,298.25999999984964,5.310512e-06,298.25999999984964,6.686639e-06,298.25999999984964,0.001915678
298.2749999998496,2.590703e-05,298.2749999998496,5.307859e-06,298.2749999998496,6.953093e-06,298.2749999998496,0.001715331
298.2899999998496,2.656582e-05,298.2899999998496,5.262549e-06,298.2899999998496,6.981399e-06,298.2899999998496,0.001564434
298.3049999998496,2.689676e-05,298.3049999998496,5.526294e-06,298.3049999998496,7.019631e-06,298.3049999998496,0.00154991
298.3199999998496,2.82989e-05,298.3199999998496,5.521194e-06,298.3199999998496,7.178377e-06,298.3199999998496,0.001605921
298.3349999998496,2.869977e-05,298.3349999998496,5.451871e-06,298.3349999998496,7.558809e-06,298.3349999998496,0.001668392
298.34999999984956,3.015172e-05,298.34999999984956,5.475077e-06,298.34999999984956,7.974164e-06,298.34999999984956,0.001625833
298.36499999984954,3.027667e-05,298.36499999984954,5.528843e-06,298.36499999984954,8.617714e-06,298.36499999984954,0.001363088
298.37999999984953,3.238664e-05,298.37999999984953,5.845879e-06,298.37999999984953,9.268258e-06,298.37999999984953,0.00142071
298.3949999998495,3.346815e-05,298.3949999998495,5.843468e-06,298.3949999998495,9.811646e-06,298.3949999998495,0.001443311
298.4099999998495,3.4932e-05,298.4099999998495,5.986361e-06,298.4099999998495,9.952766e-06,298.4099999998495,0.001447305
298.4249999998495,3.572075e-05,298.4249999998495,5.974584e-06,298.4249999998495,1.039853e-05,298.4249999998495,0.001450142
298.4399999998495,3.778286e-05,298.4399999998495,5.948592e-06,298.4399999998495,1.036732e-05,298.4399999998495,0.001453217
298.45499999984946,3.871537e-05,298.45499999984946,6.028569e-06,298.45499999984946,1.115661e-05,298.45499999984946,0.00146465
298.46999999984945,4.03006e-05,298.46999999984945,5.955692e-06,298.46999999984945,1.12158e-05,298.46999999984945,0.001466437
298.48499999984944,4.237387e-05,298.48499999984944,6.511599e-06,298.48499999984944,1.231949e-05,298.48499999984944,0.001504192
298.4999999998494,4.424507e-05,298.4999999998494,6.496438e-06,298.4999999998494,1.226563e-05,298.4999999998494,0.001481796
298.5149999998494,4.575393e-05,298.5149999998494,7.129148e-06,298.5149999998494,1.249998e-05,298.5149999998494,0.001510975
298.5299999998494,4.719699e-05,298.5299999998494,7.237009e-06,298.5299999998494,1.28654e-05,298.5299999998494,0.001517587
298.5449999998494,4.86482e-05,298.5449999998494,7.273898e-06,298.5449999998494,1.330146e-05,298.5449999998494,0.001534712
298.55999999984937,5.085472e-05,298.55999999984937,7.543885e-06,298.55999999984937,1.348134e-05,298.55999999984937,0.001548419
298.57499999984935,5.330713e-05,298.57499999984935,7.790086e-06,298.57499999984935,1.353868e-05,298.57499999984935,0.00144575
298.58999999984934,5.577926e-05,298.58999999984934,8.190286e-06,298.58999999984934,1.381166e-05,298.58999999984934,0.001192181
298.6049999998493,5.797144e-05,298.6049999998493,8.576751e-06,298.6049999998493,1.367018e-05,298.6049999998493,0.001158478
298.6199999998493,5.974749e-05,298.6199999998493,8.55208e-06,298.6199999998493,1.391125e-05,298.6199999998493,0.001088201
298.6349999998493,6.194046e-05,298.6349999998493,8.609537e-06,298.6349999998493,1.343004e-05,298.6349999998493,0.001066207
298.6499999998493,6.304029e-05,298.6499999998493,8.758771e-06,298.6499999998493,1.367534e-05,298.6499999998493,0.001071166
298.6649999998493,6.546335e-05,298.6649999998493,9.198077e-06,298.6649999998493,1.332896e-05,298.6649999998493,0.001095695
298.67999999984926,6.768759e-05,298.67999999984926,9.366529e-06,298.67999999984926,1.368152e-05,298.67999999984926,0.001128344
298.69499999984924,6.927336e-05,298.69499999984924,9.596809e-06,298.69499999984924,1.40533e-05,298.69499999984924,0.001156592
298.70999999984923,7.190846e-05,298.70999999984923,9.790087e-06,298.70999999984923,1.388185e-05,298.70999999984923,0.001201879
298.7249999998492,7.396383e-05,298.7249999998492,1.030053e-05,298.7249999998492,1.434006e-05,298.7249999998492,0.001259219
298.7399999998492,7.507347e-05,298.7399999998492,1.007934e-05,298.7399999998492,1.382389e-05,298.7399999998492,0.00121613
298.7549999998492,7.83732e-05,298.7549999998492,1.110599e-05,298.7549999998492,1.453132e-05,298.7549999998492,0.001324235
298.7699999998492,7.931903e-05,298.7699999998492,1.086362e-05,298.7699999998492,1.446623e-05,298.7699999998492,0.001379721
298.78499999984916,8.156092e-05,298.78499999984916,1.168211e-05,298.78499999984916,1.474974e-05,298.78499999984916,0.001429031
298.79999999984915,8.303212e-05,298.79999999984915,1.162773e-05,298.79999999984915,1.556208e-05,298.79999999984915,0.001439242
298.81499999984914,8.506579e-05,298.81499999984914,1.165797e-05,298.81499999984914,1.969709e-05,298.81499999984914,0.001455491
298.8299999998491,8.496737e-05,298.8299999998491,1.162409e-05,298.8299999998491,2.232016e-05,298.8299999998491,0.001472545
298.8449999998491,8.66281e-05,298.8449999998491,1.135807e-05,298.8449999998491,2.295549e-05,298.8449999998491,0.001482309
298.8599999998491,8.762325e-05,298.8599999998491,1.179253e-05,298.8599999998491,2.420582e-05,298.8599999998491,0.001576372
298.8749999998491,8.982648e-05,298.8749999998491,1.272559e-05,298.8749999998491,2.481616e-05,298.8749999998491,0.001730178
298.88999999984907,9.009049e-05,298.88999999984907,1.296792e-05,298.88999999984907,2.500052e-05,298.88999999984907,0.001759424
298.90499999984905,9.144103e-05,298.90499999984905,1.304589e-05,298.90499999984905,2.532355e-05,298.90499999984905,0.001750693
298.91999999984904,9.130705e-05,298.91999999984904,1.287306e-05,298.91999999984904,2.602692e-05,298.91999999984904,0.001890164
298.934999999849,9.123961e-05,298.934999999849,1.283471e-05,298.934999999849,2.684381e-05,298.934999999849,0.002019224
298.949999999849,9.209464e-05,298.949999999849,1.311589e-05,298.949999999849,2.682701e-05,298.949999999849,0.002016498
298.964999999849,9.199731e-05,298.964999999849,1.310622e-05,298.964999999849,2.71392e-05,298.964999999849,0.002071352
298.979999999849,9.248021e-05,298.979999999849,1.308148e-05,298.979999999849,2.722368e-05,298.979999999849,0.002095205
298.994999999849,9.297848e-05,298.994999999849,1.311159e-05,298.994999999849,2.745144e-05,298.994999999849,0.002230708
299.00999999984896,9.193405e-05,299.00999999984896,1.238905e-05,299.00999999984896,2.723868e-05,299.00999999984896,0.002450961
299.02499999984894,9.284506e-05,299.02499999984894,1.241744e-05,299.02499999984894,2.740881e-05,299.02499999984894,0.002760811
299.03999999984893,9.279027e-05,299.03999999984893,1.186636e-05,299.03999999984893,2.726246e-05,299.03999999984893,0.002970794
299.0549999998489,9.342827e-05,299.0549999998489,1.226793e-05,299.0549999998489,2.598033e-05,299.0549999998489,0.002963465
299.0699999998489,9.410611e-05,299.0699999998489,1.216067e-05,299.0699999998489,2.320208e-05,299.0699999998489,0.003023552
299.0849999998489,9.451775e-05,299.0849999998489,1.274328e-05,299.0849999998489,2.198248e-05,299.0849999998489,0.003080499
299.0999999998489,9.680493e-05,299.0999999998489,1.299721e-05,299.0999999998489,2.190931e-05,299.0999999998489,0.003102028
299.11499999984886,9.719181e-05,299.11499999984886,1.188178e-05,299.11499999984886,2.022357e-05,299.11499999984886,0.003022473
299.12999999984885,9.790288e-05,299.12999999984885,1.17734e-05,299.12999999984885,2.036102e-05,299.12999999984885,0.003051469
299.14499999984884,9.901555e-05,299.14499999984884,1.177938e-05,299.14499999984884,2.096907e-05,299.14499999984884,0.003059808
299.1599999998488,0.0001000773,299.1599999998488,1.192557e-05,299.1599999998488,2.056273e-05,299.1599999998488,0.003058395
299.1749999998488,0.0001007897,299.1749999998488,1.231034e-05,299.1749999998488,2.032016e-05,299.1749999998488,0.003044621
299.1899999998488,0.0001027947,299.1899999998488,1.25775e-05,299.1899999998488,1.931798e-05,299.1899999998488,0.002962473
299.2049999998488,0.0001033521,299.2049999998488,1.26211e-05,299.2049999998488,1.978557e-05,299.2049999998488,0.002991786
299.21999999984877,0.0001047992,299.21999999984877,1.316413e-05,299.21999999984877,1.962401e-05,299.21999999984877,0.002996447
299.23499999984875,0.0001053313,299.23499999984875,1.336485e-05,299.23499999984875,1.950015e-05,299.23499999984875,0.00296848
299.24999999984874,0.0001066767,299.24999999984874,1.353868e-05,299.24999999984874,1.965342e-05,299.24999999984874,0.002826159
299.2649999998487,0.0001068125,299.2649999998487,1.378205e-05,299.2649999998487,2.012302e-05,299.2649999998487,0.002628258
299.2799999998487,0.0001074225,299.2799999998487,1.477741e-05,299.2799999998487,2.041698e-05,299.2799999998487,0.002328604
299.2949999998487,0.0001070745,299.2949999998487,1.620071e-05,299.2949999998487,2.03056e-05,299.2949999998487,0.002269649
299.3099999998487,0.0001072633,299.3099999998487,1.621983e-05,299.3099999998487,2.041974e-05,299.3099999998487,0.002256478
299.32499999984867,0.0001069533,299.32499999984867,1.643123e-05,299.32499999984867,2.035133e-05,299.32499999984867,0.002283247
299.33999999984866,0.0001057078,299.33999999984866,1.647575e-05,299.33999999984866,2.025906e-05,299.33999999984866,0.002266985
299.35499999984864,0.0001049171,299.35499999984864,1.631681e-05,299.35499999984864,1.998252e-05,299.35499999984864,0.002224756
299.36999999984863,0.0001034395,299.36999999984863,1.656358e-05,299.36999999984863,2.068363e-05,299.36999999984863,0.002454769
299.3849999998486,0.0001012194,299.3849999998486,1.638917e-05,299.3849999998486,2.000225e-05,299.3849999998486,0.002523626
299.3999999998486,9.882102e-05,299.3999999998486,1.627618e-05,299.3999999998486,1.943068e-05,299.3999999998486,0.002570914
299.4149999998486,9.618641e-05,299.4149999998486,1.613013e-05,299.4149999998486,1.94372e-05,299.4149999998486,0.002652122
299.4299999998486,9.335934e-05,299.4299999998486,1.599243e-05,299.4299999998486,1.908174e-05,299.4299999998486,0.0026391
299.44499999984856,9.061932e-05,299.44499999984856,1.560095e-05,299.44499999984856,1.874509e-05,299.44499999984856,0.002651524
299.45999999984855,8.677854e-05,299.45999999984855,1.538272e-05,299.45999999984855,1.820371e-05,299.45999999984855,0.002636282
299.47499999984854,8.428874e-05,299.47499999984854,1.462216e-05,299.47499999984854,1.744986e-05,299.47499999984854,0.002615978
299.4899999998485,8.027775e-05,299.4899999998485,1.462602e-05,299.4899999998485,1.746681e-05,299.4899999998485,0.00270688
299.5049999998485,7.78797e-05,299.5049999998485,1.434497e-05,299.5049999998485,1.782366e-05,299.5049999998485,0.002694366
299.5199999998485,7.268706e-05,299.5199999998485,1.385341e-05,299.5199999998485,1.782287e-05,299.5199999998485,0.002660536
299.5349999998485,7.036968e-05,299.5349999998485,1.316948e-05,299.5349999998485,1.747326e-05,299.5349999998485,0.002693571
299.54999999984847,6.513827e-05,299.54999999984847,1.08934e-05,299.54999999984847,1.726401e-05,299.54999999984847,0.002620033
299.56499999984845,6.259922e-05,299.56499999984845,1.052108e-05,299.56499999984845,1.741026e-05,299.56499999984845,0.002632611
299.57999999984844,5.723339e-05,299.57999999984844,1.002188e-05,299.57999999984844,1.681092e-05,299.57999999984844,0.002611917
299.5949999998484,5.530601e-05,299.5949999998484,9.141237e-06,299.5949999998484,1.603026e-05,299.5949999998484,0.002559403
299.6099999998484,4.900221e-05,299.6099999998484,8.733001e-06,299.6099999998484,1.566223e-05,299.6099999998484,0.002505514
299.6249999998484,4.636621e-05,299.6249999998484,8.454338e-06,299.6249999998484,1.47917e-05,299.6249999998484,0.00234846
299.6399999998484,4.353642e-05,299.6399999998484,8.2229e-06,299.6399999998484,1.460964e-05,299.6399999998484,0.002200098
299.65499999984837,4.258676e-05,299.65499999984837,8.02523e-06,299.65499999984837,1.438616e-05,299.65499999984837,0.002160944
299.66999999984836,3.970548e-05,299.66999999984836,7.675319e-06,299.66999999984836,1.386459e-05,299.66999999984836,0.002027366
299.68499999984834,3.863997e-05,299.68499999984834,7.349037e-06,299.68499999984834,1.347297e-05,299.68499999984834,0.001953794
299.69999999984833,3.677661e-05,299.69999999984833,7.523317e-06,299.69999999984833,1.319726e-05,299.69999999984833,0.001954206
299.7149999998483,3.562439e-05,299.7149999998483,7.551351e-06,299.7149999998483,1.309332e-05,299.7149999998483,0.001878298
299.7299999998483,3.254891e-05,299.7299999998483,7.553216e-06,299.7299999998483,1.292548e-05,299.7299999998483,0.001887698
299.7449999998483,3.504152e-05,299.7449999998483,7.555081e-06,299.7449999998483,1.297226e-05,299.7449999998483,0.001755139
299.7599999998483,3.277361e-05,299.7599999998483,7.495178e-06,299.7599999998483,1.168935e-05,299.7599999998483,0.001745153
299.77499999984826,3.272113e-05,299.77499999984826,7.38918e-06,299.77499999984826,1.274439e-05,299.77499999984826,0.001737567
299.78999999984825,3.327736e-05,299.78999999984825,7.448044e-06,299.78999999984825,1.636423e-05,299.78999999984825,0.001649493
299.80499999984823,3.291343e-05,299.80499999984823,9.23476e-06,299.80499999984823,1.626666e-05,299.80499999984823,0.001584576
299.8199999998482,3.327355e-05,299.8199999998482,9.691749e-06,299.8199999998482,1.681595e-05,299.8199999998482,0.001538112
299.8349999998482,3.413865e-05,299.8349999998482,1.016424e-05,299.8349999998482,2.017475e-05,299.8349999998482,0.001566588
299.8499999998482,3.488237e-05,299.8499999998482,1.043774e-05,299.8499999998482,2.080992e-05,299.8499999998482,0.001777494
299.8649999998482,3.658035e-05,299.8649999998482,1.085194e-05,299.8649999998482,2.109432e-05,299.8649999998482,0.001751333
299.87999999984817,3.669416e-05,299.87999999984817,1.168453e-05,299.87999999984817,2.173631e-05,299.87999999984817,0.001809319
299.89499999984815,3.686651e-05,299.89499999984815,1.435283e-05,299.89499999984815,2.199722e-05,299.89499999984815,0.001911595
299.90999999984814,3.70962e-05,299.90999999984814,1.569547e-05,299.90999999984814,2.200234e-05,299.90999999984814,0.002043531
299.9249999998481,3.728143e-05,299.9249999998481,1.663656e-05,299.9249999998481,2.239954e-05,299.9249999998481,0.00231874
299.9399999998481,3.787447e-05,299.9399999998481,1.699676e-05,299.9399999998481,2.245607e-05,299.9399999998481,0.002594546
299.9549999998481,3.819299e-05,299.9549999998481,1.80053e-05,299.9549999998481,2.258056e-05,299.9549999998481,0.002821686
299.9699999998481,3.832517e-05,299.9699999998481,1.838543e-05,299.9699999998481,2.255059e-05,299.9699999998481,0.002892602
299.98499999984807,3.722963e-05,299.98499999984807,1.846418e-05,299.98499999984807,2.243724e-05,299.98499999984807,0.002872789
299.99999999984806,3.554126e-05,299.99999999984806,1.835246e-05,299.99999999984806,2.225253e-05,299.99999999984806,0.002951443
300.01499999984804,3.550835e-05,300.01499999984804,1.833402e-05,300.01499999984804,2.167206e-05,300.01499999984804,0.003014629
300.02999999984803,3.453985e-05,300.02999999984803,1.907804e-05,300.02999999984803,2.01503e-05,300.02999999984803,0.003050172
300.044999999848,3.359082e-05,300.044999999848,2.026254e-05,300.044999999848,1.727869e-05,300.044999999848,0.003063289
300.059999999848,3.266555e-05,300.059999999848,1.972353e-05,300.059999999848,1.732347e-05,300.059999999848,0.003049741
300.074999999848,3.225589e-05,300.074999999848,1.980621e-05,300.074999999848,1.531757e-05,300.074999999848,0.00304297
300.089999999848,3.069622e-05,300.089999999848,1.997688e-05,300.089999999848,1.140758e-05,300.089999999848,0.002938123
300.10499999984796,2.885933e-05,300.10499999984796,2.121152e-05,300.10499999984796,1.098483e-05,300.10499999984796,0.002831282
300.11999999984795,2.714699e-05,300.11999999984795,2.534246e-05,300.11999999984795,1.020021e-05,300.11999999984795,0.002822046
300.13499999984793,2.731924e-05,300.13499999984793,2.537134e-05,300.13499999984793,9.29709e-06,300.13499999984793,0.002769146
300.1499999998479,2.625486e-05,300.1499999998479,2.59646e-05,300.1499999998479,8.625883e-06,300.1499999998479,0.002684596
300.1649999998479,2.571328e-05,300.1649999998479,2.640093e-05,300.1649999998479,8.467658e-06,300.1649999998479,0.002481224
300.1799999998479,2.493338e-05,300.1799999998479,2.697625e-05,300.1799999998479,7.612662e-06,300.1799999998479,0.002192362
300.1949999998479,2.566008e-05,300.1949999998479,2.663361e-05,300.1949999998479,7.164627e-06,300.1949999998479,0.001982449
300.20999999984787,2.705863e-05,300.20999999984787,2.876595e-05,300.20999999984787,7.530803e-06,300.20999999984787,0.001517627
300.22499999984785,2.835708e-05,300.22499999984785,2.970884e-05,300.22499999984785,8.946537e-06,300.22499999984785,0.001406047
300.23999999984784,2.820866e-05,300.23999999984784,3.083862e-05,300.23999999984784,9.526091e-06,300.23999999984784,0.001414577
300.2549999998478,2.814167e-05,300.2549999998478,3.086053e-05,300.2549999998478,1.023192e-05,300.2549999998478,0.001195171
300.2699999998478,2.874979e-05,300.2699999998478,3.741457e-05,300.2699999998478,1.072398e-05,300.2699999998478,0.001116719
300.2849999998478,3.02976e-05,300.2849999998478,3.695925e-05,300.2849999998478,1.069767e-05,300.2849999998478,0.001158225
300.2999999998478,3.193594e-05,300.2999999998478,3.682101e-05,300.2999999998478,1.22023e-05,300.2999999998478,0.001616811
300.31499999984777,3.342097e-05,300.31499999984777,3.6731e-05,300.31499999984777,1.235033e-05,300.31499999984777,0.001766157
300.32999999984776,0.0007372124,300.32999999984776,3.704566e-05,300.32999999984776,1.240609e-05,300.32999999984776,0.002083912
300.34499999984774,0.001070024,300.34499999984774,3.737276e-05,300.34499999984774,1.238677e-05,300.34499999984774,0.00219139
300.35999999984773,0.001509669,300.35999999984773,3.588992e-05,300.35999999984773,1.222652e-05,300.35999999984773,0.002191448
300.3749999998477,0.00161324,300.3749999998477,3.401754e-05,300.3749999998477,1.231149e-05,300.3749999998477,0.002176888
300.3899999998477,0.001620774,300.3899999998477,3.385274e-05,300.3899999998477,1.223804e-05,300.3899999998477,0.0022233
300.4049999998477,0.001641303,300.4049999998477,3.327355e-05,300.4049999998477,1.233663e-05,300.4049999998477,0.002309459
300.4199999998477,0.001652064,300.4199999998477,3.432384e-05,300.4199999998477,1.250449e-05,300.4199999998477,0.002300862
300.43499999984766,0.001654166,300.43499999984766,3.411967e-05,300.43499999984766,1.34782e-05,300.43499999984766,0.002308111
300.44999999984765,0.001654345,300.44999999984765,3.378068e-05,300.44999999984765,1.35418e-05,300.44999999984765,0.002291509
300.46499999984763,0.001654115,300.46499999984763,3.180688e-05,300.46499999984763,1.291894e-05,300.46499999984763,0.00227762
300.4799999998476,0.001673828,300.4799999998476,3.007875e-05,300.4799999998476,1.218498e-05,300.4799999998476,0.002255462
300.4949999998476,0.001725037,300.4949999998476,2.976805e-05,300.4949999998476,1.202087e-05,300.4949999998476,0.002259674
300.5099999998476,0.001727475,300.5099999998476,2.914348e-05,300.5099999998476,1.179133e-05,300.5099999998476,0.002262901
300.5249999998476,0.00173064,300.5249999998476,2.181459e-05,300.5249999998476,1.115408e-05,300.5249999998476,0.002203487
300.53999999984757,0.001734355,300.53999999984757,2.190609e-05,300.53999999984757,1.102707e-05,300.53999999984757,0.002152753
300.55499999984755,0.00174206,300.55499999984755,2.141443e-05,300.55499999984755,9.248478e-06,300.55499999984755,0.001752973
300.56999999984754,0.001759022,300.56999999984754,2.070745e-05,300.56999999984754,9.411539e-06,300.56999999984754,0.001661831
300.5849999998475,0.001417758,300.5849999998475,2.064273e-05,300.5849999998475,9.645126e-06,300.5849999998475,0.001220691
300.5999999998475,0.001261598,300.5999999998475,2.072717e-05,300.5999999998475,9.932932e-06,300.5999999998475,0.001153658
300.6149999998475,0.0007914481,300.6149999998475,2.159066e-05,300.6149999998475,1.04983e-05,300.6149999998475,0.001158643
300.6299999998475,0.0006856651,300.6299999998475,2.095361e-05,300.6299999998475,1.079859e-05,300.6299999998475,0.001234408
300.64499999984747,0.0006717865,300.64499999984747,2.005851e-05,300.64499999984747,1.072529e-05,300.64499999984747,0.001112627
300.65999999984746,0.0006444971,300.65999999984746,1.79779e-05,300.65999999984746,1.703318e-05,300.65999999984746,0.0009490714
300.67499999984744,0.0006356802,300.67499999984744,1.562531e-05,300.67499999984744,2.146896e-05,300.67499999984744,0.0009763392
300.68999999984743,0.0006349328,300.68999999984743,1.59845e-05,300.68999999984743,2.911011e-05,300.68999999984743,0.001537837
300.7049999998474,0.0006341861,300.7049999998474,1.782129e-05,300.7049999998474,3.044001e-05,300.7049999998474,0.001969101
300.7199999998474,0.0006328535,300.7199999998474,1.787969e-05,300.7199999998474,3.261333e-05,300.7199999998474,0.002387631
300.7349999998474,0.0005151051,300.7349999998474,1.803032e-05,300.7349999998474,3.245963e-05,300.7349999998474,0.002553575
300.7499999998474,0.0003882626,300.7499999998474,1.796379e-05,300.7499999998474,3.241229e-05,300.7499999998474,0.002816023
300.76499999984736,0.0003853129,300.76499999984736,1.764733e-05,300.76499999984736,3.236793e-05,300.76499999984736,0.002937733
300.77999999984735,0.0004031534,300.77999999984735,1.637025e-05,300.77999999984735,3.246744e-05,300.77999999984735,0.002982976
300.79499999984733,0.0004395171,300.79499999984733,1.647148e-05,300.79499999984733,3.24965e-05,300.79499999984733,0.003022528
300.8099999998473,0.0004188019,300.8099999998473,1.727217e-05,300.8099999998473,3.255756e-05,300.8099999998473,0.003040323
300.8249999998473,0.000359974,300.8249999998473,1.715432e-05,300.8249999998473,3.256924e-05,300.8249999998473,0.003070869
300.8399999998473,0.0003428831,300.8399999998473,1.687615e-05,300.8399999998473,3.25056e-05,300.8399999998473,0.003072169
300.8549999998473,0.0003791047,300.8549999998473,1.587396e-05,300.8549999998473,3.236489e-05,300.8549999998473,0.003072243
300.86999999984727,0.0003868997,300.86999999984727,1.441941e-05,300.86999999984727,3.219382e-05,300.86999999984727,0.003072816
300.88499999984725,0.0003800812,300.88499999984725,1.371956e-05,300.88499999984725,3.21785e-05,300.88499999984725,0.003049461
300.89999999984724,0.0003869349,300.89999999984724,1.367225e-05,300.89999999984724,3.193858e-05,300.89999999984724,0.003042087
300.9149999998472,0.0005316339,300.9149999998472,1.378307e-05,300.9149999998472,2.881439e-05,300.9149999998472,0.003033719
300.9299999998472,0.0006706707,300.9299999998472,1.566403e-05,300.9299999998472,2.134855e-05,300.9299999998472,0.002933651
300.9449999998472,0.0006936221,300.9449999998472,1.48942e-05,300.9449999998472,1.525213e-05,300.9449999998472,0.002638333
300.9599999998472,0.0007970132,300.9599999998472,1.270675e-05,300.9599999998472,1.117553e-05,300.9599999998472,0.002334712
300.97499999984717,0.0008631626,300.97499999984717,1.257526e-05,300.97499999984717,7.2971e-06,300.97499999984717,0.001906036
300.98999999984716,0.0008808872,300.98999999984716,1.241744e-05,300.98999999984716,7.396802e-06,300.98999999984716,0.001740435
301.00499999984714,0.0008887813,301.00499999984714,1.234348e-05,301.00499999984714,7.229218e-06,301.00499999984714,0.001226628
301.01999999984713,0.0009026309,301.01999999984713,1.346042e-05,301.01999999984713,7.40822e-06,301.01999999984713,0.001151413
301.0349999998471,0.0008717952,301.0349999998471,1.706788e-05,301.0349999998471,6.887957e-06,301.0349999998471,0.0009839495
301.0499999998471,0.0008642782,301.0499999998471,1.662809e-05,301.0499999998471,6.667651e-06,301.0499999998471,0.0009221957
301.0649999998471,0.0008673857,301.0649999998471,1.587485e-05,301.0649999998471,6.309435e-06,301.0649999998471,0.000779937
301.0799999998471,0.0008660894,301.0799999998471,1.604344e-05,301.0799999998471,6.072803e-06,301.0799999998471,0.0009955449
301.09499999984706,0.0008611477,301.09499999984706,1.598362e-05,301.09499999984706,5.889093e-06,301.09499999984706,0.001114731
301.10999999984705,0.0008397541,301.10999999984705,1.703814e-05,301.10999999984705,6.114414e-06,301.10999999984705,0.001150421
301.12499999984703,0.0008468431,301.12499999984703,1.763136e-05,301.12499999984703,6.734918e-06,301.12499999984703,0.001159683
301.139999999847,0.0008604317,301.139999999847,1.955858e-05,301.139999999847,8.548785e-06,301.139999999847,0.001212466
301.154999999847,0.0008498108,301.154999999847,1.961683e-05,301.154999999847,8.630781e-06,301.154999999847,0.001716687
301.169999999847,0.0007245418,301.169999999847,1.94951e-05,301.169999999847,8.620983e-06,301.169999999847,0.001964922
301.184999999847,0.0006288034,301.184999999847,1.826166e-05,301.184999999847,9.292544e-06,301.184999999847,0.002189786
301.19999999984697,0.0005899483,301.19999999984697,1.829326e-05,301.19999999984697,9.503884e-06,301.19999999984697,0.002540033
301.21499999984695,0.0004702298,301.21499999984695,1.823e-05,301.21499999984695,9.447393e-06,301.21499999984695,0.0025608
301.22999999984694,0.0003524772,301.22999999984694,1.827631e-05,301.22999999984694,9.327345e-06,301.22999999984694,0.002562373
301.2449999998469,0.0003236975,301.2449999998469,1.842217e-05,301.2449999998469,9.378553e-06,301.2449999998469,0.00258602
301.2599999998469,0.0003026926,301.2599999998469,1.876536e-05,301.2599999998469,1.05545e-05,301.2599999998469,0.002593367
301.2749999998469,0.0002832158,301.2749999998469,1.784657e-05,301.2749999998469,1.347611e-05,301.2749999998469,0.002694562
301.2899999998469,0.0002913323,301.2899999998469,1.494141e-05,301.2899999998469,1.853119e-05,301.2899999998469,0.002935071
301.30499999984687,0.000285737,301.30499999984687,1.49612e-05,301.30499999984687,1.868562e-05,301.30499999984687,0.002983701
301.31999999984686,0.0002584232,301.31999999984686,1.51827e-05,301.31999999984686,2.037485e-05,301.31999999984686,0.003184462
301.33499999984684,0.0002384961,301.33499999984684,1.50457e-05,301.33499999984684,2.133337e-05,301.33499999984684,0.003401725
301.34999999984683,0.0002241515,301.34999999984683,1.502509e-05,301.34999999984683,2.138086e-05,301.34999999984683,0.003473782
301.3649999998468,0.0002198894,301.3649999998468,1.376978e-05,301.3649999998468,2.137493e-05,301.3649999998468,0.003481689
301.3799999998468,0.0001890009,301.3799999998468,1.274771e-05,301.3799999998468,2.078893e-05,301.3799999998468,0.003507716
301.3949999998468,0.0001382633,301.3949999998468,1.024843e-05,301.3949999998468,2.066728e-05,301.3949999998468,0.003490682
301.4099999998468,0.0001277527,301.4099999998468,1.023605e-05,301.4099999998468,2.082075e-05,301.4099999998468,0.00331502
301.42499999984676,0.0001284826,301.42499999984676,1.071741e-05,301.42499999984676,2.075502e-05,301.42499999984676,0.00326008
301.43999999984675,0.000129185,301.43999999984675,9.93435e-06,301.43999999984675,2.067886e-05,301.43999999984675,0.00302361
301.45499999984673,0.0001295829,301.45499999984673,1.092955e-05,301.45499999984673,2.476047e-05,301.45499999984673,0.003007011
301.4699999998467,0.0001297088,301.4699999998467,1.102707e-05,301.4699999998467,2.513427e-05,301.4699999998467,0.003203839
301.4849999998467,0.0001297394,301.4849999998467,1.225529e-05,301.4849999998467,2.635554e-05,301.4849999998467,0.003252317
301.4999999998467,0.0001296648,301.4999999998467,1.387576e-05,301.4999999998467,3.157708e-05,301.4999999998467,0.003237421
301.5149999998467,0.0001191535,301.5149999998467,1.43322e-05,301.5149999998467,4.208701e-05,301.5149999998467,0.003339629
301.52999999984667,0.0001123053,301.52999999984667,1.493198e-05,301.52999999984667,4.680497e-05,301.52999999984667,0.003240617
301.54499999984665,9.185096e-05,301.54499999984665,1.529179e-05,301.54499999984665,5.258264e-05,301.54499999984665,0.003078302
301.55999999984664,9.11973e-05,301.55999999984664,1.82215e-05,301.55999999984664,5.341669e-05,301.55999999984664,0.003369146
301.5749999998466,8.620329e-05,301.5749999998466,1.940601e-05,301.5749999998466,5.37094e-05,301.5749999998466,0.003293614
301.5899999998466,8.521371e-05,301.5899999998466,2.08532e-05,301.5899999998466,5.394415e-05,301.5899999998466,0.003209442
301.6049999998466,8.176739e-05,301.6049999998466,2.097175e-05,301.6049999998466,5.419581e-05,301.6049999998466,0.003380979
301.6199999998466,7.882823e-05,301.6199999998466,2.123807e-05,301.6199999998466,5.419504e-05,301.6199999998466,0.003432168
301.63499999984657,8.490916e-05,301.63499999984657,2.130958e-05,301.63499999984657,5.421504e-05,301.63499999984657,0.0033934
301.64999999984656,0.0001028047,301.64999999984656,2.127783e-05,301.64999999984656,5.423245e-05,301.64999999984656,0.003540949
301.66499999984654,0.0001044099,301.66499999984654,2.120953e-05,301.66499999984654,5.42444e-05,301.66499999984654,0.003503795
301.67999999984653,0.0001146228,301.67999999984653,2.147421e-05,301.67999999984653,5.424232e-05,301.67999999984653,0.003573547
301.6949999998465,0.0001212119,301.6949999998465,2.156977e-05,301.6949999998465,5.40266e-05,301.6949999998465,0.003618922
301.7099999998465,0.0001227282,301.7099999998465,2.102274e-05,301.7099999998465,5.231217e-05,301.7099999998465,0.003390665
301.7249999998465,0.0001226618,301.7249999998465,2.123674e-05,301.7249999998465,5.22057e-05,301.7249999998465,0.003354749
301.7399999998465,0.0001221412,301.7399999998465,1.97528e-05,301.7399999998465,5.118081e-05,301.7399999998465,0.003371778
301.75499999984646,0.0001198398,301.75499999984646,1.928879e-05,301.75499999984646,4.627923e-05,301.75499999984646,0.003300274
301.76999999984645,0.0001200364,301.76999999984645,1.960606e-05,301.76999999984645,3.729201e-05,301.76999999984645,0.003265431
301.78499999984643,0.0001170505,301.78499999984643,1.951893e-05,301.78499999984643,2.560347e-05,301.78499999984643,0.003124213
301.7999999998464,0.0001192462,301.7999999998464,1.92698e-05,301.7999999998464,1.915027e-05,301.7999999998464,0.002989333
301.8149999998464,0.0001183713,301.8149999998464,1.671344e-05,301.8149999998464,1.518549e-05,301.8149999998464,0.002665572
301.8299999998464,0.0001179837,301.8299999998464,1.454198e-05,301.8299999998464,1.399706e-05,301.8299999998464,0.00250834
301.8449999998464,0.0001180367,301.8449999998464,1.473636e-05,301.8449999998464,1.193265e-05,301.8449999998464,0.002254318
301.85999999984637,0.0001171235,301.85999999984637,1.541017e-05,301.85999999984637,1.161803e-05,301.85999999984637,0.002034754
301.87499999984635,0.0001135366,301.87499999984635,1.627445e-05,301.87499999984635,1.159132e-05,301.87499999984635,0.001878729
301.88999999984634,0.0001008226,301.88999999984634,1.678744e-05,301.88999999984634,1.150716e-05,301.88999999984634,0.001836005
301.9049999998463,8.087321e-05,301.9049999998463,1.69195e-05,301.9049999998463,1.162409e-05,301.9049999998463,0.001936726
301.9199999998463,7.641419e-05,301.9199999998463,1.689618e-05,301.9199999998463,1.122458e-05,301.9199999998463,0.002104913
301.9349999998463,6.15018e-05,301.9349999998463,1.680254e-05,301.9349999998463,1.158768e-05,301.9349999998463,0.001939341
301.9499999998463,6.458772e-05,301.9499999998463,1.758336e-05,301.9499999998463,1.637541e-05,301.9499999998463,0.002272454
301.96499999984627,7.183222e-05,301.96499999984627,1.956002e-05,301.96499999984627,1.646549e-05,301.96499999984627,0.00264502
301.97999999984626,7.946381e-05,301.97999999984626,1.960318e-05,301.97999999984626,1.627618e-05,301.97999999984626,0.002855563
301.99499999984624,8.743753e-05,301.99499999984624,1.966918e-05,301.99499999984624,1.779835e-05,301.99499999984624,0.002994405
302.00999999984623,9.573309e-05,302.00999999984623,1.978273e-05,302.00999999984623,1.809272e-05,302.00999999984623,0.003302177
302.0249999998462,9.531399e-05,302.0249999998462,1.958521e-05,302.0249999998462,1.79324e-05,302.0249999998462,0.003456098
302.0399999998462,9.329066e-05,302.0399999998462,1.868864e-05,302.0399999998462,1.798103e-05,302.0399999998462,0.003459634
302.0549999998462,9.181615e-05,302.0549999998462,1.868261e-05,302.0549999998462,1.821841e-05,302.0549999998462,0.003512373
302.0699999998462,9.231143e-05,302.0699999998462,1.870521e-05,302.0699999998462,1.853272e-05,302.0699999998462,0.00353953
302.08499999984616,9.280348e-05,302.08499999984616,1.79732e-05,302.08499999984616,1.986232e-05,302.08499999984616,0.003610694
302.09999999984615,9.202242e-05,302.09999999984615,1.73316e-05,302.09999999984615,2.2042e-05,302.09999999984615,0.003842137
302.11499999984613,9.291665e-05,302.11499999984613,1.637369e-05,302.11499999984613,2.25356e-05,302.11499999984613,0.0040312
302.1299999998461,9.289754e-05,302.1299999998461,1.578765e-05,302.1299999998461,2.454275e-05,302.1299999998461,0.004157201
302.1449999998461,9.206818e-05,302.1449999998461,1.524104e-05,302.1449999998461,2.567819e-05,302.1449999998461,0.004360743
302.1599999998461,9.211575e-05,302.1599999998461,1.478027e-05,302.1599999998461,2.561173e-05,302.1599999998461,0.004263711
302.1749999998461,9.19774e-05,302.1749999998461,1.456328e-05,302.1749999998461,2.57762e-05,302.1749999998461,0.004187006
302.18999999984607,9.106714e-05,302.18999999984607,1.367843e-05,302.18999999984607,2.517235e-05,302.18999999984607,0.004265133
302.20499999984605,6.826926e-05,302.20499999984605,1.200327e-05,302.20499999984605,2.317353e-05,302.20499999984605,0.00414693
302.21999999984604,6.354463e-05,302.21999999984604,9.90026e-06,302.21999999984604,2.289281e-05,302.21999999984604,0.003976044
302.234999999846,5.330423e-05,302.234999999846,1.071478e-05,302.234999999846,2.29696e-05,302.234999999846,0.003854841
302.249999999846,4.363402e-05,302.249999999846,1.014482e-05,302.249999999846,2.312058e-05,302.249999999846,0.00365978
302.264999999846,3.49308e-05,302.264999999846,9.615872e-06,302.264999999846,2.467841e-05,302.264999999846,0.003364162
302.279999999846,3.715463e-05,302.279999999846,1.126842e-05,302.279999999846,2.667325e-05,302.279999999846,0.003535925
302.29499999984597,3.827736e-05,302.29499999984597,1.313521e-05,302.29499999984597,2.704301e-05,302.29499999984597,0.003804493
302.30999999984596,4.16019e-05,302.30999999984596,1.520959e-05,302.30999999984596,3.269615e-05,302.30999999984596,0.003937451
302.32499999984594,4.508807e-05,302.32499999984594,1.567122e-05,302.32499999984594,3.859547e-05,302.32499999984594,0.0039111
302.33999999984593,4.91506e-05,302.33999999984593,1.708273e-05,302.33999999984593,3.892076e-05,302.33999999984593,0.003919161
302.3549999998459,5.1202e-05,302.3549999998459,1.961109e-05,302.3549999998459,4.521349e-05,302.3549999998459,0.003872533
302.3699999998459,5.372592e-05,302.3699999998459,2.473371e-05,302.3699999998459,4.683174e-05,302.3699999998459,0.00395962
302.3849999998459,6.00837e-05,302.3849999998459,2.59141e-05,302.3849999998459,4.626371e-05,302.3849999998459,0.003978988
302.3999999998459,7.977025e-05,302.3999999998459,2.795433e-05,302.3999999998459,4.648151e-05,302.3999999998459,0.003939209
302.41499999984586,0.000105436,302.41499999984586,2.810159e-05,302.41499999984586,4.664035e-05,302.41499999984586,0.004098067
302.42999999984585,0.0001312028,302.42999999984585,2.852005e-05,302.42999999984585,4.657476e-05,302.42999999984585,0.004045218
302.44499999984583,0.0001356286,302.44499999984583,2.894511e-05,302.44499999984583,4.64512e-05,302.44499999984583,0.003956422
302.4599999998458,0.0001351034,302.4599999998458,2.906895e-05,302.4599999998458,4.637289e-05,302.4599999998458,0.003890051
302.4749999998458,0.0001350185,302.4749999998458,2.876399e-05,302.4749999998458,4.649091e-05,302.4749999998458,0.004046645
302.4899999998458,0.0001382278,302.4899999998458,2.871449e-05,302.4899999998458,4.658142e-05,302.4899999998458,0.004253764
302.5049999998458,0.0001398458,302.5049999998458,2.882221e-05,302.5049999998458,4.545307e-05,302.5049999998458,0.004428784
302.51999999984577,0.000139057,302.51999999984577,2.901317e-05,302.51999999984577,4.455251e-05,302.51999999984577,0.004406535
302.53499999984575,0.0001386421,302.53499999984575,2.850721e-05,302.53499999984575,4.364984e-05,302.53499999984575,0.004173977
302.54999999984574,0.0001381558,302.54999999984574,2.772512e-05,302.54999999984574,4.350729e-05,302.54999999984574,0.003944715
302.5649999998457,0.0001369776,302.5649999998457,2.67534e-05,302.5649999998457,3.571247e-05,302.5649999998457,0.003871385
302.5799999998457,0.0001352812,302.5799999998457,2.64867e-05,302.5799999998457,3.290787e-05,302.5799999998457,0.003888172
302.5949999998457,0.0001353825,302.5949999998457,2.587221e-05,302.5949999998457,2.673496e-05,302.5949999998457,0.003701488
302.6099999998457,0.000135236,302.6099999998457,2.483091e-05,302.6099999998457,1.964123e-05,302.6099999998457,0.003512993
302.62499999984567,0.000132806,302.62499999984567,1.983038e-05,302.62499999984567,1.454973e-05,302.62499999984567,0.003271763
302.63999999984566,0.000131371,302.63999999984566,1.742078e-05,302.63999999984566,1.27731e-05,302.63999999984566,0.003047608
302.65499999984564,0.0001040373,302.65499999984564,1.516414e-05,302.65499999984564,1.041883e-05,302.65499999984564,0.002728301
302.66999999984563,8.926487e-05,302.66999999984563,1.517157e-05,302.66999999984563,9.999364e-06,302.66999999984563,0.002482483
302.6849999998456,5.169184e-05,302.6849999998456,1.646891e-05,302.6849999998456,9.76848e-06,302.6849999998456,0.002437345
302.6999999998456,4.767746e-05,302.6999999998456,1.600564e-05,302.6999999998456,9.76271e-06,302.6999999998456,0.002314962
302.7149999998456,4.771644e-05,302.7149999998456,1.618331e-05,302.7149999998456,9.90026e-06,302.7149999998456,0.002307385
302.7299999998456,4.494663e-05,302.7299999998456,1.672692e-05,302.7299999998456,9.007736e-06,302.7299999998456,0.002020877
302.74499999984556,3.629078e-05,302.74499999984556,1.679583e-05,302.74499999984556,8.219473e-06,302.74499999984556,0.001628187
302.75999999984555,4.026003e-05,302.75999999984555,1.645351e-05,302.75999999984555,8.167896e-06,302.75999999984555,0.001294116
302.77499999984553,4.021067e-05,302.77499999984553,1.585887e-05,302.77499999984553,7.273898e-06,302.77499999984553,0.001263733
302.7899999998455,4.117168e-05,302.7899999998455,1.601268e-05,302.7899999998455,7.275834e-06,302.7899999998455,0.001251117
302.8049999998455,4.141287e-05,302.8049999998455,1.626666e-05,302.8049999998455,7.669811e-06,302.8049999998455,0.001222432
302.8199999998455,4.131581e-05,302.8199999998455,1.648088e-05,302.8199999998455,7.771981e-06,302.8199999998455,0.001633358
302.8349999998455,3.919774e-05,302.8349999998455,1.589436e-05,302.8349999998455,7.826167e-06,302.8349999998455,0.001716719
302.84999999984547,3.611802e-05,302.84999999984547,1.457392e-05,302.84999999984547,8.082948e-06,302.84999999984547,0.001719
302.86499999984545,3.482821e-05,302.86499999984545,1.424446e-05,302.86499999984545,8.034001e-06,302.86499999984545,0.001784589
302.87999999984544,3.56493e-05,302.87999999984544,1.427015e-05,302.87999999984544,7.719241e-06,302.87999999984544,0.001841173
302.8949999998454,3.588325e-05,302.8949999998454,1.430761e-05,302.8949999998454,8.325052e-06,302.8949999998454,0.001877454
302.9099999998454,3.582746e-05,302.9099999998454,1.393856e-05,302.9099999998454,9.811646e-06,302.9099999998454,0.001876672
302.9249999998454,3.598791e-05,302.9249999998454,1.395472e-05,302.9249999998454,1.082075e-05,302.9249999998454,0.001911286
302.9399999998454,3.60989e-05,302.9399999998454,1.195506e-05,302.9399999998454,1.291785e-05,302.9399999998454,0.002005227
302.95499999984537,3.580661e-05,302.95499999984537,1.114145e-05,302.95499999984537,1.603114e-05,302.95499999984537,0.002053475
302.96999999984536,3.603211e-05,302.96999999984536,1.074235e-05,302.96999999984536,1.616067e-05,302.96999999984536,0.002058646
302.98499999984534,3.479503e-05,302.98499999984534,9.823125e-06,302.98499999984534,1.722644e-05,302.98499999984534,0.002022412
302.99999999984533,3.212461e-05,302.99999999984533,9.741042e-06,302.99999999984533,1.958233e-05,302.99999999984533,0.00213839
303.0149999998453,2.624681e-05,303.0149999998453,9.246955e-06,303.0149999998453,2.011251e-05,303.0149999998453,0.002272873
303.0299999998453,2.765338e-05,303.0299999998453,9.091791e-06,303.0299999998453,2.017196e-05,303.0299999998453,0.002265936
303.0449999998453,2.406691e-05,303.0449999998453,9.020237e-06,303.0449999998453,2.030213e-05,303.0449999998453,0.002269765
303.0599999998453,2.246987e-05,303.0599999998453,7.691819e-06,303.0599999998453,2.044387e-05,303.0599999998453,0.002221243
303.07499999984526,2.324636e-05,303.07499999984526,7.04567e-06,303.07499999984526,2.049205e-05,303.07499999984526,0.001896089
303.08999999984525,2.407979e-05,303.08999999984525,6.953093e-06,303.08999999984525,2.05949e-05,303.08999999984525,0.001857343
303.10499999984523,2.466356e-05,303.10499999984523,6.914493e-06,303.10499999984523,2.066796e-05,303.10499999984523,0.001849279
303.1199999998452,2.463098e-05,303.1199999998452,7.737468e-06,303.1199999998452,2.084306e-05,303.1199999998452,0.001802326
303.1349999998452,2.463556e-05,303.1349999998452,8.492574e-06,303.1349999998452,2.089504e-05,303.1349999998452,0.001868863
303.1499999998452,2.727279e-05,303.1499999998452,1.037004e-05,303.1499999998452,2.087413e-05,303.1499999998452,0.002106864
303.1649999998452,2.748938e-05,303.1649999998452,1.018086e-05,303.1649999998452,2.027574e-05,303.1649999998452,0.002214658
303.17999999984517,2.742731e-05,303.17999999984517,9.921579e-06,303.17999999984517,2.024515e-05,303.17999999984517,0.002221696
303.19499999984515,2.766663e-05,303.19499999984515,1.045931e-05,303.19499999984515,2.219612e-05,303.19499999984515,0.002133857
303.20999999984514,2.825506e-05,303.20999999984514,1.138038e-05,303.20999999984514,2.750065e-05,303.20999999984514,0.002175714
303.2249999998451,3.462376e-05,303.2249999998451,1.137047e-05,303.2249999998451,3.141786e-05,303.2249999998451,0.0024544
303.2399999998451,3.558127e-05,303.2399999998451,1.168573e-05,303.2399999998451,3.218681e-05,303.2399999998451,0.002824712
303.2549999998451,4.320512e-05,303.2549999998451,1.178775e-05,303.2549999998451,3.19452e-05,303.2549999998451,0.002910895
303.2699999998451,4.88124e-05,303.2699999998451,1.224494e-05,303.2699999998451,3.177941e-05,303.2699999998451,0.003068548
303.28499999984507,5.83838e-05,303.28499999984507,1.211658e-05,303.28499999984507,3.182901e-05,303.28499999984507,0.003260458
303.29999999984506,7.771692e-05,303.29999999984506,1.216994e-05,303.29999999984506,3.191167e-05,303.29999999984506,0.003275039
303.31499999984504,9.130382e-05,303.31499999984504,1.270121e-05,303.31499999984504,3.17124e-05,303.31499999984504,0.003255912
303.32999999984503,9.149893e-05,303.32999999984503,1.29527e-05,303.32999999984503,3.166884e-05,303.32999999984503,0.003261011
303.344999999845,9.165752e-05,303.344999999845,1.323563e-05,303.344999999845,3.174792e-05,303.344999999845,0.003399369
303.359999999845,9.310248e-05,303.359999999845,1.317055e-05,303.359999999845,3.202228e-05,303.359999999845,0.003596043
303.374999999845,9.320606e-05,303.374999999845,1.278853e-05,303.374999999845,3.19831e-05,303.374999999845,0.003615445
303.389999999845,9.242322e-05,303.389999999845,1.250787e-05,303.389999999845,3.206228e-05,303.389999999845,0.003558682
303.40499999984496,9.210321e-05,303.40499999984496,1.224149e-05,303.40499999984496,3.188561e-05,303.40499999984496,0.003399302
303.41999999984495,9.215749e-05,303.41999999984495,1.221384e-05,303.41999999984495,3.186263e-05,303.41999999984495,0.003365251
303.43499999984493,9.221876e-05,303.43499999984493,1.227023e-05,303.43499999984493,3.10834e-05,303.43499999984493,0.003357475
303.4499999998449,9.206435e-05,303.4499999998449,1.146547e-05,303.4499999998449,2.604423e-05,303.4499999998449,0.003355174
303.4649999998449,9.070462e-05,303.4649999998449,1.092439e-05,303.4649999998449,2.011321e-05,303.4649999998449,0.003138431
303.4799999998449,8.949624e-05,303.4799999998449,1.12158e-05,303.4799999998449,1.409034e-05,303.4799999998449,0.002923309
303.4949999998449,8.88522e-05,303.4949999998449,1.114398e-05,303.4949999998449,1.192202e-05,303.4949999998449,0.00260174
303.50999999984487,8.514276e-05,303.50999999984487,1.222998e-05,303.50999999984487,9.878894e-06,303.50999999984487,0.00242046
303.52499999984485,8.17698e-05,303.52499999984485,1.230119e-05,303.52499999984485,9.930095e-06,303.52499999984485,0.002043581
303.53999999984484,7.118827e-05,303.53999999984484,1.242651e-05,303.53999999984484,9.509811e-06,303.53999999984484,0.001782707
303.5549999998448,4.259569e-05,303.5549999998448,1.303293e-05,303.5549999998448,9.070073e-06,303.5549999998448,0.001748465
303.5699999998448,2.664577e-05,303.5699999998448,1.305453e-05,303.5699999998448,8.968555e-06,303.5699999998448,0.001729219
303.5849999998448,2.609664e-05,303.5849999998448,1.318124e-05,303.5849999998448,9.240859e-06,303.5849999998448,0.001670013
303.5999999998448,2.478094e-05,303.5999999998448,1.385036e-05,303.5999999998448,8.480955e-06,303.5999999998448,0.001419096
303.61499999984477,1.909649e-05,303.61499999984477,1.618505e-05,303.61499999984477,8.784466e-06,303.61499999984477,0.001298147
303.62999999984476,1.9414e-05,303.62999999984476,1.583042e-05,303.62999999984476,8.99365e-06,303.62999999984476,0.001290301
303.64499999984474,2.155671e-05,303.64499999984474,1.601356e-05,303.64499999984474,2.112168e-05,303.64499999984474,0.001291251
303.65999999984473,2.57516e-05,303.65999999984473,1.639862e-05,303.65999999984473,2.431845e-05,303.65999999984473,0.001706718
303.6749999998447,2.681914e-05,303.6749999998447,1.795281e-05,303.6749999998447,2.855411e-05,303.6749999998447,0.001993169
303.6899999998447,2.682859e-05,303.6899999998447,1.853803e-05,303.6899999998447,2.879483e-05,303.6899999998447,0.002273928
303.7049999998447,2.767324e-05,303.7049999998447,1.897365e-05,303.7049999998447,2.899763e-05,303.7049999998447,0.002466569
303.7199999998447,2.689152e-05,303.7199999998447,1.913113e-05,303.7199999998447,2.913575e-05,303.7199999998447,0.002754196
303.73499999984466,2.604802e-05,303.73499999984466,1.882532e-05,303.73499999984466,2.915363e-05,303.73499999984466,0.002820006
303.74999999984465,2.676393e-05,303.74999999984465,1.880286e-05,303.74999999984465,2.916184e-05,303.74999999984465,0.002824885
303.76499999984463,2.784477e-05,303.76499999984463,1.824005e-05,303.76499999984463,2.976569e-05,303.76499999984463,0.002839135
303.7799999998446,2.790591e-05,303.7799999998446,1.820526e-05,303.7799999998446,3.221525e-05,303.7799999998446,0.002856003
303.7949999998446,2.735531e-05,303.7949999998446,1.809505e-05,303.7949999998446,3.354634e-05,303.7949999998446,0.002876954
303.8099999998446,2.728467e-05,303.8099999998446,1.755209e-05,303.8099999998446,3.369633e-05,303.8099999998446,0.002876093
303.8249999998446,2.716981e-05,303.8249999998446,1.710663e-05,303.8249999998446,3.420337e-05,303.8249999998446,0.002901923
303.83999999984457,2.686584e-05,303.83999999984457,1.699841e-05,303.83999999984457,3.477357e-05,303.83999999984457,0.00290824
303.85499999984455,2.675761e-05,303.85499999984455,1.408434e-05,303.85499999984455,3.530784e-05,303.85499999984455,0.002902505
303.86999999984454,2.704822e-05,303.86999999984454,1.423753e-05,303.86999999984454,3.531023e-05,303.86999999984454,0.002812727
303.8849999998445,2.674708e-05,303.8849999998445,1.41691e-05,303.8849999998445,3.469245e-05,303.8849999998445,0.002776744
303.8999999998445,2.125001e-05,303.8999999998445,1.323883e-05,303.8999999998445,2.815067e-05,303.8999999998445,0.002759553
303.9149999998445,2.020685e-05,303.9149999998445,1.195153e-05,303.9149999998445,2.548104e-05,303.9149999998445,0.002522705
303.9299999998445,1.878787e-05,303.9299999998445,1.061439e-05,303.9299999998445,2.33244e-05,303.9299999998445,0.002208146
303.94499999984447,2.211219e-05,303.94499999984447,1.066338e-05,303.94499999984447,2.315772e-05,303.94499999984447,0.001964954
303.95999999984446,2.401887e-05,303.95999999984446,9.904527e-06,303.95999999984446,2.296776e-05,303.95999999984446,0.001631645
303.97499999984444,2.444901e-05,303.97499999984444,9.714977e-06,303.97499999984444,2.33582e-05,303.97499999984444,0.001342027
303.98999999984443,2.466527e-05,303.98999999984443,1.150961e-05,303.98999999984443,2.388713e-05,303.98999999984443,0.00145608
304.0049999998444,2.682806e-05,304.0049999998444,1.215372e-05,304.0049999998444,2.393191e-05,304.0049999998444,0.001576853
304.0199999998444,2.618825e-05,304.0199999998444,1.250561e-05,304.0199999998444,2.425349e-05,304.0199999998444,0.001930422
304.0349999998444,2.642919e-05,304.0349999998444,1.280614e-05,304.0349999998444,2.17214e-05,304.0349999998444,0.002303679
304.0499999998444,2.820566e-05,304.0499999998444,1.399806e-05,304.0499999998444,2.087278e-05,304.0499999998444,0.002510987
304.06499999984436,3.641865e-05,304.06499999984436,1.857902e-05,304.06499999984436,4.902549e-05,304.06499999984436,0.002682375
304.07999999984435,3.932547e-05,304.07999999984435,2.02535e-05,304.07999999984435,5.02248e-05,304.07999999984435,0.002944546
304.09499999984433,4.060599e-05,304.09499999984433,2.125332e-05,304.09499999984433,5.502281e-05,304.09499999984433,0.003264396
304.1099999998443,4.170944e-05,304.1099999998443,2.134393e-05,304.1099999998443,5.621747e-05,304.1099999998443,0.003377409
304.1249999998443,5.320238e-05,304.1249999998443,2.207904e-05,304.1249999998443,5.633412e-05,304.1249999998443,0.003585854
304.1399999998443,6.731236e-05,304.1399999998443,2.208988e-05,304.1399999998443,5.623476e-05,304.1399999998443,0.00376382
304.1549999998443,8.05435e-05,304.1549999998443,2.2358e-05,304.1549999998443,5.633912e-05,304.1549999998443,0.003765807
304.16999999984426,8.298171e-05,304.16999999984426,2.242908e-05,304.16999999984426,5.632886e-05,304.16999999984426,0.003788315
304.18499999984425,8.320194e-05,304.18499999984425,2.291188e-05,304.18499999984425,5.633762e-05,304.18499999984425,0.003929459
304.19999999984424,8.228688e-05,304.19999999984424,2.290819e-05,304.19999999984424,5.633862e-05,304.19999999984424,0.004097187
304.2149999998442,8.180253e-05,304.2149999998442,2.298983e-05,304.2149999998442,5.631036e-05,304.2149999998442,0.004172512
304.2299999998442,8.301159e-05,304.2299999998442,2.296592e-05,304.2299999998442,5.603727e-05,304.2299999998442,0.00415073
304.2449999998442,8.35117e-05,304.2449999998442,2.215228e-05,304.2449999998442,5.591899e-05,304.2449999998442,0.004066301
304.2599999998442,8.267355e-05,304.2599999998442,2.120089e-05,304.2599999998442,5.555506e-05,304.2599999998442,0.004018537
304.27499999984417,8.293112e-05,304.27499999984417,2.115367e-05,304.27499999984417,5.489389e-05,304.27499999984417,0.003872176
304.28999999984416,8.643193e-05,304.28999999984416,2.195876e-05,304.28999999984416,5.451251e-05,304.28999999984416,0.003609026
304.30499999984414,8.665818e-05,304.30499999984414,2.187392e-05,304.30499999984414,4.858561e-05,304.30499999984414,0.003460436
304.31999999984413,8.481122e-05,304.31999999984413,1.956506e-05,304.31999999984413,2.965569e-05,304.31999999984413,0.003265935
304.3349999998441,8.400498e-05,304.3349999998441,1.899739e-05,304.3349999998441,2.242531e-05,304.3349999998441,0.003035136
304.3499999998441,8.300141e-05,304.3499999998441,1.871199e-05,304.3499999998441,1.361856e-05,304.3499999998441,0.002751916
304.3649999998441,8.404304e-05,304.3649999998441,1.898033e-05,304.3649999998441,9.414533e-06,304.3649999998441,0.002580244
304.3799999998441,7.436915e-05,304.3799999998441,1.908321e-05,304.3799999998441,8.494233e-06,304.3799999998441,0.002175619
304.39499999984406,6.038795e-05,304.39499999984406,1.943938e-05,304.39499999984406,7.352869e-06,304.39499999984406,0.00192085
304.40999999984405,5.287651e-05,304.40999999984405,1.913923e-05,304.40999999984405,5.802342e-06,304.40999999984405,0.001933276
304.42499999984403,4.975024e-05,304.42499999984403,2.018662e-05,304.42499999984403,5.654801e-06,304.42499999984403,0.001916043
304.439999999844,5.040594e-05,304.439999999844,2.114634e-05,304.439999999844,7.049668e-06,304.439999999844,0.001686013
304.454999999844,5.098612e-05,304.454999999844,2.106358e-05,304.454999999844,7.808148e-06,304.454999999844,0.001776031
304.469999999844,5.184015e-05,304.469999999844,2.1151e-05,304.469999999844,9.790087e-06,304.469999999844,0.00178013
304.484999999844,5.24947e-05,304.484999999844,2.321119e-05,304.484999999844,1.171222e-05,304.484999999844,0.002160303
304.49999999984396,5.904286e-05,304.49999999984396,2.770123e-05,304.49999999984396,1.671849e-05,304.49999999984396,0.002407203
304.51499999984395,6.172312e-05,304.51499999984395,2.946268e-05,304.51499999984395,2.066864e-05,304.51499999984395,0.002561383
304.52999999984394,6.280837e-05,304.52999999984394,3.215397e-05,304.52999999984394,2.326211e-05,304.52999999984394,0.002884225
304.5449999998439,5.495057e-05,304.5449999998439,3.195093e-05,304.5449999998439,2.361908e-05,304.5449999998439,0.003064341
304.5599999998439,5.36409e-05,304.5599999998439,3.14555e-05,304.5599999998439,2.364948e-05,304.5599999998439,0.00318381
304.5749999998439,5.456107e-05,304.5749999998439,3.062777e-05,304.5749999998439,2.369351e-05,304.5749999998439,0.003201675
304.5899999998439,5.820691e-05,304.5899999998439,3.114406e-05,304.5899999998439,2.36602e-05,304.5899999998439,0.003200601
304.60499999984387,5.816891e-05,304.60499999984387,3.099626e-05,304.60499999984387,2.370837e-05,304.60499999984387,0.003220905
304.61999999984386,5.703911e-05,304.61999999984386,3.53963e-05,304.61999999984386,2.380976e-05,304.61999999984386,0.003354208
304.63499999984384,5.521041e-05,304.63499999984384,3.566905e-05,304.63499999984384,2.463899e-05,304.63499999984384,0.003381891
304.6499999998438,5.487644e-05,304.6499999998438,3.564574e-05,304.6499999998438,2.504556e-05,304.6499999998438,0.003378342
304.6649999998438,5.471164e-05,304.6649999998438,3.615544e-05,304.6649999998438,2.707997e-05,304.6649999998438,0.003362864
304.6799999998438,6.102676e-05,304.6799999998438,3.552818e-05,304.6799999998438,2.722264e-05,304.6799999998438,0.003338431
304.6949999998438,6.29806e-05,304.6949999998438,4.142273e-05,304.6949999998438,2.749758e-05,304.6949999998438,0.003280125
304.7099999998438,6.166215e-05,304.7099999998438,4.161307e-05,304.7099999998438,2.749297e-05,304.7099999998438,0.003170737
304.72499999984376,6.048957e-05,304.72499999984376,4.167734e-05,304.72499999984376,2.702842e-05,304.72499999984376,0.003159662
304.73999999984375,5.872277e-05,304.73999999984375,4.082879e-05,304.73999999984375,2.601122e-05,304.73999999984375,0.00287457
304.75499999984373,5.507374e-05,304.75499999984373,3.964619e-05,304.75499999984373,2.121351e-05,304.75499999984373,0.002726239
304.7699999998437,5.174496e-05,304.7699999998437,4.046037e-05,304.7699999998437,2.012092e-05,304.7699999998437,0.002606121
304.7849999998437,5.086026e-05,304.7849999998437,3.94874e-05,304.7849999998437,1.804672e-05,304.7849999998437,0.002263483
304.7999999998437,5.010883e-05,304.7999999998437,3.939311e-05,304.7999999998437,1.813393e-05,304.7999999998437,0.002018614
304.8149999998437,4.969103e-05,304.8149999998437,3.99735e-05,304.8149999998437,1.887465e-05,304.8149999998437,0.001930611
304.82999999984366,4.854675e-05,304.82999999984366,4.252387e-05,304.82999999984366,1.989067e-05,304.82999999984366,0.00189051
304.84499999984365,4.56127e-05,304.84499999984365,4.279991e-05,304.84499999984365,1.994724e-05,304.84499999984365,0.001932282
304.85999999984364,4.66811e-05,304.85999999984364,4.244164e-05,304.85999999984364,2.000436e-05,304.85999999984364,0.002282144
304.8749999998436,5.570117e-05,304.8749999998436,3.94335e-05,304.8749999998436,2.352106e-05,304.8749999998436,0.002445208
304.8899999998436,0.0001491775,304.8899999998436,4.293727e-05,304.8899999998436,2.51813e-05,304.8899999998436,0.002698455
304.9049999998436,0.0001813111,304.9049999998436,4.617776e-05,304.9049999998436,3.880477e-05,304.9049999998436,0.002896856
304.9199999998436,0.0002478751,304.9199999998436,4.749807e-05,304.9199999998436,4.210708e-05,304.9199999998436,0.003154291
304.93499999984357,0.0002505673,304.93499999984357,4.816776e-05,304.93499999984357,4.241939e-05,304.93499999984357,0.003419454
304.94999999984356,0.000250576,304.94999999984356,4.415488e-05,304.94999999984356,4.208834e-05,304.94999999984356,0.003541306
304.96499999984354,0.000251035,304.96499999984354,4.400404e-05,304.96499999984354,4.228402e-05,304.96499999984354,0.003677337
304.9799999998435,0.0002515445,304.9799999998435,4.496919e-05,304.9799999998435,4.28854e-05,304.9799999998435,0.003788811
304.9949999998435,0.0002538563,304.9949999998435,4.486067e-05,304.9949999998435,4.28762e-05,304.9949999998435,0.003862377
305.0099999998435,0.0002548715,305.0099999998435,4.274261e-05,305.0099999998435,4.289164e-05,305.0099999998435,0.004045599
305.0249999998435,0.0002550337,305.0249999998435,4.166449e-05,305.0249999998435,4.254275e-05,305.0249999998435,0.004137539
305.0399999998435,0.0002552359,305.0399999998435,4.150053e-05,305.0399999998435,4.231765e-05,305.0399999998435,0.004143518
305.05499999984346,0.0002552562,305.05499999984346,4.116244e-05,305.05499999984346,4.224202e-05,305.05499999984346,0.00414576
305.06999999984345,0.0002553307,305.06999999984345,3.956082e-05,305.06999999984345,4.18571e-05,305.06999999984345,0.004141765
305.08499999984343,0.0002557008,305.08499999984343,4.089153e-05,305.08499999984343,4.149578e-05,305.08499999984343,0.004134035
305.0999999998434,0.0002559705,305.0999999998434,4.045863e-05,305.0999999998434,4.15209e-05,305.0999999998434,0.004063304
305.1149999998434,0.0002549646,305.1149999998434,3.997808e-05,305.1149999998434,4.146386e-05,305.1149999998434,0.003833476
305.1299999998434,0.0002398446,305.1299999998434,3.820221e-05,305.1299999998434,3.890918e-05,305.1299999998434,0.003582254
305.1449999998434,0.0001997406,305.1449999998434,3.509575e-05,305.1449999998434,3.127045e-05,305.1449999998434,0.003425496
305.15999999984336,0.0001522003,305.15999999984336,3.02054e-05,305.15999999984336,1.801234e-05,305.15999999984336,0.003298793
305.17499999984335,6.201365e-05,305.17499999984335,3.186617e-05,305.17499999984335,1.348865e-05,305.17499999984335,0.003041445
305.18999999984334,5.359913e-05,305.18999999984334,3.55143e-05,305.18999999984334,1.304805e-05,305.18999999984334,0.002789062
305.2049999998433,5.353128e-05,305.2049999998433,3.41634e-05,305.2049999998433,1.293311e-05,305.2049999998433,0.002506261
305.2199999998433,5.385607e-05,305.2199999998433,3.393669e-05,305.2199999998433,1.211192e-05,305.2199999998433,0.002114263
305.2349999998433,5.196798e-05,305.2349999998433,3.267676e-05,305.2349999998433,1.083895e-05,305.2349999998433,0.001902274
305.2499999998433,4.794293e-05,305.2499999998433,3.209785e-05,305.2499999998433,1.081163e-05,305.2499999998433,0.001640432
305.26499999984327,4.822943e-05,305.26499999984327,3.222093e-05,305.26499999984327,1.074497e-05,305.26499999984327,0.001079246
305.27999999984326,5.472143e-05,305.27999999984326,4.054072e-05,305.27999999984326,1.069372e-05,305.27999999984326,0.000823989
305.29499999984324,5.520224e-05,305.29499999984324,4.100471e-05,305.29499999984324,1.199271e-05,305.29499999984324,0.0008136398
305.3099999998432,5.840623e-05,305.3099999998432,4.223735e-05,305.3099999998432,1.244577e-05,305.3099999998432,0.0008975955
305.3249999998432,6.848105e-05,305.3249999998432,3.981142e-05,305.3249999998432,1.437538e-05,305.3249999998432,0.0008566185
305.3399999998432,0.0001065677,305.3399999998432,4.051917e-05,305.3399999998432,1.560547e-05,305.3399999998432,0.001048268
305.3549999998432,0.0001776887,305.3549999998432,4.043669e-05,305.3549999998432,1.587573e-05,305.3549999998432,0.001277369
305.3699999998432,0.0001966399,305.3699999998432,4.065765e-05,305.3699999998432,1.592535e-05,305.3699999998432,0.001811296
305.38499999984316,0.0002276067,305.38499999984316,4.061882e-05,305.38499999984316,1.60794e-05,305.38499999984316,0.001954356
305.39999999984315,0.0002333268,305.39999999984315,4.037952e-05,305.39999999984315,1.643466e-05,305.39999999984315,0.002367126
305.41499999984313,0.0002319764,305.41499999984313,3.963411e-05,305.41499999984313,1.640635e-05,305.41499999984313,0.002436902
305.4299999998431,0.0002339089,305.4299999998431,3.714667e-05,305.4299999998431,1.687448e-05,305.4299999998431,0.002456679
305.4449999998431,0.0002339304,305.4449999998431,3.413288e-05,305.4449999998431,1.640635e-05,305.4449999998431,0.002460481
305.4599999998431,0.0002343272,305.4599999998431,3.419514e-05,305.4599999998431,1.706623e-05,305.4599999998431,0.002541886
305.4749999998431,0.0002345954,305.4749999998431,3.413288e-05,305.4749999998431,1.711898e-05,305.4749999998431,0.002554632
305.48999999984306,0.0002353082,305.48999999984306,3.413453e-05,305.48999999984306,1.707118e-05,305.48999999984306,0.002557537
305.50499999984305,0.0002353795,305.50499999984305,3.393835e-05,305.50499999984305,1.722316e-05,305.50499999984305,0.002576689
305.51999999984304,0.0002351195,305.51999999984304,3.131637e-05,305.51999999984304,1.720434e-05,305.51999999984304,0.002583474
305.534999999843,0.0002342887,305.534999999843,2.15763e-05,305.534999999843,1.736652e-05,305.534999999843,0.002831058
305.549999999843,0.0002336234,305.549999999843,2.074755e-05,305.549999999843,1.621549e-05,305.549999999843,0.003035964
305.564999999843,0.0002333756,305.564999999843,1.619376e-05,305.564999999843,1.610041e-05,305.564999999843,0.003021456
305.579999999843,0.0002277312,305.579999999843,1.569727e-05,305.579999999843,1.421674e-05,305.579999999843,0.003037557
305.59499999984297,0.0001894181,305.59499999984297,1.43489e-05,305.59499999984297,1.406432e-05,305.59499999984297,0.003006206
305.60999999984296,0.0001530168,305.60999999984296,1.427113e-05,305.60999999984296,1.401214e-05,305.60999999984296,0.002837206
305.62499999984294,0.0001128016,305.62499999984294,1.386256e-05,305.62499999984294,1.411531e-05,305.62499999984294,0.002614646
305.6399999998429,6.802886e-05,305.6399999998429,1.306963e-05,305.6399999998429,1.44818e-05,305.6399999998429,0.002454519
305.6549999998429,5.460004e-05,305.6549999998429,1.136055e-05,305.6549999998429,1.379635e-05,305.6549999998429,0.002113543
305.6699999998429,5.296594e-05,305.6699999998429,1.259205e-05,305.6699999998429,1.341429e-05,305.6699999998429,0.002106655
305.6849999998429,5.060926e-05,305.6849999998429,1.210611e-05,305.6849999998429,1.366606e-05,305.6849999998429,0.002241048
305.6999999998429,5.156825e-05,305.6999999998429,1.235831e-05,305.6999999998429,1.418202e-05,305.6999999998429,0.00245168
305.71499999984286,5.075074e-05,305.71499999984286,1.278963e-05,305.71499999984286,1.596422e-05,305.71499999984286,0.002612842
305.72999999984285,7.700805e-05,305.72999999984285,2.850276e-05,305.72999999984285,4.601182e-05,305.72999999984285,0.002918409
305.74499999984283,8.078432e-05,305.74499999984283,3.484519e-05,305.74499999984283,6.217857e-05,305.74499999984283,0.003131298
305.7599999998428,7.990681e-05,305.7599999998428,3.677584e-05,305.7599999998428,6.572e-05,305.7599999998428,0.003234048
305.7749999998428,8.446687e-05,305.7749999998428,3.697982e-05,305.7749999998428,6.707526e-05,305.7749999998428,0.003346428
305.7899999998428,0.0001226337,305.7899999998428,3.713719e-05,305.7899999998428,6.741859e-05,305.7899999998428,0.003202699
305.8049999998428,0.0001880821,305.8049999998428,3.738444e-05,305.8049999998428,6.789538e-05,305.8049999998428,0.003345507
305.81999999984276,0.0002247461,305.81999999984276,3.782571e-05,305.81999999984276,6.838163e-05,305.81999999984276,0.003405285
305.83499999984275,0.0002494099,305.83499999984275,3.7997e-05,305.83499999984275,6.908664e-05,305.83499999984275,0.003432907
305.84999999984274,0.0002544153,305.84999999984274,3.834318e-05,305.84999999984274,6.930873e-05,305.84999999984274,0.003497551
305.8649999998427,0.0002545275,305.8649999998427,3.902558e-05,305.8649999998427,6.932864e-05,305.8649999998427,0.003526079
305.8799999998427,0.0002552131,305.8799999998427,3.904182e-05,305.8799999998427,6.935993e-05,305.8799999998427,0.003503856
305.8949999998427,0.0002561713,305.8949999998427,3.905264e-05,305.8949999998427,6.925994e-05,305.8949999998427,0.003495964
305.9099999998427,0.0002564996,305.9099999998427,3.925089e-05,305.9099999998427,6.930914e-05,305.9099999998427,0.003528562
305.92499999984267,0.0002570723,305.92499999984267,3.879751e-05,305.92499999984267,6.939749e-05,305.92499999984267,0.003533376
305.93999999984266,0.000257187,305.93999999984266,3.898658e-05,305.93999999984266,6.926461e-05,305.93999999984266,0.003395447
305.95499999984264,0.0002570323,305.95499999984264,3.899958e-05,305.95499999984264,6.908745e-05,305.95499999984264,0.003272758
305.9699999998426,0.000253875,305.9699999998426,3.788302e-05,305.9699999998426,6.792961e-05,305.9699999998426,0.003041481
305.9849999998426,0.0002491947,305.9849999998426,2.901025e-05,305.9849999998426,3.550597e-05,305.9849999998426,0.002793804
305.9999999998426,0.0002483782,305.9999999998426,2.141904e-05,305.9999999998426,2.851264e-05,305.9999999998426,0.002691447
306.0149999998426,0.0002475076,306.0149999998426,1.853348e-05,306.0149999998426,2.378193e-05,306.0149999998426,0.002436811
306.0299999998426,0.0002436615,306.0299999998426,1.879462e-05,306.0299999998426,2.193758e-05,306.0299999998426,0.002407826
306.04499999984256,0.0002156238,306.04499999984256,1.817196e-05,306.04499999984256,1.93413e-05,306.04499999984256,0.002165917
306.05999999984255,0.0001464609,306.05999999984255,1.876987e-05,306.05999999984255,1.852815e-05,306.05999999984255,0.001764099
306.07499999984253,0.0001125136,306.07499999984253,1.840611e-05,306.07499999984253,1.632717e-05,306.07499999984253,0.001736976
306.0899999998425,5.687266e-05,306.0899999998425,1.837317e-05,306.0899999998425,1.268789e-05,306.0899999998425,0.001561035
306.1049999998425,4.342335e-05,306.1049999998425,1.642094e-05,306.1049999998425,1.241177e-05,306.1049999998425,0.001511012
306.1199999998425,4.2993e-05,306.1199999998425,1.613013e-05,306.1199999998425,1.223343e-05,306.1199999998425,0.001458333
306.1349999998425,4.064032e-05,306.1349999998425,1.648601e-05,306.1349999998425,1.148265e-05,306.1349999998425,0.001494056
306.14999999984246,4.076456e-05,306.14999999984246,1.810283e-05,306.14999999984246,1.423457e-05,306.14999999984246,0.001753923
306.16499999984245,4.27739e-05,306.16499999984245,1.966918e-05,306.16499999984245,1.423655e-05,306.16499999984245,0.001758206
306.17999999984244,4.369306e-05,306.17999999984244,2.102408e-05,306.17999999984244,1.648601e-05,306.17999999984244,0.001815484
306.1949999998424,4.246785e-05,306.1949999998424,2.127981e-05,306.1949999998424,1.724442e-05,306.1949999998424,0.001898164
306.2099999998424,4.354515e-05,306.2099999998424,2.211537e-05,306.2099999998424,2.020475e-05,306.2099999998424,0.001836034
306.2249999998424,4.559602e-05,306.2249999998424,2.219104e-05,306.2249999998424,2.028477e-05,306.2249999998424,0.002152152
306.2399999998424,4.595055e-05,306.2399999998424,2.300821e-05,306.2399999998424,2.100598e-05,306.2399999998424,0.002301046
306.25499999984237,4.915089e-05,306.25499999984237,2.350908e-05,306.25499999984237,2.166426e-05,306.25499999984237,0.002572314
306.26999999984236,4.922735e-05,306.26999999984236,2.35976e-05,306.26999999984236,2.144664e-05,306.26999999984236,0.00263698
306.28499999984234,4.950101e-05,306.28499999984234,2.330144e-05,306.28499999984234,2.165255e-05,306.28499999984234,0.00265973
306.2999999998423,4.935624e-05,306.2999999998423,2.339616e-05,306.2999999998423,2.136504e-05,306.2999999998423,0.002765733
306.3149999998423,4.898582e-05,306.3149999998423,2.269692e-05,306.3149999998423,2.164214e-05,306.3149999998423,0.002813607
306.3299999998423,4.894784e-05,306.3299999998423,2.236115e-05,306.3299999998423,2.195876e-05,306.3299999998423,0.002819085
306.3449999998423,4.860127e-05,306.3449999998423,2.241903e-05,306.3449999998423,2.219168e-05,306.3449999998423,0.002921019
306.3599999998423,4.796731e-05,306.3599999998423,2.244101e-05,306.3599999998423,2.244038e-05,306.3599999998423,0.003059167
306.37499999984226,4.797347e-05,306.37499999984226,2.246736e-05,306.37499999984226,2.283058e-05,306.37499999984226,0.003084115
306.38999999984225,4.722593e-05,306.38999999984225,2.144598e-05,306.38999999984225,2.272917e-05,306.38999999984225,0.003159603
306.40499999984223,4.504837e-05,306.40499999984223,2.044594e-05,306.40499999984223,2.234665e-05,306.40499999984223,0.003150325
306.4199999998422,4.247415e-05,306.4199999998422,1.845578e-05,306.4199999998422,2.307973e-05,306.4199999998422,0.003224546
306.4349999998422,3.913084e-05,306.4349999998422,1.703401e-05,306.4349999998422,2.068431e-05,306.4349999998422,0.003196757
306.4499999998422,3.722811e-05,306.4499999998422,1.476119e-05,306.4499999998422,1.965915e-05,306.4499999998422,0.003160493
306.4649999998422,3.323881e-05,306.4649999998422,1.331945e-05,306.4649999998422,1.769914e-05,306.4649999998422,0.003103239
306.47999999984216,3.264484e-05,306.47999999984216,1.301238e-05,306.47999999984216,1.768003e-05,306.47999999984216,0.002845968
306.49499999984215,2.783971e-05,306.49499999984215,1.09231e-05,306.49499999984215,1.660944e-05,306.49499999984215,0.002668716
306.50999999984214,2.561448e-05,306.50999999984214,9.803028e-06,306.50999999984214,1.59845e-05,306.50999999984214,0.002522921
306.5249999998421,2.619793e-05,306.5249999998421,1.035781e-05,306.5249999998421,1.594038e-05,306.5249999998421,0.002595865
306.5399999998421,2.766663e-05,306.5399999998421,1.063295e-05,306.5399999998421,1.59103e-05,306.5399999998421,0.00256095
306.5549999998421,3.160116e-05,306.5549999998421,1.157065e-05,306.5549999998421,1.755931e-05,306.5549999998421,0.002774891
306.5699999998421,3.162388e-05,306.5699999998421,1.290912e-05,306.5699999998421,1.716335e-05,306.5699999998421,0.002952343
306.58499999984207,3.211496e-05,306.58499999984207,1.275765e-05,306.58499999984207,1.978344e-05,306.58499999984207,0.003094627
306.59999999984205,3.820553e-05,306.59999999984205,1.510736e-05,306.59999999984205,3.100171e-05,306.59999999984205,0.003068958
306.61499999984204,4.016019e-05,306.61499999984204,1.589967e-05,306.61499999984204,3.18237e-05,306.61499999984204,0.002979741
306.629999999842,4.220566e-05,306.629999999842,1.584376e-05,306.629999999842,3.207282e-05,306.629999999842,0.003310019
306.644999999842,8.255777e-05,306.644999999842,1.631422e-05,306.644999999842,3.225458e-05,306.644999999842,0.003456886
306.659999999842,0.0001045819,306.659999999842,1.71773e-05,306.659999999842,3.107841e-05,306.659999999842,0.003429651
306.674999999842,0.000174729,306.674999999842,1.713296e-05,306.674999999842,3.091526e-05,306.674999999842,0.003649861
306.689999999842,0.0001938309,306.689999999842,1.71198e-05,306.689999999842,3.079245e-05,306.689999999842,0.003717594
306.70499999984196,0.0002200495,306.70499999984196,1.724932e-05,306.70499999984196,3.081028e-05,306.70499999984196,0.003729507
306.71999999984195,0.0002338294,306.71999999984195,1.723052e-05,306.71999999984195,3.079473e-05,306.71999999984195,0.003778768
306.73499999984193,0.0002350575,306.73499999984193,1.741916e-05,306.73499999984193,3.081805e-05,306.73499999984193,0.003785731
306.7499999998419,0.0002351752,306.7499999998419,1.797712e-05,306.7499999998419,3.087149e-05,306.7499999998419,0.00391405
306.7649999998419,0.0002356183,306.7649999998419,1.824468e-05,306.7649999998419,3.077872e-05,306.7649999998419,0.00410432
306.7799999998419,0.0002358341,306.7799999998419,1.787653e-05,306.7799999998419,3.074162e-05,306.7799999998419,0.004074479
306.7949999998419,0.0002354767,306.7949999998419,1.743775e-05,306.7949999998419,3.040528e-05,306.7949999998419,0.004018317
306.80999999984186,0.0002353483,306.80999999984186,1.65372e-05,306.80999999984186,2.964761e-05,306.80999999984186,0.003865121
306.82499999984185,0.0002353949,306.82499999984185,1.65389e-05,306.82499999984185,2.923614e-05,306.82499999984185,0.003778362
306.83999999984184,0.0002349173,306.83999999984184,1.709427e-05,306.83999999984184,2.671177e-05,306.83999999984184,0.003627275
306.8549999998418,0.0002340475,306.8549999998418,1.557475e-05,306.8549999998418,1.019883e-05,306.8549999998418,0.003625229
306.8699999998418,0.0002336223,306.8699999998418,1.51502e-05,306.8699999998418,9.227129e-06,306.8699999998418,0.003478636
306.8849999998418,0.0002319956,306.8849999998418,1.494801e-05,306.8849999998418,8.370614e-06,306.8849999998418,0.003228287
306.8999999998418,0.0002201635,306.8999999998418,1.487053e-05,306.8999999998418,6.912455e-06,306.8999999998418,0.003058188
306.91499999984177,0.0002105708,306.91499999984177,1.418202e-05,306.91499999984177,6.684531e-06,306.91499999984177,0.002774661
306.92999999984175,0.0001316012,306.92999999984175,1.486295e-05,306.92999999984175,6.635885e-06,306.92999999984175,0.002402551
306.94499999984174,0.0001168585,306.94499999984174,1.505319e-05,306.94499999984174,6.591156e-06,306.94499999984174,0.002324657
306.9599999998417,6.858157e-05,306.9599999998417,1.598715e-05,306.9599999998417,6.373853e-06,306.9599999998417,0.00231507
306.9749999998417,3.265347e-05,306.9749999998417,1.606099e-05,306.9749999998417,6.19225e-06,306.9749999998417,0.002293857
306.9899999998417,3.136491e-05,306.9899999998417,1.589436e-05,306.9899999998417,6.625263e-06,306.9899999998417,0.002336676
307.0049999998417,3.146625e-05,307.0049999998417,1.539188e-05,307.0049999998417,7.632989e-06,307.0049999998417,0.002223476
307.0199999998417,2.967516e-05,307.0199999998417,1.570534e-05,307.0199999998417,7.766543e-06,307.0199999998417,0.001864093
307.03499999984166,2.950043e-05,307.03499999984166,1.570176e-05,307.03499999984166,9.410042e-06,307.03499999984166,0.001751198
307.04999999984165,3.536206e-05,307.04999999984165,1.725993e-05,307.04999999984165,1.385341e-05,307.04999999984165,0.001875945
307.06499999984163,3.973953e-05,307.06499999984163,1.950232e-05,307.06499999984163,1.504102e-05,307.06499999984163,0.002135481
307.0799999998416,4.02978e-05,307.0799999998416,1.946183e-05,307.0799999998416,1.675552e-05,307.0799999998416,0.00241059
307.0949999998416,4.349174e-05,307.0949999998416,1.911271e-05,307.0949999998416,1.748857e-05,307.0949999998416,0.002644787
307.1099999998416,4.359494e-05,307.1099999998416,1.833556e-05,307.1099999998416,1.764175e-05,307.1099999998416,0.002793597
307.1249999998416,4.356553e-05,307.1249999998416,1.840305e-05,307.1249999998416,1.777142e-05,307.1249999998416,0.002797337
307.13999999984156,4.348494e-05,307.13999999984156,1.82686e-05,307.13999999984156,1.774525e-05,307.13999999984156,0.002798564
307.15499999984155,4.353706e-05,307.15499999984155,1.816033e-05,307.15499999984155,1.779677e-05,307.15499999984155,0.00276473
307.16999999984154,4.38697e-05,307.16999999984154,1.783077e-05,307.16999999984154,1.83839e-05,307.16999999984154,0.002783871
307.1849999998415,4.370402e-05,307.1849999998415,1.772062e-05,307.1849999998415,1.834785e-05,307.1849999998415,0.00278478
307.1999999998415,4.397298e-05,307.1999999998415,1.78205e-05,307.1999999998415,1.86063e-05,307.1999999998415,0.002804165
307.2149999998415,4.400724e-05,307.2149999998415,1.764574e-05,307.2149999998415,1.872328e-05,307.2149999998415,0.002974728
307.2299999998415,4.31836e-05,307.2299999998415,1.787496e-05,307.2299999998415,1.92376e-05,307.2299999998415,0.003088819
307.24499999984147,4.066942e-05,307.24499999984147,1.800687e-05,307.24499999984147,1.868789e-05,307.24499999984147,0.002992315
307.25999999984145,4.074797e-05,307.25999999984145,1.805999e-05,307.25999999984145,1.853652e-05,307.25999999984145,0.003035481
307.27499999984144,3.947313e-05,307.27499999984144,1.787969e-05,307.27499999984144,1.920536e-05,307.27499999984144,0.003102789
307.2899999998414,3.944814e-05,307.2899999998414,1.83632e-05,307.2899999998414,1.866752e-05,307.2899999998414,0.003106129
307.3049999998414,3.198222e-05,307.3049999998414,1.75296e-05,307.3049999998414,1.503446e-05,307.3049999998414,0.003016169
307.3199999998414,2.803032e-05,307.3199999998414,1.581083e-05,307.3199999998414,1.413526e-05,307.3199999998414,0.002741062
307.3349999998414,2.451518e-05,307.3349999998414,1.598009e-05,307.3349999998414,1.251012e-05,307.3349999998414,0.002425051
307.3499999998414,2.128908e-05,307.3499999998414,1.586686e-05,307.3499999998414,1.220808e-05,307.3499999998414,0.002132902
307.36499999984136,2.268202e-05,307.36499999984136,1.599419e-05,307.36499999984136,1.224264e-05,307.36499999984136,0.002123093
307.37999999984135,2.628811e-05,307.37999999984135,1.738111e-05,307.37999999984135,1.253262e-05,307.37999999984135,0.002162542
307.39499999984133,2.729963e-05,307.39499999984133,1.740784e-05,307.39499999984133,1.371545e-05,307.39499999984133,0.002535925
307.4099999998413,4.440842e-05,307.4099999998413,1.754968e-05,307.4099999998413,1.552946e-05,307.4099999998413,0.002869381
307.4249999998413,6.75259e-05,307.4249999998413,1.830096e-05,307.4249999998413,3.638459e-05,307.4249999998413,0.00304388
307.4399999998413,8.776847e-05,307.4399999998413,2.114767e-05,307.4399999998413,3.934517e-05,307.4399999998413,0.003173846
307.4549999998413,0.0001742734,307.4549999998413,2.263477e-05,307.4549999998413,4.749273e-05,307.4549999998413,0.003338844
307.46999999984126,0.0002058478,307.46999999984126,2.308888e-05,307.46999999984126,4.895849e-05,307.46999999984126,0.003426983
307.48499999984125,0.0002630561,307.48499999984125,2.287496e-05,307.48499999984125,4.932912e-05,307.48499999984125,0.003547802
307.49999999984124,0.0002793442,307.49999999984124,2.286511e-05,307.49999999984124,4.965501e-05,307.49999999984124,0.003652618
307.5149999998412,0.0003716334,307.5149999998412,2.292049e-05,307.5149999998412,4.990009e-05,307.5149999998412,0.003652518
307.5299999998412,0.000419095,307.5299999998412,2.28497e-05,307.5299999998412,4.963402e-05,307.5299999998412,0.003610703
307.5449999998412,0.0004819739,307.5449999998412,2.246799e-05,307.5449999998412,4.963288e-05,307.5449999998412,0.003625606
307.5599999998412,0.0004939149,307.5599999998412,2.198953e-05,307.5599999998412,4.967855e-05,307.5599999998412,0.003589156
307.57499999984117,0.0004944161,307.57499999984117,2.134855e-05,307.57499999984117,4.966012e-05,307.57499999984117,0.003633827
307.58999999984115,0.0004963069,307.58999999984115,2.101001e-05,307.58999999984115,4.966267e-05,307.58999999984115,0.003829537
307.60499999984114,0.0004982446,307.60499999984114,2.099458e-05,307.60499999984114,4.949532e-05,307.60499999984114,0.003925758
307.6199999998411,0.0004990229,307.6199999998411,2.074687e-05,307.6199999998411,4.944065e-05,307.6199999998411,0.003868283
307.6349999998411,0.0004990041,307.6349999998411,1.986728e-05,307.6349999998411,4.930712e-05,307.6349999998411,0.003838246
307.6499999998411,0.0004989711,307.6499999998411,2.002829e-05,307.6499999998411,4.858764e-05,307.6499999998411,0.003658759
307.6649999998411,0.000497091,307.6649999998411,2.029935e-05,307.6649999998411,4.772353e-05,307.6649999998411,0.00345118
307.6799999998411,0.0004943071,307.6799999998411,1.740865e-05,307.6799999998411,3.509655e-05,307.6799999998411,0.003390803
307.69499999984106,0.0004708171,307.69499999984106,1.566583e-05,307.69499999984106,2.769106e-05,307.69499999984106,0.003196482
307.70999999984105,0.0004638133,307.70999999984105,1.390517e-05,307.70999999984105,1.517899e-05,307.70999999984105,0.002987721
307.72499999984103,0.0004442558,307.72499999984103,1.326434e-05,307.72499999984103,1.246726e-05,307.72499999984103,0.002688998
307.739999999841,0.0004170802,307.739999999841,1.419096e-05,307.739999999841,1.149737e-05,307.739999999841,0.002503979
307.754999999841,0.0003618585,307.754999999841,1.358231e-05,307.754999999841,9.21185e-06,307.754999999841,0.002297722
307.769999999841,0.0003051407,307.769999999841,1.541291e-05,307.769999999841,8.862694e-06,307.769999999841,0.002235469
307.784999999841,0.0002239725,307.784999999841,1.561359e-05,307.784999999841,9.411539e-06,307.784999999841,0.002196356
307.79999999984096,0.0001016551,307.79999999984096,1.663995e-05,307.79999999984096,9.517214e-06,307.79999999984096,0.002184163
307.81499999984095,6.457464e-05,307.81499999984095,1.754245e-05,307.81499999984095,9.791525e-06,307.81499999984095,0.00218034
307.82999999984094,6.599849e-05,307.82999999984094,1.81417e-05,307.82999999984094,1.084155e-05,307.82999999984094,0.00205283
307.8449999998409,5.963043e-05,307.8449999998409,1.877137e-05,307.8449999998409,1.494047e-05,307.8449999998409,0.001945043
307.8599999998409,5.606341e-05,307.8599999998409,2.299963e-05,307.8599999998409,1.968636e-05,307.8599999998409,0.001968046
307.8749999998409,5.936005e-05,307.8749999998409,2.577347e-05,307.8749999998409,2.282564e-05,307.8749999998409,0.002182203
307.8899999998409,6.464985e-05,307.8899999998409,2.784628e-05,307.8899999998409,2.743912e-05,307.8899999998409,0.002555788
307.90499999984087,7.156738e-05,307.90499999984087,2.779971e-05,307.90499999984087,2.804991e-05,307.90499999984087,0.002666815
307.91999999984085,7.242865e-05,307.91999999984085,2.79039e-05,307.91999999984085,2.864179e-05,307.91999999984085,0.002806054
307.93499999984084,7.388589e-05,307.93499999984084,2.802932e-05,307.93499999984084,2.889738e-05,307.93499999984084,0.002821383
307.9499999998408,7.465254e-05,307.9499999998408,2.805494e-05,307.9499999998408,2.88525e-05,307.9499999998408,0.002825114
307.9649999998408,7.574317e-05,307.9649999998408,2.807602e-05,307.9649999998408,2.920963e-05,307.9649999998408,0.002842217
307.9799999998408,7.655379e-05,307.9799999998408,2.77921e-05,307.9799999998408,2.924577e-05,307.9799999998408,0.002841457
307.9949999998408,7.836601e-05,307.9949999998408,2.795786e-05,307.9949999998408,2.993792e-05,307.9949999998408,0.002912333
308.0099999998408,7.99181e-05,308.0099999998408,2.815117e-05,308.0099999998408,3.018861e-05,308.0099999998408,0.002928943
308.02499999984076,8.135842e-05,308.02499999984076,2.709661e-05,308.02499999984076,3.074437e-05,308.02499999984076,0.002993705
308.03999999984075,8.331547e-05,308.03999999984075,2.7006e-05,308.03999999984075,3.09799e-05,308.03999999984075,0.003012031
308.05499999984073,8.488576e-05,308.05499999984073,2.674603e-05,308.05499999984073,3.172706e-05,308.05499999984073,0.003062155
308.0699999998407,8.643176e-05,308.0699999998407,2.625111e-05,308.0699999998407,3.183432e-05,308.0699999998407,0.003069759
308.0849999998407,8.667963e-05,308.0849999998407,2.597003e-05,308.0849999998407,3.18918e-05,308.0849999998407,0.003101124
308.0999999998407,8.561085e-05,308.0999999998407,2.55037e-05,308.0999999998407,3.059971e-05,308.0999999998407,0.002996629
308.1149999998407,8.321497e-05,308.1149999998407,1.982469e-05,308.1149999998407,2.672126e-05,308.1149999998407,0.002843405
308.12999999984066,8.045969e-05,308.12999999984066,1.877287e-05,308.12999999984066,2.562272e-05,308.12999999984066,0.002675141
308.14499999984065,7.518072e-05,308.14499999984065,1.656103e-05,308.14499999984065,2.428889e-05,308.14499999984065,0.002476924
308.15999999984064,7.638837e-05,308.15999999984064,1.612663e-05,308.15999999984064,2.423722e-05,308.15999999984064,0.002316996
308.1749999998406,7.702506e-05,308.1749999998406,1.639175e-05,308.1749999998406,2.396485e-05,308.1749999998406,0.00233119
308.1899999998406,7.651219e-05,308.1899999998406,1.674375e-05,308.1899999998406,2.402297e-05,308.1899999998406,0.002340392
308.2049999998406,7.617342e-05,308.2049999998406,1.653635e-05,308.2049999998406,2.417787e-05,308.2049999998406,0.002434063
308.2199999998406,7.808039e-05,308.2199999998406,1.736895e-05,308.2199999998406,2.410726e-05,308.2199999998406,0.002718489
308.23499999984057,7.807895e-05,308.23499999984057,1.806544e-05,308.23499999984057,2.379141e-05,308.23499999984057,0.002904636
308.24999999984055,9.233203e-05,308.24999999984055,1.999802e-05,308.24999999984055,3.925592e-05,308.24999999984055,0.003123831
308.26499999984054,0.0001833326,308.26499999984054,2.232773e-05,308.26499999984054,4.805621e-05,308.26499999984054,0.003288803
308.2799999998405,0.000216398,308.2799999998405,2.293155e-05,308.2799999998405,5.620745e-05,308.2799999998405,0.003418203
308.2949999998405,0.0006450977,308.2949999998405,2.272235e-05,308.2949999998405,5.720237e-05,308.2949999998405,0.003535334
308.3099999998405,0.0006887609,308.3099999998405,2.302901e-05,308.3099999998405,5.71802e-05,308.3099999998405,0.003558289
308.3249999998405,0.0007448469,308.3249999998405,2.283614e-05,308.3249999998405,5.706603e-05,308.3249999998405,0.003601885
308.3399999998405,0.0007737796,308.3399999998405,2.291127e-05,308.3399999998405,5.70722e-05,308.3399999998405,0.003642508
308.35499999984046,0.0007773503,308.35499999984046,2.239325e-05,308.35499999984046,5.67313e-05,308.35499999984046,0.003603204
308.36999999984045,0.0007776414,308.36999999984045,2.274404e-05,308.36999999984045,5.682831e-05,308.36999999984045,0.00360951
308.38499999984043,0.0007783663,308.38499999984043,2.294383e-05,308.38499999984043,5.595903e-05,308.38499999984043,0.003614441
308.3999999998404,0.0007791514,308.3999999998404,2.304736e-05,308.3999999998404,5.569662e-05,308.3999999998404,0.003573329
308.4149999998404,0.0007793687,308.4149999998404,2.308156e-05,308.4149999998404,5.554086e-05,308.4149999998404,0.003553559
308.4299999998404,0.000779337,308.4299999998404,2.278302e-05,308.4299999998404,5.552132e-05,308.4299999998404,0.003577829
308.4449999998404,0.000779338,308.4449999998404,2.241463e-05,308.4449999998404,5.536939e-05,308.4449999998404,0.003542406
308.45999999984036,0.0007791213,308.45999999984036,2.290696e-05,308.45999999984036,5.525963e-05,308.45999999984036,0.003507515
308.47499999984035,0.0007790949,308.47499999984035,2.2358e-05,308.47499999984035,5.515399e-05,308.47499999984035,0.00342461
308.48999999984034,0.0007780079,308.48999999984034,2.235233e-05,308.48999999984034,5.502614e-05,308.48999999984034,0.003210678
308.5049999998403,0.000773177,308.5049999998403,2.014541e-05,308.5049999998403,3.531262e-05,308.5049999998403,0.003090112
308.5199999998403,0.0007494901,308.5199999998403,1.764095e-05,308.5199999998403,3.070953e-05,308.5199999998403,0.002850457
308.5349999998403,0.0007318651,308.5349999998403,1.74232e-05,308.5349999998403,1.762976e-05,308.5349999998403,0.002650644
308.5499999998403,0.0003499389,308.5499999998403,1.727054e-05,308.5499999998403,1.456715e-05,308.5499999998403,0.00258945
308.56499999984027,0.0003193515,308.56499999984027,1.707036e-05,308.56499999984027,1.482879e-05,308.56499999984027,0.002452083
308.57999999984025,0.0001887647,308.57999999984025,1.682683e-05,308.57999999984025,1.432237e-05,308.57999999984025,0.002423236
308.59499999984024,8.159372e-05,308.59499999984024,1.761698e-05,308.59499999984024,1.333213e-05,308.59499999984024,0.002341727
308.6099999998402,7.054682e-05,308.6099999998402,1.772062e-05,308.6099999998402,1.332051e-05,308.6099999998402,0.002341064
308.6249999998402,6.371222e-05,308.6249999998402,1.71855e-05,308.6249999998402,1.25831e-05,308.6249999998402,0.002340207
308.6399999998402,5.277971e-05,308.6399999998402,1.713378e-05,308.6399999998402,1.238564e-05,308.6399999998402,0.002281624
308.6549999998402,4.830939e-05,308.6549999998402,1.674796e-05,308.6549999998402,1.189482e-05,308.6549999998402,0.002157612
308.6699999998402,4.377552e-05,308.6699999998402,1.664757e-05,308.6699999998402,1.271229e-05,308.6699999998402,0.002134134
308.68499999984016,4.465862e-05,308.68499999984016,1.805687e-05,308.68499999984016,1.560818e-05,308.68499999984016,0.002211526
308.69999999984014,5.27068e-05,308.69999999984014,2.258493e-05,308.69999999984014,2.14906e-05,308.69999999984014,0.002409539
308.71499999984013,5.607597e-05,308.71499999984013,2.34064e-05,308.71499999984013,2.205031e-05,308.71499999984013,0.00253678
308.7299999998401,6.12314e-05,308.7299999998401,2.585423e-05,308.7299999998401,2.388478e-05,308.7299999998401,0.002671383
308.7449999998401,6.494052e-05,308.7449999998401,2.565843e-05,308.7449999998401,2.523774e-05,308.7449999998401,0.002929915
308.7599999998401,6.767385e-05,308.7599999998401,2.660132e-05,308.7599999998401,2.53519e-05,308.7599999998401,0.002936499
308.7749999998401,6.729583e-05,308.7749999998401,2.800619e-05,308.7749999998401,2.531298e-05,308.7749999998401,0.002900252
308.78999999984006,6.682087e-05,308.78999999984006,2.843101e-05,308.78999999984006,2.533189e-05,308.78999999984006,0.0028873
308.80499999984005,6.662981e-05,308.80499999984005,2.87395e-05,308.80499999984005,2.553957e-05,308.80499999984005,0.002891001
308.81999999984004,6.627941e-05,308.81999999984004,2.892028e-05,308.81999999984004,2.548823e-05,308.81999999984004,0.00289179
308.83499999984,6.597137e-05,308.83499999984,2.876546e-05,308.83499999984,2.577128e-05,308.83499999984,0.002888502
308.84999999984,6.572857e-05,308.84999999984,2.815718e-05,308.84999999984,2.604694e-05,308.84999999984,0.002883155
308.86499999984,6.5006e-05,308.86499999984,2.841911e-05,308.86499999984,2.649892e-05,308.86499999984,0.002827796
308.87999999984,6.461215e-05,308.87999999984,2.819567e-05,308.87999999984,2.669858e-05,308.87999999984,0.002875837
308.89499999983997,6.44836e-05,308.89499999983997,2.839035e-05,308.89499999983997,2.667325e-05,308.89499999983997,0.002908461
308.90999999983995,6.353598e-05,308.90999999983995,2.846765e-05,308.90999999983995,2.632131e-05,308.90999999983995,0.002822409
308.92499999983994,6.082098e-05,308.92499999983994,2.833572e-05,308.92499999983994,2.499545e-05,308.92499999983994,0.002740352
308.9399999998399,5.718932e-05,308.9399999998399,2.754978e-05,308.9399999998399,2.393544e-05,308.9399999998399,0.002671938
308.9549999998399,4.88646e-05,308.9549999998399,2.343466e-05,308.9549999998399,1.878937e-05,308.9549999998399,0.002435727
308.9699999998399,4.434747e-05,308.9699999998399,2.188551e-05,308.9699999998399,1.766249e-05,308.9699999998399,0.002152172
308.9849999998399,3.180998e-05,308.9849999998399,2.017545e-05,308.9849999998399,1.600124e-05,308.9849999998399,0.001758354
308.9999999998399,1.929901e-05,308.9999999998399,1.990907e-05,308.9999999998399,1.470382e-05,308.9999999998399,0.00132414
309.01499999983986,1.908985e-05,309.01499999983986,1.885374e-05,309.01499999983986,1.415816e-05,309.01499999983986,0.00126825
309.02999999983984,1.948064e-05,309.02999999983984,1.681427e-05,309.02999999983984,1.446136e-05,309.02999999983984,0.001266999
309.04499999983983,2.178293e-05,309.04499999983983,1.642609e-05,309.04499999983983,1.437048e-05,309.04499999983983,0.001271715
309.0599999998398,2.333648e-05,309.0599999998398,1.555574e-05,309.0599999998398,1.804438e-05,309.0599999998398,0.001497698
309.0749999998398,3.424947e-05,309.0749999998398,1.666786e-05,309.0749999998398,2.201194e-05,309.0749999998398,0.001894925
309.0899999998398,0.0001167974,309.0899999998398,1.834862e-05,309.0899999998398,2.942201e-05,309.0899999998398,0.002154139
309.1049999998398,0.0002844684,309.1049999998398,2.188164e-05,309.1049999998398,4.660046e-05,309.1049999998398,0.002325899
309.11999999983976,0.0003641553,309.11999999983976,2.417262e-05,309.11999999983976,5.215738e-05,309.11999999983976,0.002607712
309.13499999983975,0.0004254726,309.13499999983975,2.470123e-05,309.13499999983975,5.260353e-05,309.13499999983975,0.002875436
309.14999999983974,0.0005993863,309.14999999983974,2.474795e-05,309.14999999983974,5.293801e-05,309.14999999983974,0.002937501
309.1649999998397,0.0006478167,309.1649999998397,2.464242e-05,309.1649999998397,5.293242e-05,309.1649999998397,0.003102612
309.1799999998397,0.0007214593,309.1799999998397,2.441615e-05,309.1799999998397,5.288423e-05,309.1799999998397,0.003195438
309.1949999998397,0.0007375854,309.1949999998397,2.494073e-05,309.1949999998397,5.289276e-05,309.1949999998397,0.003173364
309.2099999998397,0.000738022,309.2099999998397,2.536912e-05,309.2099999998397,5.286798e-05,309.2099999998397,0.003171096
309.22499999983967,0.0007399292,309.22499999983967,2.547551e-05,309.22499999983967,5.291352e-05,309.22499999983967,0.003173654
309.23999999983965,0.0007415035,309.23999999983965,2.539853e-05,309.23999999983965,5.275061e-05,309.23999999983965,0.003195835
309.25499999983964,0.0007420954,309.25499999983964,2.46824e-05,309.25499999983964,5.281733e-05,309.25499999983964,0.003257269
309.2699999998396,0.0007424566,309.2699999998396,2.462069e-05,309.2699999998396,5.292896e-05,309.2699999998396,0.003382137
309.2849999998396,0.0007429871,309.2849999998396,2.455767e-05,309.2849999998396,5.291299e-05,309.2849999998396,0.003459674
309.2999999998396,0.0007437947,309.2999999998396,2.462355e-05,309.2999999998396,5.277331e-05,309.2999999998396,0.003461571
309.3149999998396,0.0007440046,309.3149999998396,2.387121e-05,309.3149999998396,5.139477e-05,309.3149999998396,0.003432524
309.3299999998396,0.0007430912,309.3299999998396,2.393544e-05,309.3299999998396,4.701517e-05,309.3299999998396,0.003210654
309.34499999983956,0.0006981255,309.34499999983956,2.146699e-05,309.34499999983956,3.901583e-05,309.34499999983956,0.003027438
309.35999999983954,0.000675167,309.35999999983954,1.694363e-05,309.35999999983954,1.94198e-05,309.35999999983954,0.00296793
309.37499999983953,0.0006317358,309.37499999983953,1.565054e-05,309.37499999983953,1.42948e-05,309.37499999983953,0.002680584
309.3899999998395,0.0005484853,309.3899999998395,1.599948e-05,309.3899999998395,1.226449e-05,309.3899999998395,0.002352144
309.4049999998395,0.0004020385,309.4049999998395,1.58917e-05,309.4049999998395,1.20021e-05,309.4049999998395,0.002273763
309.4199999998395,0.0002969997,309.4199999998395,1.702988e-05,309.4199999998395,1.20396e-05,309.4199999998395,0.002102456
309.4349999998395,0.0001388418,309.4349999998395,1.732591e-05,309.4349999998395,1.184259e-05,309.4349999998395,0.002027303
309.44999999983946,8.914533e-05,309.44999999983946,1.81921e-05,309.44999999983946,1.14544e-05,309.44999999983946,0.002028215
309.46499999983945,8.725626e-05,309.46499999983945,1.865242e-05,309.46499999983945,1.197625e-05,309.46499999983945,0.002078892
