X[s],a: EMG RMS 1-1,X[s].1,a: EMG RMS 1-2,X[s].2,a: EMG RMS 1-3,X[s].3,a: EMG RMS 1-4
325.0049999998253,0.0001099024,325.0049999998253,3.476952e-05,325.0049999998253,4.510587e-05,325.0049999998253,0.003420847
325.0199999998253,0.000111005,325.0199999998253,3.447331e-05,325.0199999998253,4.512929e-05,325.0199999998253,0.00334693
325.0349999998253,0.0001113013,325.0349999998253,3.397361e-05,325.0349999998253,4.515893e-05,325.0349999998253,0.003355891
325.0499999998253,0.0001110401,325.0499999998253,3.328159e-05,325.0499999998253,4.392233e-05,325.0499999998253,0.003193117
325.06499999982526,0.0001083676,325.06499999982526,3.281914e-05,325.06499999982526,4.306143e-05,325.06499999982526,0.003030371
325.07999999982525,9.637237e-05,325.07999999982525,2.741241e-05,325.07999999982525,3.126775e-05,325.07999999982525,0.002756735
325.09499999982523,8.4331e-05,325.09499999982523,2.193951e-05,325.09499999982523,2.64553e-05,325.09499999982523,0.002558171
325.1099999998252,7.529045e-05,325.1099999998252,2.146699e-05,325.1099999998252,2.459893e-05,325.1099999998252,0.002255547
325.1249999998252,6.330231e-05,325.1249999998252,1.772936e-05,325.1249999998252,2.03056e-05,325.1249999998252,0.002001733
325.1399999998252,6.454343e-05,325.1399999998252,1.464142e-05,325.1399999998252,1.931579e-05,325.1399999998252,0.001846955
325.1549999998252,6.657185e-05,325.1549999998252,1.518085e-05,325.1549999998252,1.907435e-05,325.1549999998252,0.00181322
325.16999999982517,6.68274e-05,325.16999999982517,1.671597e-05,325.16999999982517,1.929755e-05,325.16999999982517,0.001818527
325.18499999982515,6.873237e-05,325.18499999982515,1.729906e-05,325.18499999982515,1.968565e-05,325.18499999982515,0.00188807
325.19999999982514,7.08787e-05,325.19999999982514,1.754326e-05,325.19999999982514,1.997759e-05,325.19999999982514,0.001920061
325.2149999998251,7.298837e-05,325.2149999998251,1.755851e-05,325.2149999998251,1.984458e-05,325.2149999998251,0.001955298
325.2299999998251,7.422467e-05,325.2299999998251,1.765212e-05,325.2299999998251,2.087885e-05,325.2299999998251,0.002051473
325.2449999998251,8.721622e-05,325.2449999998251,2.206308e-05,325.2449999998251,2.95491e-05,325.2449999998251,0.002391944
325.2599999998251,8.948805e-05,325.2599999998251,2.51841e-05,325.2599999998251,3.390596e-05,325.2599999998251,0.002424311
325.27499999982507,9.220272e-05,325.27499999982507,2.682859e-05,325.27499999982507,4.189646e-05,325.27499999982507,0.002596929
325.28999999982506,9.428572e-05,325.28999999982506,2.685221e-05,325.28999999982506,4.202336e-05,325.28999999982506,0.002682789
325.30499999982504,9.515542e-05,325.30499999982504,2.724437e-05,325.30499999982504,4.234062e-05,325.30499999982504,0.002759273
325.31999999982503,9.467069e-05,325.31999999982503,2.725264e-05,325.31999999982503,4.21736e-05,325.31999999982503,0.002906132
325.334999999825,9.531842e-05,325.334999999825,2.77058e-05,325.334999999825,4.167024e-05,325.334999999825,0.003023864
325.349999999825,9.508996e-05,325.349999999825,2.736509e-05,325.349999999825,4.113334e-05,325.349999999825,0.002979673
325.364999999825,9.822939e-05,325.364999999825,2.765491e-05,325.364999999825,4.093973e-05,325.364999999825,0.003105414
325.379999999825,9.945319e-05,325.379999999825,2.753802e-05,325.379999999825,4.097344e-05,325.379999999825,0.003209488
325.39499999982496,0.0001002791,325.39499999982496,2.850918e-05,325.39499999982496,4.096966e-05,325.39499999982496,0.003224553
325.40999999982495,0.0001015449,325.40999999982495,2.859798e-05,325.40999999982495,4.087672e-05,325.40999999982495,0.003333145
325.42499999982493,0.0001022997,325.42499999982493,2.826603e-05,325.42499999982493,4.126293e-05,325.42499999982493,0.00333503
325.4399999998249,0.0001018719,325.4399999998249,2.877428e-05,325.4399999998249,4.128136e-05,325.4399999998249,0.003419275
325.4549999998249,0.0001016489,325.4549999998249,2.901511e-05,325.4549999998249,4.128443e-05,325.4549999998249,0.003403352
325.4699999998249,0.0001012331,325.4699999998249,2.997272e-05,325.4699999998249,4.163169e-05,325.4699999998249,0.003418165
325.4849999998249,9.893314e-05,325.4849999998249,2.88608e-05,325.4849999998249,4.03502e-05,325.4849999998249,0.003339119
325.49999999982487,9.131523e-05,325.49999999982487,2.666268e-05,325.49999999982487,3.204822e-05,325.49999999982487,0.003168475
325.51499999982485,9.193773e-05,325.51499999982485,2.353962e-05,325.51499999982485,2.56502e-05,325.51499999982485,0.003174991
325.52999999982484,8.909981e-05,325.52999999982484,2.355817e-05,325.52999999982484,1.994512e-05,325.52999999982484,0.003031694
325.5449999998248,8.91744e-05,325.5449999998248,2.339676e-05,325.5449999998248,1.962257e-05,325.5449999998248,0.003071646
325.5599999998248,8.681328e-05,325.5599999998248,2.436822e-05,325.5599999998248,1.961683e-05,325.5599999998248,0.002947058
325.5749999998248,8.746089e-05,325.5749999998248,2.456226e-05,325.5749999998248,2.016986e-05,325.5749999998248,0.002812991
325.5899999998248,8.687816e-05,325.5899999998248,2.441961e-05,325.5899999998248,2.036932e-05,325.5899999998248,0.002781674
325.60499999982477,8.2511e-05,325.60499999982477,2.459951e-05,325.60499999982477,2.053943e-05,325.60499999982477,0.002762119
325.61999999982476,8.113736e-05,325.61999999982476,2.585968e-05,325.61999999982476,1.983677e-05,325.61999999982476,0.002729528
325.63499999982474,7.813089e-05,325.63499999982474,2.5676e-05,325.63499999982474,1.999591e-05,325.63499999982474,0.002598746
325.64999999982473,7.732295e-05,325.64999999982473,2.573409e-05,325.64999999982473,1.995713e-05,325.64999999982473,0.002578383
325.6649999998247,7.544744e-05,325.6649999998247,2.508995e-05,325.6649999998247,1.940166e-05,325.6649999998247,0.002461006
325.6799999998247,7.417607e-05,325.6799999998247,2.636943e-05,325.6799999998247,1.970996e-05,325.6799999998247,0.002558547
325.6949999998247,7.176767e-05,325.6949999998247,2.543456e-05,325.6949999998247,1.987295e-05,325.6949999998247,0.002557941
325.7099999998247,8.062077e-05,325.7099999998247,2.869633e-05,325.7099999998247,2.42128e-05,325.7099999998247,0.002769002
325.72499999982466,7.96469e-05,325.72499999982466,2.82411e-05,325.72499999982466,2.43115e-05,325.72499999982466,0.002781339
325.73999999982465,8.080106e-05,325.73999999982465,2.896068e-05,325.73999999982465,2.582643e-05,325.73999999982465,0.002931058
325.75499999982463,8.141657e-05,325.75499999982463,2.925444e-05,325.75499999982463,2.781997e-05,325.75499999982463,0.003161234
325.7699999998246,8.029547e-05,325.7699999998246,2.961671e-05,325.7699999998246,2.824509e-05,325.7699999998246,0.003133618
325.7849999998246,7.984103e-05,325.7849999998246,2.94732e-05,325.7849999998246,2.809708e-05,325.7849999998246,0.003153494
325.7999999998246,7.725989e-05,325.7999999998246,2.815768e-05,325.7999999998246,2.760546e-05,325.7999999998246,0.003096656
325.8149999998246,7.564286e-05,325.8149999998246,2.82431e-05,325.8149999998246,2.781744e-05,325.8149999998246,0.003058631
325.82999999982457,7.343208e-05,325.82999999982457,2.788976e-05,325.82999999982457,2.700861e-05,325.82999999982457,0.003020696
325.84499999982455,7.175904e-05,325.84499999982455,2.771191e-05,325.84499999982455,2.665528e-05,325.84499999982455,0.002993679
325.85999999982454,7.065077e-05,325.85999999982454,2.730841e-05,325.85999999982454,2.654301e-05,325.85999999982454,0.002966159
325.8749999998245,7.04573e-05,325.8749999998245,2.561888e-05,325.8749999998245,2.629668e-05,325.8749999998245,0.002919428
325.8899999998245,6.983234e-05,325.8899999998245,2.639773e-05,325.8899999998245,2.599984e-05,325.8899999998245,0.002900183
325.9049999998245,6.857931e-05,325.9049999998245,2.556052e-05,325.9049999998245,2.585096e-05,325.9049999998245,0.002870219
325.9199999998245,6.732994e-05,325.9199999998245,2.546722e-05,325.9199999998245,2.567874e-05,325.9199999998245,0.002730044
325.93499999982447,6.534942e-05,325.93499999982447,2.356355e-05,325.93499999982447,2.514379e-05,325.93499999982447,0.002826084
325.94999999982446,5.969065e-05,325.94999999982446,2.297083e-05,325.94999999982446,2.408564e-05,325.94999999982446,0.002623012
325.96499999982444,4.878844e-05,325.96499999982444,1.821145e-05,325.96499999982444,1.954201e-05,325.96499999982444,0.002407726
325.97999999982443,4.670373e-05,325.97999999982443,1.727788e-05,325.97999999982443,1.846494e-05,325.97999999982443,0.002321478
325.9949999998244,3.808477e-05,325.9949999998244,1.603641e-05,325.9949999998244,1.601356e-05,325.9949999998244,0.002076983
326.0099999998244,3.161364e-05,326.0099999998244,1.45913e-05,326.0099999998244,1.347193e-05,326.0099999998244,0.001790051
326.0249999998244,3.125874e-05,326.0249999998244,1.405731e-05,326.0249999998244,1.186873e-05,326.0249999998244,0.001745454
326.0399999998244,2.793719e-05,326.0399999998244,1.503914e-05,326.0399999998244,1.22507e-05,326.0399999998244,0.001695179
326.05499999982436,2.755285e-05,326.05499999982436,1.519198e-05,326.05499999982436,1.278632e-05,326.05499999982436,0.001662944
326.06999999982435,2.849683e-05,326.06999999982435,1.687699e-05,326.06999999982435,1.266456e-05,326.06999999982435,0.001806985
326.08499999982433,2.998776e-05,326.08499999982433,1.714858e-05,326.08499999982433,1.488e-05,326.08499999982433,0.001969081
326.0999999998243,3.00164e-05,326.0999999998243,1.737868e-05,326.0999999998243,1.589347e-05,326.0999999998243,0.002264233
326.1149999998243,3.127901e-05,326.1149999998243,1.736327e-05,326.1149999998243,1.640979e-05,326.1149999998243,0.002345801
326.1299999998243,5.786978e-05,326.1299999998243,2.301923e-05,326.1299999998243,3.039833e-05,326.1299999998243,0.002527035
326.1449999998243,8.443167e-05,326.1449999998243,2.593963e-05,326.1449999998243,4.856793e-05,326.1449999998243,0.002737791
326.15999999982427,8.554451e-05,326.15999999982427,2.602908e-05,326.15999999982427,5.256416e-05,326.15999999982427,0.002995069
326.17499999982425,8.702364e-05,326.17499999982425,2.667694e-05,326.17499999982425,5.470469e-05,326.17499999982425,0.003060217
326.18999999982424,8.780826e-05,326.18999999982424,2.678655e-05,326.18999999982424,5.564247e-05,326.18999999982424,0.002986733
326.2049999998242,9.000617e-05,326.2049999998242,2.685745e-05,326.2049999998242,5.646549e-05,326.2049999998242,0.002928205
326.2199999998242,9.158388e-05,326.2199999998242,2.683279e-05,326.2199999998242,5.647372e-05,326.2199999998242,0.002930304
326.2349999998242,9.286524e-05,326.2349999998242,2.648244e-05,326.2349999998242,5.626306e-05,326.2349999998242,0.002898113
326.2499999998242,9.905523e-05,326.2499999998242,2.684224e-05,326.2499999998242,5.623902e-05,326.2499999998242,0.002915166
326.26499999982417,0.000101843,326.26499999982417,2.694281e-05,326.26499999982417,5.635537e-05,326.26499999982417,0.003002775
326.27999999982416,0.0001029901,326.27999999982416,2.710596e-05,326.27999999982416,5.638486e-05,326.27999999982416,0.003186287
326.29499999982414,0.0001042552,326.29499999982414,2.671704e-05,326.29499999982414,5.63021e-05,326.29499999982414,0.003239111
326.30999999982413,0.000104996,326.30999999982413,2.652018e-05,326.30999999982413,5.631011e-05,326.30999999982413,0.003176274
326.3249999998241,0.0001049854,326.3249999998241,2.573354e-05,326.3249999998241,5.623376e-05,326.3249999998241,0.003139278
326.3399999998241,0.0001047129,326.3399999998241,2.561393e-05,326.3399999998241,5.55984e-05,326.3399999998241,0.002945657
326.3549999998241,0.0001046802,326.3549999998241,2.586567e-05,326.3549999998241,5.554694e-05,326.3549999998241,0.002752846
326.3699999998241,0.0001042303,326.3699999998241,2.585314e-05,326.3699999998241,5.549214e-05,326.3699999998241,0.002601434
326.38499999982406,8.080246e-05,326.38499999982406,1.758496e-05,326.38499999982406,4.100918e-05,326.38499999982406,0.002384718
326.39999999982405,6.753591e-05,326.39999999982405,1.557746e-05,326.39999999982405,2.710908e-05,326.39999999982405,0.002272993
326.41499999982403,6.482567e-05,326.41499999982403,1.535431e-05,326.41499999982403,2.362981e-05,326.41499999982403,0.001887593
326.429999999824,6.289331e-05,326.429999999824,1.440084e-05,326.429999999824,1.884253e-05,326.429999999824,0.001853954
326.444999999824,6.104638e-05,326.444999999824,1.421377e-05,326.444999999824,1.561088e-05,326.444999999824,0.001901526
326.459999999824,5.60081e-05,326.459999999824,1.453423e-05,326.459999999824,1.36444e-05,326.459999999824,0.00191062
326.474999999824,5.420621e-05,326.474999999824,1.493387e-05,326.474999999824,1.358439e-05,326.474999999824,0.001917581
326.48999999982397,5.150429e-05,326.48999999982397,1.461831e-05,326.48999999982397,1.256069e-05,326.48999999982397,0.001794073
326.50499999982395,3.49316e-05,326.50499999982395,1.404027e-05,326.50499999982395,1.240382e-05,326.50499999982395,0.001671284
326.51999999982394,3.304627e-05,326.51999999982394,1.493764e-05,326.51999999982394,1.195624e-05,326.51999999982394,0.001510712
326.5349999998239,2.833025e-05,326.5349999998239,1.43842e-05,326.5349999998239,1.17734e-05,326.5349999998239,0.001117568
326.5499999998239,2.375882e-05,326.5499999998239,1.445356e-05,326.5499999998239,1.155481e-05,326.5499999998239,0.0009813515
326.5649999998239,2.059422e-05,326.5649999998239,1.428988e-05,326.5649999998239,9.937185e-06,326.5649999998239,0.0009298265
326.5799999998239,1.998534e-05,326.5799999998239,1.569458e-05,326.5799999998239,1.115787e-05,326.5799999998239,0.0009069511
326.59499999982387,2.177452e-05,326.59499999982387,1.62502e-05,326.59499999982387,1.207815e-05,326.59499999982387,0.001020409
326.60999999982386,2.477582e-05,326.60999999982386,1.754567e-05,326.60999999982386,1.365059e-05,326.60999999982386,0.001071265
326.62499999982384,2.590649e-05,326.62499999982384,1.793475e-05,326.62499999982384,1.442527e-05,326.62499999982384,0.001408166
326.63999999982383,3.723455e-05,326.63999999982383,1.88515e-05,326.63999999982383,1.585176e-05,326.63999999982383,0.001682536
326.6549999998238,4.080739e-05,326.6549999998238,2.070065e-05,326.6549999998238,1.729662e-05,326.6549999998238,0.001947283
326.6699999998238,4.120759e-05,326.6699999998238,2.272855e-05,326.6699999998238,1.960462e-05,326.6699999998238,0.002010596
326.6849999998238,4.127215e-05,326.6849999998238,2.30724e-05,326.6849999998238,1.995783e-05,326.6849999998238,0.002116419
326.6999999998238,4.171754e-05,326.6999999998238,2.557154e-05,326.6999999998238,2.109832e-05,326.6999999998238,0.0021016
326.71499999982376,4.194619e-05,326.71499999982376,2.612847e-05,326.71499999982376,2.119092e-05,326.71499999982376,0.002166797
326.72999999982375,4.207161e-05,326.72999999982375,2.646594e-05,326.72999999982375,2.141706e-05,326.72999999982375,0.002220481
326.74499999982373,4.244064e-05,326.74499999982373,2.755029e-05,326.74499999982373,2.156128e-05,326.74499999982373,0.002246447
326.7599999998237,4.265782e-05,326.7599999998237,2.728518e-05,326.7599999998237,2.157108e-05,326.7599999998237,0.002249144
326.7749999998237,4.258577e-05,326.7749999998237,2.668011e-05,326.7749999998237,2.158544e-05,326.7749999998237,0.002244676
326.7899999998237,4.264824e-05,326.7899999998237,2.66098e-05,326.7899999998237,2.167596e-05,326.7899999998237,0.002249048
326.8049999998237,4.227869e-05,326.8049999998237,2.674234e-05,326.8049999998237,2.171102e-05,326.8049999998237,0.002257681
326.81999999982366,4.235558e-05,326.81999999982366,2.641107e-05,326.81999999982366,2.161283e-05,326.81999999982366,0.002258517
326.83499999982365,4.235658e-05,326.83499999982365,2.589778e-05,326.83499999982365,2.089639e-05,326.83499999982365,0.002284836
326.84999999982364,4.009173e-05,326.84999999982364,2.555887e-05,326.84999999982364,1.974709e-05,326.84999999982364,0.002261174
326.8649999998236,3.90411e-05,326.8649999998236,2.424884e-05,326.8649999998236,1.877062e-05,326.8649999998236,0.002238173
326.8799999998236,3.472208e-05,326.8799999998236,2.434335e-05,326.8799999998236,1.826629e-05,326.8799999998236,0.002048541
326.8949999998236,2.554785e-05,326.8949999998236,2.372738e-05,326.8949999998236,1.64518e-05,326.8949999998236,0.001687411
326.9099999998236,2.164409e-05,326.9099999998236,2.130628e-05,326.9099999998236,1.399706e-05,326.9099999998236,0.00155844
326.92499999982357,2.256433e-05,326.92499999982357,1.952686e-05,326.92499999982357,1.160954e-05,326.92499999982357,0.00141382
326.93999999982356,2.144467e-05,326.93999999982356,1.881185e-05,326.93999999982356,1.079337e-05,326.93999999982356,0.001345835
326.95499999982354,2.160631e-05,326.95499999982354,1.568919e-05,326.95499999982354,8.578393e-06,326.95499999982354,0.001292362
326.96999999982353,2.205222e-05,326.96999999982353,1.495555e-05,326.96999999982353,8.996782e-06,326.96999999982353,0.00147336
326.9849999998235,2.18133e-05,326.9849999998235,1.469232e-05,326.9849999998235,8.752336e-06,326.9849999998235,0.001341264
326.9999999998235,2.196838e-05,326.9999999998235,1.409934e-05,326.9999999998235,9.694656e-06,326.9999999998235,0.001345547
327.0149999998235,2.151026e-05,327.0149999998235,1.3989e-05,327.0149999998235,1.020159e-05,327.0149999998235,0.001465261
327.0299999998235,2.16922e-05,327.0299999998235,1.386561e-05,327.0299999998235,1.011701e-05,327.0299999998235,0.001523278
327.04499999982346,2.214592e-05,327.04499999982346,1.427706e-05,327.04499999982346,1.003031e-05,327.04499999982346,0.001522725
327.05999999982345,2.166751e-05,327.05999999982345,1.454683e-05,327.05999999982345,1.008074e-05,327.05999999982345,0.001524577
327.07499999982343,2.153382e-05,327.07499999982343,1.466545e-05,327.07499999982343,9.973975e-06,327.07499999982343,0.001514341
327.0899999998234,2.131091e-05,327.0899999998234,1.510457e-05,327.0899999998234,1.021263e-05,327.0899999998234,0.001467268
327.1049999998234,2.124669e-05,327.1049999998234,1.547129e-05,327.1049999998234,1.040395e-05,327.1049999998234,0.001470403
327.1199999998234,2.122878e-05,327.1199999998234,1.535339e-05,327.1199999998234,1.026217e-05,327.1199999998234,0.001410057
327.1349999998234,2.144007e-05,327.1349999998234,1.590676e-05,327.1349999998234,1.011422e-05,327.1349999998234,0.001364953
327.14999999982336,2.256621e-05,327.14999999982336,1.598009e-05,327.14999999982336,1.041071e-05,327.14999999982336,0.001467377
327.16499999982335,2.490851e-05,327.16499999982335,1.658398e-05,327.16499999982335,1.092181e-05,327.16499999982335,0.00149607
327.17999999982334,2.501179e-05,327.17999999982334,1.675973e-05,327.17999999982334,1.166764e-05,327.17999999982334,0.00149747
327.1949999998233,2.542071e-05,327.1949999998233,1.675552e-05,327.1949999998233,1.203492e-05,327.1949999998233,0.001536398
327.2099999998233,2.540242e-05,327.2099999998233,1.652782e-05,327.2099999998233,1.236743e-05,327.2099999998233,0.001666247
327.2249999998233,2.644092e-05,327.2249999998233,1.588017e-05,327.2249999998233,1.226334e-05,327.2249999998233,0.00158677
327.2399999998233,2.63015e-05,327.2399999998233,1.522717e-05,327.2399999998233,1.182593e-05,327.2399999998233,0.001575914
327.25499999982327,2.718432e-05,327.25499999982327,1.526506e-05,327.25499999982327,1.125216e-05,327.25499999982327,0.001647579
327.26999999982326,2.848199e-05,327.26999999982326,1.522625e-05,327.26999999982326,1.107805e-05,327.26999999982326,0.001660871
327.28499999982324,2.911785e-05,327.28499999982324,1.514089e-05,327.28499999982324,1.145932e-05,327.28499999982324,0.001650177
327.2999999998232,2.916378e-05,327.2999999998232,1.510084e-05,327.2999999998232,1.157551e-05,327.2999999998232,0.001652839
327.3149999998232,2.98021e-05,327.3149999998232,1.42662e-05,327.3149999998232,1.157551e-05,327.3149999998232,0.0016452
327.3299999998232,3.017414e-05,327.3299999998232,1.352098e-05,327.3299999998232,1.169778e-05,327.3299999998232,0.001642119
327.3449999998232,3.04673e-05,327.3449999998232,1.337012e-05,327.3449999998232,1.146547e-05,327.3449999998232,0.001628947
327.3599999998232,3.021146e-05,327.3599999998232,1.348238e-05,327.3599999998232,1.131209e-05,327.3599999998232,0.001606701
327.37499999982316,3.091389e-05,327.37499999982316,1.310622e-05,327.37499999982316,1.138533e-05,327.37499999982316,0.001600457
327.38999999982315,3.115356e-05,327.38999999982315,1.300155e-05,327.38999999982315,1.15816e-05,327.38999999982315,0.001583181
327.40499999982313,2.981534e-05,327.40499999982313,1.267123e-05,327.40499999982313,1.095787e-05,327.40499999982313,0.001460136
327.4199999998231,2.813666e-05,327.4199999998231,1.157795e-05,327.4199999998231,1.05785e-05,327.4199999998231,0.001449955
327.4349999998231,2.750782e-05,327.4349999998231,1.143471e-05,327.4349999998231,9.489051e-06,327.4349999998231,0.001449453
327.4499999998231,2.700391e-05,327.4499999998231,1.151206e-05,327.4499999998231,8.260502e-06,327.4499999998231,0.001318104
327.4649999998231,2.535746e-05,327.4649999998231,1.362684e-05,327.4649999998231,7.719241e-06,327.4649999998231,0.0009984303
327.47999999982306,2.469666e-05,327.47999999982306,1.399303e-05,327.47999999982306,7.629297e-06,327.47999999982306,0.0009736898
327.49499999982305,2.38139e-05,327.49499999982305,1.375954e-05,327.49499999982305,7.863876e-06,327.49499999982305,0.0009403668
327.50999999982304,2.278426e-05,327.50999999982304,1.369078e-05,327.50999999982304,7.48201e-06,327.50999999982304,0.0006827809
327.524999999823,2.114767e-05,327.524999999823,1.417109e-05,327.524999999823,7.48201e-06,327.524999999823,0.0005198936
327.539999999823,1.985664e-05,327.539999999823,1.393452e-05,327.539999999823,6.871577e-06,327.539999999823,0.0004620683
327.554999999823,1.870747e-05,327.554999999823,1.461638e-05,327.554999999823,6.559019e-06,327.554999999823,0.0004284687
327.569999999823,1.817661e-05,327.569999999823,1.464334e-05,327.569999999823,6.54612e-06,327.569999999823,0.0004443665
327.58499999982297,1.753362e-05,327.58499999982297,1.42948e-05,327.58499999982297,6.102884e-06,327.58499999982297,0.0004420029
327.59999999982296,1.68193e-05,327.59999999982296,1.413625e-05,327.59999999982296,6.185421e-06,327.59999999982296,0.0004325829
327.61499999982294,1.646549e-05,327.61499999982294,1.388084e-05,327.61499999982294,6.091332e-06,327.61499999982294,0.0004177931
327.6299999998229,1.266344e-05,327.6299999998229,1.363097e-05,327.6299999998229,5.692045e-06,327.6299999998229,0.0003612608
327.6449999998229,1.199858e-05,327.6449999998229,1.396683e-05,327.6449999998229,5.464775e-06,327.6449999998229,0.0003079121
327.6599999998229,1.09231e-05,327.6599999998229,1.495178e-05,327.6599999998229,5.526294e-06,327.6599999998229,0.0003257786
327.6749999998229,1.068582e-05,327.6749999998229,1.48819e-05,327.6749999998229,5.197909e-06,327.6749999998229,0.0003316755
327.6899999998229,1.015592e-05,327.6899999998229,1.556208e-05,327.6899999998229,5.049445e-06,327.6899999998229,0.00032837
327.70499999982286,9.884596e-06,327.70499999982286,1.488474e-05,327.70499999982286,5.121465e-06,327.70499999982286,0.0003400556
327.71999999982285,9.70337e-06,327.71999999982285,1.487432e-05,327.71999999982285,5.187057e-06,327.71999999982285,0.0003398518
327.73499999982283,9.629048e-06,327.73499999982283,1.447012e-05,327.73499999982283,5.208738e-06,327.73499999982283,0.0003339938
327.7499999998228,9.730914e-06,327.7499999998228,1.488284e-05,327.7499999998228,4.4218e-06,327.7499999998228,0.0003411189
327.7649999998228,1.063825e-05,327.7649999998228,1.715186e-05,327.7649999998228,4.494475e-06,327.7649999998228,0.0003701423
327.7799999998228,1.079468e-05,327.7799999998228,1.802954e-05,327.7799999998228,4.444044e-06,327.7799999998228,0.0003943961
327.7949999998228,1.125717e-05,327.7949999998228,1.837087e-05,327.7949999998228,4.35762e-06,327.7949999998228,0.0003900565
327.80999999982276,1.20396e-05,327.80999999982276,1.83225e-05,327.80999999982276,4.434525e-06,327.80999999982276,0.0003829827
327.82499999982275,1.248983e-05,327.82499999982275,1.903739e-05,327.82499999982275,4.447213e-06,327.82499999982275,0.0003630502
327.83999999982274,1.292984e-05,327.83999999982274,2.020963e-05,327.83999999982274,4.450379e-06,327.83999999982274,0.0003740183
327.8549999998227,1.290912e-05,327.8549999998227,2.048449e-05,327.8549999998227,4.519479e-06,327.8549999998227,0.0004169363
327.8699999998227,1.349282e-05,327.8699999998227,2.058738e-05,327.8699999998227,4.506994e-06,327.8699999998227,0.0004184191
327.8849999998227,1.403725e-05,327.8849999998227,2.093276e-05,327.8849999998227,4.541245e-06,327.8849999998227,0.0004502687
327.8999999998227,1.493009e-05,327.8999999998227,2.239703e-05,327.8999999998227,4.803539e-06,327.8999999998227,0.0005947331
327.91499999982267,1.526136e-05,327.91499999982267,2.198633e-05,327.91499999982267,4.922306e-06,327.91499999982267,0.0006043278
327.92999999982266,1.549131e-05,327.92999999982266,2.296224e-05,327.92999999982266,5.503306e-06,327.92999999982266,0.0008117674
327.94499999982264,1.586153e-05,327.94499999982264,2.319237e-05,327.94499999982264,5.741327e-06,327.94499999982264,0.0009869371
327.9599999998226,1.709098e-05,327.9599999998226,2.624467e-05,327.9599999998226,6.210422e-06,327.9599999998226,0.0009893309
327.9749999998226,1.795359e-05,327.9749999998226,2.599659e-05,327.9749999998226,6.832516e-06,327.9749999998226,0.001194267
327.9899999998226,2.060379e-05,327.9899999998226,2.625915e-05,327.9899999998226,7.049668e-06,327.9899999998226,0.001279471
328.0049999998226,2.18346e-05,328.0049999998226,2.756103e-05,328.0049999998226,7.748384e-06,328.0049999998226,0.001325087
328.0199999998226,2.202793e-05,328.0199999998226,3.059694e-05,328.0199999998226,7.85312e-06,328.0199999998226,0.001377571
328.03499999982256,2.342444e-05,328.03499999982256,3.07833e-05,328.03499999982256,8.133331e-06,328.03499999982256,0.001388416
328.04999999982255,2.336604e-05,328.04999999982255,3.117887e-05,328.04999999982255,8.576751e-06,328.04999999982255,0.001400492
328.06499999982253,2.439768e-05,328.06499999982253,3.130557e-05,328.06499999982253,8.819675e-06,328.06499999982253,0.001414318
328.0799999998225,2.434393e-05,328.0799999998225,3.348077e-05,328.0799999998225,9.088692e-06,328.0799999998225,0.001432137
328.0949999998225,2.523718e-05,328.0949999998225,3.45219e-05,328.0949999998225,9.150478e-06,328.0949999998225,0.00143473
328.1099999998225,2.566776e-05,328.1099999998225,3.445532e-05,328.1099999998225,9.650967e-06,328.1099999998225,0.0014292
328.1249999998225,2.574339e-05,328.1249999998225,3.455127e-05,328.1249999998225,9.733809e-06,328.1249999998225,0.001430887
328.13999999982246,2.659179e-05,328.13999999982246,3.456594e-05,328.13999999982246,9.874615e-06,328.13999999982246,0.001410112
328.15499999982245,2.646807e-05,328.15499999982245,3.449537e-05,328.15499999982245,9.981033e-06,328.15499999982245,0.001379221
328.16999999982244,2.682439e-05,328.16999999982244,3.449333e-05,328.16999999982244,9.847473e-06,328.16999999982244,0.001347842
328.1849999998224,2.755745e-05,328.1849999998224,3.440295e-05,328.1849999998224,9.668466e-06,328.1849999998224,0.001216252
328.1999999998224,2.7454e-05,328.1999999998224,3.439845e-05,328.1999999998224,9.883171e-06,328.1999999998224,0.001157493
328.2149999998224,2.779312e-05,328.2149999998224,3.404238e-05,328.2149999998224,9.743934e-06,328.2149999998224,0.00115529
328.2299999998224,2.593149e-05,328.2299999998224,3.428934e-05,328.2299999998224,9.37104e-06,328.2299999998224,0.0008968588
328.24499999982237,2.511464e-05,328.24499999982237,3.414072e-05,328.24499999982237,9.147398e-06,328.24499999982237,0.0008397828
328.25999999982236,2.439018e-05,328.25999999982236,3.305309e-05,328.25999999982236,8.668239e-06,328.25999999982236,0.0007796141
328.27499999982234,2.490512e-05,328.27499999982234,3.031155e-05,328.27499999982234,8.532291e-06,328.27499999982234,0.0006720932
328.2899999998223,2.480026e-05,328.2899999998223,3.148952e-05,328.2899999998223,8.555373e-06,328.2899999998223,0.0006214002
328.3049999998223,2.571437e-05,328.3049999998223,3.176478e-05,328.3049999998223,8.316587e-06,328.3049999998223,0.0006376533
328.3199999998223,2.456742e-05,328.3199999998223,3.113185e-05,328.3199999998223,8.363879e-06,328.3199999998223,0.000622212
328.3349999998223,2.485813e-05,328.3349999998223,2.816118e-05,328.3349999998223,8.319974e-06,328.3349999998223,0.0006685018
328.3499999998223,2.57762e-05,328.3499999998223,2.832776e-05,328.3499999998223,9.038959e-06,328.3499999998223,0.0006743072
328.36499999982226,2.600038e-05,328.36499999982226,2.954957e-05,328.36499999982226,9.133529e-06,328.36499999982226,0.000678367
328.37999999982225,2.654991e-05,328.37999999982225,3.01363e-05,328.37999999982225,9.191949e-06,328.37999999982225,0.0006732134
328.39499999982223,2.628168e-05,328.39499999982223,3.054995e-05,328.39499999982223,8.902342e-06,328.39499999982223,0.0006637684
328.4099999998222,2.836553e-05,328.4099999998222,3.023803e-05,328.4099999998222,8.821272e-06,328.4099999998222,0.0006744622
328.4249999998222,2.87493e-05,328.4249999998222,3.009327e-05,328.4249999998222,8.857925e-06,328.4249999998222,0.0006996787
328.4399999998222,2.876595e-05,328.4399999998222,3.023756e-05,328.4399999998222,8.42262e-06,328.4399999998222,0.0006945756
328.4549999998222,2.880804e-05,328.4549999998222,2.99351e-05,328.4549999998222,8.384065e-06,328.4549999998222,0.0006626911
328.46999999982216,2.950855e-05,328.46999999982216,3.036726e-05,328.46999999982216,8.616079e-06,328.46999999982216,0.0006919453
328.48499999982215,3.119784e-05,328.48499999982215,3.085871e-05,328.48499999982215,8.69096e-06,328.48499999982215,0.0006850853
328.49999999982214,3.176389e-05,328.49999999982214,3.099626e-05,328.49999999982214,8.694202e-06,328.49999999982214,0.0007013897
328.5149999998221,3.153333e-05,328.5149999998221,2.98262e-05,328.5149999998221,8.634045e-06,328.5149999998221,0.0007099443
328.5299999998221,3.136267e-05,328.5299999998221,2.872528e-05,328.5299999998221,8.699061e-06,328.5299999998221,0.0007153018
328.5449999998221,3.096261e-05,328.5449999998221,2.968228e-05,328.5449999998221,8.580036e-06,328.5449999998221,0.0007210126
328.5599999998221,3.115763e-05,328.5599999998221,3.157842e-05,328.5599999998221,8.303025e-06,328.5599999998221,0.0007204353
328.57499999982207,3.09899e-05,328.57499999982207,3.110016e-05,328.57499999982207,8.046266e-06,328.57499999982207,0.0007191948
328.58999999982206,3.086419e-05,328.58999999982206,3.164081e-05,328.58999999982206,7.984756e-06,328.58999999982206,0.0006819428
328.60499999982204,3.003282e-05,328.60499999982204,3.160606e-05,328.60499999982204,7.035667e-06,328.60499999982204,0.0007025867
328.619999999822,3.032874e-05,328.619999999822,3.104893e-05,328.619999999822,6.638008e-06,328.619999999822,0.0007095565
328.634999999822,3.078696e-05,328.634999999822,3.237141e-05,328.634999999822,7.279705e-06,328.634999999822,0.0008298186
328.649999999822,3.088973e-05,328.649999999822,3.188429e-05,328.649999999822,7.248678e-06,328.649999999822,0.0008988424
328.664999999822,2.953765e-05,328.664999999822,3.217981e-05,328.664999999822,7.379642e-06,328.664999999822,0.0009061383
328.679999999822,2.835261e-05,328.679999999822,3.211364e-05,328.679999999822,7.285508e-06,328.679999999822,0.0008919376
328.69499999982196,2.857334e-05,328.69499999982196,3.15628e-05,328.69499999982196,7.207752e-06,328.69499999982196,0.0008890007
328.70999999982195,2.856743e-05,328.70999999982195,3.312078e-05,328.70999999982195,7.035667e-06,328.70999999982195,0.0009468054
328.72499999982193,2.796088e-05,328.72499999982193,3.501055e-05,328.72499999982193,8.053266e-06,328.72499999982193,0.0009771442
328.7399999998219,2.717033e-05,328.7399999998219,3.611802e-05,328.7399999998219,7.865667e-06,328.7399999998219,0.0009658941
328.7549999998219,2.918406e-05,328.7549999998219,3.626321e-05,328.7549999998219,9.225602e-06,328.7549999998219,0.001023581
328.7699999998219,2.974817e-05,328.7699999998219,3.977283e-05,328.7699999998219,9.216436e-06,328.7699999998219,0.001015203
328.7849999998219,2.993934e-05,328.7849999998219,3.936235e-05,328.7849999998219,9.21338e-06,328.7849999998219,0.001074363
328.79999999982186,2.985358e-05,328.79999999982186,3.784842e-05,328.79999999982186,9.39506e-06,328.79999999982186,0.001072772
328.81499999982185,3.02343e-05,328.81499999982185,3.846495e-05,328.81499999982185,9.416029e-06,328.81499999982185,0.001087647
328.82999999982184,3.074758e-05,328.82999999982184,3.861189e-05,328.82999999982184,9.333384e-06,328.82999999982184,0.001088883
328.8449999998218,3.199455e-05,328.8449999998218,4.051152e-05,328.8449999998218,9.340927e-06,328.8449999998218,0.001089102
328.8599999998218,3.484762e-05,328.8599999998218,4.076353e-05,328.8599999998218,9.503884e-06,328.8599999998218,0.001082616
328.8749999998218,3.399103e-05,328.8749999998218,4.07127e-05,328.8749999998218,9.631973e-06,328.8749999998218,0.001062601
328.8899999998218,3.320913e-05,328.8899999998218,3.95195e-05,328.8899999998218,9.130444e-06,328.8899999998218,0.0009668602
328.90499999982177,3.311526e-05,328.90499999982177,3.980965e-05,328.90499999982177,9.06075e-06,328.90499999982177,0.0008928243
328.91999999982175,3.342139e-05,328.91999999982175,4.16601e-05,328.91999999982175,9.150478e-06,328.91999999982175,0.000900867
328.93499999982174,3.311228e-05,328.93499999982174,4.25401e-05,328.93499999982174,9.245431e-06,328.93499999982174,0.0008931443
328.9499999998217,3.312717e-05,328.9499999998217,4.254506e-05,328.9499999998217,9.198077e-06,328.9499999998217,0.0008552042
328.9649999998217,3.213206e-05,328.9649999998217,3.9426e-05,328.9649999998217,9.059196e-06,328.9649999998217,0.0008413238
328.9799999998217,3.141383e-05,328.9799999998217,3.959072e-05,328.9799999998217,8.026986e-06,328.9799999998217,0.0008024703
328.9949999998217,3.113637e-05,328.9949999998217,4.051187e-05,328.9949999998217,7.949394e-06,328.9949999998217,0.0008035266
329.0099999998217,2.840225e-05,329.0099999998217,3.941814e-05,329.0099999998217,6.669763e-06,329.0099999998217,0.0007138088
329.02499999982166,2.852499e-05,329.02499999982166,3.73818e-05,329.02499999982166,6.565459e-06,329.02499999982166,0.000703161
329.03999999982165,2.784274e-05,329.03999999982165,3.69981e-05,329.03999999982165,6.459471e-06,329.03999999982165,0.000602633
329.05499999982163,2.786651e-05,329.05499999982163,3.727878e-05,329.05499999982163,6.248863e-06,329.05499999982163,0.0005868742
329.0699999998216,2.665845e-05,329.0699999998216,3.965685e-05,329.0699999998216,6.146583e-06,329.0699999998216,0.0005631962
329.0849999998216,2.592823e-05,329.0849999998216,3.906022e-05,329.0849999998216,6.228541e-06,329.0849999998216,0.0005377875
329.0999999998216,2.120488e-05,329.0999999998216,3.666306e-05,329.0999999998216,6.105191e-06,329.0999999998216,0.000512562
329.1149999998216,2.021242e-05,329.1149999998216,3.614141e-05,329.1149999998216,5.669728e-06,329.1149999998216,0.000511337
329.12999999982156,1.990836e-05,329.12999999982156,3.636484e-05,329.12999999982156,5.746233e-06,329.12999999982156,0.0004969555
329.14499999982155,1.929536e-05,329.14499999982155,3.595501e-05,329.14499999982155,5.848288e-06,329.14499999982155,0.0005006137
329.15999999982154,1.857068e-05,329.15999999982154,3.45117e-05,329.15999999982154,5.802342e-06,329.15999999982154,0.000502478
329.1749999998215,1.774683e-05,329.1749999998215,3.546746e-05,329.1749999998215,5.836232e-06,329.1749999998215,0.0005048967
329.1899999998215,1.73129e-05,329.1899999998215,3.460626e-05,329.1899999998215,5.795054e-06,329.1899999998215,0.0005003979
329.2049999998215,1.740379e-05,329.2049999998215,3.46632e-05,329.2049999998215,5.836232e-06,329.2049999998215,0.0004931935
329.2199999998215,1.706045e-05,329.2199999998215,3.50371e-05,329.2199999998215,5.941484e-06,329.2199999998215,0.0004709162
329.23499999982147,1.752719e-05,329.23499999982147,3.244791e-05,329.23499999982147,6.005157e-06,329.23499999982147,0.000471178
329.24999999982145,1.653805e-05,329.24999999982145,3.20513e-05,329.24999999982145,5.931993e-06,329.24999999982145,0.0004636044
329.26499999982144,1.626926e-05,329.26499999982144,3.272199e-05,329.26499999982144,5.972226e-06,329.26499999982144,0.0004613547
329.2799999998214,1.599331e-05,329.2799999998214,3.200863e-05,329.2799999998214,5.934367e-06,329.2799999998214,0.0004549463
329.2949999998214,1.563613e-05,329.2949999998214,3.150383e-05,329.2949999998214,5.721665e-06,329.2949999998214,0.0004527781
329.3099999998214,1.496873e-05,329.3099999998214,3.110514e-05,329.3099999998214,5.845879e-06,329.3099999998214,0.0004239436
329.3249999998214,1.497249e-05,329.3249999998214,2.786853e-05,329.3249999998214,6.002811e-06,329.3249999998214,0.0004521899
329.3399999998214,1.43744e-05,329.3399999998214,2.848991e-05,329.3399999998214,5.787757e-06,329.3399999998214,0.0005052579
329.35499999982136,1.483069e-05,329.35499999982136,2.967136e-05,329.35499999982136,5.692045e-06,329.35499999982136,0.0005208497
329.36999999982135,1.414024e-05,329.36999999982135,3.022871e-05,329.36999999982135,5.910582e-06,329.36999999982135,0.0005820075
329.38499999982133,1.42662e-05,329.38499999982133,3.279509e-05,329.38499999982133,5.831403e-06,329.38499999982133,0.0006764314
329.3999999998213,1.490932e-05,329.3999999998213,3.360927e-05,329.3999999998213,5.833818e-06,329.3999999998213,0.0007056928
329.4149999998213,1.510923e-05,329.4149999998213,3.589306e-05,329.4149999998213,5.785323e-06,329.4149999998213,0.0006838157
329.4299999998213,1.50915e-05,329.4299999998213,3.576843e-05,329.4299999998213,5.855509e-06,329.4299999998213,0.0006799066
329.4449999998213,1.535889e-05,329.4449999998213,3.650596e-05,329.4449999998213,5.780451e-06,329.4449999998213,0.0006852066
329.45999999982126,1.539371e-05,329.45999999982126,3.816753e-05,329.45999999982126,5.664756e-06,329.45999999982126,0.0007362687
329.47499999982125,1.53056e-05,329.47499999982125,3.917941e-05,329.47499999982125,5.741327e-06,329.47499999982125,0.0007467624
329.48999999982124,1.624066e-05,329.48999999982124,3.900247e-05,329.48999999982124,5.988714e-06,329.48999999982124,0.00076591
329.5049999998212,1.698515e-05,329.5049999998212,3.913948e-05,329.5049999998212,6.487759e-06,329.5049999998212,0.0008066965
329.5199999998212,1.74926e-05,329.5199999998212,3.924192e-05,329.5199999998212,6.53104e-06,329.5199999998212,0.0008465208
329.5349999998212,2.062703e-05,329.5349999998212,3.95772e-05,329.5349999998212,7.62006e-06,329.5349999998212,0.0009233574
329.5499999998212,2.262107e-05,329.5499999998212,4.035544e-05,329.5499999998212,7.775606e-06,329.5499999998212,0.0009501684
329.56499999982117,2.277127e-05,329.56499999982117,4.068328e-05,329.56499999982117,7.90675e-06,329.56499999982117,0.00105191
329.57999999982115,2.408622e-05,329.57999999982115,4.088051e-05,329.57999999982115,8.046266e-06,329.57999999982115,0.001067816
329.59499999982114,2.666374e-05,329.59499999982114,3.963553e-05,329.59499999982114,8.728161e-06,329.59499999982114,0.001116331
329.6099999998211,2.713817e-05,329.6099999998211,3.935519e-05,329.6099999998211,8.865873e-06,329.6099999998211,0.001402831
329.6249999998211,3.00572e-05,329.6249999998211,3.87877e-05,329.6249999998211,8.916571e-06,329.6249999998211,0.001501909
329.6399999998211,3.286032e-05,329.6399999998211,3.846239e-05,329.6399999998211,1.060775e-05,329.6399999998211,0.001693926
329.6549999998211,3.358034e-05,329.6549999998211,3.673598e-05,329.6549999998211,1.137542e-05,329.6549999998211,0.00183705
329.6699999998211,3.435337e-05,329.6699999998211,3.495659e-05,329.6699999998211,1.147038e-05,329.6699999998211,0.001864769
329.68499999982106,3.578733e-05,329.68499999982106,3.44823e-05,329.68499999982106,1.2015e-05,329.68499999982106,0.001943467
329.69999999982105,3.548017e-05,329.69999999982105,3.423919e-05,329.69999999982105,1.340904e-05,329.69999999982105,0.002177998
329.71499999982103,3.705821e-05,329.71499999982103,3.049549e-05,329.71499999982103,1.350013e-05,329.71499999982103,0.002218053
329.729999999821,3.729352e-05,329.729999999821,3.142145e-05,329.729999999821,1.348656e-05,329.729999999821,0.002303981
329.744999999821,3.665076e-05,329.744999999821,3.137973e-05,329.744999999821,1.345937e-05,329.744999999821,0.002354488
329.759999999821,3.650403e-05,329.759999999821,3.493805e-05,329.759999999821,1.325903e-05,329.759999999821,0.002340772
329.774999999821,3.56066e-05,329.774999999821,3.448352e-05,329.774999999821,1.339222e-05,329.774999999821,0.002380622
329.78999999982096,3.467905e-05,329.78999999982096,3.379652e-05,329.78999999982096,1.303401e-05,329.78999999982096,0.002376241
329.80499999982095,3.384109e-05,329.80499999982095,3.389308e-05,329.80499999982095,1.321113e-05,329.80499999982095,0.002356107
329.81999999982094,3.380235e-05,329.81999999982094,3.670145e-05,329.81999999982094,1.321326e-05,329.81999999982094,0.002324987
329.8349999998209,3.260382e-05,329.8349999998209,3.668533e-05,329.8349999998209,1.322286e-05,329.8349999998209,0.002321081
329.8499999998209,3.060431e-05,329.8499999998209,3.680532e-05,329.8499999998209,1.285335e-05,329.8499999998209,0.002233993
329.8649999998209,2.998823e-05,329.8649999998209,3.99266e-05,329.8649999998209,1.279623e-05,329.8649999998209,0.002061918
329.8799999998209,2.50101e-05,329.8799999998209,3.799923e-05,329.8799999998209,1.259652e-05,329.8799999998209,0.001993228
329.89499999982087,2.386058e-05,329.89499999982087,3.822138e-05,329.89499999982087,1.134318e-05,329.89499999982087,0.001773749
329.90999999982085,2.27923e-05,329.90999999982085,3.891533e-05,329.90999999982085,1.039446e-05,329.90999999982085,0.001649113
329.92499999982084,2.142824e-05,329.92499999982084,3.872737e-05,329.92499999982084,1.027725e-05,329.92499999982084,0.001620929
329.9399999998208,1.942923e-05,329.9399999998208,4.024218e-05,329.9399999998208,9.281926e-06,329.9399999998208,0.001469691
329.9549999998208,1.880661e-05,329.9549999998208,3.988142e-05,329.9549999998208,7.768356e-06,329.9549999998208,0.001104455
329.9699999998208,1.573402e-05,329.9699999998208,3.969945e-05,329.9699999998208,7.739288e-06,329.9699999998208,0.001047278
329.9849999998208,1.551312e-05,329.9849999998208,4.321034e-05,329.9849999998208,7.562535e-06,329.9849999998208,0.0008226433
329.9999999998208,1.513903e-05,329.9999999998208,4.023833e-05,329.9999999998208,7.391086e-06,329.9999999998208,0.0007094743
330.01499999982076,1.477264e-05,330.01499999982076,4.323315e-05,330.01499999982076,7.085544e-06,330.01499999982076,0.0006610312
330.02999999982075,1.512134e-05,330.02999999982075,4.335582e-05,330.02999999982075,6.684531e-06,330.02999999982075,0.0004409946
330.04499999982073,1.389808e-05,330.04499999982073,4.544408e-05,330.04499999982073,6.597564e-06,330.04499999982073,0.0003926142
330.0599999998207,1.386662e-05,330.0599999998207,4.42699e-05,330.0599999998207,5.976941e-06,330.0599999998207,0.0003353508
330.0749999998207,1.514834e-05,330.0749999998207,4.237952e-05,330.0749999998207,5.753582e-06,330.0749999998207,0.0002557216
330.0899999998207,1.465584e-05,330.0899999998207,4.21569e-05,330.0899999998207,5.389503e-06,330.0899999998207,0.000258487
330.1049999998207,1.503446e-05,330.1049999998207,4.301036e-05,330.1049999998207,5.315815e-06,330.1049999998207,0.000243143
330.11999999982066,1.601444e-05,330.11999999982066,4.417051e-05,330.11999999982066,4.850233e-06,330.11999999982066,0.0002609192
330.13499999982065,1.5717e-05,330.13499999982065,4.518762e-05,330.13499999982065,4.615091e-06,330.13499999982065,0.0002663521
330.14999999982064,1.598009e-05,330.14999999982064,4.479626e-05,330.14999999982064,4.699779e-06,330.14999999982064,0.0002718043
330.1649999998206,1.603114e-05,330.1649999998206,4.662162e-05,330.1649999998206,4.741556e-06,330.1649999998206,0.0002735871
330.1799999998206,1.55865e-05,330.1799999998206,4.514021e-05,330.1799999998206,4.708762e-06,330.1799999998206,0.0002834832
330.1949999998206,1.566043e-05,330.1949999998206,4.446516e-05,330.1949999998206,4.578317e-06,330.1949999998206,0.0002907472
330.2099999998206,1.574834e-05,330.2099999998206,4.410891e-05,330.2099999998206,4.541245e-06,330.2099999998206,0.0002919242
330.22499999982057,1.588727e-05,330.22499999982057,4.410221e-05,330.22499999982057,4.510119e-06,330.22499999982057,0.0002982435
330.23999999982055,1.620767e-05,330.23999999982055,4.012966e-05,330.23999999982055,4.639445e-06,330.23999999982055,0.0002990076
330.25499999982054,1.609866e-05,330.25499999982054,3.87739e-05,330.25499999982054,4.867628e-06,330.25499999982054,0.0003010871
330.2699999998205,1.588904e-05,330.2699999998205,3.743716e-05,330.2699999998205,4.744526e-06,330.2699999998205,0.0003000805
330.2849999998205,1.592535e-05,330.2849999998205,3.816716e-05,330.2849999998205,4.803539e-06,330.2849999998205,0.0002853171
330.2999999998205,1.591915e-05,330.2999999998205,3.656764e-05,330.2999999998205,4.569077e-06,330.2999999998205,0.0002889876
330.3149999998205,1.567392e-05,330.3149999998205,3.645499e-05,330.3149999998205,4.69378e-06,330.3149999998205,0.0003326461
330.3299999998205,1.456618e-05,330.3299999998205,3.642097e-05,330.3299999998205,4.562907e-06,330.3299999998205,0.0003461523
330.34499999982046,1.462987e-05,330.34499999982046,3.630164e-05,330.34499999982046,4.70577e-06,330.34499999982046,0.0003449014
330.35999999982045,1.455554e-05,330.35999999982045,3.15235e-05,330.35999999982045,5.010237e-06,330.35999999982045,0.0003765078
330.37499999982043,1.476596e-05,330.37499999982043,3.025061e-05,330.37499999982043,5.066156e-06,330.37499999982043,0.0003979773
330.3899999998204,1.485063e-05,330.3899999998204,3.078238e-05,330.3899999998204,4.962209e-06,330.3899999998204,0.0004354717
330.4049999998204,1.504195e-05,330.4049999998204,2.926985e-05,330.4049999998204,4.910845e-06,330.4049999998204,0.0004502181
330.4199999998204,1.475165e-05,330.4199999998204,2.865802e-05,330.4199999998204,4.896482e-06,330.4199999998204,0.0004485032
330.4349999998204,1.507095e-05,330.4349999998204,2.845577e-05,330.4349999998204,4.965048e-06,330.4349999998204,0.0004515541
330.44999999982036,1.588106e-05,330.44999999982036,2.815518e-05,330.44999999982036,4.81818e-06,330.44999999982036,0.0004629476
330.46499999982035,1.592711e-05,330.46499999982035,2.916957e-05,330.46499999982035,4.83569e-06,330.46499999982035,0.0004669632
330.47999999982034,1.553218e-05,330.47999999982034,2.942441e-05,330.47999999982034,5.00461e-06,330.47999999982034,0.0004645193
330.4949999998203,1.552855e-05,330.4949999998203,3.043584e-05,330.4949999998203,5.077266e-06,330.4949999998203,0.0004590624
330.5099999998203,1.520681e-05,330.5099999998203,3.249303e-05,330.5099999998203,5.425972e-06,330.5099999998203,0.0004543432
330.5249999998203,1.49367e-05,330.5249999998203,3.222356e-05,330.5249999998203,5.637336e-06,330.5249999998203,0.000450367
330.5399999998203,1.497061e-05,330.5399999998203,3.035613e-05,330.5399999998203,5.659781e-06,330.5399999998203,0.0004508997
330.55499999982027,1.501477e-05,330.55499999982027,3.055871e-05,330.55499999982027,5.724127e-06,330.55499999982027,0.0004449762
330.56999999982025,1.495272e-05,330.56999999982025,3.110514e-05,330.56999999982025,5.704405e-06,330.56999999982025,0.0004408079
330.58499999982024,1.514741e-05,330.58499999982024,3.040945e-05,330.58499999982024,5.677176e-06,330.58499999982024,0.0004439642
330.5999999998202,1.516228e-05,330.5999999998202,3.026085e-05,330.5999999998202,5.649817e-06,330.5999999998202,0.0004436618
330.6149999998202,1.414522e-05,330.6149999998202,3.013303e-05,330.6149999998202,5.381656e-06,330.6149999998202,0.0003905658
330.6299999998202,1.296683e-05,330.6299999998202,3.045018e-05,330.6299999998202,5.441526e-06,330.6299999998202,0.0003805276
330.6449999998202,1.284568e-05,330.6449999998202,2.708673e-05,330.6449999998202,5.579567e-06,330.6449999998202,0.0003128361
330.6599999998202,1.22507e-05,330.6599999998202,2.674234e-05,330.6599999998202,5.56946e-06,330.6599999998202,0.0003048397
330.67499999982016,1.229317e-05,330.67499999982016,2.619631e-05,330.67499999982016,5.490492e-06,330.67499999982016,0.0003017613
330.68999999982015,1.126717e-05,330.68999999982015,2.648031e-05,330.68999999982015,5.577042e-06,330.68999999982015,0.0002889051
330.70499999982013,1.05745e-05,330.70499999982013,2.68889e-05,330.70499999982013,5.637336e-06,330.70499999982013,0.0002834422
330.7199999998201,1.043099e-05,330.7199999998201,2.616672e-05,330.7199999998201,5.669728e-06,330.7199999998201,0.0002762916
330.7349999998201,1.042559e-05,330.7349999998201,2.612632e-05,330.7349999998201,5.719203e-06,330.7349999998201,0.0002754002
330.7499999998201,1.027863e-05,330.7499999998201,2.478264e-05,330.7499999998201,5.629835e-06,330.7499999998201,0.0002785612
330.7649999998201,1.054649e-05,330.7649999998201,2.122082e-05,330.7649999998201,4.979213e-06,330.7649999998201,0.000284176
330.77999999982006,1.088305e-05,330.77999999982006,1.994018e-05,330.77999999982006,4.947995e-06,330.77999999982006,0.0002859273
330.79499999982005,1.081944e-05,330.79499999982005,2.217644e-05,330.79499999982005,4.973552e-06,330.79499999982005,0.0002822372
330.80999999982004,1.085454e-05,330.80999999982004,2.144598e-05,330.80999999982004,5.068936e-06,330.80999999982004,0.0002721392
330.82499999982,1.076593e-05,330.82499999982,2.093074e-05,330.82499999982,5.143422e-06,330.82499999982,0.0002558158
330.83999999982,1.044314e-05,330.83999999982,2.152008e-05,330.83999999982,5.412975e-06,330.83999999982,0.0002288562
330.85499999982,1.064752e-05,330.85499999982,2.166361e-05,330.85499999982,5.503306e-06,330.85499999982,0.0002356881
330.86999999982,1.12459e-05,330.86999999982,2.1109e-05,330.86999999982,5.850696e-06,330.86999999982,0.0002832119
330.88499999981997,1.166401e-05,330.88499999981997,2.04721e-05,330.88499999981997,5.831403e-06,330.88499999981997,0.0002880778
330.89999999981995,1.245934e-05,330.89999999981995,2.163954e-05,330.89999999981995,5.797484e-06,330.89999999981995,0.0002920356
330.91499999981994,1.294073e-05,330.91499999981994,2.408037e-05,330.91499999981994,6.082075e-06,330.91499999981994,0.0002951746
330.9299999998199,1.338907e-05,330.9299999998199,2.535635e-05,330.9299999998199,6.221753e-06,330.9299999998199,0.0003120499
330.9449999998199,1.347193e-05,330.9449999998199,2.491416e-05,330.9449999998199,6.239839e-06,330.9449999998199,0.000347008
330.9599999998199,1.429185e-05,330.9599999998199,2.501855e-05,330.9599999998199,6.251117e-06,330.9599999998199,0.0003773492
330.9749999998199,1.545125e-05,330.9749999998199,2.530741e-05,330.9749999998199,6.266871e-06,330.9749999998199,0.0004528486
330.9899999998199,1.588904e-05,330.9899999998199,2.54002e-05,330.9899999998199,6.178585e-06,330.9899999998199,0.0004935401
331.00499999981986,1.609166e-05,331.00499999981986,2.52182e-05,331.00499999981986,6.144291e-06,331.00499999981986,0.0004846511
331.01999999981985,1.602235e-05,331.01999999981985,2.534579e-05,331.01999999981985,6.11211e-06,331.01999999981985,0.0004840421
331.03499999981983,1.610041e-05,331.03499999981983,2.492999e-05,331.03499999981983,6.023894e-06,331.03499999981983,0.0005040643
331.0499999998198,1.608903e-05,331.0499999998198,2.409616e-05,331.0499999998198,6.023894e-06,331.0499999998198,0.0005300522
331.0649999998198,1.629003e-05,331.0649999998198,2.458404e-05,331.0649999998198,6.906339e-06,331.0649999998198,0.0005355227
331.0799999998198,1.648857e-05,331.0799999998198,2.44542e-05,331.0799999998198,6.916529e-06,331.0799999998198,0.0005345775
331.0949999998198,1.66611e-05,331.0949999998198,2.415513e-05,331.0949999998198,7.043671e-06,331.0949999998198,0.0005463673
331.10999999981976,1.697187e-05,331.10999999981976,2.483091e-05,331.10999999981976,6.80773e-06,331.10999999981976,0.0005612457
331.12499999981975,1.698681e-05,331.12499999981975,2.618448e-05,331.12499999981975,6.576178e-06,331.12499999981975,0.0005488882
331.13999999981974,1.642866e-05,331.13999999981974,2.610528e-05,331.13999999981974,6.584741e-06,331.13999999981974,0.0005514673
331.1549999998197,1.613973e-05,331.1549999998197,2.586839e-05,331.1549999998197,6.461651e-06,331.1549999998197,0.000551535
331.1699999998197,1.547312e-05,331.1699999998197,2.416563e-05,331.1699999998197,6.520246e-06,331.1699999998197,0.000554779
331.1849999998197,1.538272e-05,331.1849999998197,2.411953e-05,331.1849999998197,6.507271e-06,331.1849999998197,0.0005498757
331.1999999998197,1.503727e-05,331.1999999998197,2.427323e-05,331.1999999998197,6.313899e-06,331.1999999998197,0.0005187417
331.21499999981967,1.416313e-05,331.21499999981967,2.366139e-05,331.21499999981967,6.311667e-06,331.21499999981967,0.0005405459
331.22999999981965,1.417109e-05,331.22999999981965,2.565569e-05,331.22999999981965,6.302733e-06,331.22999999981965,0.0004752646
331.24499999981964,1.389808e-05,331.24499999981964,2.57762e-05,331.24499999981964,6.411314e-06,331.24499999981964,0.000469081
331.2599999998196,1.355532e-05,331.2599999998196,2.629025e-05,331.2599999998196,6.365006e-06,331.2599999998196,0.0004909612
331.2749999998196,1.349909e-05,331.2749999998196,2.798002e-05,331.2749999998196,6.331722e-06,331.2749999998196,0.0005020407
331.2899999998196,1.318979e-05,331.2899999998196,2.894219e-05,331.2899999998196,6.420096e-06,331.2899999998196,0.0004707563
331.3049999998196,1.321753e-05,331.3049999998196,2.9213e-05,331.3049999998196,6.260124e-06,331.3049999998196,0.0004508112
331.3199999998196,1.331945e-05,331.3199999998196,2.864474e-05,331.3199999998196,4.970719e-06,331.3199999998196,0.0004565057
331.33499999981956,1.332791e-05,331.33499999981956,3.049502e-05,331.33499999981956,4.890725e-06,331.33499999981956,0.0004491792
331.34999999981954,1.264118e-05,331.34999999981954,3.073796e-05,331.34999999981954,4.753424e-06,331.34999999981954,0.0004246554
331.36499999981953,1.176502e-05,331.36499999981953,2.899811e-05,331.36499999981953,4.82986e-06,331.36499999981953,0.0004083611
331.3799999998195,1.219538e-05,331.3799999998195,2.968607e-05,331.3799999998195,4.856038e-06,331.3799999998195,0.0003975947
331.3949999998195,1.259205e-05,331.3949999998195,3.111239e-05,331.3949999998195,4.738583e-06,331.3949999998195,0.0003870024
331.4099999998195,1.30707e-05,331.4099999998195,3.273706e-05,331.4099999998195,4.66971e-06,331.4099999998195,0.0003883653
331.4249999998195,1.311804e-05,331.4249999998195,3.264312e-05,331.4249999998195,4.618143e-06,331.4249999998195,0.000383464
331.43999999981946,1.332579e-05,331.43999999981946,3.253722e-05,331.43999999981946,4.572159e-06,331.43999999981946,0.0003767205
331.45499999981945,1.320047e-05,331.45499999981945,3.279037e-05,331.45499999981945,4.726678e-06,331.45499999981945,0.0003734008
331.46999999981944,1.338907e-05,331.46999999981944,3.2182e-05,331.46999999981944,4.832776e-06,331.46999999981944,0.0003119016
331.4849999998194,1.339538e-05,331.4849999998194,3.357698e-05,331.4849999998194,4.782967e-06,331.4849999998194,0.0003403948
331.4999999998194,1.324521e-05,331.4999999998194,3.531821e-05,331.4999999998194,4.675739e-06,331.4999999998194,0.0003207372
331.5149999998194,1.342689e-05,331.5149999998194,3.526672e-05,331.5149999998194,4.950841e-06,331.5149999998194,0.0002812663
331.5299999998194,1.332473e-05,331.5299999998194,3.48751e-05,331.5299999998194,5.00461e-06,331.5299999998194,0.000275903
331.54499999981937,1.332368e-05,331.54499999981937,3.412751e-05,331.54499999981937,5.015856e-06,331.54499999981937,0.0002714953
331.55999999981935,1.354492e-05,331.55999999981935,3.613986e-05,331.55999999981935,4.993339e-06,331.55999999981935,0.0002608211
331.57499999981934,1.314379e-05,331.57499999981934,3.665498e-05,331.57499999981934,5.162558e-06,331.57499999981934,0.0002525433
331.5899999998193,1.304805e-05,331.5899999998193,3.58424e-05,331.5899999998193,5.178904e-06,331.5899999998193,0.0002470647
331.6049999998193,1.318017e-05,331.6049999998193,3.589227e-05,331.6049999998193,5.34752e-06,331.6049999998193,0.000234879
331.6199999998193,1.307394e-05,331.6199999998193,3.828104e-05,331.6199999998193,5.667242e-06,331.6199999998193,0.0002314664
331.6349999998193,1.260994e-05,331.6349999998193,3.719518e-05,331.6349999998193,5.903427e-06,331.6349999998193,0.0002385022
331.6499999998193,1.210029e-05,331.6499999998193,3.754274e-05,331.6499999998193,5.958057e-06,331.6499999998193,0.0002364428
331.66499999981926,1.317483e-05,331.66499999981926,3.848289e-05,331.66499999981926,6.237581e-06,331.66499999981926,0.0003033116
331.67999999981924,1.297443e-05,331.67999999981924,3.903244e-05,331.67999999981924,6.325044e-06,331.67999999981924,0.0003828633
331.69499999981923,1.312126e-05,331.69499999981923,3.913876e-05,331.69499999981923,6.376062e-06,331.69499999981923,0.0004267139
331.7099999998192,1.340694e-05,331.7099999998192,3.86582e-05,331.7099999998192,6.406918e-06,331.7099999998192,0.0004230307
331.7249999998192,1.291458e-05,331.7249999998192,3.842978e-05,331.7249999998192,6.365006e-06,331.7249999998192,0.0004342536
331.7399999998192,1.260435e-05,331.7399999998192,4.044087e-05,331.7399999998192,6.362793e-06,331.7399999998192,0.0004749711
331.7549999998192,1.322073e-05,331.7549999998192,3.924407e-05,331.7549999998192,6.470365e-06,331.7549999998192,0.0005177869
331.76999999981916,1.329086e-05,331.76999999981916,4.004427e-05,331.76999999981916,6.331722e-06,331.76999999981916,0.0005191739
331.78499999981915,1.344471e-05,331.78499999981915,3.96302e-05,331.78499999981915,6.616753e-06,331.78499999981915,0.0005233561
331.79999999981914,1.343318e-05,331.79999999981914,4.040637e-05,331.79999999981914,7.015617e-06,331.79999999981914,0.0005442496
331.8149999998191,1.341114e-05,331.8149999998191,3.982981e-05,331.8149999998191,8.051516e-06,331.8149999998191,0.0005595392
331.8299999998191,1.361753e-05,331.8299999998191,3.942921e-05,331.8299999998191,8.209184e-06,331.8299999998191,0.0005619575
331.8449999998191,1.388693e-05,331.8449999998191,4.003407e-05,331.8449999998191,8.477633e-06,331.8449999998191,0.000562565
331.8599999998191,1.39628e-05,331.8599999998191,3.926632e-05,331.8599999998191,1.048621e-05,331.8599999998191,0.0005687171
331.87499999981907,1.397893e-05,331.87499999981907,3.988883e-05,331.87499999981907,1.02553e-05,331.87499999981907,0.0005813204
331.88999999981905,1.404027e-05,331.88999999981905,4.004743e-05,331.88999999981905,1.035645e-05,331.88999999981905,0.0005797519
331.90499999981904,1.372161e-05,331.90499999981904,3.995693e-05,331.90499999981904,1.064355e-05,331.90499999981904,0.0005802734
331.919999999819,1.307932e-05,331.919999999819,3.790161e-05,331.919999999819,1.040801e-05,331.919999999819,0.00052895
331.934999999819,1.293638e-05,331.934999999819,3.750858e-05,331.934999999819,1.047412e-05,331.934999999819,0.0004627121
331.949999999819,1.274328e-05,331.949999999819,3.710569e-05,331.949999999819,1.039175e-05,331.949999999819,0.0004431321
331.964999999819,1.342899e-05,331.964999999819,3.682101e-05,331.964999999819,1.046873e-05,331.964999999819,0.000437241
331.979999999819,1.305237e-05,331.979999999819,3.661076e-05,331.979999999819,1.043369e-05,331.979999999819,0.0004054155
331.99499999981896,1.403926e-05,331.99499999981896,3.324941e-05,331.99499999981896,1.034828e-05,331.99499999981896,0.0003613567
332.00999999981894,1.352411e-05,332.00999999981894,3.535329e-05,332.00999999981894,1.035645e-05,332.00999999981894,0.0003204156
332.02499999981893,1.356052e-05,332.02499999981893,3.377442e-05,332.02499999981893,1.018362e-05,332.02499999981893,0.0003197171
332.0399999998189,1.34667e-05,332.0399999998189,3.462173e-05,332.0399999998189,1.019468e-05,332.0399999998189,0.0003112774
332.0549999998189,1.350743e-05,332.0549999998189,3.294509e-05,332.0549999998189,9.764152e-06,332.0549999998189,0.0002633604
332.0699999998189,1.361029e-05,332.0699999998189,3.318282e-05,332.0699999998189,8.992083e-06,332.0699999998189,0.0002419431
332.0849999998189,1.33543e-05,332.0849999998189,3.299721e-05,332.0849999998189,9.020237e-06,332.0849999998189,0.0002523522
332.09999999981886,1.284239e-05,332.09999999981886,3.15918e-05,332.09999999981886,8.226325e-06,332.09999999981886,0.0002539032
332.11499999981885,1.315343e-05,332.11499999981885,2.912704e-05,332.11499999981885,6.333946e-06,332.11499999981885,0.000250092
332.12999999981884,1.324415e-05,332.12999999981884,2.752983e-05,332.12999999981884,6.072803e-06,332.12999999981884,0.0002244898
332.1449999998188,1.349596e-05,332.1449999998188,2.759729e-05,332.1449999998188,5.915346e-06,332.1449999998188,0.0002122639
332.1599999998188,1.420485e-05,332.1599999998188,2.906507e-05,332.1599999998188,5.733962e-06,332.1599999998188,0.0002116014
332.1749999998188,1.455747e-05,332.1749999998188,3.409943e-05,332.1749999998188,5.763367e-06,332.1749999998188,0.0002134497
332.1899999998188,1.471914e-05,332.1899999998188,3.370135e-05,332.1899999998188,5.677176e-06,332.1899999998188,0.0001993156
332.20499999981877,1.397994e-05,332.20499999981877,3.369467e-05,332.20499999981877,5.659781e-06,332.20499999981877,0.0001882914
332.21999999981875,1.385138e-05,332.21999999981875,3.444101e-05,332.21999999981875,5.500745e-06,332.21999999981875,0.0001963155
332.23499999981874,1.377591e-05,332.23499999981874,3.684817e-05,332.23499999981874,5.513535e-06,332.23499999981874,0.0001935461
332.2499999998187,1.291458e-05,332.2499999998187,3.715501e-05,332.2499999998187,5.714275e-06,332.2499999998187,0.0001718393
332.2649999998187,1.330781e-05,332.2649999998187,3.516432e-05,332.2649999998187,5.632336e-06,332.2649999998187,0.000198552
332.2799999998187,1.349909e-05,332.2799999998187,3.601413e-05,332.2799999998187,5.498184e-06,332.2799999998187,0.0002630657
332.2949999998187,1.36382e-05,332.2949999998187,3.632337e-05,332.2949999998187,5.360675e-06,332.2949999998187,0.0002655453
332.3099999998187,1.343738e-05,332.3099999998187,3.69337e-05,332.3099999998187,5.249148e-06,332.3099999998187,0.0002731608
332.32499999981866,1.359268e-05,332.32499999981866,3.709962e-05,332.32499999981866,5.189773e-06,332.32499999981866,0.0002947812
332.33999999981864,1.437342e-05,332.33999999981864,3.737992e-05,332.33999999981864,4.939447e-06,332.33999999981864,0.0002849316
332.35499999981863,1.455167e-05,332.35499999981863,3.93158e-05,332.35499999981863,4.922306e-06,332.35499999981863,0.0002959412
332.3699999998186,1.423556e-05,332.3699999998186,3.953447e-05,332.3699999998186,4.930884e-06,332.3699999998186,0.0003038737
332.3849999998186,1.408434e-05,332.3849999998186,3.932081e-05,332.3849999998186,4.967884e-06,332.3849999998186,0.0003100823
332.3999999998186,1.409534e-05,332.3999999998186,3.83553e-05,332.3999999998186,4.953686e-06,332.3999999998186,0.000314349
332.4149999998186,1.314164e-05,332.4149999998186,3.324856e-05,332.4149999998186,4.953686e-06,332.4149999998186,0.0003179696
332.42999999981856,1.298637e-05,332.42999999981856,3.248479e-05,332.42999999981856,5.251831e-06,332.42999999981856,0.0003843482
332.44499999981855,1.286102e-05,332.44499999981855,3.252553e-05,332.44499999981855,5.230329e-06,332.44499999981855,0.0004169766
332.45999999981854,1.292439e-05,332.45999999981854,3.303902e-05,332.45999999981854,5.363302e-06,332.45999999981854,0.000417903
332.4749999998185,1.271562e-05,332.4749999998185,3.169596e-05,332.4749999998185,5.669728e-06,332.4749999998185,0.0004162038
332.4899999998185,1.263337e-05,332.4899999998185,2.833671e-05,332.4899999998185,5.521194e-06,332.4899999998185,0.0004179722
332.5049999998185,1.25775e-05,332.5049999998185,2.963526e-05,332.5049999998185,5.559333e-06,332.5049999998185,0.0004491378
332.5199999998185,1.214561e-05,332.5199999998185,2.929246e-05,332.5199999998185,5.622323e-06,332.5199999998185,0.0004436091
332.53499999981847,1.17038e-05,332.53499999981847,2.709297e-05,332.53499999981847,5.612292e-06,332.53499999981847,0.0004310372
332.54999999981845,1.17026e-05,332.54999999981845,2.575597e-05,332.54999999981845,5.684616e-06,332.54999999981845,0.000428689
332.56499999981844,1.200327e-05,332.56499999981844,2.560953e-05,332.56499999981844,5.743781e-06,332.56499999981844,0.0004209744
332.5799999998184,1.193383e-05,332.5799999998184,2.478776e-05,332.5799999998184,5.724127e-06,332.5799999998184,0.0004362752
332.5949999998184,1.091665e-05,332.5949999998184,2.466584e-05,332.5949999998184,5.684616e-06,332.5949999998184,0.000446256
332.6099999998184,1.071609e-05,332.6099999998184,2.192859e-05,332.6099999998184,5.654801e-06,332.6099999998184,0.0004335146
332.6249999998184,1.063163e-05,332.6249999998184,2.315772e-05,332.6249999998184,5.689569e-06,332.6249999998184,0.0004301082
332.6399999998184,1.07266e-05,332.6399999998184,2.322029e-05,332.6399999998184,5.579567e-06,332.6399999998184,0.0004237168
332.65499999981836,1.068054e-05,332.65499999981836,2.214084e-05,332.65499999981836,5.654801e-06,332.65499999981836,0.0004353036
332.66999999981834,1.067922e-05,332.66999999981834,2.272917e-05,332.66999999981834,5.297233e-06,332.66999999981834,0.0004280433
332.68499999981833,1.069899e-05,332.68499999981833,2.427671e-05,332.68499999981833,5.085583e-06,332.68499999981833,0.0003582681
332.6999999998183,1.149124e-05,332.6999999998183,2.481332e-05,332.6999999998183,5.206033e-06,332.6999999998183,0.0003356602
332.7149999998183,1.15974e-05,332.7149999998183,2.513203e-05,332.7149999998183,4.887844e-06,332.7149999998183,0.0003602276
332.7299999998183,1.199741e-05,332.7299999998183,2.54124e-05,332.7299999998183,4.723696e-06,332.7299999998183,0.0003708547
332.7449999998183,1.176023e-05,332.7449999998183,2.534357e-05,332.7449999998183,4.753424e-06,332.7449999998183,0.0003645144
332.75999999981826,1.176263e-05,332.75999999981826,2.471947e-05,332.75999999981826,4.708762e-06,332.75999999981826,0.0003193634
332.77499999981825,1.19586e-05,332.77499999981825,2.413121e-05,332.77499999981825,4.556728e-06,332.77499999981825,0.0003017092
332.78999999981824,1.210378e-05,332.78999999981824,2.418719e-05,332.78999999981824,4.702775e-06,332.78999999981824,0.0002932662
332.8049999998182,1.188771e-05,332.8049999998182,2.387829e-05,332.8049999998182,4.756387e-06,332.8049999998182,0.0002950689
332.8199999998182,1.140511e-05,332.8199999998182,2.424884e-05,332.8199999998182,4.967884e-06,332.8199999998182,0.0002740623
332.8349999998182,1.151818e-05,332.8349999998182,2.449564e-05,332.8349999998182,4.970719e-06,332.8349999998182,0.0002765408
332.8499999998182,1.202087e-05,332.8499999998182,2.476672e-05,332.8499999998182,5.035477e-06,332.8499999998182,0.0002653913
332.86499999981817,1.202672e-05,332.86499999981817,2.325908e-05,332.86499999981817,5.027078e-06,332.86499999981817,0.0002769652
332.87999999981815,1.181401e-05,332.87999999981815,2.266959e-05,332.87999999981815,5.074491e-06,332.87999999981815,0.000274266
332.89499999981814,1.205831e-05,332.89499999981814,2.271181e-05,332.89499999981814,5.181623e-06,332.89499999981814,0.000262718
332.9099999998181,1.191138e-05,332.9099999998181,2.22405e-05,332.9099999998181,5.126963e-06,332.9099999998181,0.0002546901
332.9249999998181,1.189363e-05,332.9249999998181,2.170324e-05,332.9249999998181,5.289249e-06,332.9249999998181,0.0002593156
332.9399999998181,1.188178e-05,332.9399999998181,1.937405e-05,332.9399999998181,5.48279e-06,332.9399999998181,0.0002554485
332.9549999998181,1.128217e-05,332.9549999998181,1.823e-05,332.9549999998181,5.34752e-06,332.9549999998181,0.0002536486
332.96999999981807,1.16785e-05,332.96999999981807,1.702988e-05,332.96999999981807,5.342249e-06,332.96999999981807,0.0002151886
332.98499999981806,1.282153e-05,332.98499999981806,1.643466e-05,332.98499999981806,5.384273e-06,332.98499999981806,0.0002799823
332.99999999981804,1.346461e-05,332.99999999981804,1.547494e-05,332.99999999981804,5.386888e-06,332.99999999981804,0.0004263612
333.01499999981803,1.455457e-05,333.01499999981803,1.454392e-05,333.01499999981803,5.405162e-06,333.01499999981803,0.0004522472
333.029999999818,1.485158e-05,333.029999999818,1.431548e-05,333.029999999818,5.467352e-06,333.029999999818,0.0005028735
333.044999999818,1.497719e-05,333.044999999818,1.351994e-05,333.044999999818,5.291911e-06,333.044999999818,0.0005660981
333.059999999818,1.529732e-05,333.059999999818,1.355844e-05,333.059999999818,5.055022e-06,333.059999999818,0.0006070692
333.074999999818,1.542661e-05,333.074999999818,1.061439e-05,333.074999999818,4.925167e-06,333.074999999818,0.0006099183
333.08999999981796,1.559553e-05,333.08999999981796,9.318279e-06,333.08999999981796,5.043863e-06,333.08999999981796,0.0006250719
333.10499999981795,1.5324e-05,333.10499999981795,8.671489e-06,333.10499999981795,5.077266e-06,333.10499999981795,0.0006317029
333.11999999981794,1.580637e-05,333.11999999981794,8.115992e-06,333.11999999981794,5.669728e-06,333.11999999981794,0.0006406464
333.1349999998179,1.623632e-05,333.1349999998179,8.021719e-06,333.1349999998179,5.667242e-06,333.1349999998179,0.0006453689
333.1499999998179,1.62207e-05,333.1499999998179,7.908532e-06,333.1499999998179,5.556798e-06,333.1499999998179,0.000648206
333.1649999998179,1.633665e-05,333.1649999998179,7.640368e-06,333.1649999998179,5.826569e-06,333.1649999998179,0.0006513582
333.1799999998179,1.695527e-05,333.1799999998179,7.318304e-06,333.1799999998179,6.411314e-06,333.1799999998179,0.0006541144
333.19499999981787,1.724605e-05,333.19499999981787,6.965238e-06,333.19499999981787,6.543968e-06,333.19499999981787,0.0006635196
333.20999999981785,1.741188e-05,333.20999999981785,6.365006e-06,333.20999999981785,7.15085e-06,333.20999999981785,0.0006935311
333.22499999981784,1.678828e-05,333.22499999981784,6.322817e-06,333.22499999981784,7.135074e-06,333.22499999981784,0.0006931105
333.2399999998178,1.609603e-05,333.2399999998178,6.25337e-06,333.2399999998178,7.137048e-06,333.2399999998178,0.0006639545
333.2549999998178,1.588283e-05,333.2549999998178,6.989465e-06,333.2549999998178,7.248678e-06,333.2549999998178,0.0006104497
333.2699999998178,1.467409e-05,333.2699999998178,6.959168e-06,333.2699999998178,7.250621e-06,333.2699999998178,0.0006093658
333.2849999998178,1.49131e-05,333.2849999998178,7.324076e-06,333.2849999998178,7.320229e-06,333.2849999998178,0.0005647462
333.29999999981777,1.491499e-05,333.29999999981777,7.673483e-06,333.29999999981777,7.429107e-06,333.29999999981777,0.0005014694
333.31499999981776,1.473827e-05,333.31499999981776,7.571843e-06,333.31499999981776,7.491418e-06,333.31499999981776,0.000472075
333.32999999981774,1.498284e-05,333.32999999981774,7.564397e-06,333.32999999981774,7.485775e-06,333.32999999981774,0.0004647568
333.34499999981773,1.50457e-05,333.34499999981773,7.621908e-06,333.34499999981773,7.461272e-06,333.34499999981773,0.0004432066
333.3599999998177,1.521051e-05,333.3599999998177,8.129866e-06,333.3599999998177,7.343284e-06,333.3599999998177,0.0004432084
333.3749999998177,1.531665e-05,333.3749999998177,8.265616e-06,333.3749999998177,6.867475e-06,333.3749999998177,0.0004264581
333.3899999998177,1.477455e-05,333.3899999998177,9.077836e-06,333.3899999998177,6.883865e-06,333.3899999998177,0.0004252365
333.4049999998177,1.489609e-05,333.4049999998177,9.196546e-06,333.4049999998177,6.863372e-06,333.4049999998177,0.0004227555
333.41999999981766,1.488284e-05,333.41999999981766,9.20267e-06,333.41999999981766,6.107498e-06,333.41999999981766,0.0004255841
333.43499999981765,1.45061e-05,333.43499999981765,9.315255e-06,333.43499999981765,5.843468e-06,333.43499999981765,0.0004381108
333.44999999981763,1.481264e-05,333.44999999981763,9.274335e-06,333.44999999981763,4.998978e-06,333.44999999981763,0.0004022166
333.4649999998176,1.489609e-05,333.4649999998176,9.321302e-06,333.4649999998176,4.838602e-06,333.4649999998176,0.0004220598
333.4799999998176,1.521884e-05,333.4799999998176,9.248478e-06,333.4799999998176,4.947995e-06,333.4799999998176,0.0004509085
333.4949999998176,1.50831e-05,333.4949999998176,8.741063e-06,333.4949999998176,5.02147e-06,333.4949999998176,0.0004306346
333.5099999998176,1.535247e-05,333.5099999998176,8.358825e-06,333.5099999998176,4.902232e-06,333.5099999998176,0.0004080667
333.52499999981757,1.55222e-05,333.52499999981757,8.341955e-06,333.52499999981757,4.844421e-06,333.52499999981757,0.0004035618
333.53999999981755,1.530929e-05,333.53999999981755,7.854914e-06,333.53999999981755,4.544346e-06,333.53999999981755,0.0004102812
333.55499999981754,1.548404e-05,333.55499999981754,7.640368e-06,333.55499999981754,4.510119e-06,333.55499999981754,0.0004121534
333.5699999998175,1.524474e-05,333.5699999998175,7.97063e-06,333.5699999998175,4.383405e-06,333.5699999998175,0.0004234464
333.5849999998175,1.484399e-05,333.5849999998175,7.96002e-06,333.5849999998175,4.803539e-06,333.5849999998175,0.0004369517
333.5999999998175,1.474783e-05,333.5999999998175,7.945849e-06,333.5999999998175,4.882076e-06,333.5999999998175,0.0004328972
333.6149999998175,1.438322e-05,333.6149999998175,7.135074e-06,333.6149999998175,4.905105e-06,333.6149999998175,0.0004299053
333.62999999981747,1.43842e-05,333.62999999981747,7.184261e-06,333.62999999981747,4.87919e-06,333.62999999981747,0.000451169
333.64499999981746,1.425434e-05,333.64499999981746,6.48993e-06,333.64499999981746,4.925167e-06,333.64499999981746,0.0004624873
333.65999999981744,1.3892e-05,333.65999999981744,6.481242e-06,333.65999999981744,4.887844e-06,333.65999999981744,0.0004537772
333.67499999981743,1.364956e-05,333.67499999981743,6.450741e-06,333.67499999981743,4.832776e-06,333.67499999981743,0.0004410623
333.6899999998174,1.312555e-05,333.6899999998174,6.266871e-06,333.6899999998174,4.826943e-06,333.6899999998174,0.0004218535
333.7049999998174,1.274218e-05,333.7049999998174,6.25337e-06,333.7049999998174,4.780021e-06,333.7049999998174,0.0004143891
333.7199999998174,1.245256e-05,333.7199999998174,6.631638e-06,333.7199999998174,4.824024e-06,333.7199999998174,0.0003443587
333.7349999998174,1.208281e-05,333.7349999998174,6.820134e-06,333.7349999998174,4.621192e-06,333.7349999998174,0.0003252215
333.74999999981736,1.184735e-05,333.74999999981736,7.306746e-06,333.74999999981736,4.488202e-06,333.74999999981736,0.0003231178
333.76499999981735,1.132703e-05,333.76499999981735,7.553216e-06,333.76499999981735,4.450379e-06,333.76499999981735,0.0003203256
333.77999999981733,1.073579e-05,333.77999999981733,7.573703e-06,333.77999999981733,4.516361e-06,333.77999999981733,0.0003056123
333.7949999998173,1.057983e-05,333.7949999998173,8.103833e-06,333.7949999998173,4.535037e-06,333.7949999998173,0.0002862019
333.8099999998173,1.037819e-05,333.8099999998173,8.056763e-06,333.8099999998173,4.48192e-06,333.8099999998173,0.0002715789
333.8249999998173,1.030326e-05,333.8249999998173,8.306418e-06,333.8249999998173,4.494475e-06,333.8249999998173,0.0002573549
333.8399999998173,1.004575e-05,333.8399999998173,8.419275e-06,333.8399999998173,4.334932e-06,333.8399999998173,0.0002381334
333.85499999981727,9.904527e-06,333.85499999981727,8.45767e-06,333.85499999981727,4.259536e-06,333.85499999981727,0.0002311875
333.86999999981725,9.416029e-06,333.86999999981725,8.99365e-06,333.86999999981725,4.373753e-06,333.86999999981725,0.0002180116
333.88499999981724,9.195013e-06,333.88499999981724,8.647087e-06,333.88499999981724,4.35762e-06,333.88499999981724,0.0001470371
333.8999999998172,9.155096e-06,333.8999999998172,8.745896e-06,333.8999999998172,4.488202e-06,333.8999999998172,0.0001334459
333.9149999998172,9.0374e-06,333.9149999998172,9.068521e-06,333.9149999998172,4.687774e-06,333.9149999998172,0.0001304281
333.9299999998172,8.944963e-06,333.9299999998172,8.984247e-06,333.9299999998172,4.73561e-06,333.9299999998172,0.0001290265
333.9449999998172,9.051417e-06,333.9449999998172,9.316767e-06,333.9449999998172,5.157098e-06,333.9449999998172,0.0001039969
333.95999999981717,8.575109e-06,333.95999999981717,9.387561e-06,333.95999999981717,5.181623e-06,333.95999999981717,9.548321e-05
333.97499999981716,8.558665e-06,333.97499999981716,9.564462e-06,333.97499999981716,5.143422e-06,333.97499999981716,8.527088e-05
333.98999999981714,8.770023e-06,333.98999999981714,9.615872e-06,333.98999999981714,5.124215e-06,333.98999999981714,8.122377e-05
334.00499999981713,9.549722e-06,334.00499999981713,9.765595e-06,334.00499999981713,5.184341e-06,334.00499999981713,9.069872e-05
334.0199999998171,9.945687e-06,334.0199999998171,9.562988e-06,334.0199999998171,5.124215e-06,334.0199999998171,9.897001e-05
334.0349999998171,1.038362e-05,334.0349999998171,9.529049e-06,334.0349999998171,5.063375e-06,334.0349999998171,0.0001724031
334.0499999998171,1.058116e-05,334.0499999998171,9.191949e-06,334.0499999998171,4.984868e-06,334.0499999998171,0.000179739
334.0649999998171,1.087269e-05,334.0649999998171,9.383058e-06,334.0649999998171,4.893604e-06,334.0649999998171,0.000193468
334.07999999981706,1.10309e-05,334.07999999981706,8.971695e-06,334.07999999981706,4.896482e-06,334.07999999981706,0.0001957499
334.09499999981705,1.131458e-05,334.09499999981705,8.862694e-06,334.09499999981705,4.75046e-06,334.09499999981705,0.0001960798
334.10999999981703,1.147406e-05,334.10999999981703,8.840414e-06,334.10999999981703,4.590608e-06,334.10999999981703,0.0002050727
334.124999999817,1.207465e-05,334.124999999817,8.178238e-06,334.124999999817,4.744526e-06,334.124999999817,0.000215253
334.139999999817,1.276096e-05,334.139999999817,8.323359e-06,334.139999999817,4.782967e-06,334.139999999817,0.0002234237
334.154999999817,1.295705e-05,334.154999999817,8.275836e-06,334.154999999817,4.66971e-06,334.154999999817,0.0002307258
334.169999999817,1.330146e-05,334.169999999817,8.353768e-06,334.169999999817,4.618143e-06,334.169999999817,0.0002438789
334.18499999981697,1.415717e-05,334.18499999981697,8.345331e-06,334.18499999981697,4.581393e-06,334.18499999981697,0.0002644884
334.19999999981695,1.460481e-05,334.19999999981695,8.053266e-06,334.19999999981695,4.179412e-06,334.19999999981695,0.0002704699
334.21499999981694,1.566133e-05,334.21499999981694,7.977696e-06,334.21499999981694,4.148967e-06,334.21499999981694,0.0002844731
334.2299999998169,1.627532e-05,334.2299999998169,8.606265e-06,334.2299999998169,4.152361e-06,334.2299999998169,0.0002997933
334.2449999998169,1.685862e-05,334.2449999998169,8.145445e-06,334.2449999998169,4.17604e-06,334.2449999998169,0.000303793
334.2599999998169,1.733242e-05,334.2599999998169,8.042764e-06,334.2599999998169,4.15914e-06,334.2599999998169,0.0003179648
334.2749999998169,1.971282e-05,334.2749999998169,8.121197e-06,334.2749999998169,4.226336e-06,334.2749999998169,0.0004151867
334.28999999981687,2.148208e-05,334.28999999981687,8.060259e-06,334.28999999981687,4.325173e-06,334.28999999981687,0.0004325355
334.30499999981686,2.320998e-05,334.30499999981686,8.023475e-06,334.30499999981686,4.497608e-06,334.30499999981686,0.0004845214
334.31999999981684,2.530352e-05,334.31999999981684,7.726537e-06,334.31999999981684,4.696781e-06,334.31999999981684,0.0004979766
334.33499999981683,2.608477e-05,334.33499999981683,7.808148e-06,334.33499999981683,4.714741e-06,334.33499999981683,0.0005280705
334.3499999998168,2.88442e-05,334.3499999998168,7.818965e-06,334.3499999998168,4.774123e-06,334.3499999998168,0.0005408247
334.3649999998168,4.522782e-05,334.3649999998168,7.847737e-06,334.3649999998168,4.812329e-06,334.3649999998168,0.0005475737
334.3799999998168,5.538237e-05,334.3799999998168,8.056763e-06,334.3799999998168,4.717728e-06,334.3799999998168,0.0005512835
334.3949999998168,6.860867e-05,334.3949999998168,8.407555e-06,334.3949999998168,4.547444e-06,334.3949999998168,0.0005509944
334.40999999981676,7.080552e-05,334.40999999981676,8.477633e-06,334.40999999981676,4.599804e-06,334.40999999981676,0.0005889634
334.42499999981675,7.42222e-05,334.42499999981675,8.757163e-06,334.42499999981675,4.630328e-06,334.42499999981675,0.0006588496
334.43999999981673,7.451826e-05,334.43999999981673,8.843601e-06,334.43999999981673,4.922306e-06,334.43999999981673,0.0006917411
334.4549999998167,7.578036e-05,334.4549999998167,8.91025e-06,334.4549999998167,4.970719e-06,334.4549999998167,0.0007768977
334.4699999998167,7.584056e-05,334.4699999998167,8.966984e-06,334.4699999998167,5.321112e-06,334.4699999998167,0.0007750889
334.4849999998167,7.598697e-05,334.4849999998167,8.198881e-06,334.4849999998167,5.405162e-06,334.4849999998167,0.0007714356
334.4999999998167,7.645178e-05,334.4999999998167,8.068993e-06,334.4999999998167,5.399948e-06,334.4999999998167,0.0007758432
334.51499999981667,7.666485e-05,334.51499999981667,8.272431e-06,334.51499999981667,5.477649e-06,334.51499999981667,0.0007663248
334.52999999981665,7.634521e-05,334.52999999981665,8.217759e-06,334.52999999981665,5.510979e-06,334.52999999981665,0.0007157433
334.54499999981664,7.554241e-05,334.54499999981664,8.472646e-06,334.54499999981664,5.363302e-06,334.54499999981664,0.000697535
334.5599999998166,7.5218e-05,334.5599999998166,8.50749e-06,334.5599999998166,5.249148e-06,334.5599999998166,0.0006654649
334.5749999998166,7.552843e-05,334.5749999998166,9.184283e-06,334.5749999998166,5.195198e-06,334.5749999998166,0.0006620316
334.5899999998166,7.557635e-05,334.5899999998166,9.324323e-06,334.5899999998166,5.297233e-06,334.5899999998166,0.0006392231
334.6049999998166,7.462819e-05,334.6049999998166,9.236285e-06,334.6049999998166,5.305204e-06,334.6049999998166,0.0006265647
334.61999999981657,6.506253e-05,334.61999999981657,9.304663e-06,334.61999999981657,5.241091e-06,334.61999999981657,0.0006204758
334.63499999981656,5.213847e-05,334.63499999981656,8.982679e-06,334.63499999981656,5.241091e-06,334.63499999981656,0.000617937
334.64999999981654,4.32426e-05,334.64999999981654,8.907087e-06,334.64999999981654,5.187057e-06,334.64999999981654,0.0006087275
334.66499999981653,3.867313e-05,334.66499999981653,8.797286e-06,334.66499999981653,5.22494e-06,334.66499999981653,0.0005429279
334.6799999998165,3.543209e-05,334.6799999998165,8.91973e-06,334.6799999998165,5.233022e-06,334.6799999998165,0.0004684412
334.6949999998165,3.387437e-05,334.6949999998165,8.971695e-06,334.6949999998165,4.919443e-06,334.6949999998165,0.0003866515
334.7099999998165,3.02082e-05,334.7099999998165,9.21185e-06,334.7099999998165,4.666692e-06,334.7099999998165,0.0002471195
334.7249999998165,3.021473e-05,334.7249999998165,9.155096e-06,334.7249999998165,4.544346e-06,334.7249999998165,0.0002305641
334.73999999981646,3.028598e-05,334.73999999981646,9.667009e-06,334.73999999981646,4.639445e-06,334.73999999981646,0.0002253412
334.75499999981645,2.92183e-05,334.75499999981645,9.848904e-06,334.75499999981645,4.544346e-06,334.75499999981645,0.0002061806
334.76999999981643,2.77845e-05,334.76999999981643,9.777128e-06,334.76999999981643,4.565993e-06,334.76999999981643,0.0002042113
334.7849999998164,2.753853e-05,334.7849999998164,9.624658e-06,334.7849999998164,4.516361e-06,334.7849999998164,0.0001966774
334.7999999998164,2.758759e-05,334.7999999998164,9.607078e-06,334.7999999998164,4.47563e-06,334.7999999998164,0.0001858328
334.8149999998164,2.692503e-05,334.8149999998164,9.423506e-06,334.8149999998164,4.593675e-06,334.8149999998164,0.0001676422
334.8299999998164,2.371312e-05,334.8299999998164,9.12427e-06,334.8299999998164,5.140683e-06,334.8299999998164,0.0001501754
334.84499999981637,2.318325e-05,334.84499999981637,9.196546e-06,334.84499999981637,4.916579e-06,334.84499999981637,0.0001316321
334.85999999981635,2.215419e-05,334.85999999981635,9.47122e-06,334.85999999981635,5.143422e-06,334.85999999981635,0.0001303857
334.87499999981634,1.753683e-05,334.87499999981634,9.771364e-06,334.87499999981634,5.178904e-06,334.87499999981634,0.0001282712
334.8899999998163,1.627532e-05,334.8899999998163,1.003733e-05,334.8899999998163,5.192486e-06,334.8899999998163,0.0001232274
334.9049999998163,1.656868e-05,334.9049999998163,9.937185e-06,334.9049999998163,5.254512e-06,334.9049999998163,0.0001239795
334.9199999998163,1.708768e-05,334.9199999998163,1.017532e-05,334.9199999998163,5.195198e-06,334.9199999998163,0.0001346907
334.9349999998163,1.72485e-05,334.9349999998163,1.155359e-05,334.9349999998163,5.278585e-06,334.9349999998163,0.0001308011
334.94999999981627,1.675552e-05,334.94999999981627,1.154017e-05,334.94999999981627,5.230329e-06,334.94999999981627,0.0001275124
334.96499999981626,1.674039e-05,334.96499999981626,1.161924e-05,334.96499999981626,5.490492e-06,334.96499999981626,0.000128986
334.97999999981624,1.699344e-05,334.97999999981624,1.135063e-05,334.97999999981624,5.619817e-06,334.97999999981624,0.0001483222
334.99499999981623,1.733892e-05,334.99499999981623,1.104111e-05,334.99499999981623,5.551726e-06,334.99499999981623,0.0001602691
335.0099999998162,1.908469e-05,335.0099999998162,1.126467e-05,335.0099999998162,5.477649e-06,335.0099999998162,0.0001598786
335.0249999998162,1.953119e-05,335.0249999998162,1.185329e-05,335.0249999998162,5.508422e-06,335.0249999998162,0.0001620404
335.0399999998162,2.067954e-05,335.0399999998162,1.264786e-05,335.0399999998162,5.729046e-06,335.0399999998162,0.0001644979
335.0549999998162,2.064341e-05,335.0549999998162,1.303617e-05,335.0549999998162,5.667242e-06,335.0549999998162,0.0001623061
335.06999999981616,2.045145e-05,335.06999999981616,1.308255e-05,335.06999999981616,5.143422e-06,335.06999999981616,0.0001609822
335.08499999981615,2.025837e-05,335.08499999981615,1.29983e-05,335.08499999981615,5.035477e-06,335.08499999981615,0.0001569025
335.09999999981613,2.053462e-05,335.09999999981613,1.309439e-05,335.09999999981613,4.953686e-06,335.09999999981613,0.0001582227
335.1149999998161,2.309376e-05,335.1149999998161,1.274107e-05,335.1149999998161,4.809401e-06,335.1149999998161,0.0001571808
335.1299999998161,2.386708e-05,335.1299999998161,1.265788e-05,335.1299999998161,4.800605e-06,335.1299999998161,0.0001563992
335.1449999998161,2.323363e-05,335.1449999998161,1.322925e-05,335.1449999998161,4.714741e-06,335.1449999998161,0.0001488493
335.1599999998161,2.337086e-05,335.1599999998161,1.3209e-05,335.1599999998161,4.930884e-06,335.1599999998161,0.0001544784
335.17499999981607,2.285956e-05,335.17499999981607,1.186042e-05,335.17499999981607,4.896482e-06,335.17499999981607,0.0001458442
335.18999999981605,2.264223e-05,335.18999999981605,1.19586e-05,335.18999999981605,4.824024e-06,335.18999999981605,0.0001485696
335.20499999981604,2.25843e-05,335.20499999981604,1.19031e-05,335.20499999981604,4.756387e-06,335.20499999981604,0.0001464616
335.219999999816,2.231322e-05,335.219999999816,1.154627e-05,335.219999999816,4.618143e-06,335.219999999816,0.0001478288
335.234999999816,2.22329e-05,335.234999999816,1.172785e-05,335.234999999816,4.562907e-06,335.234999999816,0.0001345896
335.249999999816,2.19106e-05,335.249999999816,1.169055e-05,335.249999999816,4.553636e-06,335.249999999816,0.0001379735
335.264999999816,2.133337e-05,335.264999999816,1.130462e-05,335.264999999816,4.717728e-06,335.264999999816,0.0001517982
335.27999999981597,2.095966e-05,335.27999999981597,1.108314e-05,335.27999999981597,4.747494e-06,335.27999999981597,0.0001499733
335.29499999981596,2.066455e-05,335.29499999981596,1.028821e-05,335.29499999981596,4.494475e-06,335.29499999981596,0.0001524625
335.30999999981594,2.056684e-05,335.30999999981594,1.042964e-05,335.30999999981594,4.506994e-06,335.30999999981594,0.0001538601
335.32499999981593,2.043698e-05,335.32499999981593,1.048353e-05,335.32499999981593,4.550541e-06,335.32499999981593,0.0001530754
335.3399999998159,2.030282e-05,335.3399999998159,1.015453e-05,335.3399999998159,4.553636e-06,335.3399999998159,0.0001502075
335.3549999998159,1.926614e-05,335.3549999998159,1.036189e-05,335.3549999998159,4.806471e-06,335.3549999998159,0.0001474765
335.3699999998159,1.62883e-05,335.3699999998159,1.059712e-05,335.3699999998159,4.82986e-06,335.3699999998159,0.0001433709
335.3849999998159,1.60329e-05,335.3849999998159,9.903105e-06,335.3849999998159,4.782967e-06,335.3849999998159,0.0001404821
335.39999999981586,1.490082e-05,335.39999999981586,9.262176e-06,335.39999999981586,4.893604e-06,335.39999999981586,0.0001400549
335.41499999981585,1.441941e-05,335.41499999981585,9.167396e-06,335.41499999981585,4.913713e-06,335.41499999981585,0.0001336842
335.42999999981583,1.437146e-05,335.42999999981583,8.758771e-06,335.42999999981583,4.982041e-06,335.42999999981583,0.000133273
335.4449999998158,1.443504e-05,335.4449999998158,8.425965e-06,335.4449999998158,5.107694e-06,335.4449999998158,0.0001263364
335.4599999998158,1.485442e-05,335.4599999998158,8.596438e-06,335.4599999998158,4.998978e-06,335.4599999998158,0.0001251899
335.4749999998158,1.510643e-05,335.4749999998158,8.661737e-06,335.4749999998158,5.187057e-06,335.4749999998158,0.0001169114
335.4899999998158,1.515391e-05,335.4899999998158,8.427637e-06,335.4899999998158,5.162558e-06,335.4899999998158,0.0001095372
335.50499999981577,1.48942e-05,335.50499999981577,9.167396e-06,335.50499999981577,5.262549e-06,335.50499999981577,8.962426e-05
335.51999999981575,1.373187e-05,335.51999999981575,9.586528e-06,335.51999999981575,5.121465e-06,335.51999999981575,6.493163e-05
335.53499999981574,1.349178e-05,335.53499999981574,9.483111e-06,335.53499999981574,5.113207e-06,335.53499999981574,5.275328e-05
335.5499999998157,1.309762e-05,335.5499999998157,9.514254e-06,335.5499999998157,5.219545e-06,335.5499999998157,4.306732e-05
335.5649999998157,1.388185e-05,335.5649999998157,9.365025e-06,335.5649999998157,5.227635e-06,335.5649999998157,3.690165e-05
335.5799999998157,1.407734e-05,335.5799999998157,9.29709e-06,335.5799999998157,5.189773e-06,335.5799999998157,3.843894e-05
335.5949999998157,1.460964e-05,335.5949999998157,9.242383e-06,335.5949999998157,5.135199e-06,335.5949999998157,3.843638e-05
335.60999999981567,1.5619e-05,335.60999999981567,8.733001e-06,335.60999999981567,4.947995e-06,335.60999999981567,4.064482e-05
335.62499999981566,1.55865e-05,335.62499999981566,8.648716e-06,335.62499999981566,4.945147e-06,335.62499999981566,4.300513e-05
335.63999999981564,1.60645e-05,335.63999999981564,9.042074e-06,335.63999999981564,4.815255e-06,335.63999999981564,4.344573e-05
335.65499999981563,1.640807e-05,335.65499999981563,1.042288e-05,335.65499999981563,4.714741e-06,335.65499999981563,4.240212e-05
335.6699999998156,1.641579e-05,335.6699999998156,1.093213e-05,335.6699999998156,4.627284e-06,335.6699999998156,4.363725e-05
335.6849999998156,1.692034e-05,335.6849999998156,1.108314e-05,335.6849999998156,4.636408e-06,335.6849999998156,4.253248e-05
335.6999999998156,1.689034e-05,335.6999999998156,1.10309e-05,335.6999999998156,4.584466e-06,335.6999999998156,4.258445e-05
335.7149999998156,1.6882e-05,335.7149999998156,1.078684e-05,335.7149999998156,4.741556e-06,335.7149999998156,4.219798e-05
335.72999999981556,1.623285e-05,335.72999999981556,1.0972e-05,335.72999999981556,4.456705e-06,335.72999999981556,4.217828e-05
335.74499999981555,1.51083e-05,335.74499999981555,1.093213e-05,335.74499999981555,4.506994e-06,335.74499999981555,4.354839e-05
335.75999999981553,1.512973e-05,335.75999999981553,1.008912e-05,335.75999999981553,4.219664e-06,335.75999999981553,4.349109e-05
335.7749999998155,1.570086e-05,335.7749999998155,1.056251e-05,335.7749999998155,4.199587e-06,335.7749999998155,4.309511e-05
335.7899999998155,1.582419e-05,335.7899999998155,1.050098e-05,335.7899999998155,4.386617e-06,335.7899999998155,4.192671e-05
335.8049999998155,1.582152e-05,335.8049999998155,9.915899e-06,335.8049999998155,4.272744e-06,335.8049999998155,4.076767e-05
335.8199999998155,1.489325e-05,335.8199999998155,1.028821e-05,335.8199999998155,4.321914e-06,335.8199999998155,3.995834e-05
335.83499999981547,1.49612e-05,335.83499999981547,1.037819e-05,335.83499999981547,4.360851e-06,335.83499999981547,3.993225e-05
335.84999999981545,1.38849e-05,335.84999999981545,1.037276e-05,335.84999999981545,4.434525e-06,335.84999999981545,4.072999e-05
335.86499999981544,1.332791e-05,335.86499999981544,1.029779e-05,335.86499999981544,4.428167e-06,335.86499999981544,3.998865e-05
335.8799999998154,1.299179e-05,335.8799999998154,1.074366e-05,335.8799999998154,4.565993e-06,335.8799999998154,3.711594e-05
335.8949999998154,1.277971e-05,335.8949999998154,1.030326e-05,335.8949999998154,4.605925e-06,335.8949999998154,3.680264e-05
335.9099999998154,1.190547e-05,335.9099999998154,8.771629e-06,335.9099999998154,4.66971e-06,335.9099999998154,3.599065e-05
335.9249999998154,1.169537e-05,335.9249999998154,8.331817e-06,335.9249999998154,4.636408e-06,335.9249999998154,3.506724e-05
335.93999999981537,1.068845e-05,335.93999999981537,8.459336e-06,335.93999999981537,4.621192e-06,335.93999999981537,3.448679e-05
335.95499999981536,1.053847e-05,335.95499999981536,8.728161e-06,335.95499999981536,4.618143e-06,335.95499999981536,3.544124e-05
335.96999999981534,1.018224e-05,335.96999999981534,8.905506e-06,335.96999999981534,4.52882e-06,335.96999999981534,3.688523e-05
335.98499999981533,1.012536e-05,335.98499999981533,8.716856e-06,335.98499999981533,4.572159e-06,335.98499999981533,3.733618e-05
335.9999999998153,1.010029e-05,335.9999999998153,8.720087e-06,335.9999999998153,4.593675e-06,335.9999999998153,3.839751e-05
336.0149999998153,9.755493e-06,336.0149999998153,8.427637e-06,336.0149999998153,4.726678e-06,336.0149999998153,3.807145e-05
336.0299999998153,8.752336e-06,336.0299999998153,7.655103e-06,336.0299999998153,4.615091e-06,336.0299999998153,3.816827e-05
336.0449999998153,8.755555e-06,336.0449999998153,7.449935e-06,336.0449999998153,4.510119e-06,336.0449999998153,3.826374e-05
336.05999999981526,8.729774e-06,336.05999999981526,7.455606e-06,336.05999999981526,4.541245e-06,336.05999999981526,3.811028e-05
336.07499999981525,8.612809e-06,336.07499999981525,7.099447e-06,336.07499999981525,4.672725e-06,336.07499999981525,3.732938e-05
336.08999999981523,8.862694e-06,336.08999999981523,7.087532e-06,336.08999999981523,4.605925e-06,336.08999999981523,3.754386e-05
336.1049999998152,8.938661e-06,336.1049999998152,7.180339e-06,336.1049999998152,4.651575e-06,336.1049999998152,3.557573e-05
336.1199999998152,8.916571e-06,336.1199999998152,6.922637e-06,336.1199999998152,4.510119e-06,336.1199999998152,3.540823e-05
336.1349999998152,8.843601e-06,336.1349999998152,6.879772e-06,336.1349999998152,4.4218e-06,336.1349999998152,3.71516e-05
336.1499999998152,8.867461e-06,336.1499999998152,6.914493e-06,336.1499999998152,4.347911e-06,336.1499999998152,3.834795e-05
336.16499999981517,8.995216e-06,336.16499999981517,7.03967e-06,336.16499999981517,4.256228e-06,336.16499999981517,3.87481e-05
336.17999999981515,8.999913e-06,336.17999999981515,6.963215e-06,336.17999999981515,4.500739e-06,336.17999999981515,4.073829e-05
336.19499999981514,9.155096e-06,336.19499999981514,8.217759e-06,336.19499999981514,4.853136e-06,336.19499999981514,4.111142e-05
336.2099999998151,9.087142e-06,336.2099999998151,7.98652e-06,336.2099999998151,5.099414e-06,336.2099999998151,3.79562e-05
336.2249999998151,8.963841e-06,336.2249999998151,7.844146e-06,336.2249999998151,5.162558e-06,336.2249999998151,3.808144e-05
336.2399999998151,8.77805e-06,336.2399999998151,8.055015e-06,336.2399999998151,5.291911e-06,336.2399999998151,3.841255e-05
336.2549999998151,8.681231e-06,336.2549999998151,8.119463e-06,336.2549999998151,5.227635e-06,336.2549999998151,3.793207e-05
336.26999999981507,8.91183e-06,336.26999999981507,8.077717e-06,336.26999999981507,5.22494e-06,336.26999999981507,3.820553e-05
336.28499999981506,9.038959e-06,336.28499999981506,8.160995e-06,336.28499999981506,5.230329e-06,336.28499999981506,3.961811e-05
336.29999999981504,9.094889e-06,336.29999999981504,8.367247e-06,336.29999999981504,5.392116e-06,336.29999999981504,4.001612e-05
336.31499999981503,9.138154e-06,336.31499999981503,9.038959e-06,336.31499999981503,5.508422e-06,336.31499999981503,3.93738e-05
336.329999999815,9.139696e-06,336.329999999815,9.032722e-06,336.329999999815,5.612292e-06,336.329999999815,4.12875e-05
336.344999999815,9.164322e-06,336.344999999815,9.06075e-06,336.344999999815,5.682137e-06,336.344999999815,3.949061e-05
336.359999999815,9.723673e-06,336.359999999815,8.949686e-06,336.359999999815,5.716739e-06,336.359999999815,3.926381e-05
336.374999999815,9.67866e-06,336.374999999815,9.289512e-06,336.374999999815,5.95096e-06,336.374999999815,3.743791e-05
336.38999999981496,9.392062e-06,336.38999999981496,9.210321e-06,336.38999999981496,6.028569e-06,336.38999999981496,3.500774e-05
336.40499999981495,9.340927e-06,336.40499999981495,9.121181e-06,336.40499999981495,6.035575e-06,336.40499999981495,3.507487e-05
336.41999999981493,9.478654e-06,336.41999999981493,9.115002e-06,336.41999999981493,5.915346e-06,336.41999999981493,3.427085e-05
336.4349999998149,9.269777e-06,336.4349999998149,8.741063e-06,336.4349999998149,5.965146e-06,336.4349999998149,3.333741e-05
336.4499999998149,9.164322e-06,336.4499999998149,7.842351e-06,336.4499999998149,5.721665e-06,336.4499999998149,3.279252e-05
336.4649999998149,9.105725e-06,336.4649999998149,7.863876e-06,336.4649999998149,5.533936e-06,336.4649999998149,3.437223e-05
336.4799999998149,9.020237e-06,336.4799999998149,8.011176e-06,336.4799999998149,5.477649e-06,336.4799999998149,3.483873e-05
336.49499999981487,9.046747e-06,336.49499999981487,8.456004e-06,336.49499999981487,5.472503e-06,336.49499999981487,3.247568e-05
336.50999999981485,9.346957e-06,336.50999999981485,8.797286e-06,336.50999999981485,5.644828e-06,336.50999999981485,3.182636e-05
336.52499999981484,9.147398e-06,336.52499999981484,8.819675e-06,336.52499999981484,5.629835e-06,336.52499999981484,2.955005e-05
336.5399999998148,9.20114e-06,336.5399999998148,8.548785e-06,336.5399999998148,5.649817e-06,336.5399999998148,2.9769e-05
336.5549999998148,9.246955e-06,336.5549999998148,7.865667e-06,336.5549999998148,5.428567e-06,336.5549999998148,2.833572e-05
336.5699999998148,9.181215e-06,336.5699999998148,7.693649e-06,336.5699999998148,5.249148e-06,336.5699999998148,2.750833e-05
336.5849999998148,9.012426e-06,336.5849999998148,7.97593e-06,336.5849999998148,5.235713e-06,336.5849999998148,2.801474e-05
336.59999999981477,8.837226e-06,336.59999999981477,8.037508e-06,336.59999999981477,5.211442e-06,336.59999999981477,2.789178e-05
336.61499999981476,8.02874e-06,336.61499999981476,7.860292e-06,336.61499999981476,5.200618e-06,336.61499999981476,2.805544e-05
336.62999999981474,7.977696e-06,336.62999999981474,7.998858e-06,336.62999999981474,4.913713e-06,336.62999999981474,2.883443e-05
336.64499999981473,8.089915e-06,336.64499999981473,8.24514e-06,336.64499999981473,4.884961e-06,336.64499999981473,2.892856e-05
336.6599999998147,7.979462e-06,336.6599999998147,8.143716e-06,336.6599999998147,4.947995e-06,336.6599999998147,2.927033e-05
336.6749999998147,7.910313e-06,336.6749999998147,8.053266e-06,336.6749999998147,4.726678e-06,336.6749999998147,2.943924e-05
336.6899999998147,7.993573e-06,336.6899999998147,8.055015e-06,336.6899999998147,4.565993e-06,336.6899999998147,2.958864e-05
336.7049999998147,7.896054e-06,336.7049999998147,8.081204e-06,336.7049999998147,4.708762e-06,336.7049999998147,2.961861e-05
336.71999999981466,7.711938e-06,336.71999999981466,8.007658e-06,336.71999999981466,4.642481e-06,336.71999999981466,2.733264e-05
336.73499999981465,7.800928e-06,336.73499999981465,7.961788e-06,336.73499999981465,4.777073e-06,336.73499999981465,2.749297e-05
336.74999999981463,7.678988e-06,336.74999999981463,7.523317e-06,336.74999999981463,4.503868e-06,336.74999999981463,2.790238e-05
336.7649999998146,7.394897e-06,336.7649999998146,7.035667e-06,336.7649999998146,4.4377e-06,336.7649999998146,2.887592e-05
336.7799999998146,7.63668e-06,336.7799999998146,7.184261e-06,336.7799999998146,4.870521e-06,336.7799999998146,2.894706e-05
336.7949999998146,7.500814e-06,336.7949999998146,7.753835e-06,336.7949999998146,4.882076e-06,336.7949999998146,2.958483e-05
336.8099999998146,7.264208e-06,336.8099999998146,8.414254e-06,336.8099999998146,4.856038e-06,336.8099999998146,3.217237e-05
336.82499999981457,7.38918e-06,336.82499999981457,8.143716e-06,336.82499999981457,4.896482e-06,336.82499999981457,3.227641e-05
336.83999999981455,7.358615e-06,336.83999999981455,7.912094e-06,336.83999999981455,4.93374e-06,336.83999999981455,3.083542e-05
336.85499999981454,7.345202e-06,336.85499999981454,7.894269e-06,336.85499999981454,4.832776e-06,336.85499999981454,3.284145e-05
336.8699999998145,7.40061e-06,336.8699999998145,7.62745e-06,336.8699999998145,4.993339e-06,336.8699999998145,3.456431e-05
336.8849999998145,7.586711e-06,336.8849999998145,7.784659e-06,336.8849999998145,5.029879e-06,336.8849999998145,3.313397e-05
336.8999999998145,7.438582e-06,336.8999999998145,7.826167e-06,336.8999999998145,5.007424e-06,336.8999999998145,3.406926e-05
336.9149999998145,7.47636e-06,336.9149999998145,7.92099e-06,336.9149999998145,5.00461e-06,336.9149999998145,3.325788e-05
336.92999999981447,7.366268e-06,336.92999999981447,8.492574e-06,336.92999999981447,5.184341e-06,336.92999999981447,3.335853e-05
336.94499999981446,7.521444e-06,336.94499999981446,8.697441e-06,336.94499999981446,5.107694e-06,336.94499999981446,3.349339e-05
336.95999999981444,7.638524e-06,336.95999999981444,8.692581e-06,336.95999999981444,5.305204e-06,336.95999999981444,3.314927e-05
336.97499999981443,7.93698e-06,336.97499999981443,9.122726e-06,336.97499999981443,5.765811e-06,336.97499999981443,3.320829e-05
336.9899999998144,8.026986e-06,336.9899999998144,8.760379e-06,336.9899999998144,5.778013e-06,336.9899999998144,3.257443e-05
337.0049999998144,8.055015e-06,337.0049999998144,9.756936e-06,337.0049999998144,6.030905e-06,337.0049999998144,3.231305e-05
337.0199999998144,8.02523e-06,337.0199999998144,1.011979e-05,337.0199999998144,5.855509e-06,337.0199999998144,3.202843e-05
337.0349999998144,7.730182e-06,337.0349999998144,1.032512e-05,337.0349999998144,5.760922e-06,337.0349999998144,3.102079e-05
337.04999999981436,7.903186e-06,337.04999999981436,1.001344e-05,337.04999999981436,5.719203e-06,337.04999999981436,3.007594e-05
337.06499999981435,7.949394e-06,337.06499999981435,9.696108e-06,337.06499999981435,5.706874e-06,337.06499999981435,2.738156e-05
337.07999999981433,7.838757e-06,337.07999999981433,1.029095e-05,337.07999999981433,5.748683e-06,337.07999999981433,2.735376e-05
337.0949999998143,7.945849e-06,337.0949999998143,1.027725e-05,337.0949999998143,5.647323e-06,337.0949999998143,2.894949e-05
337.1099999998143,7.85312e-06,337.1099999998143,1.072923e-05,337.1099999998143,5.912964e-06,337.1099999998143,2.749143e-05
337.1249999998143,7.833364e-06,337.1249999998143,1.082725e-05,337.1249999998143,6.021555e-06,337.1249999998143,3.134739e-05
337.1399999998143,7.697311e-06,337.1399999998143,1.080511e-05,337.1399999998143,6.049562e-06,337.1399999998143,3.262456e-05
337.15499999981427,7.614512e-06,337.15499999981427,1.088823e-05,337.15499999981427,5.958057e-06,337.15499999981427,3.219819e-05
337.16999999981425,7.824367e-06,337.16999999981425,1.07777e-05,337.16999999981425,5.991066e-06,337.16999999981425,3.258438e-05
337.18499999981424,7.523317e-06,337.18499999981424,1.043234e-05,337.18499999981424,5.986361e-06,337.18499999981424,3.245573e-05
337.1999999998142,7.616361e-06,337.1999999998142,1.029369e-05,337.1999999998142,6.109804e-06,337.1999999998142,3.241273e-05
337.2149999998142,7.85312e-06,337.2149999998142,1.04053e-05,337.2149999998142,5.927241e-06,337.2149999998142,3.175857e-05
337.2299999998142,7.638524e-06,337.2299999998142,9.914478e-06,337.2299999998142,5.518642e-06,337.2299999998142,3.126955e-05
337.2449999998142,7.459384e-06,337.2449999998142,9.807338e-06,337.2449999998142,5.352786e-06,337.2449999998142,3.381027e-05
337.25999999981417,7.571843e-06,337.25999999981417,9.34545e-06,337.25999999981417,5.173461e-06,337.25999999981417,3.591817e-05
337.27499999981416,7.547619e-06,337.27499999981416,9.139696e-06,337.27499999981416,5.154366e-06,337.27499999981416,3.825159e-05
337.28999999981414,7.528932e-06,337.28999999981414,8.666614e-06,337.28999999981414,5.151632e-06,337.28999999981414,3.995024e-05
337.30499999981413,7.434793e-06,337.30499999981413,8.687718e-06,337.30499999981413,5.249148e-06,337.30499999981413,4.03027e-05
337.3199999998141,7.631143e-06,337.3199999998141,8.240013e-06,337.3199999998141,5.379038e-06,337.3199999998141,4.090531e-05
337.3349999998141,7.766543e-06,337.3349999998141,8.284342e-06,337.3349999998141,5.654801e-06,337.3349999998141,4.089222e-05
337.3499999998141,7.730182e-06,337.3499999998141,8.729774e-06,337.3499999998141,5.498184e-06,337.3499999998141,3.881058e-05
337.3649999998141,7.972397e-06,337.3649999998141,8.277538e-06,337.3649999998141,5.457037e-06,337.3649999998141,3.845543e-05
337.37999999981406,8.056763e-06,337.37999999981406,8.109047e-06,337.37999999981406,5.294573e-06,337.37999999981406,3.469408e-05
337.39499999981405,8.209184e-06,337.39499999981405,7.961788e-06,337.39499999981405,5.313164e-06,337.39499999981405,3.413288e-05
337.40999999981403,7.99181e-06,337.40999999981403,8.096878e-06,337.40999999981403,5.622323e-06,337.40999999981403,3.469083e-05
337.424999999814,7.899621e-06,337.424999999814,8.079462e-06,337.424999999814,5.508422e-06,337.424999999814,3.490982e-05
337.439999999814,7.910313e-06,337.439999999814,8.832443e-06,337.439999999814,5.500745e-06,337.439999999814,3.467214e-05
337.454999999814,7.802733e-06,337.454999999814,9.071627e-06,337.454999999814,5.381656e-06,337.454999999814,3.545356e-05
337.469999999814,7.664298e-06,337.469999999814,9.079387e-06,337.469999999814,5.352786e-06,337.469999999814,3.654876e-05
337.48499999981397,7.865667e-06,337.48499999981397,9.108818e-06,337.48499999981397,5.363302e-06,337.48499999981397,3.727954e-05
337.49999999981395,8.248557e-06,337.49999999981395,9.147398e-06,337.49999999981395,5.604757e-06,337.49999999981395,3.44181e-05
337.51499999981394,8.209184e-06,337.51499999981394,9.430977e-06,337.51499999981394,5.836232e-06,337.51499999981394,3.186307e-05
337.5299999998139,8.24514e-06,337.5299999998139,9.694656e-06,337.5299999998139,5.862722e-06,337.5299999998139,2.889446e-05
337.5449999998139,8.284342e-06,337.5449999998139,9.74827e-06,337.5449999998139,5.898653e-06,337.5449999998139,2.742987e-05
337.5599999998139,8.224612e-06,337.5599999998139,9.777128e-06,337.5599999998139,5.763367e-06,337.5599999998139,2.842456e-05
337.5749999998139,8.294538e-06,337.5749999998139,1.035509e-05,337.5749999998139,5.579567e-06,337.5749999998139,3.219994e-05
337.58999999981387,8.238303e-06,337.58999999981387,1.002609e-05,337.58999999981387,5.386888e-06,337.58999999981387,3.50837e-05
337.60499999981386,8.284342e-06,337.60499999981386,1.072398e-05,337.60499999981386,5.423375e-06,337.60499999981386,3.622045e-05
337.61999999981384,8.110784e-06,337.61999999981384,1.05958e-05,337.61999999981384,5.355417e-06,337.61999999981384,4.563586e-05
337.63499999981383,8.070739e-06,337.63499999981383,1.049427e-05,337.63499999981383,5.262549e-06,337.63499999981383,5.13262e-05
337.6499999998138,7.896054e-06,337.6499999998138,1.030736e-05,337.6499999998138,5.195198e-06,337.6499999998138,5.157289e-05
337.6649999998138,7.784659e-06,337.6649999998138,1.032512e-05,337.6649999998138,5.041069e-06,337.6649999998138,5.601212e-05
337.6799999998138,7.779228e-06,337.6799999998138,1.036325e-05,337.6799999998138,5.184341e-06,337.6799999998138,5.85137e-05
337.6949999998138,7.851327e-06,337.6949999998138,9.743934e-06,337.6949999998138,5.368553e-06,337.6949999998138,5.958885e-05
337.70999999981376,8.157542e-06,337.70999999981376,9.79584e-06,337.70999999981376,5.741327e-06,337.70999999981376,6.026676e-05
337.72499999981375,7.956479e-06,337.72499999981375,9.821691e-06,337.72499999981375,5.692045e-06,337.72499999981375,5.943001e-05
337.73999999981373,7.59228e-06,337.73999999981373,1.01767e-05,337.73999999981373,5.657291e-06,337.73999999981373,5.980499e-05
337.7549999998137,7.413922e-06,337.7549999998137,9.93435e-06,337.7549999998137,5.265225e-06,337.7549999998137,6.026886e-05
337.7699999998137,7.775606e-06,337.7699999998137,9.664094e-06,337.7699999998137,5.246463e-06,337.7699999998137,6.054311e-05
337.7849999998137,7.808148e-06,337.7849999998137,9.414533e-06,337.7849999998137,5.227635e-06,337.7849999998137,6.038888e-05
337.7999999998137,7.938755e-06,337.7999999998137,9.368033e-06,337.7999999998137,5.088352e-06,337.7999999998137,6.036882e-05
337.81499999981366,7.713764e-06,337.81499999981366,9.257612e-06,337.81499999981366,5.077266e-06,337.81499999981366,5.939587e-05
337.82999999981365,7.885342e-06,337.82999999981365,8.558665e-06,337.82999999981365,5.060592e-06,337.82999999981365,5.661523e-05
337.84499999981364,7.83696e-06,337.84499999981364,8.583318e-06,337.84499999981364,5.071714e-06,337.84499999981364,5.497082e-05
337.8599999998136,7.965326e-06,337.8599999998136,7.820766e-06,337.8599999998136,4.956529e-06,337.8599999998136,5.285839e-05
337.8749999998136,7.931653e-06,337.8749999998136,7.883556e-06,337.8749999998136,4.956529e-06,337.8749999998136,4.398899e-05
337.8899999998136,7.910313e-06,337.8899999998136,8.971695e-06,337.8899999998136,5.157098e-06,337.8899999998136,4.017667e-05
337.9049999998136,7.924546e-06,337.9049999998136,9.176611e-06,337.9049999998136,5.195198e-06,337.9049999998136,4.124244e-05
337.91999999981357,8.032248e-06,337.91999999981357,9.539391e-06,337.91999999981357,5.243778e-06,337.91999999981357,3.253419e-05
337.93499999981356,8.055015e-06,337.93499999981356,9.468245e-06,337.93499999981356,4.973552e-06,337.93499999981356,3.168174e-05
337.94999999981354,7.755652e-06,337.94999999981354,9.30012e-06,337.94999999981354,5.637336e-06,337.94999999981354,3.014612e-05
337.96499999981353,7.699141e-06,337.96499999981353,9.271297e-06,337.96499999981353,5.137942e-06,337.96499999981353,2.873459e-05
337.9799999998135,7.735647e-06,337.9799999998135,9.411539e-06,337.9799999998135,6.089019e-06,337.9799999998135,2.871988e-05
337.9949999998135,7.735647e-06,337.9949999998135,8.982679e-06,337.9949999998135,6.318359e-06,337.9949999998135,2.85477e-05
338.0099999998135,7.655103e-06,338.0099999998135,9.173541e-06,338.0099999998135,6.745368e-06,338.0099999998135,2.888568e-05
338.0249999998135,7.387274e-06,338.0249999998135,9.156633e-06,338.0249999998135,6.900217e-06,338.0249999998135,2.86703e-05
338.03999999981346,7.194059e-06,338.03999999981346,9.29406e-06,338.03999999981346,6.99148e-06,338.03999999981346,2.784224e-05
338.05499999981345,7.314453e-06,338.05499999981345,9.29406e-06,338.05499999981345,7.109361e-06,338.05499999981345,2.761617e-05
338.06999999981343,7.459384e-06,338.06999999981343,9.41902e-06,338.06999999981343,7.16266e-06,338.06999999981343,2.746323e-05
338.0849999998134,7.316379e-06,338.0849999998134,9.50833e-06,338.0849999998134,7.188182e-06,338.0849999998134,2.738361e-05
338.0999999998134,7.590424e-06,338.0999999998134,9.381556e-06,338.0999999998134,7.1823e-06,338.0999999998134,2.813416e-05
338.1149999998134,7.555081e-06,338.1149999998134,9.284961e-06,338.1149999998134,7.16266e-06,338.1149999998134,2.79765e-05
338.1299999998134,7.463159e-06,338.1299999998134,9.318279e-06,338.1299999998134,7.385367e-06,338.1299999998134,2.804791e-05
338.14499999981336,7.656943e-06,338.14499999981336,8.081204e-06,338.14499999981336,7.493299e-06,338.14499999981336,2.775305e-05
338.15999999981335,7.706456e-06,338.15999999981335,7.72289e-06,338.15999999981335,7.671647e-06,338.15999999981335,2.734758e-05
338.17499999981334,7.689987e-06,338.17499999981334,7.908532e-06,338.17499999981334,7.556945e-06,338.17499999981334,2.689257e-05
338.1899999998133,7.680822e-06,338.1899999998133,8.224612e-06,338.1899999998133,7.40061e-06,338.1899999998133,2.586186e-05
338.2049999998133,7.666136e-06,338.2049999998133,8.676361e-06,338.2049999998133,7.04567e-06,338.2049999998133,2.805644e-05
338.2199999998133,7.878193e-06,338.2199999998133,8.370614e-06,338.2199999998133,7.207752e-06,338.2199999998133,2.770631e-05
338.2349999998133,8.117728e-06,338.2349999998133,8.299631e-06,338.2349999998133,6.367219e-06,338.2349999998133,2.966329e-05
338.24999999981327,8.251971e-06,338.24999999981327,8.207468e-06,338.24999999981327,6.610363e-06,338.24999999981327,2.845032e-05
338.26499999981326,8.325052e-06,338.26499999981326,8.262207e-06,338.26499999981326,6.125922e-06,338.26499999981326,2.837049e-05
338.27999999981324,8.297934e-06,338.27999999981324,8.643829e-06,338.27999999981324,6.153455e-06,338.27999999981324,2.938465e-05
338.29499999981323,8.147174e-06,338.29499999981323,8.575109e-06,338.29499999981323,6.513761e-06,338.29499999981323,2.943637e-05
338.3099999998132,7.99181e-06,338.3099999998132,8.594799e-06,338.3099999998132,6.470365e-06,338.3099999998132,2.966234e-05
338.3249999998132,7.993573e-06,338.3249999998132,8.479295e-06,338.3249999998132,6.709772e-06,338.3249999998132,3.120958e-05
338.3399999998132,7.842351e-06,338.3399999998132,8.480955e-06,338.3399999998132,6.757886e-06,338.3399999998132,3.13896e-05
338.3549999998132,7.625604e-06,338.3549999998132,8.397496e-06,338.3549999998132,6.877724e-06,338.3549999998132,3.018394e-05
338.36999999981316,7.66246e-06,338.36999999981316,8.583318e-06,338.36999999981316,7.10738e-06,338.36999999981316,3.019374e-05
338.38499999981315,7.869248e-06,338.38499999981315,8.629149e-06,338.38499999981315,6.759971e-06,338.38499999981315,3.039184e-05
338.39999999981313,7.800928e-06,338.39999999981313,8.941813e-06,338.39999999981313,6.768301e-06,338.39999999981313,3.015359e-05
338.4149999998131,7.667973e-06,338.4149999998131,8.840414e-06,338.4149999998131,6.627389e-06,338.4149999998131,3.228994e-05
338.4299999998131,7.804539e-06,338.4299999998131,8.671489e-06,338.4299999998131,6.654963e-06,338.4299999998131,3.142011e-05
338.4449999998131,8.037508e-06,338.4449999998131,8.459336e-06,338.4449999998131,6.614623e-06,338.4449999998131,3.092391e-05
338.4599999998131,8.216045e-06,338.4599999998131,8.079462e-06,338.4599999998131,6.406918e-06,338.4599999998131,2.971311e-05
338.47499999981306,7.919212e-06,338.47499999981306,8.160995e-06,338.47499999981306,6.284828e-06,338.47499999981306,2.93669e-05
338.48999999981305,7.799122e-06,338.48999999981305,8.494233e-06,338.48999999981305,6.398117e-06,338.48999999981305,2.890177e-05
338.50499999981304,7.728359e-06,338.50499999981304,9.283444e-06,338.50499999981304,6.382687e-06,338.50499999981304,2.876154e-05
338.519999999813,7.8907e-06,338.519999999813,9.499437e-06,338.519999999813,6.293787e-06,338.519999999813,2.816868e-05
338.534999999813,8.096878e-06,338.534999999813,9.43695e-06,338.534999999813,6.296025e-06,338.534999999813,2.872822e-05
338.549999999813,8.150632e-06,338.549999999813,9.607078e-06,338.549999999813,5.729046e-06,338.549999999813,3.043399e-05
338.564999999813,8.185125e-06,338.564999999813,9.583589e-06,338.564999999813,5.931993e-06,338.564999999813,3.188208e-05
338.57999999981297,8.204034e-06,338.57999999981297,9.536437e-06,338.57999999981297,6.16489e-06,338.57999999981297,3.184892e-05
338.59499999981296,8.219473e-06,338.59499999981296,9.631973e-06,338.59499999981296,6.313899e-06,338.59499999981296,3.181795e-05
338.60999999981294,8.419275e-06,338.60999999981294,9.685934e-06,338.60999999981294,6.338393e-06,338.60999999981294,3.232351e-05
338.6249999998129,8.517419e-06,338.6249999998129,9.542344e-06,338.6249999998129,6.187698e-06,338.6249999998129,3.222224e-05
338.6399999998129,8.580036e-06,338.6399999998129,9.61001e-06,338.6399999998129,6.05887e-06,338.6399999998129,3.167685e-05
338.6549999998129,8.629149e-06,338.6549999998129,9.178147e-06,338.6549999998129,5.917727e-06,338.6549999998129,3.054626e-05
338.6699999998129,8.612809e-06,338.6699999998129,9.131986e-06,338.6699999998129,5.95096e-06,338.6699999998129,2.825905e-05
338.6849999998129,8.674737e-06,338.6849999998129,8.935509e-06,338.6849999998129,6.25337e-06,338.6849999998129,2.846963e-05
338.69999999981286,8.630781e-06,338.69999999981286,8.846786e-06,338.69999999981286,6.331722e-06,338.69999999981286,2.863785e-05
338.71499999981285,8.606265e-06,338.71499999981285,8.848378e-06,338.71499999981285,6.398117e-06,338.71499999981285,2.7633e-05
338.72999999981283,8.720087e-06,338.72999999981283,8.561957e-06,338.72999999981283,6.289309e-06,338.72999999981283,2.740573e-05
338.7449999998128,8.699061e-06,338.7449999998128,7.840554e-06,338.7449999998128,6.242096e-06,338.7449999998128,2.75283e-05
338.7599999998128,8.876988e-06,338.7599999998128,7.105398e-06,338.7599999998128,6.21269e-06,338.7599999998128,2.808053e-05
338.7749999998128,8.547137e-06,338.7749999998128,6.507271e-06,338.7749999998128,6.688745e-06,338.7749999998128,2.966139e-05
338.7899999998128,8.461e-06,338.7899999998128,6.472542e-06,338.7899999998128,6.780777e-06,338.7899999998128,2.831383e-05
338.80499999981276,8.459336e-06,338.80499999981276,6.371642e-06,338.80499999981276,6.867475e-06,338.80499999981276,2.711428e-05
338.81999999981275,8.480955e-06,338.81999999981275,6.384893e-06,338.81999999981275,6.865424e-06,338.81999999981275,2.489267e-05
338.83499999981274,8.647087e-06,338.83499999981274,6.345057e-06,338.83499999981274,6.873626e-06,338.83499999981274,2.377245e-05
338.8499999998127,8.612809e-06,338.8499999998127,6.269119e-06,338.8499999998127,6.947012e-06,338.8499999998127,2.452323e-05
338.8649999998127,8.669864e-06,338.8649999998127,7.442368e-06,338.8649999998127,6.791156e-06,338.8649999998127,2.371015e-05
338.8799999998127,8.5108e-06,338.8799999998127,7.196016e-06,338.8799999998127,6.898175e-06,338.8799999998127,2.389244e-05
338.8949999998127,8.609537e-06,338.8949999998127,7.15282e-06,338.8949999998127,6.995509e-06,338.8949999998127,2.41207e-05
338.90999999981267,8.62425e-06,338.90999999981267,7.349037e-06,338.90999999981267,6.993494e-06,338.90999999981267,2.612632e-05
338.92499999981266,8.479295e-06,338.92499999981266,7.815361e-06,338.92499999981266,6.918566e-06,338.92499999981266,2.578549e-05
338.93999999981264,8.363879e-06,338.93999999981264,7.95825e-06,338.93999999981264,6.772462e-06,338.93999999981264,2.711064e-05
338.9549999998126,8.136793e-06,338.9549999998126,8.060259e-06,338.9549999998126,6.709772e-06,338.9549999998126,2.924577e-05
338.9699999998126,7.951166e-06,338.9699999998126,8.221186e-06,338.9699999998126,6.716067e-06,338.9699999998126,2.883931e-05
338.9849999998126,8.197163e-06,338.9849999998126,8.291141e-06,338.9849999998126,6.795303e-06,338.9849999998126,2.785994e-05
338.9999999998126,8.331817e-06,338.9999999998126,9.094889e-06,338.9999999998126,6.646491e-06,338.9999999998126,2.774239e-05
339.0149999998126,8.260502e-06,339.0149999998126,9.05764e-06,339.0149999998126,6.437625e-06,339.0149999998126,2.689467e-05
339.02999999981256,8.279239e-06,339.02999999981256,8.98895e-06,339.02999999981256,5.958057e-06,339.02999999981256,2.635447e-05
339.04499999981255,8.444335e-06,339.04499999981255,9.116548e-06,339.04499999981255,5.941484e-06,339.04499999981255,2.645956e-05
339.05999999981253,8.485937e-06,339.05999999981253,9.070073e-06,339.05999999981253,5.699464e-06,339.05999999981253,2.606748e-05
339.0749999998125,8.482616e-06,339.0749999998125,9.024921e-06,339.0749999998125,5.410373e-06,339.0749999998125,2.705551e-05
339.0899999998125,8.350395e-06,339.0899999998125,9.204201e-06,339.0899999998125,5.495621e-06,339.0899999998125,2.788622e-05
339.1049999998125,8.535592e-06,339.1049999998125,9.655344e-06,339.1049999998125,5.487926e-06,339.1049999998125,2.803836e-05
339.1199999998125,8.679607e-06,339.1199999998125,8.792481e-06,339.1199999998125,5.775575e-06,339.1199999998125,2.780629e-05
339.13499999981246,1.017532e-05,339.13499999981246,8.864284e-06,339.13499999981246,5.652309e-06,339.13499999981246,2.840225e-05
339.14999999981245,1.025118e-05,339.14999999981245,8.813284e-06,339.14999999981245,5.577042e-06,339.14999999981245,2.802982e-05
339.16499999981244,1.042424e-05,339.16499999981244,8.935509e-06,339.16499999981244,5.768253e-06,339.16499999981244,2.683384e-05
339.1799999998124,1.100533e-05,339.1799999998124,8.616079e-06,339.1799999998124,5.679657e-06,339.1799999998124,2.810109e-05
339.1949999998124,1.271673e-05,339.1949999998124,8.542191e-06,339.1949999998124,5.709342e-06,339.1949999998124,2.694595e-05
339.2099999998124,1.282922e-05,339.2099999998124,8.682853e-06,339.2099999998124,5.802342e-06,339.2099999998124,2.509501e-05
339.2249999998124,1.278632e-05,339.2249999998124,8.668239e-06,339.2249999998124,5.838645e-06,339.2249999998124,2.5648e-05
339.23999999981237,1.27134e-05,339.23999999981237,8.279239e-06,339.23999999981237,6.009847e-06,339.23999999981237,2.755694e-05
339.25499999981236,1.250561e-05,339.25499999981236,7.669811e-06,339.25499999981236,6.125922e-06,339.25499999981236,2.738619e-05
339.26999999981234,1.243784e-05,339.26999999981234,7.995334e-06,339.26999999981234,6.50294e-06,339.26999999981234,2.855016e-05
339.2849999998123,1.261775e-05,339.2849999998123,7.753835e-06,339.2849999998123,6.433248e-06,339.2849999998123,2.841564e-05
339.2999999998123,1.256741e-05,339.2999999998123,7.616361e-06,339.2999999998123,6.376062e-06,339.2999999998123,3.016807e-05
339.3149999998123,1.275544e-05,339.3149999998123,7.545752e-06,339.3149999998123,6.2781e-06,339.3149999998123,2.986679e-05
339.3299999998123,1.266011e-05,339.3299999998123,8.086432e-06,339.3299999998123,6.109804e-06,339.3299999998123,2.920384e-05
339.3449999998123,1.258645e-05,339.3449999998123,7.753835e-06,339.3449999998123,6.06584e-06,339.3449999998123,2.843546e-05
339.35999999981226,1.25775e-05,339.35999999981226,7.381551e-06,339.35999999981226,5.797484e-06,339.35999999981226,2.85077e-05
339.37499999981225,1.199153e-05,339.37499999981225,7.555081e-06,339.37499999981225,5.795054e-06,339.37499999981225,2.814567e-05
339.38999999981223,1.058648e-05,339.38999999981223,7.822567e-06,339.38999999981223,5.948592e-06,339.38999999981223,2.962527e-05
