X[s],a: EMG RMS 1-1,X[s].1,a: EMG RMS 1-2,X[s].2,a: EMG RMS 1-3,X[s].3,a: EMG RMS 1-4
391.0049999997653,0.0004376022,391.0049999997653,0.001194791,391.0049999997653,4.469331e-06,391.0049999997653,2.5676e-06
391.0199999997653,0.0004511088,391.0199999997653,0.001186076,391.0199999997653,4.506994e-06,391.0199999997653,2.589452e-06
391.03499999976526,0.0004564544,391.03499999976526,0.001173453,391.03499999976526,4.328428e-06,391.03499999976526,2.556603e-06
391.04999999976525,0.0004610546,391.04999999976525,0.001149348,391.04999999976525,4.182782e-06,391.04999999976525,2.616511e-06
391.06499999976523,0.0004518412,391.06499999976523,0.001151873,391.06499999976523,4.114875e-06,391.06499999976523,2.653929e-06
391.0799999997652,0.0004380113,391.0799999997652,0.001165635,391.0799999997652,4.162526e-06,391.0799999997652,2.690828e-06
391.0949999997652,0.0004501479,391.0949999997652,0.001159527,391.0949999997652,4.242968e-06,391.0949999997652,2.716877e-06
391.1099999997652,0.0004441709,391.1099999997652,0.001124527,391.1099999997652,4.155752e-06,391.1099999997652,2.732388e-06
391.1249999997652,0.0003967344,391.1249999997652,0.001026361,391.1249999997652,4.059732e-06,391.1249999997652,2.706488e-06
391.13999999976517,0.0003750082,391.13999999976517,0.0007689953,391.13999999976517,4.216325e-06,391.13999999976517,2.727227e-06
391.15499999976515,0.0003757433,391.15499999976515,0.0007097544,391.15499999976515,4.186148e-06,391.15499999976515,2.716877e-06
391.16999999976514,0.0003750648,391.16999999976514,0.000780474,391.16999999976514,4.192873e-06,391.16999999976514,2.675077e-06
391.1849999997651,0.0003752781,391.1849999997651,0.0007793992,391.1849999997651,4.209638e-06,391.1849999997651,2.594886e-06
391.1999999997651,0.000366886,391.1999999997651,0.0007497656,391.1999999997651,4.31539e-06,391.1999999997651,2.643292e-06
391.2149999997651,0.0003414587,391.2149999997651,0.0007679245,391.2149999997651,4.229668e-06,391.2149999997651,2.594886e-06
391.2299999997651,0.0003021195,391.2299999997651,0.0007634325,391.2299999997651,4.305587e-06,391.2299999997651,2.578549e-06
391.24499999976507,0.0003187808,391.24499999976507,0.0008089025,391.24499999976507,4.249604e-06,391.24499999976507,2.562108e-06
391.25999999976506,0.0003102061,391.25999999976506,0.0009542179,391.25999999976506,4.131956e-06,391.25999999976506,2.534468e-06
391.27499999976504,0.0003129778,391.27499999976504,0.001026854,391.27499999976504,4.104592e-06,391.27499999976504,2.489606e-06
391.28999999976503,0.0002857977,391.28999999976503,0.001060601,391.28999999976503,4.01437e-06,391.28999999976503,2.495258e-06
391.304999999765,0.0002917367,391.304999999765,0.001121446,391.304999999765,3.939991e-06,391.304999999765,2.506524e-06
391.319999999765,0.0002884339,391.319999999765,0.001108433,391.319999999765,4.073587e-06,391.319999999765,2.46687e-06
391.334999999765,0.0002696993,391.334999999765,0.001097263,391.334999999765,4.052786e-06,391.334999999765,2.472574e-06
391.349999999765,0.0003968563,391.349999999765,0.001101964,391.349999999765,3.73818e-06,391.349999999765,2.455423e-06
391.36499999976496,0.0004454124,391.36499999976496,0.001166342,391.36499999976496,3.771943e-06,391.36499999976496,2.512137e-06
391.37999999976495,0.0004529454,391.37999999976495,0.001204709,391.37999999976495,3.70411e-06,391.37999999976495,2.483942e-06
391.39499999976493,0.0004537715,391.39499999976493,0.001213884,391.39499999976493,3.745709e-06,391.39499999976493,2.472574e-06
391.4099999997649,0.000466212,391.4099999997649,0.001237236,391.4099999997649,3.882364e-06,391.4099999997649,2.54556e-06
391.4249999997649,0.000489018,391.4249999997649,0.001210027,391.4249999997649,3.878734e-06,391.4249999997649,2.506524e-06
391.4399999997649,0.0005017041,391.4399999997649,0.001228481,391.4399999997649,3.834905e-06,391.4399999997649,2.512137e-06
391.4549999997649,0.0005010297,391.4549999997649,0.001249687,391.4549999997649,3.845909e-06,391.4549999997649,2.517739e-06
391.46999999976487,0.0004941769,391.46999999976487,0.001248851,391.46999999976487,3.615583e-06,391.46999999976487,2.551088e-06
391.48499999976485,0.000491664,391.48499999976485,0.001253795,391.48499999976485,3.611685e-06,391.48499999976485,2.506524e-06
391.49999999976484,0.0004943844,391.49999999976484,0.001275463,391.49999999976484,3.627253e-06,391.49999999976484,2.483942e-06
391.5149999997648,0.0005148865,391.5149999997648,0.001151648,391.5149999997648,3.603876e-06,391.5149999997648,2.461153e-06
391.5299999997648,0.0005098871,391.5299999997648,0.001129477,391.5299999997648,3.627253e-06,391.5299999997648,2.40909e-06
391.5449999997648,0.0005096732,391.5449999997648,0.001099349,391.5449999997648,3.723076e-06,391.5449999997648,2.373747e-06
391.5599999997648,0.0005038554,391.5599999997648,0.001045317,391.5599999997648,3.760722e-06,391.5599999997648,2.331836e-06
391.57499999976477,0.0005004255,391.57499999976477,0.001048899,391.57499999976477,3.681221e-06,391.57499999976477,2.397367e-06
391.58999999976476,0.0005073283,391.58999999976476,0.001069564,391.58999999976476,3.73441e-06,391.58999999976476,2.367805e-06
391.60499999976474,0.0004301271,391.60499999976474,0.001083597,391.60499999976474,3.801702e-06,391.60499999976474,2.319723e-06
391.61999999976473,0.0003968177,391.61999999976473,0.0009506805,391.61999999976473,3.805405e-06,391.61999999976473,2.307546e-06
391.6349999997647,0.0003939347,391.6349999997647,0.0009165485,391.6349999997647,3.768206e-06,391.6349999997647,2.343887e-06
391.6499999997647,0.0004094693,391.6499999997647,0.0008959596,391.6499999997647,3.715501e-06,391.6499999997647,2.355876e-06
391.6649999997647,0.0004093293,391.6649999997647,0.0008552022,391.6649999997647,3.669723e-06,391.6649999997647,2.289158e-06
391.6799999997647,0.0003996865,391.6799999997647,0.0008223439,391.6799999997647,3.756974e-06,391.6799999997647,2.289158e-06
391.69499999976466,0.0003782588,391.69499999976466,0.0008108872,391.69499999976466,3.749468e-06,391.69499999976466,2.24567e-06
391.70999999976465,0.0003756412,391.70999999976465,0.0007620892,391.70999999976465,3.662038e-06,391.70999999976465,2.162586e-06
391.72499999976463,0.0003920383,391.72499999976463,0.0007708977,391.72499999976463,3.707911e-06,391.72499999976463,2.188486e-06
391.7399999997646,0.0004086135,391.7399999997646,0.0007454497,391.7399999997646,3.688867e-06,391.7399999997646,2.233089e-06
391.7549999997646,0.0003798874,391.7549999997646,0.0006845229,391.7549999997646,3.67356e-06,391.7549999997646,2.307546e-06
391.7699999997646,0.0003735602,391.7699999997646,0.000629006,391.7699999997646,3.599965e-06,391.7699999997646,2.319723e-06
391.7849999997646,0.000382093,391.7849999997646,0.0006109431,391.7849999997646,3.564574e-06,391.7849999997646,2.379674e-06
391.79999999976457,0.0003826172,391.79999999976457,0.0006456087,391.79999999976457,3.57641e-06,391.79999999976457,2.343887e-06
391.81499999976455,0.000382811,391.81499999976455,0.0008393433,391.81499999976455,3.665883e-06,391.81499999976455,2.325787e-06
391.82999999976454,0.0003902984,391.82999999976454,0.0008566803,391.82999999976454,3.677393e-06,391.82999999976454,2.270622e-06
391.8449999997645,0.0003748741,391.8449999997645,0.0008622923,391.8449999997645,3.572469e-06,391.8449999997645,2.295304e-06
391.8599999997645,0.0003405088,391.8599999997645,0.0008588067,391.8599999997645,3.443979e-06,391.8599999997645,2.331836e-06
391.8749999997645,0.0003404998,391.8749999997645,0.0009766297,391.8749999997645,3.496747e-06,391.8749999997645,2.337869e-06
391.8899999997645,0.0003379837,391.8899999997645,0.001001742,391.8899999997645,3.340158e-06,391.8899999997645,2.313642e-06
391.90499999976447,0.0003195899,391.90499999976447,0.00101101,391.90499999976447,3.373728e-06,391.90499999976447,2.325787e-06
391.91999999976446,0.0003026974,391.91999999976446,0.001040028,391.91999999976446,3.215529e-06,391.91999999976446,2.307546e-06
391.93499999976444,0.0002941798,391.93499999976444,0.001025231,391.93499999976444,3.219907e-06,391.93499999976444,2.319723e-06
391.94999999976443,0.0003055343,391.94999999976443,0.0009895394,391.94999999976443,3.228645e-06,391.94999999976443,2.337869e-06
391.9649999997644,0.0002987612,391.9649999997644,0.0009990488,391.9649999997644,3.352786e-06,391.9649999997644,2.379674e-06
391.9799999997644,0.0002964015,391.9799999997644,0.00101672,391.9799999997644,3.297714e-06,391.9799999997644,2.379674e-06
391.9949999997644,0.0002931682,391.9949999997644,0.0010197,391.9949999997644,3.276286e-06,391.9949999997644,2.276818e-06
392.0099999997644,0.0002982786,392.0099999997644,0.001022702,392.0099999997644,3.263362e-06,392.0099999997644,2.258181e-06
392.02499999976436,0.0002839194,392.02499999976436,0.0009892196,392.02499999976436,3.344373e-06,392.02499999976436,2.239388e-06
392.03999999976435,0.0003026428,392.03999999976435,0.0009950004,392.03999999976435,3.211145e-06,392.03999999976435,2.226772e-06
392.05499999976433,0.0003016734,392.05499999976433,0.0009680008,392.05499999976433,3.28916e-06,392.05499999976433,2.188486e-06
392.0699999997643,0.0002992832,392.0699999997643,0.0008446214,392.0699999997643,3.228645e-06,392.0699999997643,2.175575e-06
392.0849999997643,0.0002776816,392.0849999997643,0.0008170813,392.0849999997643,3.224279e-06,392.0849999997643,2.162586e-06
392.0999999997643,0.0002732328,392.0999999997643,0.0007978978,392.0999999997643,3.29344e-06,392.0999999997643,2.129768e-06
392.1149999997643,0.0002774342,392.1149999997643,0.0007257474,392.1149999997643,3.319004e-06,392.1149999997643,2.123144e-06
392.12999999976427,0.0002781738,392.12999999976427,0.0005850159,392.12999999976427,3.398688e-06,392.12999999976427,2.109832e-06
392.14499999976425,0.0002841793,392.14499999976425,0.0005951968,392.14499999976425,3.468433e-06,392.14499999976425,2.116498e-06
392.15999999976424,0.000282243,392.15999999976424,0.0005806646,392.15999999976424,3.607783e-06,392.15999999976424,2.136372e-06
392.1749999997642,0.0002816607,392.1749999997642,0.0005423716,392.1749999997642,3.584279e-06,392.1749999997642,2.129768e-06
392.1899999997642,0.0002786596,392.1899999997642,0.000538352,392.1899999997642,3.603876e-06,392.1899999997642,2.129768e-06
392.2049999997642,0.0002716918,392.2049999997642,0.0005656006,392.2049999997642,3.646619e-06,392.2049999997642,2.103145e-06
392.2199999997642,0.0002684942,392.2199999997642,0.0006052236,392.2199999997642,3.564574e-06,392.2199999997642,2.109832e-06
392.23499999976417,0.0002550132,392.23499999976417,0.0006304402,392.23499999976417,3.584279e-06,392.23499999976417,2.156062e-06
392.24999999976416,0.0002551505,392.24999999976416,0.0006325936,392.24999999976416,3.580347e-06,392.24999999976416,2.201322e-06
392.26499999976414,0.0002488534,392.26499999976414,0.0006921426,392.26499999976414,3.638885e-06,392.26499999976414,2.337869e-06
392.27999999976413,0.000262268,392.27999999976413,0.0007643576,392.27999999976413,3.603876e-06,392.27999999976413,2.319723e-06
392.2949999997641,0.0003376016,392.2949999997641,0.0007858043,392.2949999997641,3.635012e-06,392.2949999997641,2.331836e-06
392.3099999997641,0.0003571619,392.3099999997641,0.0009010417,392.3099999997641,3.348582e-06,392.3099999997641,2.40909e-06
392.3249999997641,0.0003814144,392.3249999997641,0.0009391332,392.3249999997641,3.390388e-06,392.3249999997641,2.438151e-06
392.3399999997641,0.0004686886,392.3399999997641,0.0009857211,392.3399999997641,3.390388e-06,392.3399999997641,2.528904e-06
392.35499999976406,0.0005595223,392.35499999976406,0.001054243,392.35499999976406,3.427579e-06,392.35499999976406,2.455423e-06
392.36999999976405,0.000558824,392.36999999976405,0.001090131,392.36999999976405,3.377901e-06,392.36999999976405,2.495258e-06
392.38499999976403,0.000596886,392.38499999976403,0.001088875,392.38499999976403,3.382069e-06,392.38499999976403,2.534468e-06
392.399999999764,0.0006629478,392.399999999764,0.001091112,392.399999999764,3.584279e-06,392.399999999764,2.523327e-06
392.414999999764,0.0006683913,392.414999999764,0.001095661,392.414999999764,3.390388e-06,392.414999999764,2.523327e-06
392.429999999764,0.000674905,392.429999999764,0.001092984,392.429999999764,3.540784e-06,392.429999999764,2.594886e-06
392.444999999764,0.0006773485,392.444999999764,0.001139116,392.444999999764,3.57641e-06,392.444999999764,2.534468e-06
392.45999999976397,0.000699607,392.45999999976397,0.001138992,392.45999999976397,3.584279e-06,392.45999999976397,2.551088e-06
392.47499999976395,0.0007121491,392.47499999976395,0.001101971,392.47499999976395,3.564574e-06,392.47499999976395,2.556603e-06
392.48999999976394,0.0007076854,392.48999999976394,0.001078277,392.48999999976394,3.580347e-06,392.48999999976394,2.517739e-06
392.5049999997639,0.0007017819,392.5049999997639,0.001069622,392.5049999997639,3.556662e-06,392.5049999997639,2.54556e-06
392.5199999997639,0.0007032995,392.5199999997639,0.001024712,392.5199999997639,3.456227e-06,392.5199999997639,2.472574e-06
392.5349999997639,0.0006895623,392.5349999997639,0.001032982,392.5349999997639,3.532818e-06,392.5349999997639,2.517739e-06
392.5499999997639,0.0006650121,392.5499999997639,0.001027392,392.5499999997639,3.548731e-06,392.5499999997639,2.528904e-06
392.56499999976387,0.0006615219,392.56499999976387,0.0009583529,392.56499999976387,3.619477e-06,392.56499999976387,2.403235e-06
392.57999999976386,0.0006586853,392.57999999976386,0.0009495856,392.57999999976386,3.67356e-06,392.57999999976386,2.385586e-06
392.59499999976384,0.0006034923,392.59499999976384,0.0009765277,392.59499999976384,3.642754e-06,392.59499999976384,2.319723e-06
392.60999999976383,0.0005406294,392.60999999976383,0.001019238,392.60999999976383,3.56062e-06,392.60999999976383,2.325787e-06
392.6249999997638,0.000532117,392.6249999997638,0.001042164,392.6249999997638,3.552699e-06,392.6249999997638,2.325787e-06
392.6399999997638,0.0004374072,392.6399999997638,0.001042366,392.6399999997638,3.520835e-06,392.6399999997638,2.343887e-06
392.6549999997638,0.0004170423,392.6549999997638,0.00108011,392.6549999997638,3.310505e-06,392.6549999997638,2.301433e-06
392.6699999997638,0.0004046817,392.6699999997638,0.001154952,392.6699999997638,3.215529e-06,392.6699999997638,2.325787e-06
392.68499999976376,0.0003938627,392.68499999976376,0.001210627,392.68499999976376,3.215529e-06,392.68499999976376,2.282997e-06
392.69999999976375,0.0003819378,392.69999999976375,0.001150583,392.69999999976375,3.284874e-06,392.69999999976375,2.379674e-06
392.71499999976373,0.0003283353,392.71499999976373,0.001200717,392.71499999976373,3.224279e-06,392.71499999976373,2.391484e-06
392.7299999997637,0.0003308395,392.7299999997637,0.001317825,392.7299999997637,3.314757e-06,392.7299999997637,2.355876e-06
392.7449999997637,0.0003379468,392.7449999997637,0.001362017,392.7449999997637,3.280583e-06,392.7449999997637,2.420756e-06
392.7599999997637,0.0003415015,392.7599999997637,0.001364242,392.7599999997637,3.306247e-06,392.7599999997637,2.373747e-06
392.7749999997637,0.0003417024,392.7749999997637,0.001352747,392.7749999997637,3.377901e-06,392.7749999997637,2.506524e-06
392.78999999976367,0.0003231898,392.78999999976367,0.001310567,392.78999999976367,3.365367e-06,392.78999999976367,2.495258e-06
392.80499999976365,0.0003473839,392.80499999976365,0.001258258,392.80499999976365,3.306247e-06,392.80499999976365,2.5676e-06
392.81999999976364,0.0004087652,392.81999999976364,0.001225623,392.81999999976364,3.263362e-06,392.81999999976364,2.828646e-06
392.8349999997636,0.0004347863,392.8349999997636,0.001216098,392.8349999997636,3.344373e-06,392.8349999997636,2.853437e-06
392.8499999997636,0.0004471203,392.8499999997636,0.001140578,392.8499999997636,3.480596e-06,392.8499999997636,2.878015e-06
392.8649999997636,0.0004695098,392.8649999997636,0.001066351,392.8649999997636,3.492716e-06,392.8649999997636,2.828646e-06
392.8799999997636,0.0005123175,392.8799999997636,0.00105792,392.8799999997636,3.452149e-06,392.8799999997636,2.868209e-06
392.89499999976357,0.0005439392,392.89499999976357,0.001053378,392.89499999976357,3.540784e-06,392.89499999976357,2.853437e-06
392.90999999976356,0.000573158,392.90999999976356,0.001033085,392.90999999976356,3.588207e-06,392.90999999976356,2.838588e-06
392.92499999976354,0.0005789616,392.92499999976354,0.001039185,392.92499999976354,3.719291e-06,392.92499999976354,2.833621e-06
392.93999999976353,0.0005955298,392.93999999976353,0.001013798,392.93999999976353,3.572469e-06,392.93999999976353,2.768241e-06
392.9549999997635,0.0006323036,392.9549999997635,0.001014034,392.9549999997635,3.646619e-06,392.9549999997635,2.722057e-06
392.9699999997635,0.0006465188,392.9699999997635,0.0009202198,392.9699999997635,3.700305e-06,392.9699999997635,2.701278e-06
392.9849999997635,0.0006458997,392.9849999997635,0.0007961583,392.9849999997635,3.685046e-06,392.9849999997635,2.664524e-06
392.9999999997635,0.0006386933,392.9999999997635,0.0007749077,392.9999999997635,3.696496e-06,392.9999999997635,2.611121e-06
393.01499999976346,0.0006608468,393.01499999976346,0.0007671983,393.01499999976346,3.692683e-06,393.01499999976346,2.562108e-06
393.02999999976345,0.0006689963,393.02999999976345,0.0007513029,393.02999999976345,3.611685e-06,393.02999999976345,2.506524e-06
393.04499999976343,0.0006687523,393.04499999976343,0.0007490417,393.04499999976343,3.56062e-06,393.04499999976343,2.46687e-06
393.0599999997634,0.0006433578,393.0599999997634,0.00074396,393.0599999997634,3.496747e-06,393.0599999997634,2.455423e-06
393.0749999997634,0.000583862,393.0749999997634,0.0007500324,393.0749999997634,3.448066e-06,393.0749999997634,2.426568e-06
393.0899999997634,0.0005549867,393.0899999997634,0.0007489344,393.0899999997634,3.508812e-06,393.0899999997634,2.420756e-06
393.1049999997634,0.0005566232,393.1049999997634,0.0007541914,393.1049999997634,3.484641e-06,393.1049999997634,2.403235e-06
393.11999999976337,0.0005406485,393.11999999976337,0.0007561788,393.11999999976337,3.982663e-06,393.11999999976337,2.495258e-06
393.13499999976335,0.0005079719,393.13499999976335,0.000730882,393.13499999976335,4.11145e-06,393.13499999976335,2.46687e-06
393.14999999976334,0.0005247352,393.14999999976334,0.0007295533,393.14999999976334,4.285911e-06,393.14999999976334,2.495258e-06
393.1649999997633,0.000561351,393.1649999997633,0.000638767,393.1649999997633,4.463023e-06,393.1649999997633,2.54556e-06
393.1799999997633,0.000562372,393.1799999997633,0.0004921969,393.1799999997633,4.68176e-06,393.1799999997633,2.578549e-06
393.1949999997633,0.0005341925,393.1949999997633,0.0004073913,393.1949999997633,4.850233e-06,393.1949999997633,2.621889e-06
393.2099999997633,0.0005003179,393.2099999997633,0.0003922288,393.2099999997633,4.890725e-06,393.2099999997633,2.696058e-06
393.22499999976327,0.000512156,393.22499999976327,0.0004327979,393.22499999976327,4.945147e-06,393.22499999976327,2.752932e-06
393.23999999976326,0.000524646,393.23999999976326,0.0008052813,393.23999999976326,5.027078e-06,393.23999999976326,2.778399e-06
393.25499999976324,0.0005202164,393.25499999976324,0.001240754,393.25499999976324,5.206033e-06,393.25499999976324,2.828646e-06
393.26999999976323,0.0005045531,393.26999999976323,0.001557638,393.26999999976323,5.594695e-06,393.26999999976323,2.763147e-06
393.2849999997632,0.0004850481,393.2849999997632,0.001685085,393.2849999997632,5.664756e-06,393.2849999997632,2.773325e-06
393.2999999997632,0.0004926485,393.2999999997632,0.001863539,393.2999999997632,5.746233e-06,393.2999999997632,2.669806e-06
393.3149999997632,0.0004907559,393.3149999997632,0.001949923,393.3149999997632,5.850696e-06,393.3149999997632,2.611121e-06
393.3299999997632,0.0005084153,393.3299999997632,0.002026146,393.3299999997632,5.917727e-06,393.3299999997632,2.632612e-06
393.34499999976316,0.0005211077,393.34499999976316,0.002324143,393.34499999976316,5.826569e-06,393.34499999976316,2.763147e-06
393.35999999976315,0.0005292287,393.35999999976315,0.002401845,393.35999999976315,5.778013e-06,393.35999999976315,2.727227e-06
393.37499999976313,0.0005268283,393.37499999976313,0.002410381,393.37499999976313,5.521194e-06,393.37499999976313,2.727227e-06
393.3899999997631,0.0005259467,393.3899999997631,0.002426887,393.3899999997631,5.472503e-06,393.3899999997631,2.716877e-06
393.4049999997631,0.0004267677,393.4049999997631,0.00251504,393.4049999997631,5.336972e-06,393.4049999997631,2.722057e-06
393.4199999997631,0.0004568228,393.4199999997631,0.00281597,393.4199999997631,5.214144e-06,393.4199999997631,2.690828e-06
393.4349999997631,0.0004867999,393.4349999997631,0.002825031,393.4349999997631,4.970719e-06,393.4349999997631,2.758045e-06
393.44999999976307,0.0005269577,393.44999999976307,0.002875907,393.44999999976307,4.907976e-06,393.44999999976307,2.763147e-06
393.46499999976305,0.0005219941,393.46499999976305,0.003056002,393.46499999976305,4.858938e-06,393.46499999976305,2.675077e-06
393.47999999976304,0.0005191166,393.47999999976304,0.00318273,393.47999999976304,5.214144e-06,393.47999999976304,2.616511e-06
393.494999999763,0.0007011211,393.494999999763,0.003026426,393.494999999763,5.143422e-06,393.494999999763,2.616511e-06
393.509999999763,0.0007353997,393.509999999763,0.003240445,393.509999999763,5.126963e-06,393.509999999763,2.589452e-06
393.524999999763,0.0007358424,393.524999999763,0.003142967,393.524999999763,4.747494e-06,393.524999999763,2.57308e-06
393.539999999763,0.0007348993,393.539999999763,0.003148713,393.539999999763,4.621192e-06,393.539999999763,2.653929e-06
393.55499999976297,0.0007387148,393.55499999976297,0.002957592,393.55499999976297,4.741556e-06,393.55499999976297,2.675077e-06
393.56999999976296,0.0007512718,393.56999999976296,0.002901232,393.56999999976296,4.993339e-06,393.56999999976296,2.616511e-06
393.58499999976294,0.0008521915,393.58499999976294,0.002878083,393.58499999976294,5.358047e-06,393.58499999976294,2.455423e-06
393.59999999976293,0.0008520763,393.59999999976293,0.002733604,393.59999999976293,5.431162e-06,393.59999999976293,2.443922e-06
393.6149999997629,0.0008492373,393.6149999997629,0.00279703,393.6149999997629,5.539025e-06,393.6149999997629,2.385586e-06
393.6299999997629,0.0008906917,393.6299999997629,0.002811226,393.6299999997629,5.746233e-06,393.6299999997629,2.551088e-06
393.6449999997629,0.000931602,393.6449999997629,0.002849085,393.6449999997629,6.05887e-06,393.6449999997629,2.616511e-06
393.6599999997629,0.0009389862,393.6599999997629,0.002802056,393.6599999997629,6.051891e-06,393.6599999997629,2.637958e-06
393.67499999976286,0.0009516772,393.67499999976286,0.002698193,393.67499999976286,6.114414e-06,393.67499999976286,2.5676e-06
393.68999999976285,0.0009521355,393.68999999976285,0.002682893,393.68999999976285,6.183143e-06,393.68999999976285,2.551088e-06
393.70499999976283,0.0009630239,393.70499999976283,0.002640812,393.70499999976283,6.304968e-06,393.70499999976283,2.489606e-06
393.7199999997628,0.001002711,393.7199999997628,0.002386908,393.7199999997628,6.509435e-06,393.7199999997628,2.57308e-06
393.7349999997628,0.0009977459,393.7349999997628,0.002337531,393.7349999997628,6.415707e-06,393.7349999997628,2.600309e-06
393.7499999997628,0.0008949211,393.7499999997628,0.002196151,393.7499999997628,6.4921e-06,393.7499999997628,2.627256e-06
393.7649999997628,0.0008943413,393.7649999997628,0.001755266,393.7649999997628,6.452925e-06,393.7649999997628,2.621889e-06
393.77999999976277,0.0008936924,393.77999999976277,0.001736936,393.77999999976277,6.468188e-06,393.77999999976277,2.589452e-06
393.79499999976275,0.0008952093,393.79499999976275,0.001728526,393.79499999976275,6.428867e-06,393.79499999976275,2.478264e-06
393.80999999976274,0.0008886718,393.80999999976274,0.001720649,393.80999999976274,6.387099e-06,393.80999999976274,2.528904e-06
393.8249999997627,0.000862362,393.8249999997627,0.00173077,393.8249999997627,5.946224e-06,393.8249999997627,2.57308e-06
393.8399999997627,0.0007551825,393.8399999997627,0.001726523,393.8399999997627,5.836232e-06,393.8399999997627,2.562108e-06
393.8549999997627,0.0007469499,393.8549999997627,0.001687669,393.8549999997627,5.778013e-06,393.8549999997627,2.600309e-06
393.8699999997627,0.0008186002,393.8699999997627,0.001523175,393.8699999997627,5.664756e-06,393.8699999997627,2.600309e-06
393.88499999976267,0.0008063164,393.88499999976267,0.001499373,393.88499999976267,5.649817e-06,393.88499999976267,2.495258e-06
393.89999999976266,0.0007870318,393.89999999976266,0.001438653,393.89999999976266,5.14616e-06,393.89999999976266,2.489606e-06
393.91499999976264,0.0007587058,393.91499999976264,0.001250204,393.91499999976264,5.238403e-06,393.91499999976264,2.449679e-06
393.92999999976263,0.000742672,393.92999999976263,0.00110025,393.92999999976263,5.243778e-06,393.92999999976263,2.472574e-06
393.9449999997626,0.0007737487,393.9449999997626,0.001211116,393.9449999997626,5.159829e-06,393.9449999997626,2.478264e-06
393.9599999997626,0.0007473205,393.9599999997626,0.001238388,393.9599999997626,4.990517e-06,393.9599999997626,2.472574e-06
393.9749999997626,0.0006974441,393.9749999997626,0.001624175,393.9749999997626,4.562907e-06,393.9749999997626,2.343887e-06
393.9899999997626,0.0007032569,393.9899999997626,0.001950956,393.9899999997626,4.544346e-06,393.9899999997626,2.74781e-06
394.00499999976256,0.0006771176,394.00499999976256,0.00207642,394.00499999976256,4.747494e-06,394.00499999976256,2.788521e-06
394.01999999976255,0.0006768433,394.01999999976255,0.00235552,394.01999999976255,4.768218e-06,394.01999999976255,2.843547e-06
394.03499999976253,0.0006737723,394.03499999976253,0.002528153,394.03499999976253,4.759348e-06,394.03499999976253,2.838588e-06
394.0499999997625,0.0006695785,394.0499999997625,0.002780105,394.0499999997625,4.696781e-06,394.0499999997625,2.882905e-06
394.0649999997625,0.0006664662,394.0649999997625,0.002787677,394.0649999997625,4.584466e-06,394.0649999997625,2.793568e-06
394.0799999997625,0.0006487157,394.0799999997625,0.002804485,394.0799999997625,4.608983e-06,394.0799999997625,2.788521e-06
394.0949999997625,0.0006411268,394.0949999997625,0.002931676,394.0949999997625,4.785911e-06,394.0949999997625,2.758045e-06
394.10999999976246,0.0006350181,394.10999999976246,0.002935409,394.10999999976246,4.782967e-06,394.10999999976246,2.722057e-06
394.12499999976245,0.0005451564,394.12499999976245,0.002926541,394.12499999976245,4.847328e-06,394.12499999976245,2.778399e-06
394.13999999976244,0.0004894414,394.13999999976244,0.00292312,394.13999999976244,4.68176e-06,394.13999999976244,2.793568e-06
394.1549999997624,0.000492618,394.1549999997624,0.002919847,394.1549999997624,4.70577e-06,394.1549999997624,2.690828e-06
394.1699999997624,0.0004820623,394.1699999997624,0.002904481,394.1699999997624,4.531929e-06,394.1699999997624,2.716877e-06
394.1849999997624,0.0004283731,394.1849999997624,0.002873439,394.1849999997624,4.485062e-06,394.1849999997624,2.685588e-06
394.1999999997624,0.0003185086,394.1999999997624,0.002836183,394.1999999997624,4.590608e-06,394.1999999997624,2.659232e-06
394.21499999976237,0.0003172478,394.21499999976237,0.002815498,394.21499999976237,4.660651e-06,394.21499999976237,2.675077e-06
394.22999999976236,0.000266205,394.22999999976236,0.002499818,394.22999999976236,4.675739e-06,394.22999999976236,2.716877e-06
394.24499999976234,0.000251278,394.24499999976234,0.002406222,394.24499999976234,4.497608e-06,394.24499999976234,2.226772e-06
394.25999999976233,0.0002526367,394.25999999976233,0.002192151,394.25999999976233,4.272744e-06,394.25999999976233,2.18204e-06
394.2749999997623,0.0002584613,394.2749999997623,0.002000796,394.2749999997623,4.562907e-06,394.2749999997623,2.142956e-06
394.2899999997623,0.0002616615,394.2899999997623,0.001620914,394.2899999997623,4.593675e-06,394.2899999997623,2.18204e-06
394.3049999997623,0.0002612675,394.3049999997623,0.00128306,394.3049999997623,4.741556e-06,394.3049999997623,2.123144e-06
394.3199999997623,0.0002758451,394.3199999997623,0.001282666,394.3199999997623,4.732634e-06,394.3199999997623,2.103145e-06
394.33499999976226,0.0002866031,394.33499999976226,0.001226529,394.33499999976226,4.608983e-06,394.33499999976226,2.096436e-06
394.34999999976225,0.0002742062,394.34999999976225,0.001068312,394.34999999976225,4.469331e-06,394.34999999976225,2.142956e-06
394.36499999976223,0.0002625746,394.36499999976223,0.001066815,394.36499999976223,4.612038e-06,394.36499999976223,2.021173e-06
394.3799999997622,0.000273685,394.3799999997622,0.001187734,394.3799999997622,4.696781e-06,394.3799999997622,2.069384e-06
394.3949999997622,0.0002970162,394.3949999997622,0.001214508,394.3949999997622,4.690778e-06,394.3949999997622,2.089706e-06
394.4099999997622,0.0002951817,394.4099999997622,0.001205512,394.4099999997622,4.726678e-06,394.4099999997622,2.129768e-06
394.4249999997622,0.0002968321,394.4249999997622,0.001426583,394.4249999997622,4.723696e-06,394.4249999997622,2.103145e-06
394.43999999976216,0.0003168402,394.43999999976216,0.001467827,394.43999999976216,4.723696e-06,394.43999999976216,2.188486e-06
394.45499999976215,0.0003161149,394.45499999976215,0.00139583,394.45499999976215,4.69378e-06,394.45499999976215,2.201322e-06
394.46999999976214,0.0003158358,394.46999999976214,0.001445517,394.46999999976214,4.630328e-06,394.46999999976214,2.207712e-06
394.4849999997621,0.0003206449,394.4849999997621,0.00153193,394.4849999997621,4.630328e-06,394.4849999997621,2.207712e-06
394.4999999997621,0.0003390796,394.4999999997621,0.001488565,394.4999999997621,4.633369e-06,394.4999999997621,2.188486e-06
394.5149999997621,0.0003353809,394.5149999997621,0.001470359,394.5149999997621,4.547444e-06,394.5149999997621,2.276818e-06
394.5299999997621,0.000338234,394.5299999997621,0.001458084,394.5299999997621,4.347911e-06,394.5299999997621,2.307546e-06
394.54499999976207,0.0003609634,394.54499999976207,0.001436679,394.54499999976207,4.35115e-06,394.54499999976207,2.361848e-06
394.55999999976206,0.0003957539,394.55999999976206,0.001426488,394.55999999976206,4.440873e-06,394.55999999976206,2.472574e-06
394.57499999976204,0.0003864292,394.57499999976204,0.001389866,394.57499999976204,4.531929e-06,394.57499999976204,2.54556e-06
394.58999999976203,0.0003845713,394.58999999976203,0.001454655,394.58999999976203,4.569077e-06,394.58999999976203,2.594886e-06
394.604999999762,0.0004073034,394.604999999762,0.001435546,394.604999999762,4.572159e-06,394.604999999762,2.616511e-06
394.619999999762,0.0004061186,394.619999999762,0.001448354,394.619999999762,4.52882e-06,394.619999999762,2.616511e-06
394.634999999762,0.0003994534,394.634999999762,0.001388329,394.634999999762,4.466178e-06,394.634999999762,2.523327e-06
394.649999999762,0.0003772759,394.649999999762,0.001385155,394.649999999762,4.48192e-06,394.649999999762,2.528904e-06
394.66499999976196,0.0003740315,394.66499999976196,0.001291011,394.66499999976196,4.399444e-06,394.66499999976196,2.495258e-06
394.67999999976195,0.0003569044,394.67999999976195,0.001058065,394.67999999976195,4.488202e-06,394.67999999976195,2.443922e-06
394.69499999976193,0.000345146,394.69499999976193,0.001028639,394.69499999976193,4.450379e-06,394.69499999976193,2.551088e-06
394.7099999997619,0.0003441669,394.7099999997619,0.001034004,394.7099999997619,4.753424e-06,394.7099999997619,2.54002e-06
394.7249999997619,0.0003540014,394.7249999997619,0.0009072336,394.7249999997619,4.765263e-06,394.7249999997619,2.57308e-06
394.7399999997619,0.0003391563,394.7399999997619,0.0008451986,394.7399999997619,4.753424e-06,394.7399999997619,2.584006e-06
394.7549999997619,0.0003162447,394.7549999997619,0.0008115229,394.7549999997619,4.81818e-06,394.7549999997619,2.653929e-06
394.76999999976186,0.000315599,394.76999999976186,0.000812959,394.76999999976186,4.899358e-06,394.76999999976186,2.562108e-06
394.78499999976185,0.0003413832,394.78499999976185,0.0008696719,394.78499999976185,5.052234e-06,394.78499999976185,2.54556e-06
394.79999999976184,0.0003149337,394.79999999976184,0.0008780138,394.79999999976184,5.00461e-06,394.79999999976184,2.367805e-06
394.8149999997618,0.0002785628,394.8149999997618,0.0009070215,394.8149999997618,4.771172e-06,394.8149999997618,2.331836e-06
394.8299999997618,0.0002699908,394.8299999997618,0.000898888,394.8299999997618,4.654602e-06,394.8299999997618,2.301433e-06
394.8449999997618,0.0002662662,394.8449999997618,0.0007860395,394.8449999997618,4.726678e-06,394.8449999997618,2.26441e-06
394.8599999997618,0.0002587651,394.8599999997618,0.0008543815,394.8599999997618,4.525708e-06,394.8599999997618,2.270622e-06
394.87499999976177,0.0002614004,394.87499999976177,0.0007712109,394.87499999976177,4.578317e-06,394.87499999976177,2.301433e-06
394.88999999976176,0.0002592855,394.88999999976176,0.0007512539,394.88999999976176,4.52882e-06,394.88999999976176,2.313642e-06
394.90499999976174,0.0002534446,394.90499999976174,0.000761366,394.90499999976174,4.469331e-06,394.90499999976174,2.40909e-06
394.9199999997617,0.0002741373,394.9199999997617,0.0007617631,394.9199999997617,4.459865e-06,394.9199999997617,2.420756e-06
394.9349999997617,0.0002827064,394.9349999997617,0.0008068692,394.9349999997617,4.48192e-06,394.9349999997617,2.403235e-06
394.9499999997617,0.0003386737,394.9499999997617,0.0008847922,394.9499999997617,4.519479e-06,394.9499999997617,2.495258e-06
394.9649999997617,0.0004572768,394.9649999997617,0.0008933066,394.9649999997617,4.094283e-06,394.9649999997617,2.551088e-06
394.9799999997617,0.0004898934,394.9799999997617,0.0009044303,394.9799999997617,4.01437e-06,394.9799999997617,2.534468e-06
394.99499999976166,0.0006356646,394.99499999976166,0.0009434569,394.99499999976166,4.066665e-06,394.99499999976166,2.637958e-06
395.00999999976165,0.0006990958,395.00999999976165,0.0009815429,395.00999999976165,3.982663e-06,395.00999999976165,2.5676e-06
395.02499999976163,0.0007102146,395.02499999976163,0.000986513,395.02499999976163,4.186148e-06,395.02499999976163,2.637958e-06
395.0399999997616,0.0007205742,395.0399999997616,0.001022057,395.0399999997616,3.99326e-06,395.0399999997616,2.690828e-06
395.0549999997616,0.0007205305,395.0549999997616,0.001043001,395.0549999997616,4.087396e-06,395.0549999997616,2.685588e-06
395.0699999997616,0.0007215019,395.0699999997616,0.001086886,395.0699999997616,4.108022e-06,395.0699999997616,2.680338e-06
395.0849999997616,0.0007281196,395.0849999997616,0.001653471,395.0849999997616,4.386617e-06,395.0849999997616,2.701278e-06
395.09999999976156,0.0007632903,395.09999999976156,0.001823914,395.09999999976156,4.389827e-06,395.09999999976156,2.711688e-06
395.11499999976155,0.0007782956,395.11499999976155,0.002234689,395.11499999976155,4.376973e-06,395.11499999976155,2.659232e-06
395.12999999976154,0.0008228609,395.12999999976154,0.002417368,395.12999999976154,4.485062e-06,395.12999999976154,2.711688e-06
395.1449999997615,0.0008398627,395.1449999997615,0.002434379,395.1449999997615,4.531929e-06,395.1449999997615,2.675077e-06
395.1599999997615,0.0008410669,395.1599999997615,0.002468872,395.1599999997615,4.547444e-06,395.1599999997615,2.648616e-06
395.1749999997615,0.0008363706,395.1749999997615,0.002527148,395.1749999997615,4.488202e-06,395.1749999997615,2.716877e-06
395.1899999997615,0.0008402223,395.1899999997615,0.002555665,395.1899999997615,4.402644e-06,395.1899999997615,2.605721e-06
395.20499999976147,0.000782676,395.20499999976147,0.002541119,395.20499999976147,4.494475e-06,395.20499999976147,2.605721e-06
395.21999999976146,0.0007389479,395.21999999976146,0.002543281,395.21999999976146,4.599804e-06,395.21999999976146,2.54002e-06
395.23499999976144,0.0007183066,395.23499999976144,0.002540564,395.23499999976144,4.663672e-06,395.23499999976144,2.584006e-06
395.2499999997614,0.000660296,395.2499999997614,0.002507144,395.2499999997614,4.910845e-06,395.2499999997614,2.551088e-06
395.2649999997614,0.0006934932,395.2649999997614,0.002498043,395.2649999997614,4.791795e-06,395.2649999997614,2.534468e-06
395.2799999997614,0.0007241238,395.2799999997614,0.002488246,395.2799999997614,4.747494e-06,395.2799999997614,2.46687e-06
395.2949999997614,0.0007232722,395.2949999997614,0.002521101,395.2949999997614,4.887844e-06,395.2949999997614,2.5676e-06
395.3099999997614,0.0007288373,395.3099999997614,0.002584466,395.3099999997614,4.853136e-06,395.3099999997614,2.556603e-06
395.32499999976136,0.0007345534,395.32499999976136,0.002488334,395.32499999976136,4.887844e-06,395.32499999976136,2.680338e-06
395.33999999976135,0.0007096701,395.33999999976135,0.002228483,395.33999999976135,4.550541e-06,395.33999999976135,2.680338e-06
395.35499999976133,0.0006776651,395.35499999976133,0.001967644,395.35499999976133,4.612038e-06,395.35499999976133,2.818668e-06
395.3699999997613,0.0006584256,395.3699999997613,0.001502907,395.3699999997613,4.615091e-06,395.3699999997613,2.833621e-06
395.3849999997613,0.0005959779,395.3849999997613,0.001515609,395.3849999997613,4.599804e-06,395.3849999997613,2.873116e-06
395.3999999997613,0.0006234586,395.3999999997613,0.001522197,395.3999999997613,4.832776e-06,395.3999999997613,2.853437e-06
395.4149999997613,0.0006352476,395.4149999997613,0.001564454,395.4149999997613,4.907976e-06,395.4149999997613,2.863294e-06
395.42999999976126,0.0006482801,395.42999999976126,0.00164829,395.42999999976126,5.001795e-06,395.42999999976126,2.768241e-06
395.44499999976125,0.0006624434,395.44499999976125,0.001691935,395.44499999976125,5.189773e-06,395.44499999976125,2.701278e-06
395.45999999976124,0.0006630605,395.45999999976124,0.001703358,395.45999999976124,5.178904e-06,395.45999999976124,2.716877e-06
395.4749999997612,0.0006533623,395.4749999997612,0.001706467,395.4749999997612,5.28392e-06,395.4749999997612,2.680338e-06
395.4899999997612,0.0006556779,395.4899999997612,0.001708731,395.4899999997612,5.216845e-06,395.4899999997612,2.637958e-06
395.5049999997612,0.0005633133,395.5049999997612,0.00173033,395.5049999997612,5.410373e-06,395.5049999997612,2.701278e-06
395.5199999997612,0.0004911047,395.5199999997612,0.001760836,395.5199999997612,5.490492e-06,395.5199999997612,2.808655e-06
395.53499999976117,0.0005472782,395.53499999976117,0.001797119,395.53499999976117,5.939112e-06,395.53499999976117,2.793568e-06
395.54999999976116,0.0006335113,395.54999999976116,0.001587005,395.54999999976116,5.991066e-06,395.54999999976116,2.823661e-06
395.56499999976114,0.0006868101,395.56499999976114,0.001955618,395.56499999976114,6.107498e-06,395.56499999976114,2.778399e-06
395.5799999997611,0.0009212361,395.5799999997611,0.002433957,395.5799999997611,6.309435e-06,395.5799999997611,2.887788e-06
395.5949999997611,0.0009856374,395.5949999997611,0.00279747,395.5949999997611,6.450741e-06,395.5949999997611,2.858369e-06
395.6099999997611,0.001027201,395.6099999997611,0.002875643,395.6099999997611,6.955118e-06,395.6099999997611,2.823661e-06
395.6249999997611,0.001084903,395.6249999997611,0.003067353,395.6249999997611,7.203842e-06,395.6249999997611,3.085871e-06
395.6399999997611,0.001136301,395.6399999997611,0.003278396,395.6399999997611,7.728359e-06,395.6399999997611,3.19355e-06
395.65499999976106,0.001188025,395.65499999976106,0.003481655,395.65499999976106,7.741108e-06,395.65499999976106,3.224279e-06
395.66999999976105,0.00118787,395.66999999976105,0.003575236,395.66999999976105,8.519072e-06,395.66999999976105,3.228645e-06
395.68499999976103,0.001477223,395.68499999976103,0.003753184,395.68499999976103,1.412629e-05,395.68499999976103,3.540784e-06
395.699999999761,0.001543843,395.699999999761,0.003951161,395.699999999761,1.813782e-05,395.699999999761,3.726858e-06
395.714999999761,0.001602233,395.714999999761,0.003971972,395.714999999761,1.965342e-05,395.714999999761,3.853228e-06
395.729999999761,0.001661439,395.729999999761,0.003970482,395.729999999761,1.963836e-05,395.729999999761,3.8751e-06
395.744999999761,0.001737247,395.744999999761,0.004021885,395.744999999761,2.302351e-05,395.744999999761,3.871464e-06
395.75999999976096,0.00185527,395.75999999976096,0.004093194,395.75999999976096,2.592551e-05,395.75999999976096,3.801702e-06
395.77499999976095,0.001874958,395.77499999976095,0.004192614,395.77499999976095,3.141965e-05,395.77499999976095,4.302314e-06
395.78999999976094,0.00184181,395.78999999976094,0.004156709,395.78999999976094,3.668802e-05,395.78999999976094,4.272744e-06
395.8049999997609,0.001841365,395.8049999997609,0.004214447,395.8049999997609,4.190554e-05,395.8049999997609,4.262842e-06
395.8199999997609,0.001867945,395.8199999997609,0.004198493,395.8199999997609,5.326589e-05,395.8199999997609,4.621192e-06
395.8349999997609,0.001823955,395.8349999997609,0.004170583,395.8349999997609,6.183872e-05,395.8349999997609,4.744526e-06
395.8499999997609,0.001874021,395.8499999997609,0.004045618,395.8499999997609,6.53908e-05,395.8499999997609,4.777073e-06
395.86499999976087,0.001867899,395.86499999976087,0.004022069,395.86499999976087,6.902748e-05,395.86499999976087,4.794733e-06
395.87999999976086,0.001908345,395.87999999976086,0.003841042,395.87999999976086,7.074004e-05,395.87999999976086,4.651575e-06
395.89499999976084,0.00203617,395.89499999976084,0.003600482,395.89499999976084,7.125294e-05,395.89499999976084,4.587538e-06
395.9099999997608,0.002017947,395.9099999997608,0.003400778,395.9099999997608,7.205622e-05,395.9099999997608,4.572159e-06
395.9249999997608,0.002026569,395.9249999997608,0.003306213,395.9249999997608,7.260969e-05,395.9249999997608,4.541245e-06
395.9399999997608,0.001775448,395.9399999997608,0.00319432,395.9399999997608,7.20038e-05,395.9399999997608,4.262842e-06
395.9549999997608,0.001746669,395.9549999997608,0.003250775,395.9549999997608,7.190181e-05,395.9549999997608,4.182782e-06
395.9699999997608,0.00173155,395.9699999997608,0.003429681,395.9699999997608,7.169344e-05,395.9699999997608,4.097722e-06
395.98499999976076,0.001658572,395.98499999976076,0.003466462,395.98499999976076,7.207244e-05,395.98499999976076,4.118297e-06
395.99999999976075,0.001536328,395.99999999976075,0.003471772,395.99999999976075,7.12478e-05,395.99999999976075,4.101159e-06
396.01499999976073,0.001474023,396.01499999976073,0.00354016,396.01499999976073,7.002392e-05,396.01499999976073,4.038859e-06
396.0299999997607,0.00147598,396.0299999997607,0.003678216,396.0299999997607,6.643629e-05,396.0299999997607,3.642754e-06
396.0449999997607,0.001450564,396.0449999997607,0.003813135,396.0449999997607,6.432876e-05,396.0449999997607,3.677393e-06
396.0599999997607,0.001420637,396.0599999997607,0.003767875,396.0599999997607,6.071968e-05,396.0599999997607,3.492716e-06
396.0749999997607,0.001293094,396.0749999997607,0.003740827,396.0749999997607,4.912452e-05,396.0749999997607,3.030597e-06
396.08999999976066,0.001270327,396.08999999976066,0.003741221,396.08999999976066,4.203777e-05,396.08999999976066,2.921734e-06
396.10499999976065,0.001110944,396.10499999976065,0.00387033,396.10499999976065,3.522915e-05,396.10499999976065,2.711688e-06
396.11999999976064,0.001128077,396.11999999976064,0.003967196,396.11999999976064,3.013303e-05,396.11999999976064,2.621889e-06
396.1349999997606,0.0009465481,396.1349999997606,0.004123501,396.1349999997606,2.734604e-05,396.1349999997606,2.621889e-06
396.1499999997606,0.0008423714,396.1499999997606,0.004248978,396.1499999997606,2.529516e-05,396.1499999997606,2.858369e-06
396.1649999997606,0.0008092173,396.1649999997606,0.004392697,396.1649999997606,2.313764e-05,396.1649999997606,2.916909e-06
396.1799999997606,0.001053968,396.1799999997606,0.004478663,396.1799999997606,2.084644e-05,396.1799999997606,3.211145e-06
396.19499999976057,0.001377295,396.19499999976057,0.004446813,396.19499999976057,2.079773e-05,396.19499999976057,3.306247e-06
396.20999999976056,0.001421106,396.20999999976056,0.004496295,396.20999999976056,1.735597e-05,396.20999999976056,3.335938e-06
396.22499999976054,0.001385259,396.22499999976054,0.004445425,396.22499999976054,1.625193e-05,396.22499999976054,3.390388e-06
396.2399999997605,0.001593726,396.2399999997605,0.004585148,396.2399999997605,1.343109e-05,396.2399999997605,3.435788e-06
396.2549999997605,0.001614382,396.2549999997605,0.004672119,396.2549999997605,1.32154e-05,396.2549999997605,3.443979e-06
396.2699999997605,0.001640688,396.2699999997605,0.004519941,396.2699999997605,1.382593e-05,396.2699999997605,3.314757e-06
396.2849999997605,0.001643374,396.2849999997605,0.004353136,396.2849999997605,1.250561e-05,396.2849999997605,3.319004e-06
396.2999999997605,0.001692915,396.2999999997605,0.004283796,396.2999999997605,1.306208e-05,396.2999999997605,3.267676e-06
396.31499999976046,0.001797048,396.31499999976046,0.004202425,396.31499999976046,1.711733e-05,396.31499999976046,3.271984e-06
396.32999999976045,0.001844672,396.32999999976045,0.004025894,396.32999999976045,1.752317e-05,396.32999999976045,3.276286e-06
396.34499999976043,0.001845092,396.34499999976043,0.003883576,396.34499999976043,1.848705e-05,396.34499999976043,3.28916e-06
396.3599999997604,0.001847677,396.3599999997604,0.003684123,396.3599999997604,2.194914e-05,396.3599999997604,3.263362e-06
396.3749999997604,0.001815056,396.3749999997604,0.003614485,396.3749999997604,4.964196e-05,396.3749999997604,3.271984e-06
396.3899999997604,0.001765561,396.3899999997604,0.003477904,396.3899999997604,6.845739e-05,396.3899999997604,3.271984e-06
396.4049999997604,0.001747922,396.4049999997604,0.003347585,396.4049999997604,7.508998e-05,396.4049999997604,3.067557e-06
396.41999999976036,0.001738673,396.41999999976036,0.003103426,396.41999999976036,8.219696e-05,396.41999999976036,2.808655e-06
396.43499999976035,0.001511052,396.43499999976035,0.002894326,396.43499999976035,8.910503e-05,396.43499999976035,2.768241e-06
396.44999999976034,0.00126556,396.44999999976034,0.002797871,396.44999999976034,9.513514e-05,396.44999999976034,2.701278e-06
396.4649999997603,0.001248867,396.4649999997603,0.00262622,396.4649999997603,9.997701e-05,396.4649999997603,2.732388e-06
396.4799999997603,0.001203335,396.4799999997603,0.002396279,396.4799999997603,0.0001035899,396.4799999997603,2.653929e-06
396.4949999997603,0.0009874312,396.4949999997603,0.002181706,396.4949999997603,0.0001042583,396.4949999997603,2.664524e-06
396.5099999997603,0.0008740309,396.5099999997603,0.002000848,396.5099999997603,0.0001043809,396.5099999997603,2.627256e-06
396.52499999976027,0.0008428405,396.52499999976027,0.001907622,396.52499999976027,0.0001043763,396.52499999976027,2.648616e-06
396.53999999976025,0.0008419732,396.53999999976025,0.001861618,396.53999999976025,0.0001047269,396.53999999976025,2.675077e-06
396.55499999976024,0.0007792703,396.55499999976024,0.001899747,396.55499999976024,0.0001062813,396.55499999976024,2.685588e-06
396.5699999997602,0.0005554199,396.5699999997602,0.002031084,396.5699999997602,0.0001066283,396.5699999997602,2.706488e-06
396.5849999997602,0.0004697077,396.5849999997602,0.002123013,396.5849999997602,0.0001067826,396.5849999997602,2.727227e-06
396.5999999997602,0.0004741234,396.5999999997602,0.002077266,396.5999999997602,0.0001066948,396.5999999997602,2.722057e-06
396.6149999997602,0.0004784732,396.6149999997602,0.002084091,396.6149999997602,0.0001048835,396.6149999997602,2.752932e-06
396.6299999997602,0.0004857233,396.6299999997602,0.001971878,396.6299999997602,9.227328e-05,396.6299999997602,2.758045e-06
396.64499999976016,0.0005219835,396.64499999976016,0.001834191,396.64499999976016,7.473514e-05,396.64499999976016,2.778399e-06
396.65999999976015,0.0005229946,396.65999999976015,0.001820845,396.65999999976015,7.249785e-05,396.65999999976015,2.823661e-06
396.67499999976013,0.0005340535,396.67499999976013,0.001807264,396.67499999976013,6.981722e-05,396.67499999976013,2.833621e-06
396.6899999997601,0.0005359847,396.6899999997601,0.001789844,396.6899999997601,6.692429e-05,396.6899999997601,2.722057e-06
396.7049999997601,0.0005456424,396.7049999997601,0.001613205,396.7049999997601,7.445415e-05,396.7049999997601,2.685588e-06
396.7199999997601,0.0005437052,396.7199999997601,0.001753452,396.7199999997601,9.685774e-05,396.7199999997601,2.706488e-06
396.7349999997601,0.0005428562,396.7349999997601,0.002002817,396.7349999997601,0.0001161688,396.7349999997601,2.732388e-06
396.74999999976006,0.000537701,396.74999999976006,0.002023242,396.74999999976006,0.0003115379,396.74999999976006,2.742679e-06
396.76499999976005,0.0005589796,396.76499999976005,0.002045085,396.76499999976005,0.0004803842,396.76499999976005,2.742679e-06
396.77999999976004,0.0005503834,396.77999999976004,0.002057911,396.77999999976004,0.0005073305,396.77999999976004,2.773325e-06
396.79499999976,0.0005816461,396.79499999976,0.002065183,396.79499999976,0.0006518622,396.79499999976,2.798606e-06
396.80999999976,0.0005474641,396.80999999976,0.002089901,396.80999999976,0.0008332118,396.80999999976,2.783465e-06
396.82499999976,0.0005755983,396.82499999976,0.002336999,396.82499999976,0.0008915634,396.82499999976,2.813666e-06
396.83999999976,0.0005712333,396.83999999976,0.002349825,396.83999999976,0.0008957716,396.83999999976,2.843547e-06
396.85499999975997,0.0006719597,396.85499999975997,0.002530341,396.85499999975997,0.0009234803,396.85499999975997,2.818668e-06
396.86999999975995,0.0008387738,396.86999999975995,0.00268062,396.86999999975995,0.000956735,396.86999999975995,2.823661e-06
396.88499999975994,0.0008477099,396.88499999975994,0.002915608,396.88499999975994,0.0009701145,396.88499999975994,2.783465e-06
396.8999999997599,0.0008577157,396.8999999997599,0.003071309,396.8999999997599,0.0009720305,396.8999999997599,2.742679e-06
396.9149999997599,0.0008579446,396.9149999997599,0.003188938,396.9149999997599,0.0009720773,396.9149999997599,2.732388e-06
396.9299999997599,0.0008569988,396.9299999997599,0.003502551,396.9299999997599,0.0009723872,396.9299999997599,2.737538e-06
396.9449999997599,0.0008540709,396.9449999997599,0.003727445,396.9449999997599,0.0009725579,396.9449999997599,2.773325e-06
396.9599999997599,0.000856703,396.9599999997599,0.003739667,396.9599999997599,0.0009710544,396.9599999997599,2.838588e-06
396.97499999975986,0.0008592548,396.97499999975986,0.003554804,396.97499999975986,0.000968082,396.97499999975986,2.813666e-06
396.98999999975985,0.0008633867,396.98999999975985,0.003513691,396.98999999975985,0.0009603606,396.98999999975985,2.758045e-06
397.00499999975983,0.0008504617,397.00499999975983,0.00350804,397.00499999975983,0.0008897468,397.00499999975983,2.675077e-06
397.0199999997598,0.0008438643,397.0199999997598,0.00351049,397.0199999997598,0.0008026398,397.0199999997598,2.632612e-06
397.0349999997598,0.000866041,397.0349999997598,0.003497945,397.0349999997598,0.0007873258,397.0349999997598,2.616511e-06
397.0499999997598,0.0008426847,397.0499999997598,0.003501943,397.0499999997598,0.0006492618,397.0499999997598,2.589452e-06
397.0649999997598,0.000839923,397.0649999997598,0.003394425,397.0649999997598,0.0004350372,397.0649999997598,2.648616e-06
397.07999999975976,0.000863224,397.07999999975976,0.003309542,397.07999999975976,0.0003353249,397.07999999975976,2.659232e-06
397.09499999975975,0.0008444194,397.09499999975975,0.003380585,397.09499999975975,0.0003262014,397.09499999975975,2.722057e-06
397.10999999975974,0.0007686862,397.10999999975974,0.003296695,397.10999999975974,0.0002535124,397.10999999975974,2.838588e-06
397.1249999997597,0.0007571311,397.1249999997597,0.003324649,397.1249999997597,0.0001428904,397.1249999997597,2.892662e-06
397.1399999997597,0.001006828,397.1399999997597,0.003200148,397.1399999997597,6.944274e-05,397.1399999997597,2.940956e-06
397.1549999997597,0.001483515,397.1549999997597,0.003076008,397.1549999997597,4.767125e-05,397.1549999997597,2.945742e-06
397.1699999997597,0.00196697,397.1699999997597,0.003011914,397.1699999997597,4.805298e-05,397.1699999997597,2.940956e-06
397.18499999975967,0.002198506,397.18499999975967,0.002983324,397.18499999975967,4.428453e-05,397.18499999975967,2.955291e-06
397.19999999975965,0.002217734,397.19999999975965,0.002863934,397.19999999975965,3.691539e-05,397.19999999975965,3.01662e-06
397.21499999975964,0.002296675,397.21499999975964,0.002908564,397.21499999975964,3.194167e-05,397.21499999975964,2.95052e-06
397.2299999997596,0.002389369,397.2299999997596,0.002887124,397.2299999997596,3.013303e-05,397.2299999997596,2.902385e-06
397.2449999997596,0.002463558,397.2449999997596,0.002925638,397.2449999997596,2.871105e-05,397.2449999997596,2.974296e-06
397.2599999997596,0.002468949,397.2599999997596,0.003114488,397.2599999997596,2.923132e-05,397.2599999997596,3.072146e-06
397.2749999997596,0.002479854,397.2749999997596,0.003205645,397.2749999997596,2.930929e-05,397.2749999997596,3.094987e-06
397.2899999997596,0.002478054,397.2899999997596,0.003384339,397.2899999997596,2.952e-05,397.2899999997596,3.126685e-06
397.30499999975956,0.002490372,397.30499999975956,0.003564686,397.30499999975956,3.018627e-05,397.30499999975956,3.11314e-06
397.31999999975955,0.002493509,397.31999999975955,0.003707227,397.31999999975955,3.010029e-05,397.31999999975955,3.237359e-06
397.33499999975953,0.002476514,397.33499999975953,0.003718816,397.33499999975953,2.894268e-05,397.33499999975953,3.184716e-06
397.3499999997595,0.002480736,397.3499999997595,0.003764995,397.3499999997595,2.822963e-05,397.3499999997595,3.254718e-06
397.3649999997595,0.002472282,397.3649999997595,0.003682465,397.3649999997595,2.705655e-05,397.3649999997595,3.228645e-06
397.3799999997595,0.002432113,397.3799999997595,0.003480374,397.3799999997595,2.784021e-05,397.3799999997595,3.184716e-06
397.3949999997595,0.002353952,397.3949999997595,0.003495489,397.3949999997595,2.939231e-05,397.3949999997595,3.340158e-06
397.40999999975946,0.002105861,397.40999999975946,0.00349517,397.40999999975946,2.94947e-05,397.40999999975946,3.4111e-06
397.42499999975945,0.001702217,397.42499999975945,0.003372924,397.42499999975945,2.882123e-05,397.42499999975945,3.386231e-06
397.43999999975944,0.001431715,397.43999999975944,0.003194281,397.43999999975944,2.844339e-05,397.43999999975944,3.310505e-06
397.4549999997594,0.001419427,397.4549999997594,0.003160083,397.4549999997594,2.80258e-05,397.4549999997594,3.254718e-06
397.4699999997594,0.001324806,397.4699999997594,0.003142519,397.4699999997594,2.732388e-05,397.4699999997594,3.259043e-06
397.4849999997594,0.001191422,397.4849999997594,0.003145544,397.4849999997594,2.668486e-05,397.4849999997594,3.276286e-06
397.4999999997594,0.001113434,397.4999999997594,0.002981297,397.4999999997594,2.632452e-05,397.4999999997594,3.233005e-06
397.51499999975937,0.001085213,397.51499999975937,0.002923653,397.51499999975937,2.451921e-05,397.51499999975937,3.306247e-06
397.52999999975935,0.001056643,397.52999999975935,0.002740085,397.52999999975935,2.339315e-05,397.52999999975935,3.224279e-06
397.54499999975934,0.001036993,397.54499999975934,0.002594587,397.54499999975934,2.237374e-05,397.54499999975934,3.259043e-06
397.5599999997593,0.001012821,397.5599999997593,0.002241684,397.5599999997593,2.086806e-05,397.5599999997593,3.276286e-06
397.5749999997593,0.001006665,397.5749999997593,0.001997166,397.5749999997593,2.083022e-05,397.5749999997593,3.162522e-06
397.5899999997593,0.0009973919,397.5899999997593,0.001507126,397.5899999997593,2.136768e-05,397.5899999997593,3.211145e-06
397.6049999997593,0.0009874046,397.6049999997593,0.001532665,397.6049999997593,2.197223e-05,397.6049999997593,3.01662e-06
397.6199999997593,0.0009747071,397.6199999997593,0.0015753,397.6199999997593,2.221705e-05,397.6199999997593,2.997883e-06
397.63499999975926,0.0008824216,397.63499999975926,0.001657019,397.63499999975926,2.095361e-05,397.63499999975926,2.993181e-06
397.64999999975925,0.0004759262,397.64999999975925,0.001806697,397.64999999975925,2.014121e-05,397.64999999975925,2.931361e-06
397.66499999975923,0.0004701912,397.66499999975923,0.001804423,397.66499999975923,1.8274e-05,397.66499999975923,2.993181e-06
397.6799999997592,0.0004561802,397.6799999997592,0.001768164,397.6799999997592,1.840075e-05,397.6799999997592,2.997883e-06
397.6949999997592,0.0004343313,397.6949999997592,0.001822567,397.6949999997592,1.845655e-05,397.6949999997592,3.058359e-06
397.7099999997592,0.0003813465,397.7099999997592,0.001858683,397.7099999997592,2.297819e-05,397.7099999997592,3.081303e-06
397.7249999997592,0.000379762,397.7249999997592,0.002051058,397.7249999997592,2.350669e-05,397.7249999997592,3.085871e-06
397.73999999975916,0.0003986029,397.73999999975916,0.002175577,397.73999999975916,2.420232e-05,397.73999999975916,3.090432e-06
397.75499999975915,0.0004898082,397.75499999975915,0.002342822,397.75499999975915,2.459263e-05,397.75499999975915,3.099535e-06
397.76999999975914,0.0005210278,397.76999999975914,0.002346125,397.76999999975914,2.609826e-05,397.76999999975914,2.955291e-06
397.7849999997591,0.0005459143,397.7849999997591,0.002457412,397.7849999997591,2.798657e-05,397.7849999997591,2.993181e-06
397.7999999997591,0.00060073,397.7999999997591,0.002499877,397.7999999997591,2.817718e-05,397.7999999997591,2.960054e-06
397.8149999997591,0.000609009,397.8149999997591,0.002655789,397.8149999997591,2.931025e-05,397.8149999997591,2.974296e-06
397.8299999997591,0.0006332691,397.8299999997591,0.002662142,397.8299999997591,2.965711e-05,397.8299999997591,3.044509e-06
397.84499999975907,0.0006316784,397.84499999975907,0.002731055,397.84499999975907,3.03719e-05,397.84499999975907,3.062961e-06
397.85999999975905,0.000626541,397.85999999975905,0.002876838,397.85999999975905,2.942919e-05,397.85999999975905,3.122176e-06
397.87499999975904,0.0006334527,397.87499999975904,0.002978581,397.87499999975904,2.917488e-05,397.87499999975904,3.11314e-06
397.889999999759,0.0006891179,397.889999999759,0.002919905,397.889999999759,2.936211e-05,397.889999999759,3.002579e-06
397.904999999759,0.0007265555,397.904999999759,0.002821795,397.904999999759,2.965664e-05,397.904999999759,3.081303e-06
397.919999999759,0.0007798803,397.919999999759,0.002798999,397.919999999759,2.795333e-05,397.919999999759,3.039879e-06
397.934999999759,0.0007883053,397.934999999759,0.00280938,397.934999999759,2.783819e-05,397.934999999759,2.969556e-06
397.949999999759,0.000797497,397.949999999759,0.002800924,397.949999999759,2.742114e-05,397.949999999759,2.997883e-06
397.96499999975896,0.0007947074,397.96499999975896,0.002738561,397.96499999975896,2.367329e-05,397.96499999975896,3.030597e-06
397.97999999975895,0.0007868714,397.97999999975895,0.002623583,397.97999999975895,2.492886e-05,397.97999999975895,3.126685e-06
397.99499999975893,0.0008086311,397.99499999975893,0.002505649,397.99499999975893,2.379614e-05,397.99499999975893,3.158065e-06
398.0099999997589,0.0008183123,398.0099999997589,0.002366857,398.0099999997589,2.321786e-05,398.0099999997589,3.259043e-06
398.0249999997589,0.0008075737,398.0249999997589,0.002316015,398.0249999997589,2.174409e-05,398.0249999997589,3.267676e-06
398.0399999997589,0.0008188278,398.0399999997589,0.002152845,398.0399999997589,1.984245e-05,398.0399999997589,3.276286e-06
398.0549999997589,0.0007692574,398.0549999997589,0.002068905,398.0549999997589,1.946328e-05,398.0549999997589,3.323245e-06
398.06999999975886,0.0008503859,398.06999999975886,0.001946948,398.06999999975886,1.778014e-05,398.06999999975886,3.267676e-06
398.08499999975885,0.0009043143,398.08499999975885,0.00196442,398.08499999975885,1.540194e-05,398.08499999975885,3.149131e-06
398.09999999975884,0.000921879,398.09999999975884,0.001640675,398.09999999975884,1.534788e-05,398.09999999975884,3.153601e-06
398.1149999997588,0.0009244603,398.1149999997588,0.00137694,398.1149999997588,1.518827e-05,398.1149999997588,3.135683e-06
398.1299999997588,0.0009355287,398.1299999997588,0.001119102,398.1299999997588,1.472297e-05,398.1299999997588,3.117661e-06
398.1449999997588,0.0009973109,398.1449999997588,0.001079238,398.1449999997588,1.310085e-05,398.1449999997588,3.058359e-06
398.1599999997588,0.0009637537,398.1599999997588,0.001080422,398.1599999997588,1.243558e-05,398.1599999997588,2.955291e-06
398.17499999975877,0.0009349163,398.17499999975877,0.001071966,398.17499999975877,1.251687e-05,398.17499999975877,2.945742e-06
398.18999999975875,0.0009115696,398.18999999975875,0.0009575929,398.18999999975875,1.289602e-05,398.18999999975875,2.936162e-06
398.20499999975874,0.0009118352,398.20499999975874,0.0009358429,398.20499999975874,1.304697e-05,398.20499999975874,3.011947e-06
398.2199999997587,0.000929294,398.2199999997587,0.000871232,398.2199999997587,9.451865e-06,398.2199999997587,2.979029e-06
398.2349999997587,0.0009454715,398.2349999997587,0.0008254706,398.2349999997587,9.561515e-06,398.2349999997587,2.828646e-06
398.2499999997587,0.0008956688,398.2499999997587,0.0007588155,398.2499999997587,9.93435e-06,398.2499999997587,2.803635e-06
398.2649999997587,0.0008625239,398.2649999997587,0.0007572338,398.2649999997587,9.411539e-06,398.2649999997587,2.706488e-06
398.2799999997587,0.0008475177,398.2799999997587,0.001004479,398.2799999997587,9.023361e-06,398.2799999997587,2.611121e-06
398.29499999975866,0.0008410696,398.29499999975866,0.001026621,398.29499999975866,8.922889e-06,398.29499999975866,2.616511e-06
398.30999999975865,0.0008408336,398.30999999975865,0.001050158,398.30999999975865,8.99365e-06,398.30999999975865,2.584006e-06
398.32499999975863,0.0006922483,398.32499999975863,0.001026541,398.32499999975863,8.446003e-06,398.32499999975863,2.584006e-06
398.3399999997586,0.0006536525,398.3399999997586,0.001000527,398.3399999997586,8.192006e-06,398.3399999997586,2.605721e-06
398.3549999997586,0.0006467352,398.3549999997586,0.001002313,398.3549999997586,7.928101e-06,398.3549999997586,2.611121e-06
398.3699999997586,0.0006381207,398.3699999997586,0.001097782,398.3699999997586,7.904969e-06,398.3699999997586,2.57308e-06
398.3849999997586,0.000534434,398.3849999997586,0.001063557,398.3849999997586,7.495178e-06,398.3849999997586,2.594886e-06
398.39999999975856,0.0004180986,398.39999999975856,0.001038674,398.39999999975856,7.377733e-06,398.39999999975856,2.616511e-06
398.41499999975855,0.000412439,398.41499999975855,0.001039939,398.41499999975855,1.125466e-05,398.41499999975855,2.711688e-06
398.42999999975854,0.000396174,398.42999999975854,0.001043823,398.42999999975854,1.364337e-05,398.42999999975854,2.716877e-06
398.4449999997585,0.0003934728,398.4449999997585,0.001049702,398.4449999997585,1.38717e-05,398.4449999997585,2.648616e-06
398.4599999997585,0.0003789795,398.4599999997585,0.001043547,398.4599999997585,1.433613e-05,398.4599999997585,2.589452e-06
398.4749999997585,0.0003365243,398.4749999997585,0.0010832,398.4749999997585,1.675805e-05,398.4749999997585,2.732388e-06
398.4899999997585,0.0002623549,398.4899999997585,0.001101446,398.4899999997585,1.661877e-05,398.4899999997585,2.74781e-06
398.50499999975847,0.000246783,398.50499999975847,0.001106094,398.50499999975847,1.674123e-05,398.50499999975847,2.711688e-06
398.51999999975845,0.0002496427,398.51999999975845,0.001102124,398.51999999975845,1.692866e-05,398.51999999975845,2.752932e-06
398.53499999975844,0.0010798,398.53499999975844,0.0008321629,398.53499999975844,1.83125e-05,398.53499999975844,2.808655e-06
398.5499999997584,0.001517365,398.5499999997584,0.0007899316,398.5499999997584,1.837393e-05,398.5499999997584,2.737538e-06
398.5649999997584,0.00169812,398.5649999997584,0.0008078221,398.5649999997584,1.841452e-05,398.5649999997584,2.742679e-06
398.5799999997584,0.001710938,398.5799999997584,0.0008103424,398.5799999997584,1.867959e-05,398.5799999997584,2.701278e-06
398.5949999997584,0.001719448,398.5949999997584,0.000815365,398.5949999997584,1.883654e-05,398.5949999997584,2.74781e-06
398.6099999997584,0.001729793,398.6099999997584,0.0007700886,398.6099999997584,2.061268e-05,398.6099999997584,2.813666e-06
398.62499999975836,0.001776904,398.62499999975836,0.0006688012,398.62499999975836,2.197031e-05,398.62499999975836,3.062961e-06
398.63999999975834,0.001777132,398.63999999975834,0.0006748498,398.63999999975834,2.2042e-05,398.63999999975834,3.035241e-06
398.65499999975833,0.001788017,398.65499999975833,0.0006818114,398.65499999975833,2.194849e-05,398.65499999975833,3.053749e-06
398.6699999997583,0.001798932,398.6699999997583,0.0006363934,398.6699999997583,1.971568e-05,398.6699999997583,3.025945e-06
398.6849999997583,0.001799141,398.6849999997583,0.0006152061,398.6849999997583,1.866073e-05,398.6849999997583,2.993181e-06
398.6999999997583,0.001799625,398.6999999997583,0.0006147202,398.6999999997583,1.798808e-05,398.6999999997583,2.926552e-06
398.7149999997583,0.001800822,398.7149999997583,0.0006628935,398.7149999997583,1.64458e-05,398.7149999997583,2.936162e-06
398.72999999975826,0.001802304,398.72999999975826,0.00057068,398.72999999975826,1.603378e-05,398.72999999975826,2.997883e-06
398.74499999975825,0.001802449,398.74499999975825,0.000559537,398.74499999975825,1.727217e-05,398.74499999975825,3.039879e-06
398.75999999975824,0.001803264,398.75999999975824,0.0005582418,398.75999999975824,1.757775e-05,398.75999999975824,3.030597e-06
398.7749999997582,0.001628898,398.7749999997582,0.0005602968,398.7749999997582,1.683186e-05,398.7749999997582,3.007266e-06
398.7899999997582,0.001372393,398.7899999997582,0.0005604094,398.7899999997582,1.60566e-05,398.7899999997582,3.035241e-06
398.8049999997582,0.0008323132,398.8049999997582,0.0005787557,398.8049999997582,1.597216e-05,398.8049999997582,3.104077e-06
398.8199999997582,0.0005790741,398.8199999997582,0.00058543,398.8199999997582,1.593949e-05,398.8199999997582,3.126685e-06
398.83499999975817,0.0005502619,398.83499999975817,0.0006746528,398.83499999975817,1.542205e-05,398.83499999975817,3.175857e-06
398.84999999975815,0.0005289163,398.84999999975815,0.0007071045,398.84999999975815,1.543574e-05,398.84999999975815,3.162522e-06
398.86499999975814,0.000463254,398.86499999975814,0.0007061339,398.86499999975814,1.295161e-05,398.86499999975814,2.960054e-06
398.8799999997581,0.0003900198,398.8799999997581,0.0007357983,398.8799999997581,1.124465e-05,398.8799999997581,2.902385e-06
398.8949999997581,0.0003941092,398.8949999997581,0.0007630365,398.8949999997581,1.123838e-05,398.8949999997581,2.902385e-06
398.9099999997581,0.0003716612,398.9099999997581,0.0008031023,398.9099999997581,1.1207e-05,398.9099999997581,2.843547e-06
398.9249999997581,0.000386727,398.9249999997581,0.0008867563,398.9249999997581,1.141375e-05,398.9249999997581,2.887788e-06
398.9399999997581,0.0003900549,398.9399999997581,0.0009300458,398.9399999997581,1.193501e-05,398.9399999997581,2.897527e-06
398.95499999975806,0.0004216424,398.95499999975806,0.0009259201,398.95499999975806,1.195388e-05,398.95499999975806,2.912075e-06
398.96999999975804,0.0004200944,398.96999999975804,0.0009399208,398.96999999975804,1.136675e-05,398.96999999975804,2.793568e-06
398.98499999975803,0.0004511934,398.98499999975803,0.0009405983,398.98499999975803,9.815953e-06,398.98499999975803,2.621889e-06
398.999999999758,0.000511624,398.999999999758,0.0009446158,398.999999999758,8.795684e-06,398.999999999758,2.627256e-06
399.014999999758,0.0005370057,399.014999999758,0.0009771733,399.014999999758,7.876405e-06,399.014999999758,2.600309e-06
399.029999999758,0.0005274014,399.029999999758,0.0009720976,399.029999999758,7.97063e-06,399.029999999758,2.611121e-06
399.044999999758,0.0005482336,399.044999999758,0.0009713596,399.044999999758,8.553727e-06,399.044999999758,2.621889e-06
399.05999999975796,0.0005491782,399.05999999975796,0.0009380761,399.05999999975796,8.568535e-06,399.05999999975796,2.556603e-06
399.07499999975795,0.0005887321,399.07499999975795,0.0009060436,399.07499999975795,8.575109e-06,399.07499999975795,2.54002e-06
399.08999999975794,0.0006058448,399.08999999975794,0.0009991305,399.08999999975794,8.524032e-06,399.08999999975794,2.478264e-06
399.1049999997579,0.0006047733,399.1049999997579,0.001573642,399.1049999997579,8.472646e-06,399.1049999997579,2.478264e-06
399.1199999997579,0.0006251806,399.1199999997579,0.001651671,399.1199999997579,8.952834e-06,399.1199999997579,2.495258e-06
399.1349999997579,0.0006457703,399.1349999997579,0.001811379,399.1349999997579,8.797286e-06,399.1349999997579,2.500897e-06
399.1499999997579,0.0006401886,399.1499999997579,0.001976062,399.1499999997579,9.219493e-06,399.1499999997579,2.512137e-06
399.16499999975787,0.000648178,399.16499999975787,0.002315685,399.16499999975787,1.074366e-05,399.16499999975787,2.54002e-06
399.17999999975785,0.0008234231,399.17999999975785,0.002389665,399.17999999975785,1.068845e-05,399.17999999975785,2.600309e-06
399.19499999975784,0.0008720151,399.19499999975784,0.002815917,399.19499999975784,1.152307e-05,399.19499999975784,2.690828e-06
399.2099999997578,0.001024422,399.2099999997578,0.003154511,399.2099999997578,1.271229e-05,399.2099999997578,2.711688e-06
399.2249999997578,0.001045281,399.2249999997578,0.003344688,399.2249999997578,1.274771e-05,399.2249999997578,2.936162e-06
399.2399999997578,0.00105759,399.2399999997578,0.00344926,399.2399999997578,1.297552e-05,399.2399999997578,2.945742e-06
399.2549999997578,0.001041667,399.2549999997578,0.003704506,399.2549999997578,1.500914e-05,399.2549999997578,3.021286e-06
399.2699999997578,0.001053017,399.2699999997578,0.003775018,399.2699999997578,1.633062e-05,399.2699999997578,3.030597e-06
399.28499999975776,0.001077152,399.28499999975776,0.003803541,399.28499999975776,1.626493e-05,399.28499999975776,3.117661e-06
399.29999999975774,0.001179737,399.29999999975774,0.003809644,399.29999999975774,1.772142e-05,399.29999999975774,3.11314e-06
399.31499999975773,0.001209733,399.31499999975773,0.003809316,399.31499999975773,1.945748e-05,399.31499999975773,3.122176e-06
399.3299999997577,0.001243582,399.3299999997577,0.003809255,399.3299999997577,2.069861e-05,399.3299999997577,3.197958e-06
399.3449999997577,0.001313825,399.3449999997577,0.003717262,399.3449999997577,2.153186e-05,399.3449999997577,3.224279e-06
399.3599999997577,0.001344604,399.3599999997577,0.003517623,399.3599999997577,2.187907e-05,399.3599999997577,3.241707e-06
399.3749999997577,0.001367398,399.3749999997577,0.00347974,399.3749999997577,2.162195e-05,399.3749999997577,3.206755e-06
399.38999999975766,0.0013602,399.38999999975766,0.003439577,399.38999999975766,2.288174e-05,399.38999999975766,3.254718e-06
399.40499999975765,0.00136807,399.40499999975765,0.003220812,399.40499999975765,2.800015e-05,399.40499999975765,3.24605e-06
399.41999999975764,0.00134701,399.41999999975764,0.002896694,399.41999999975764,3.063973e-05,399.41999999975764,3.219907e-06
399.4349999997576,0.001287956,399.4349999997576,0.002963171,399.4349999997576,3.081257e-05,399.4349999997576,3.131187e-06
399.4499999997576,0.001272106,399.4499999997576,0.002777213,399.4499999997576,3.055502e-05,399.4499999997576,3.058359e-06
399.4649999997576,0.001226111,399.4649999997576,0.002607591,399.4649999997576,3.051026e-05,399.4649999997576,2.983753e-06
399.4799999997576,0.001220076,399.4799999997576,0.002387706,399.4799999997576,3.095351e-05,399.4799999997576,3.044509e-06
399.49499999975757,0.001161493,399.49499999975757,0.00229706,399.49499999975757,3.216011e-05,399.49499999975757,3.030597e-06
399.50999999975755,0.001187624,399.50999999975755,0.00199957,399.50999999975755,3.24592e-05,399.50999999975755,3.025945e-06
399.52499999975754,0.001237421,399.52499999975754,0.001959421,399.52499999975754,3.220257e-05,399.52499999975754,2.964809e-06
399.5399999997575,0.001201502,399.5399999997575,0.00194036,399.5399999997575,3.262153e-05,399.5399999997575,2.964809e-06
399.5549999997575,0.001074789,399.5549999997575,0.001996616,399.5549999997575,3.19205e-05,399.5549999997575,2.897527e-06
399.5699999997575,0.001048038,399.5699999997575,0.002058192,399.5699999997575,3.125829e-05,399.5699999997575,2.848496e-06
399.5849999997575,0.001017127,399.5849999997575,0.002059252,399.5849999997575,3.14555e-05,399.5849999997575,2.833621e-06
399.5999999997575,0.000922507,399.5999999997575,0.002050063,399.5999999997575,3.104213e-05,399.5999999997575,2.912075e-06
399.61499999975746,0.0008903865,399.61499999975746,0.002050062,399.61499999975746,3.08765e-05,399.61499999975746,2.931361e-06
399.62999999975744,0.0008750039,399.62999999975744,0.002055973,399.62999999975744,3.158243e-05,399.62999999975744,3.11314e-06
399.64499999975743,0.0008758628,399.64499999975743,0.002055118,399.64499999975743,3.002438e-05,399.64499999975743,3.076727e-06
399.6599999997574,0.0008579734,399.6599999997574,0.001961999,399.6599999997574,2.535357e-05,399.6599999997574,3.076727e-06
399.6749999997574,0.0007955407,399.6749999997574,0.001895936,399.6749999997574,2.259241e-05,399.6749999997574,3.215529e-06
399.6899999997574,0.0007372855,399.6899999997574,0.001653409,399.6899999997574,2.240835e-05,399.6899999997574,3.228645e-06
399.7049999997574,0.0007168773,399.7049999997574,0.001615598,399.7049999997574,2.260612e-05,399.7049999997574,3.117661e-06
399.71999999975736,0.0006655824,399.71999999975736,0.001501688,399.71999999975736,2.369173e-05,399.71999999975736,3.126685e-06
399.73499999975735,0.0006755527,399.73499999975735,0.001208372,399.73499999975735,2.380266e-05,399.73499999975735,3.144655e-06
399.74999999975734,0.0006759571,399.74999999975734,0.001117061,399.74999999975734,2.123475e-05,399.74999999975734,3.171418e-06
399.7649999997573,0.0006348566,399.7649999997573,0.001007832,399.7649999997573,1.992039e-05,399.7649999997573,3.162522e-06
399.7799999997573,0.0005643812,399.7799999997573,0.001007026,399.7799999997573,2.033125e-05,399.7799999997573,3.081303e-06
399.7949999997573,0.0005454249,399.7949999997573,0.0009011884,399.7949999997573,2.101135e-05,399.7949999997573,3.081303e-06
399.8099999997573,0.0005466189,399.8099999997573,0.0008230696,399.8099999997573,2.178939e-05,399.8099999997573,3.081303e-06
399.82499999975727,0.0005480273,399.82499999975727,0.0006349615,399.82499999975727,2.226962e-05,399.82499999975727,3.122176e-06
399.83999999975725,0.0005368174,399.83999999975725,0.0006025727,399.83999999975725,2.497346e-05,399.83999999975725,3.099535e-06
399.85499999975724,0.0004865217,399.85499999975724,0.0005918035,399.85499999975724,3.128081e-05,399.85499999975724,2.955291e-06
399.8699999997572,0.0004752555,399.8699999997572,0.0005772096,399.8699999997572,3.391178e-05,399.8699999997572,2.912075e-06
399.8849999997572,0.0004786041,399.8849999997572,0.0005750723,399.8849999997572,4.271656e-05,399.8849999997572,2.722057e-06
399.8999999997572,0.0004854717,399.8999999997572,0.0005759071,399.8999999997572,5.817835e-05,399.8999999997572,2.803635e-06
399.9149999997572,0.0004888505,399.9149999997572,0.0005766192,399.9149999997572,6.335236e-05,399.9149999997572,3.030597e-06
399.9299999997572,0.0004991216,399.9299999997572,0.0005772689,399.9299999997572,6.865034e-05,399.9299999997572,2.916909e-06
399.94499999975716,0.0004852726,399.94499999975716,0.0005143239,399.94499999975716,7.987525e-05,399.94499999975716,2.853437e-06
399.95999999975714,0.0005620192,399.95999999975714,0.0005401364,399.95999999975714,8.353413e-05,399.95999999975714,2.863294e-06
399.97499999975713,0.0008132913,399.97499999975713,0.0007453681,399.97499999975713,8.532109e-05,399.97499999975713,2.833621e-06
399.9899999997571,0.001521872,399.9899999997571,0.000810591,399.9899999997571,9.214297e-05,399.9899999997571,2.858369e-06
400.0049999997571,0.001573752,400.0049999997571,0.001039068,400.0049999997571,9.518502e-05,400.0049999997571,2.783465e-06
400.0199999997571,0.001596767,400.0199999997571,0.001036666,400.0199999997571,9.601769e-05,400.0199999997571,2.737538e-06
400.0349999997571,0.001753185,400.0349999997571,0.001058089,400.0349999997571,9.645433e-05,400.0349999997571,2.763147e-06
400.04999999975706,0.002002275,400.04999999975706,0.001106467,400.04999999975706,9.683999e-05,400.04999999975706,2.711688e-06
400.06499999975705,0.002418662,400.06499999975705,0.001348326,400.06499999975705,9.764412e-05,400.06499999975705,2.648616e-06
400.07999999975704,0.002498073,400.07999999975704,0.001378619,400.07999999975704,9.895734e-05,400.07999999975704,2.680338e-06
400.094999999757,0.002510662,400.094999999757,0.001420788,400.094999999757,9.903546e-05,400.094999999757,2.669806e-06
400.109999999757,0.00253344,400.109999999757,0.001579039,400.109999999757,9.727193e-05,400.109999999757,2.664524e-06
400.124999999757,0.002658978,400.124999999757,0.001614221,400.124999999757,9.6651e-05,400.124999999757,2.838588e-06
400.139999999757,0.002714936,400.139999999757,0.001671904,400.139999999757,9.051916e-05,400.139999999757,2.823661e-06
400.15499999975697,0.002819872,400.15499999975697,0.001807227,400.15499999975697,8.353177e-05,400.15499999975697,2.732388e-06
400.16999999975695,0.002825371,400.16999999975695,0.001850144,400.16999999975695,8.082581e-05,400.16999999975695,2.696058e-06
400.18499999975694,0.002822598,400.18499999975694,0.001889351,400.18499999975694,7.580675e-05,400.18499999975694,2.669806e-06
400.1999999997569,0.00287707,400.1999999997569,0.001895676,400.1999999997569,6.327805e-05,400.1999999997569,2.737538e-06
400.2149999997569,0.002864896,400.2149999997569,0.001946591,400.2149999997569,6.085247e-05,400.2149999997569,2.716877e-06
400.2299999997569,0.002742054,400.2299999997569,0.001870909,400.2299999997569,5.639934e-05,400.2299999997569,2.664524e-06
400.2449999997569,0.002552854,400.2449999997569,0.001845853,400.2449999997569,4.442586e-05,400.2449999997569,2.653929e-06
400.2599999997569,0.002563993,400.2599999997569,0.001769589,400.2599999997569,3.834905e-05,400.2599999997569,2.659232e-06
400.27499999975686,0.002561833,400.27499999975686,0.001766944,400.27499999975686,3.732221e-05,400.27499999975686,2.680338e-06
400.28999999975684,0.00239849,400.28999999975684,0.001742709,400.28999999975684,3.556305e-05,400.28999999975684,2.716877e-06
400.30499999975683,0.002143094,400.30499999975683,0.001656616,400.30499999975683,3.500693e-05,400.30499999975683,2.773325e-06
400.3199999997568,0.001830166,400.3199999997568,0.001494152,400.3199999997568,3.242098e-05,400.3199999997568,2.813666e-06
400.3349999997568,0.001729038,400.3349999997568,0.001480362,400.3349999997568,2.751448e-05,400.3349999997568,2.823661e-06
400.3499999997568,0.001718086,400.3499999997568,0.001422775,400.3499999997568,2.114567e-05,400.3499999997568,2.798606e-06
400.3649999997568,0.001615868,400.3649999997568,0.001318386,400.3649999997568,2.030906e-05,400.3649999997568,2.813666e-06
400.37999999975676,0.001468948,400.37999999975676,0.001307996,400.37999999975676,2.031253e-05,400.37999999975676,2.701278e-06
400.39499999975675,0.001300072,400.39499999975675,0.001179735,400.39499999975675,1.805062e-05,400.39499999975675,2.793568e-06
400.40999999975674,0.001158441,400.40999999975674,0.0009184445,400.40999999975674,1.498754e-05,400.40999999975674,2.664524e-06
400.4249999997567,0.001167355,400.4249999997567,0.0008714685,400.4249999997567,1.527244e-05,400.4249999997567,2.648616e-06
400.4399999997567,0.001147421,400.4399999997567,0.0008237957,400.4399999997567,1.589702e-05,400.4399999997567,2.653929e-06
400.4549999997567,0.0008983655,400.4549999997567,0.0007717861,400.4549999997567,1.640034e-05,400.4549999997567,2.605721e-06
400.4699999997567,0.0007762263,400.4699999997567,0.0006003337,400.4699999997567,1.611702e-05,400.4699999997567,2.727227e-06
400.48499999975667,0.0007410983,400.48499999975667,0.0005470345,400.48499999975667,1.614497e-05,400.48499999975667,2.727227e-06
400.49999999975665,0.0006569941,400.49999999975665,0.0005528523,400.49999999975665,1.588106e-05,400.49999999975665,2.737538e-06
400.51499999975664,0.0005240588,400.51499999975664,0.0005444002,400.51499999975664,1.682851e-05,400.51499999975664,2.803635e-06
400.5299999997566,0.0004954892,400.5299999997566,0.000547841,400.5299999997566,1.796536e-05,400.5299999997566,2.823661e-06
400.5449999997566,0.000478967,400.5449999997566,0.000617324,400.5449999997566,1.761538e-05,400.5449999997566,2.773325e-06
400.5599999997566,0.0004589144,400.5599999997566,0.0005952204,400.5599999997566,1.708356e-05,400.5599999997566,2.808655e-06
400.5749999997566,0.0004585666,400.5749999997566,0.0006109613,400.5749999997566,1.763216e-05,400.5749999997566,2.798606e-06
400.58999999975657,0.000457017,400.58999999975657,0.0005530554,400.58999999975657,1.800609e-05,400.58999999975657,2.808655e-06
400.60499999975656,0.0004703571,400.60499999975656,0.0005335935,400.60499999975656,1.840687e-05,400.60499999975656,2.902385e-06
400.61999999975654,0.000413903,400.61999999975654,0.0005331998,400.61999999975654,1.800217e-05,400.61999999975654,2.993181e-06
400.63499999975653,0.000423864,400.63499999975653,0.0005083827,400.63499999975653,1.949799e-05,400.63499999975653,2.907234e-06
400.6499999997565,0.0004773885,400.6499999997565,0.0004956078,400.6499999997565,2.047004e-05,400.6499999997565,2.887788e-06
400.6649999997565,0.0004976884,400.6649999997565,0.0005012405,400.6649999997565,2.063454e-05,400.6649999997565,2.897527e-06
400.6799999997565,0.0005222567,400.6799999997565,0.0005075561,400.6799999997565,2.272111e-05,400.6799999997565,2.828646e-06
400.6949999997565,0.0006222117,400.6949999997565,0.0004974485,400.6949999997565,2.41172e-05,400.6949999997565,2.838588e-06
400.70999999975646,0.000640004,400.70999999975646,0.0005420416,400.70999999975646,2.429179e-05,400.70999999975646,2.742679e-06
400.72499999975645,0.0006704899,400.72499999975645,0.000577499,400.72499999975645,2.506973e-05,400.72499999975645,2.685588e-06
400.73999999975644,0.0006766651,400.73999999975644,0.0005882868,400.73999999975644,2.653452e-05,400.73999999975644,2.706488e-06
400.7549999997564,0.0008050994,400.7549999997564,0.0005883562,400.7549999997564,2.700704e-05,400.7549999997564,2.742679e-06
400.7699999997564,0.0008442042,400.7699999997564,0.0006021917,400.7699999997564,2.703519e-05,400.7699999997564,2.675077e-06
400.7849999997564,0.001203654,400.7849999997564,0.0006047074,400.7849999997564,2.66875e-05,400.7849999997564,2.57308e-06
400.7999999997564,0.001341984,400.7999999997564,0.0005508396,400.7999999997564,2.728312e-05,400.7999999997564,2.483942e-06
400.81499999975637,0.001377736,400.81499999975637,0.0005440489,400.81499999975637,2.729241e-05,400.81499999975637,2.578549e-06
400.82999999975635,0.001393378,400.82999999975635,0.0005527952,400.82999999975635,2.79775e-05,400.82999999975635,2.584006e-06
400.84499999975634,0.001605909,400.84499999975634,0.0005548507,400.84499999975634,2.79503e-05,400.84499999975634,2.562108e-06
400.8599999997563,0.001741044,400.8599999997563,0.0005649903,400.8599999997563,2.814467e-05,400.8599999997563,2.534468e-06
400.8749999997563,0.001750903,400.8749999997563,0.0006390114,400.8749999997563,2.818618e-05,400.8749999997563,2.46687e-06
400.8899999997563,0.001775425,400.8899999997563,0.0006964605,400.8899999997563,2.610366e-05,400.8899999997563,2.397367e-06
400.9049999997563,0.001792184,400.9049999997563,0.0008512877,400.9049999997563,2.646116e-05,400.9049999997563,2.517739e-06
400.91999999975627,0.001771675,400.91999999975627,0.001004851,400.91999999975627,2.503656e-05,400.91999999975627,2.562108e-06
400.93499999975626,0.001763589,400.93499999975626,0.001005199,400.93499999975626,2.436995e-05,400.93499999975626,2.534468e-06
400.94999999975624,0.001768322,400.94999999975624,0.001021174,400.94999999975624,2.329056e-05,400.94999999975624,2.506524e-06
400.96499999975623,0.00183095,400.96499999975623,0.001120075,400.96499999975623,2.339556e-05,400.96499999975623,2.523327e-06
400.9799999997562,0.001848371,400.9799999997562,0.001156895,400.9799999997562,2.327543e-05,400.9799999997562,2.578549e-06
400.9949999997562,0.001972454,400.9949999997562,0.001153892,400.9949999997562,2.290758e-05,400.9949999997562,2.5676e-06
