X[s],a: EMG RMS 1-1,X[s].1,a: EMG RMS 1-2,X[s].2,a: EMG RMS 1-3,X[s].3,a: EMG RMS 1-4
530.0099999996389,7.713764e-06,530.0099999996389,3.621501e-05,530.0099999996389,0.000317181,530.0099999996389,2.974296e-06
530.0249999996389,7.706456e-06,530.0249999996389,3.548255e-05,530.0249999996389,0.0003240058,530.0249999996389,3.002579e-06
530.0399999996389,7.845942e-06,530.0399999996389,3.053242e-05,530.0399999996389,0.0003310851,530.0399999996389,3.058359e-06
530.0549999996389,7.979462e-06,530.0549999996389,2.912898e-05,530.0549999996389,0.0003339837,530.0549999996389,3.081303e-06
530.0699999996389,8.21433e-06,530.0699999996389,2.063863e-05,530.0699999996389,0.0003347635,530.0699999996389,2.955291e-06
530.0849999996389,8.157542e-06,530.0849999996389,1.398497e-05,530.0849999996389,0.0003371398,530.0849999996389,2.945742e-06
530.0999999996388,8.306418e-06,530.0999999996388,1.25225e-05,530.0999999996388,0.0003420729,530.0999999996388,2.873116e-06
530.1149999996388,8.367247e-06,530.1149999996388,1.21711e-05,530.1149999996388,0.0003435602,530.1149999996388,2.897527e-06
530.1299999996388,8.392462e-06,530.1299999996388,1.212936e-05,530.1299999996388,0.0003409723,530.1299999996388,2.907234e-06
530.1449999996388,7.759284e-06,530.1449999996388,1.210145e-05,530.1449999996388,0.0003309329,530.1449999996388,2.979029e-06
530.1599999996388,7.500814e-06,530.1599999996388,1.065016e-05,530.1599999996388,0.0003289766,530.1599999996388,3.348582e-06
530.1749999996388,7.385367e-06,530.1749999996388,8.385746e-06,530.1749999996388,0.000283007,530.1749999996388,3.340158e-06
530.1899999996388,7.099447e-06,530.1899999996388,8.365563e-06,530.1899999996388,0.000257172,530.1899999996388,3.327482e-06
530.2049999996387,7.448044e-06,530.2049999996387,7.881768e-06,530.2049999996387,0.0002595326,530.2049999996387,3.310505e-06
530.2199999996387,7.38918e-06,530.2199999996387,7.913874e-06,530.2199999996387,0.0002815913,530.2199999996387,3.40283e-06
530.2349999996387,7.29903e-06,530.2349999996387,7.904969e-06,530.2349999996387,0.0002757438,530.2349999996387,3.456227e-06
530.2499999996387,7.660622e-06,530.2499999996387,7.618211e-06,530.2499999996387,0.0002710925,530.2499999996387,3.552699e-06
530.2649999996387,7.822567e-06,530.2649999996387,7.266147e-06,530.2649999996387,0.0002694928,530.2649999996387,3.741947e-06
530.2799999996387,7.795508e-06,530.2799999996387,7.341366e-06,530.2799999996387,0.0002606732,530.2799999996387,3.794284e-06
530.2949999996387,7.901403e-06,530.2949999996387,7.246734e-06,530.2949999996387,0.0002543683,530.2949999996387,3.816494e-06
530.3099999996386,8.02523e-06,530.3099999996386,7.190141e-06,530.3099999996386,0.0002506941,530.3099999996386,3.723076e-06
530.3249999996386,7.881768e-06,530.3249999996386,7.142966e-06,530.3249999996386,0.0002716342,530.3249999996386,3.599965e-06
530.3399999996386,7.8585e-06,530.3399999996386,7.137048e-06,530.3399999996386,0.0004786275,530.3399999996386,3.627253e-06
530.3549999996386,7.826167e-06,530.3549999996386,7.287441e-06,530.3549999996386,0.0008643653,530.3549999996386,3.845909e-06
530.3699999996386,7.97593e-06,530.3699999996386,7.031661e-06,530.3699999996386,0.0009173276,530.3699999996386,3.896851e-06
530.3849999996386,7.874616e-06,530.3849999996386,7.097463e-06,530.3849999996386,0.00126352,530.3849999996386,3.8751e-06
530.3999999996386,7.904969e-06,530.3999999996386,7.387274e-06,530.3999999996386,0.001493546,530.3999999996386,3.779404e-06
530.4149999996386,8.009417e-06,530.4149999996386,7.534543e-06,530.4149999996386,0.00151562,530.4149999996386,3.496747e-06
530.4299999996385,8.251971e-06,530.4299999996385,8.081204e-06,530.4299999996385,0.001549141,530.4299999996385,3.528828e-06
530.4449999996385,8.26732e-06,530.4449999996385,8.465993e-06,530.4449999996385,0.001601853,530.4449999996385,3.548731e-06
530.4599999996385,8.032248e-06,530.4599999996385,8.429308e-06,530.4599999996385,0.001622061,530.4599999996385,3.536803e-06
530.4749999996385,7.954708e-06,530.4749999996385,9.611476e-06,530.4749999996385,0.00161462,530.4749999996385,3.456227e-06
530.4899999996385,7.755652e-06,530.4899999996385,9.620266e-06,530.4899999996385,0.00161127,530.4899999996385,3.431686e-06
530.5049999996385,7.320229e-06,530.5049999996385,9.665551e-06,530.5049999996385,0.001612833,530.5049999996385,3.406967e-06
530.5199999996385,7.266147e-06,530.5199999996385,9.629048e-06,530.5199999996385,0.001613875,530.5199999996385,3.099535e-06
530.5349999996384,7.144938e-06,530.5349999996384,9.751159e-06,530.5349999996384,0.001613992,530.5349999996384,3.090432e-06
530.5499999996384,6.778699e-06,530.5499999996384,9.719326e-06,530.5499999996384,0.001612594,530.5499999996384,3.104077e-06
530.5649999996384,6.515924e-06,530.5649999996384,9.500919e-06,530.5649999996384,0.001612467,530.5649999996384,3.153601e-06
530.5799999996384,6.393712e-06,530.5799999996384,9.633435e-06,530.5799999996384,0.001607412,530.5799999996384,3.211145e-06
530.5949999996384,6.05887e-06,530.5949999996384,9.383058e-06,530.5949999996384,0.001486952,530.5949999996384,3.568524e-06
530.6099999996384,5.898653e-06,530.6099999996384,9.612942e-06,530.6099999996384,0.001313467,530.6099999996384,3.398688e-06
530.6249999996384,6.141998e-06,530.6249999996384,9.656803e-06,530.6249999996384,0.001252011,530.6249999996384,3.331712e-06
530.6399999996383,6.051891e-06,530.6399999996383,1.026765e-05,530.6399999996383,0.000887653,530.6399999996383,3.572469e-06
530.6549999996383,6.19225e-06,530.6549999996383,1.115408e-05,530.6549999996383,0.0005507516,530.6549999996383,3.592131e-06
530.6699999996383,6.005157e-06,530.6699999996383,1.172064e-05,530.6699999996383,0.0005202296,530.6699999996383,3.719291e-06
530.6849999996383,5.589657e-06,530.6849999996383,1.114145e-05,530.6849999996383,0.0004095804,530.6849999996383,3.638885e-06
530.6999999996383,5.639834e-06,530.6999999996383,1.15609e-05,530.6999999996383,0.0002202376,530.6999999996383,3.611685e-06
530.7149999996383,5.490492e-06,530.7149999996383,1.155359e-05,530.7149999996383,9.472722e-05,530.7149999996383,3.779404e-06
530.7299999996383,5.787757e-06,530.7299999996383,1.170982e-05,530.7299999996383,7.601921e-05,530.7299999996383,3.809105e-06
530.7449999996383,5.833818e-06,530.7449999996383,1.198918e-05,530.7449999996383,6.826452e-05,530.7449999996383,3.741947e-06
530.7599999996382,5.924864e-06,530.7599999996382,1.215604e-05,530.7599999996382,4.53426e-05,530.7599999996382,3.749468e-06
530.7749999996382,5.845879e-06,530.7749999996382,1.302103e-05,530.7749999996382,2.48241e-05,530.7749999996382,3.730636e-06
530.7899999996382,6.019215e-06,530.7899999996382,1.32898e-05,530.7899999996382,1.643723e-05,530.7899999996382,3.834905e-06
530.8049999996382,6.569749e-06,530.8049999996382,1.336485e-05,530.8049999996382,1.589967e-05,530.8049999996382,3.84957e-06
530.8199999996382,7.375824e-06,530.8199999996382,1.37329e-05,530.8199999996382,1.71855e-05,530.8199999996382,3.820184e-06
530.8349999996382,7.398706e-06,530.8349999996382,1.372777e-05,530.8349999996382,1.756893e-05,530.8349999996382,3.707911e-06
530.8499999996382,7.404416e-06,530.8499999996382,1.361132e-05,530.8499999996382,1.774207e-05,530.8499999996382,3.365367e-06
530.8649999996381,7.375824e-06,530.8649999996381,1.348865e-05,530.8649999996381,1.772539e-05,530.8649999996381,3.306247e-06
530.8799999996381,7.302889e-06,530.8799999996381,1.423753e-05,530.8799999996381,1.778806e-05,530.8799999996381,3.423466e-06
530.8949999996381,7.172487e-06,530.8949999996381,1.359475e-05,530.8949999996381,1.771108e-05,530.8949999996381,3.211145e-06
530.9099999996381,7.19993e-06,530.9099999996381,1.324521e-05,530.9099999996381,1.778727e-05,530.9099999996381,3.276286e-06
530.9249999996381,7.279705e-06,530.9249999996381,1.334164e-05,530.9249999996381,1.783946e-05,530.9249999996381,3.224279e-06
530.9399999996381,7.295169e-06,530.9399999996381,1.312877e-05,530.9399999996381,1.660944e-05,530.9399999996381,3.271984e-06
530.9549999996381,7.2409e-06,530.9549999996381,1.293202e-05,530.9549999996381,1.712309e-05,530.9549999996381,3.224279e-06
530.969999999638,7.15282e-06,530.969999999638,1.249773e-05,530.969999999638,1.577961e-05,530.969999999638,3.108612e-06
530.984999999638,7.001547e-06,530.984999999638,1.21572e-05,530.984999999638,1.531573e-05,530.984999999638,3.104077e-06
530.999999999638,6.99148e-06,530.999999999638,1.227138e-05,530.999999999638,1.533319e-05,530.999999999638,3.085871e-06
531.014999999638,6.977362e-06,531.014999999638,1.214213e-05,531.014999999638,1.565593e-05,531.014999999638,3.104077e-06
531.029999999638,7.115304e-06,531.029999999638,1.115913e-05,531.029999999638,1.615543e-05,531.029999999638,3.135683e-06
531.044999999638,7.063642e-06,531.044999999638,1.09938e-05,531.044999999638,1.618331e-05,531.044999999638,3.085871e-06
531.059999999638,5.647323e-06,531.059999999638,1.060643e-05,531.059999999638,1.56829e-05,531.059999999638,3.104077e-06
531.074999999638,5.674694e-06,531.074999999638,1.107169e-05,531.074999999638,1.428889e-05,531.074999999638,3.153601e-06
531.0899999996379,5.659781e-06,531.0899999996379,1.151818e-05,531.0899999996379,1.3547e-05,531.0899999996379,3.158065e-06
531.1049999996379,5.669728e-06,531.1049999996379,1.169658e-05,531.1049999996379,1.378307e-05,531.1049999996379,3.166973e-06
531.1199999996379,5.639834e-06,531.1199999996379,1.145563e-05,531.1199999996379,1.406633e-05,531.1199999996379,3.158065e-06
531.1349999996379,5.559333e-06,531.1349999996379,1.227711e-05,531.1349999996379,1.408534e-05,531.1349999996379,3.011947e-06
531.1499999996379,5.644828e-06,531.1499999996379,1.210611e-05,531.1499999996379,1.395876e-05,531.1499999996379,2.983753e-06
531.1649999996379,5.549188e-06,531.1649999996379,1.208631e-05,531.1649999996379,1.365885e-05,531.1649999996379,2.912075e-06
531.1799999996379,5.753582e-06,531.1799999996379,1.21896e-05,531.1799999996379,1.391834e-05,531.1799999996379,2.882905e-06
531.1949999996378,5.960421e-06,531.1949999996378,1.228744e-05,531.1949999996378,1.380758e-05,531.1949999996378,2.828646e-06
531.2099999996378,5.974584e-06,531.2099999996378,1.325371e-05,531.2099999996378,1.322179e-05,531.2099999996378,2.818668e-06
531.2249999996378,5.939112e-06,531.2249999996378,1.425928e-05,531.2249999996378,1.301238e-05,531.2249999996378,2.873116e-06
531.2399999996378,6.102884e-06,531.2399999996378,1.450027e-05,531.2399999996378,1.389504e-05,531.2399999996378,2.882905e-06
531.2549999996378,6.114414e-06,531.2549999996378,1.437734e-05,531.2549999996378,1.359682e-05,531.2549999996378,2.988471e-06
531.2699999996378,6.369431e-06,531.2699999996378,1.445941e-05,531.2699999996378,1.322392e-05,531.2699999996378,2.848496e-06
531.2849999996378,6.095956e-06,531.2849999996378,1.497814e-05,531.2849999996378,1.229087e-05,531.2849999996378,2.737538e-06
531.2999999996377,5.972226e-06,531.2999999996377,1.513717e-05,531.2999999996377,1.198096e-05,531.2999999996377,2.732388e-06
531.3149999996377,6.275856e-06,531.3149999996377,1.51083e-05,531.3149999996377,1.177819e-05,531.3149999996377,2.732388e-06
531.3299999996377,6.309435e-06,531.3299999996377,1.518456e-05,531.3299999996377,1.232521e-05,531.3299999996377,2.716877e-06
531.3449999996377,6.287069e-06,531.3449999996377,1.56865e-05,531.3449999996377,1.215952e-05,531.3449999996377,2.818668e-06
531.3599999996377,6.338393e-06,531.3599999996377,1.555936e-05,531.3599999996377,1.176981e-05,531.3599999996377,2.873116e-06
531.3749999996377,6.448557e-06,531.3749999996377,1.624413e-05,531.3749999996377,1.147652e-05,531.3749999996377,3.01662e-06
531.3899999996377,6.470365e-06,531.3899999996377,1.537631e-05,531.3899999996377,1.130213e-05,531.3899999996377,3.039879e-06
531.4049999996377,6.470365e-06,531.4049999996377,1.578229e-05,531.4049999996377,1.130337e-05,531.4049999996377,3.039879e-06
531.4199999996376,6.333946e-06,531.4199999996376,1.62883e-05,531.4199999996376,1.09797e-05,531.4199999996376,3.126685e-06
531.4349999996376,6.009847e-06,531.4349999996376,1.585087e-05,531.4349999996376,1.067262e-05,531.4349999996376,3.11314e-06
531.4499999996376,5.915346e-06,531.4499999996376,1.577872e-05,531.4499999996376,1.054916e-05,531.4499999996376,3.11314e-06
531.4649999996376,6.035575e-06,531.4649999996376,1.469712e-05,531.4649999996376,1.088564e-05,531.4649999996376,3.122176e-06
531.4799999996376,6.051891e-06,531.4799999996376,1.350639e-05,531.4799999996376,1.08701e-05,531.4799999996376,3.099535e-06
531.4949999996376,5.879517e-06,531.4949999996376,1.388895e-05,531.4949999996376,9.792964e-06,531.4949999996376,3.144655e-06
531.5099999996376,5.898653e-06,531.5099999996376,1.389098e-05,531.5099999996376,9.751159e-06,531.5099999996376,3.081303e-06
531.5249999996375,5.624828e-06,531.5249999996375,1.361236e-05,531.5249999996375,9.743934e-06,531.5249999996375,3.122176e-06
531.5399999996375,5.657291e-06,531.5399999996375,1.307825e-05,531.5399999996375,9.442919e-06,531.5399999996375,3.135683e-06
531.5549999996375,5.544109e-06,531.5549999996375,1.284897e-05,531.5549999996375,9.580649e-06,531.5549999996375,3.094987e-06
531.5699999996375,5.110451e-06,531.5699999996375,1.274439e-05,531.5699999996375,9.407047e-06,531.5699999996375,3.062961e-06
531.5849999996375,5.088352e-06,531.5849999996375,1.233892e-05,531.5849999996375,8.614445e-06,531.5849999996375,3.039879e-06
531.5999999996375,5.015856e-06,531.5999999996375,1.190665e-05,531.5999999996375,8.76681e-06,531.5999999996375,3.030597e-06
531.6149999996375,4.864733e-06,531.6149999996375,1.164225e-05,531.6149999996375,8.806888e-06,531.6149999996375,2.907234e-06
531.6299999996374,4.774123e-06,531.6299999996374,1.048621e-05,531.6299999996374,9.020237e-06,531.6299999996374,2.838588e-06
531.6449999996374,4.627284e-06,531.6449999996374,1.032784e-05,531.6449999996374,9.497953e-06,531.6449999996374,2.833621e-06
531.6599999996374,4.687774e-06,531.6599999996374,9.972562e-06,531.6599999996374,9.914478e-06,531.6599999996374,2.773325e-06
531.6749999996374,4.925167e-06,531.6749999996374,9.384559e-06,531.6749999996374,9.430977e-06,531.6749999996374,2.763147e-06
531.6899999996374,4.774123e-06,531.6899999996374,1.01184e-05,531.6899999996374,9.426494e-06,531.6899999996374,2.722057e-06
531.7049999996374,4.565993e-06,531.7049999996374,1.016562e-05,531.7049999996374,8.790878e-06,531.7049999996374,2.706488e-06
531.7199999996374,4.325173e-06,531.7199999996374,1.018915e-05,531.7199999996374,8.447671e-06,531.7199999996374,2.778399e-06
531.7349999996374,4.17604e-06,531.7349999996374,1.03101e-05,531.7349999996374,8.449338e-06,531.7349999996374,2.752932e-06
531.7499999996373,4.114875e-06,531.7499999996373,1.056251e-05,531.7499999996373,8.46433e-06,531.7499999996373,2.793568e-06
531.7649999996373,3.786851e-06,531.7649999996373,1.061306e-05,531.7649999996373,7.896054e-06,531.7649999996373,2.768241e-06
531.7799999996373,3.745709e-06,531.7799999996373,1.061041e-05,531.7799999996373,7.766543e-06,531.7799999996373,2.727227e-06
531.7949999996373,3.654337e-06,531.7949999996373,1.056517e-05,531.7949999996373,7.773794e-06,531.7949999996373,2.778399e-06
531.8099999996373,3.603876e-06,531.8099999996373,1.055584e-05,531.8099999996373,7.320229e-06,531.8099999996373,2.828646e-06
531.8249999996373,3.59605e-06,531.8249999996373,1.003452e-05,531.8249999996373,7.38918e-06,531.8249999996373,2.912075e-06
531.8399999996373,3.572469e-06,531.8399999996373,9.375548e-06,531.8399999996373,7.446153e-06,531.8399999996373,2.887788e-06
531.8549999996372,3.468433e-06,531.8549999996372,9.088692e-06,531.8549999996372,7.385367e-06,531.8549999996372,2.931361e-06
531.8699999996372,3.423466e-06,531.8699999996372,8.995216e-06,531.8699999996372,7.508323e-06,531.8699999996372,2.916909e-06
531.8849999996372,3.241707e-06,531.8849999996372,9.910215e-06,531.8849999996372,8.007658e-06,531.8849999996372,2.997883e-06
531.8999999996372,3.29344e-06,531.8999999996372,9.813081e-06,531.8999999996372,1.245934e-05,531.8999999996372,2.997883e-06
531.9149999996372,3.215529e-06,531.9149999996372,1.057184e-05,531.9149999996372,3.753411e-05,531.9149999996372,3.202359e-06
531.9299999996372,2.828646e-06,531.9299999996372,1.091924e-05,531.9299999996372,4.852992e-05,531.9299999996372,3.419349e-06
531.9449999996372,2.808655e-06,531.9449999996372,1.108314e-05,531.9449999996372,4.979242e-05,531.9449999996372,3.853228e-06
531.9599999996371,3.081303e-06,531.9599999996371,1.171944e-05,531.9599999996371,5.845107e-05,531.9599999996371,4.045829e-06
531.9749999996371,3.36955e-06,531.9749999996371,1.203843e-05,531.9749999996371,6.982448e-05,531.9749999996371,4.29576e-06
531.9899999996371,3.615583e-06,531.9899999996371,1.230805e-05,531.9899999996371,7.56974e-05,531.9899999996371,4.216325e-06
532.0049999996371,4.572159e-06,532.0049999996371,1.186873e-05,532.0049999996371,7.626306e-05,532.0049999996371,4.266145e-06
532.0199999996371,5.368553e-06,532.0199999996371,1.179014e-05,532.0199999996371,7.706858e-05,532.0199999996371,4.405843e-06
532.0349999996371,8.02523e-06,532.0349999996371,1.177819e-05,532.0349999996371,7.947161e-05,532.0349999996371,4.488202e-06
532.0499999996371,1.053714e-05,532.0499999996371,1.193619e-05,532.0499999996371,8.217982e-05,532.0499999996371,4.535037e-06
532.064999999637,1.134442e-05,532.064999999637,1.209447e-05,532.064999999637,8.296694e-05,532.064999999637,4.590608e-06
532.079999999637,1.156334e-05,532.079999999637,1.210494e-05,532.079999999637,8.302686e-05,532.079999999637,4.572159e-06
532.094999999637,1.482974e-05,532.094999999637,1.21711e-05,532.094999999637,8.298834e-05,532.094999999637,4.550541e-06
532.109999999637,1.524936e-05,532.109999999637,1.271229e-05,532.109999999637,8.311131e-05,532.109999999637,4.569077e-06
532.124999999637,1.618853e-05,532.124999999637,1.253262e-05,532.124999999637,8.313131e-05,532.124999999637,4.544346e-06
532.139999999637,1.854487e-05,532.139999999637,1.203375e-05,532.139999999637,8.308775e-05,532.139999999637,4.581393e-06
532.154999999637,2.067205e-05,532.154999999637,1.224724e-05,532.154999999637,8.112763e-05,532.154999999637,4.744526e-06
532.169999999637,2.253372e-05,532.169999999637,1.127842e-05,532.169999999637,6.996978e-05,532.169999999637,4.645514e-06
532.184999999637,2.437169e-05,532.184999999637,1.113259e-05,532.184999999637,6.45694e-05,532.184999999637,4.494475e-06
532.1999999996369,2.654619e-05,532.1999999996369,1.16483e-05,532.1999999996369,6.350826e-05,532.1999999996369,4.444044e-06
532.2149999996369,2.784224e-05,532.2149999996369,1.300913e-05,532.2149999996369,5.561005e-05,532.2149999996369,4.39624e-06
532.2299999996369,2.836007e-05,532.2299999996369,1.274328e-05,532.2299999996369,4.134239e-05,532.2299999996369,4.347911e-06
532.2449999996369,2.843943e-05,532.2449999996369,1.296031e-05,532.2449999996369,3.138556e-05,532.2449999996369,4.639445e-06
532.2599999996369,3.196107e-05,532.2599999996369,1.323031e-05,532.2599999996369,3.047238e-05,532.2599999996369,4.636408e-06
532.2749999996369,3.286546e-05,532.2749999996369,1.355012e-05,532.2749999996369,2.903113e-05,532.2749999996369,4.858938e-06
532.2899999996368,3.232264e-05,532.2899999996368,1.355324e-05,532.2899999996368,2.199145e-05,532.2899999996368,4.922306e-06
532.3049999996368,3.23052e-05,532.3049999996368,1.37575e-05,532.3049999996368,1.447207e-05,532.3049999996368,5.331691e-06
532.3199999996368,3.251946e-05,532.3199999996368,1.419493e-05,532.3199999996368,1.141128e-05,532.3199999996368,5.654801e-06
532.3349999996368,3.25108e-05,532.3349999996368,1.436754e-05,532.3349999996368,1.105259e-05,532.3349999996368,5.790191e-06
532.3499999996368,3.157128e-05,532.3499999996368,1.466065e-05,532.3499999996368,1.092181e-05,532.3499999996368,6.273611e-06
532.3649999996368,3.160963e-05,532.3649999996368,1.576443e-05,532.3649999996368,1.070557e-05,532.3649999996368,6.505105e-06
532.3799999996368,3.118249e-05,532.3799999996368,1.93973e-05,532.3799999996368,1.015731e-05,532.3799999996368,6.595429e-06
532.3949999996368,2.995063e-05,532.3949999996368,2.200042e-05,532.3949999996368,1.012118e-05,532.3949999996368,6.667651e-06
532.4099999996367,2.814967e-05,532.4099999996367,2.386708e-05,532.4099999996367,9.637821e-06,532.4099999996367,6.505105e-06
532.4249999996367,2.79916e-05,532.4249999996367,2.561173e-05,532.4249999996367,9.592404e-06,532.4249999996367,6.391509e-06
532.4399999996367,2.583079e-05,532.4399999996367,3.578418e-05,532.4399999996367,9.662636e-06,532.4399999996367,6.293787e-06
532.4549999996367,2.451806e-05,532.4549999996367,5.102589e-05,532.4549999996367,8.995216e-06,532.4549999996367,6.703471e-06
532.4699999996367,2.459435e-05,532.4699999996367,5.231164e-05,532.4699999996367,8.966984e-06,532.4699999996367,6.737009e-06
532.4849999996367,2.421338e-05,532.4849999996367,5.5292e-05,532.4849999996367,8.721702e-06,532.4849999996367,6.747456e-06
532.4999999996367,2.431324e-05,532.4999999996367,5.843757e-05,532.4999999996367,8.699061e-06,532.4999999996367,6.780777e-06
532.5149999996366,1.827323e-05,532.5149999996366,6.62003e-05,532.5149999996366,8.517419e-06,532.5149999996366,6.947012e-06
532.5299999996366,1.744583e-05,532.5299999996366,7.16842e-05,532.5299999996366,1.011004e-05,532.5299999996366,6.955118e-06
532.5449999996366,1.724687e-05,532.5449999996366,7.666228e-05,532.5449999996366,1.101045e-05,532.5449999996366,6.981399e-06
532.5599999996366,1.819133e-05,532.5599999996366,8.153345e-05,532.5599999996366,1.172665e-05,532.5599999996366,6.890002e-06
532.5749999996366,1.75095e-05,532.5749999996366,9.137321e-05,532.5749999996366,1.485347e-05,532.5749999996366,6.912455e-06
532.5899999996366,1.843134e-05,532.5899999996366,9.430424e-05,532.5899999996366,1.554306e-05,532.5899999996366,7.015617e-06
532.6049999996366,1.929098e-05,532.6049999996366,9.523769e-05,532.6049999996366,1.638229e-05,532.6049999996366,6.826328e-06
532.6199999996365,1.978415e-05,532.6199999996365,9.817043e-05,532.6199999996365,1.705219e-05,532.6199999996365,6.644371e-06
532.6349999996365,2.071562e-05,532.6349999996365,0.0001007781,532.6349999996365,1.904849e-05,532.6349999996365,6.920602e-06
532.6499999996365,2.311449e-05,532.6499999996365,0.0001049387,532.6499999996365,2.002548e-05,532.6499999996365,7.495178e-06
532.6649999996365,2.393544e-05,532.6649999996365,0.0001060414,532.6649999996365,2.137229e-05,532.6649999996365,7.644054e-06
532.6799999996365,2.39954e-05,532.6799999996365,0.0001090044,532.6799999996365,2.380147e-05,532.6799999996365,7.949394e-06
532.6949999996365,2.416155e-05,532.6949999996365,0.0001035286,532.6949999996365,2.482978e-05,532.6949999996365,7.931653e-06
532.7099999996365,2.323727e-05,532.7099999996365,0.0001014409,532.7099999996365,2.697155e-05,532.7099999996365,8.200599e-06
532.7249999996365,2.313338e-05,532.7249999996365,0.0001024146,532.7249999996365,2.731356e-05,532.7249999996365,8.37566e-06
532.7399999996364,2.409324e-05,532.7399999996364,0.0001013132,532.7399999996364,2.777487e-05,532.7399999996364,8.927624e-06
532.7549999996364,2.414813e-05,532.7549999996364,9.934478e-05,532.7549999996364,2.878749e-05,532.7549999996364,9.122726e-06
532.7699999996364,2.407335e-05,532.7699999996364,9.702325e-05,532.7699999996364,2.947559e-05,532.7699999996364,9.268258e-06
532.7849999996364,2.400185e-05,532.7849999996364,9.456826e-05,532.7849999996364,2.90287e-05,532.7849999996364,1.008773e-05
532.7999999996364,2.288051e-05,532.7999999996364,9.336205e-05,532.7999999996364,2.929582e-05,532.7999999996364,1.019468e-05
532.8149999996364,2.298309e-05,532.8149999996364,8.895661e-05,532.8149999996364,2.90481e-05,532.8149999996364,1.029095e-05
532.8299999996364,2.341422e-05,532.8299999996364,8.160011e-05,532.8299999996364,2.806949e-05,532.8299999996364,1.032648e-05
532.8449999996363,2.333286e-05,532.8449999996363,7.899139e-05,532.8449999996363,2.764931e-05,532.8449999996363,1.047949e-05
532.8599999996363,2.286326e-05,532.8599999996363,7.730984e-05,532.8599999996363,2.733006e-05,532.8599999996363,1.054649e-05
532.8749999996363,2.205861e-05,532.8749999996363,7.394459e-05,532.8749999996363,2.691561e-05,532.8749999996363,1.063428e-05
532.8899999996363,2.838638e-05,532.8899999996363,6.460452e-05,532.8899999996363,2.587602e-05,532.8899999996363,1.040124e-05
532.9049999996363,2.656635e-05,532.9049999996363,6.488301e-05,532.9049999996363,2.550259e-05,532.9049999996363,1.040936e-05
532.9199999996363,2.769716e-05,532.9199999996363,6.287629e-05,532.9199999996363,2.428599e-05,532.9199999996363,1.038633e-05
532.9349999996363,2.76763e-05,532.9349999996363,5.835146e-05,532.9349999996363,2.221198e-05,532.9349999996363,1.018915e-05
532.9499999996362,2.85551e-05,532.9499999996362,5.754464e-05,532.9499999996362,2.104283e-05,532.9499999996362,1.008354e-05
532.9649999996362,2.967231e-05,532.9649999996362,5.528563e-05,532.9649999996362,1.927199e-05,532.9649999996362,9.573294e-06
532.9799999996362,3.045851e-05,532.9799999996362,5.257326e-05,532.9799999996362,1.917526e-05,532.9799999996362,9.392062e-06
532.9949999996362,3.033803e-05,532.9949999996362,5.318305e-05,532.9949999996362,1.842523e-05,532.9949999996362,9.185817e-06
533.0099999996362,3.192579e-05,533.0099999996362,4.993423e-05,533.0099999996362,1.708933e-05,533.0099999996362,8.845193e-06
533.0249999996362,3.256146e-05,533.0249999996362,4.691589e-05,533.0249999996362,1.598538e-05,533.0249999996362,8.424293e-06
533.0399999996362,3.359963e-05,533.0399999996362,4.564049e-05,533.0399999996362,1.590942e-05,533.0399999996362,7.603404e-06
533.0549999996362,3.36909e-05,533.0549999996362,4.300316e-05,533.0549999996362,1.548676e-05,533.0549999996362,7.308674e-06
533.0699999996361,3.380569e-05,533.0699999996361,4.221333e-05,533.0699999996361,1.461542e-05,533.0699999996361,7.270023e-06
533.0849999996361,3.319089e-05,533.0849999996361,3.773212e-05,533.0849999996361,1.429185e-05,533.0849999996361,7.057657e-06
533.0999999996361,3.313312e-05,533.0999999996361,3.737426e-05,533.0999999996361,1.419889e-05,533.0999999996361,6.947012e-06
533.1149999996361,3.316201e-05,533.1149999996361,3.709696e-05,533.1149999996361,1.397187e-05,533.1149999996361,7.472591e-06
533.1299999996361,3.227466e-05,533.1299999996361,3.554839e-05,533.1299999996361,1.377387e-05,533.1299999996361,7.887128e-06
533.1449999996361,2.731047e-05,533.1449999996361,3.630126e-05,533.1449999996361,1.281164e-05,533.1449999996361,1.259093e-05
533.159999999636,2.626827e-05,533.159999999636,3.306971e-05,533.159999999636,1.246839e-05,533.159999999636,1.423358e-05
533.174999999636,2.473428e-05,533.174999999636,3.270865e-05,533.174999999636,1.21096e-05,533.174999999636,1.86562e-05
533.189999999636,2.417554e-05,533.189999999636,3.298398e-05,533.189999999636,1.123211e-05,533.189999999636,2.032986e-05
533.204999999636,2.249681e-05,533.204999999636,3.203283e-05,533.204999999636,1.034284e-05,533.204999999636,2.265529e-05
533.219999999636,2.359402e-05,533.219999999636,3.130242e-05,533.219999999636,9.932932e-06,533.219999999636,2.708101e-05
533.234999999636,2.430686e-05,533.234999999636,3.098581e-05,533.234999999636,1.019468e-05,533.234999999636,3.138153e-05
533.249999999636,2.450599e-05,533.249999999636,2.987009e-05,533.249999999636,1.207232e-05,533.249999999636,3.95626e-05
533.264999999636,3.649399e-05,533.264999999636,2.923421e-05,533.264999999636,1.537814e-05,533.264999999636,4.052126e-05
533.279999999636,6.918138e-05,533.279999999636,2.9499e-05,533.279999999636,2.153971e-05,533.279999999636,4.068328e-05
533.2949999996359,7.755616e-05,533.2949999996359,2.865507e-05,533.2949999996359,3.087787e-05,533.2949999996359,4.086017e-05
533.3099999996359,7.828292e-05,533.3099999996359,2.787106e-05,533.3099999996359,3.267374e-05,533.3099999996359,4.09356e-05
533.3249999996359,8.027652e-05,533.3249999996359,3.011245e-05,533.3249999996359,3.919199e-05,533.3249999996359,4.103562e-05
533.3399999996359,8.21433e-05,533.3399999996359,3.823427e-05,533.3399999996359,4.161138e-05,533.3399999996359,4.140436e-05
533.3549999996359,8.309199e-05,533.3549999996359,4.460402e-05,533.3549999996359,4.62835e-05,533.3549999996359,4.171518e-05
533.3699999996359,8.361656e-05,533.3699999996359,4.736145e-05,533.3699999996359,4.725694e-05,533.3699999996359,4.191125e-05
533.3849999996359,8.368223e-05,533.3849999996359,5.277117e-05,533.3849999996359,4.755942e-05,533.3849999996359,4.181603e-05
533.3999999996358,8.394208e-05,533.3999999996358,5.285652e-05,533.3999999996358,4.883e-05,533.3999999996358,4.079289e-05
533.4149999996358,8.439345e-05,533.4149999996358,5.369103e-05,533.4149999996358,5.043164e-05,533.4149999996358,4.101811e-05
533.4299999996358,8.478165e-05,533.4299999996358,5.433055e-05,533.4299999996358,5.065878e-05,533.4299999996358,3.948776e-05
533.4449999996358,8.504658e-05,533.4449999996358,5.517519e-05,533.4449999996358,5.092226e-05,533.4449999996358,3.93072e-05
533.4599999996358,8.521883e-05,533.4599999996358,5.611213e-05,533.4599999996358,5.231433e-05,533.4599999996358,3.736296e-05
533.4749999996358,8.43806e-05,533.4749999996358,5.579062e-05,533.4749999996358,5.232375e-05,533.4749999996358,3.594914e-05
533.4899999996358,8.429542e-05,533.4899999996358,5.585649e-05,533.4899999996358,5.231972e-05,533.4899999996358,2.709089e-05
533.5049999996357,8.410587e-05,533.5049999996357,5.980405e-05,533.5049999996357,5.167385e-05,533.5049999996357,2.452782e-05
533.5199999996357,6.790886e-05,533.5199999996357,6.084761e-05,533.5199999996357,5.085195e-05,533.5199999996357,2.372085e-05
533.5349999996357,4.16716e-05,533.5349999996357,6.096579e-05,533.5349999996357,4.682182e-05,533.5349999996357,2.358924e-05
533.5499999996357,3.742963e-05,533.5499999996357,6.246044e-05,533.5499999996357,4.341719e-05,533.5499999996357,2.378845e-05
533.5649999996357,3.632763e-05,533.5649999996357,6.236181e-05,533.5649999996357,4.192335e-05,533.5649999996357,2.368043e-05
533.5799999996357,2.688052e-05,533.5799999996357,6.044857e-05,533.5799999996357,3.430208e-05,533.5799999996357,2.302228e-05
533.5949999996357,2.583516e-05,533.5949999996357,5.552614e-05,533.5949999996357,2.90767e-05,533.5949999996357,2.27756e-05
533.6099999996356,2.264286e-05,533.6099999996356,5.354838e-05,533.6099999996356,2.522267e-05,533.6099999996356,2.23517e-05
533.6249999996356,2.226772e-05,533.6249999996356,5.018496e-05,533.6249999996356,2.45439e-05,533.6249999996356,2.188293e-05
533.6399999996356,2.286819e-05,533.6399999996356,4.809166e-05,533.6399999996356,2.404525e-05,533.6399999996356,2.129041e-05
533.6549999996356,2.676393e-05,533.6549999996356,4.886604e-05,533.6549999996356,2.086873e-05,533.6549999996356,2.053943e-05
533.6699999996356,2.631274e-05,533.6699999996356,4.83502e-05,533.6699999996356,1.752237e-05,533.6699999996356,1.931506e-05
533.6849999996356,2.611391e-05,533.6849999996356,4.706847e-05,533.6849999996356,1.719451e-05,533.6849999996356,1.854411e-05
533.6999999996356,2.930256e-05,533.6999999996356,4.730878e-05,533.6999999996356,1.66069e-05,533.6999999996356,1.615543e-05
533.7149999996356,2.932754e-05,533.7149999996356,4.75046e-05,533.7149999996356,1.25831e-05,533.7149999996356,1.401918e-05
533.7299999996355,2.923277e-05,533.7299999996355,4.817829e-05,533.7299999996355,1.229431e-05,533.7299999996355,1.15304e-05
533.7449999996355,3.03617e-05,533.7449999996355,4.979723e-05,533.7449999996355,1.246387e-05,533.7449999996355,1.164467e-05
533.7599999996355,3.171107e-05,533.7599999996355,4.421195e-05,533.7599999996355,1.248419e-05,533.7599999996355,1.077639e-05
533.7749999996355,3.306928e-05,533.7749999996355,4.407281e-05,533.7749999996355,1.186992e-05,533.7749999996355,9.707725e-06
533.7899999996355,3.390679e-05,533.7899999996355,4.478556e-05,533.7899999996355,1.159861e-05,533.7899999996355,9.890295e-06
533.8049999996355,3.410893e-05,533.8049999996355,4.32426e-05,533.8049999996355,1.164346e-05,533.8049999996355,8.550433e-06
533.8199999996355,3.413577e-05,533.8199999996355,4.367049e-05,533.8199999996355,1.163015e-05,533.8199999996355,8.470984e-06
533.8349999996354,3.434189e-05,533.8349999996354,4.215255e-05,533.8349999996354,1.165193e-05,533.8349999996354,8.304722e-06
533.8499999996354,3.446227e-05,533.8499999996354,3.937165e-05,533.8499999996354,1.16156e-05,533.8499999996354,8.117728e-06
533.8649999996354,3.471762e-05,533.8649999996354,3.94792e-05,533.8649999996354,1.135683e-05,533.8649999996354,7.761099e-06
533.8799999996354,3.434681e-05,533.8799999996354,4.1454e-05,533.8799999996354,1.117049e-05,533.8799999996354,7.667973e-06
533.8949999996354,3.059786e-05,533.8949999996354,4.190655e-05,533.8949999996354,1.018086e-05,533.8949999996354,7.213613e-06
533.9099999996354,2.983234e-05,533.9099999996354,4.153175e-05,533.9099999996354,9.961255e-06,533.9099999996354,7.201887e-06
533.9249999996354,2.96072e-05,533.9249999996354,4.152361e-05,533.9249999996354,1.003312e-05,533.9249999996354,7.115304e-06
533.9399999996353,2.886665e-05,533.9399999996353,4.227902e-05,533.9399999996353,9.848904e-06,533.9399999996353,7.339447e-06
533.9549999996353,2.526173e-05,533.9549999996353,4.193175e-05,533.9549999996353,8.576751e-06,533.9549999996353,7.184261e-06
533.9699999996353,2.505793e-05,533.9699999996353,4.059488e-05,533.9699999996353,8.095138e-06,533.9699999996353,6.724452e-06
533.9849999996353,2.503206e-05,533.9849999996353,4.047221e-05,533.9849999996353,7.947621e-06,533.9849999996353,6.526725e-06
533.9999999996353,2.436417e-05,533.9999999996353,4.134955e-05,533.9999999996353,7.768356e-06,533.9999999996353,6.21269e-06
534.0149999996353,2.187971e-05,534.0149999996353,4.223268e-05,534.0149999996353,7.176414e-06,534.0149999996353,6.139704e-06
534.0299999996353,2.166491e-05,534.0299999996353,4.275875e-05,534.0299999996353,7.001547e-06,534.0299999996353,5.901041e-06
534.0449999996353,2.126392e-05,534.0449999996353,4.440271e-05,534.0449999996353,6.638008e-06,534.0449999996353,5.627332e-06
534.0599999996352,2.29978e-05,534.0599999996352,4.552181e-05,534.0599999996352,6.563313e-06,534.0599999996352,6.914493e-06
534.0749999996352,2.430802e-05,534.0749999996352,4.709271e-05,534.0749999996352,6.805661e-06,534.0749999996352,6.838698e-06
534.0899999996352,2.519137e-05,534.0899999996352,4.754165e-05,534.0899999996352,7.125195e-06,534.0899999996352,6.787006e-06
534.1049999996352,2.552688e-05,534.1049999996352,5.186759e-05,534.1049999996352,7.105398e-06,534.1049999996352,6.665538e-06
534.1199999996352,2.486096e-05,534.1199999996352,5.342987e-05,534.1199999996352,6.707672e-06,534.1199999996352,7.350954e-06
534.1349999996352,2.485699e-05,534.1349999996352,4.915318e-05,534.1349999996352,6.764137e-06,534.1349999996352,7.497057e-06
534.1499999996352,2.479458e-05,534.1499999996352,4.902146e-05,534.1499999996352,6.797376e-06,534.1499999996352,7.489538e-06
534.1649999996351,2.460065e-05,534.1649999996351,5.006665e-05,534.1649999996351,6.789081e-06,534.1649999996351,7.904969e-06
534.1799999996351,2.407452e-05,534.1799999996351,4.936879e-05,534.1799999996351,6.571893e-06,534.1799999996351,7.851327e-06
534.1949999996351,2.383045e-05,534.1949999996351,4.849652e-05,534.1949999996351,6.459471e-06,534.1949999996351,8.070739e-06
534.2099999996351,2.3834e-05,534.2099999996351,4.862793e-05,534.2099999996351,6.474718e-06,534.2099999996351,8.606265e-06
534.2249999996351,2.515724e-05,534.2249999996351,4.986083e-05,534.2249999996351,6.494269e-06,534.2249999996351,8.838821e-06
534.2399999996351,2.471776e-05,534.2399999996351,4.926711e-05,534.2399999996351,6.400318e-06,534.2399999996351,9.003043e-06
534.2549999996351,2.58869e-05,534.2549999996351,4.887209e-05,534.2549999996351,6.371642e-06,534.2549999996351,9.245431e-06
534.269999999635,2.659338e-05,534.269999999635,4.852933e-05,534.269999999635,6.711871e-06,534.269999999635,9.645126e-06
534.284999999635,2.693706e-05,534.284999999635,4.909813e-05,534.284999999635,7.135074e-06,534.284999999635,9.949936e-06
534.299999999635,2.711116e-05,534.299999999635,4.669559e-05,534.299999999635,7.442368e-06,534.299999999635,9.792964e-06
534.314999999635,2.60934e-05,534.314999999635,4.527078e-05,534.314999999635,7.691819e-06,534.314999999635,8.985815e-06
534.329999999635,2.619201e-05,534.329999999635,4.518107e-05,534.329999999635,8.43766e-06,534.329999999635,9.015552e-06
534.344999999635,2.550977e-05,534.344999999635,4.140436e-05,534.344999999635,8.395818e-06,534.344999999635,9.0374e-06
534.359999999635,2.517739e-05,534.359999999635,4.094249e-05,534.359999999635,8.429308e-06,534.359999999635,9.05764e-06
534.374999999635,2.495428e-05,534.374999999635,4.08781e-05,534.374999999635,8.291141e-06,534.374999999635,8.596438e-06
534.3899999996349,2.471377e-05,534.3899999996349,4.102978e-05,534.3899999996349,8.528988e-06,534.3899999996349,8.42262e-06
534.4049999996349,2.525894e-05,534.4049999996349,4.165198e-05,534.4049999996349,8.878575e-06,534.4049999996349,8.55208e-06
534.4199999996349,2.61247e-05,534.4199999996349,4.020996e-05,534.4199999996349,9.298606e-06,534.4199999996349,8.205751e-06
534.4349999996349,2.624091e-05,534.4349999996349,4.063373e-05,534.4349999996349,9.480139e-06,534.4349999996349,7.869248e-06
534.4499999996349,2.646648e-05,534.4499999996349,4.115765e-05,534.4499999996349,9.67866e-06,534.4499999996349,7.85312e-06
534.4649999996349,2.598196e-05,534.4649999996349,4.138156e-05,534.4649999996349,9.675749e-06,534.4649999996349,7.42721e-06
534.4799999996349,2.443864e-05,534.4799999996349,3.933872e-05,534.4799999996349,9.811646e-06,534.4799999996349,7.142966e-06
534.4949999996348,2.391248e-05,534.4949999996348,3.9115e-05,534.4949999996348,9.752604e-06,534.4949999996348,7.125195e-06
534.5099999996348,2.215356e-05,534.5099999996348,3.78164e-05,534.5099999996348,9.629048e-06,534.5099999996348,6.995509e-06
534.5249999996348,1.965414e-05,534.5249999996348,3.770635e-05,534.5249999996348,9.363521e-06,534.5249999996348,5.939112e-06
534.5399999996348,1.869693e-05,534.5399999996348,3.715501e-05,534.5399999996348,9.006171e-06,534.5399999996348,5.929618e-06
534.5549999996348,1.762257e-05,534.5549999996348,3.755962e-05,534.5549999996348,8.768416e-06,534.5549999996348,5.869926e-06
534.5699999996348,1.701829e-05,534.5699999996348,3.70198e-05,534.5699999996348,8.28094e-06,534.5699999996348,6.442001e-06
534.5849999996348,1.541108e-05,534.5849999996348,3.67992e-05,534.5849999996348,7.545752e-06,534.5849999996348,6.971302e-06
534.5999999996347,1.461542e-05,534.5999999996347,3.677431e-05,534.5999999996347,7.379642e-06,534.5999999996347,7.063642e-06
534.6149999996347,1.387272e-05,534.6149999996347,3.534572e-05,534.6149999996347,7.345202e-06,534.6149999996347,8.598076e-06
534.6299999996347,1.361236e-05,534.6299999996347,3.613713e-05,534.6299999996347,7.015617e-06,534.6299999996347,9.730914e-06
534.6449999996347,1.339748e-05,534.6449999996347,3.67858e-05,534.6449999996347,6.776621e-06,534.6449999996347,1.139275e-05
534.6599999996347,1.247629e-05,534.6599999996347,3.616207e-05,534.6599999996347,6.697164e-06,534.6599999996347,1.553127e-05
534.6749999996347,1.06845e-05,534.6749999996347,3.999499e-05,534.6749999996347,6.072803e-06,534.6749999996347,1.919068e-05
534.6899999996347,1.002609e-05,534.6899999996347,4.015738e-05,534.6899999996347,5.857914e-06,534.6899999996347,2.012512e-05
534.7049999996347,9.490535e-06,534.7049999996347,4.040323e-05,534.7049999996347,5.677176e-06,534.7049999996347,2.201642e-05
534.7199999996346,9.21338e-06,534.7199999996346,4.030025e-05,534.7199999996346,5.632336e-06,534.7199999996346,2.680758e-05
534.7349999996346,8.561957e-06,534.7349999996346,4.020576e-05,534.7349999996346,6.021555e-06,534.7349999996346,3.123935e-05
534.7499999996346,8.336888e-06,534.7499999996346,3.971329e-05,534.7499999996346,6.371642e-06,534.7499999996346,3.240925e-05
534.7649999996346,9.026482e-06,534.7649999996346,4.012475e-05,534.7649999996346,1.213981e-05,534.7649999996346,3.729087e-05
534.7799999996346,9.349971e-06,534.7799999996346,4.143361e-05,534.7799999996346,1.437832e-05,534.7799999996346,4.187528e-05
534.7949999996346,1.044314e-05,534.7949999996346,5.788828e-05,534.7949999996346,2.066864e-05,534.7949999996346,4.235625e-05
534.8099999996346,1.319726e-05,534.8099999996346,6.251095e-05,534.8099999996346,2.307912e-05,534.8099999996346,4.235193e-05
534.8249999996345,1.336801e-05,534.8249999996345,6.566574e-05,534.8249999996345,2.498249e-05,534.8249999996345,4.244861e-05
534.8399999996345,1.577961e-05,534.8399999996345,6.828969e-05,534.8399999996345,2.735737e-05,534.8399999996345,4.252818e-05
534.8549999996345,1.674375e-05,534.8549999996345,6.858177e-05,534.8549999996345,2.829741e-05,534.8549999996345,4.249404e-05
534.8699999996345,1.726809e-05,534.8699999996345,6.868501e-05,534.8699999996345,3.023617e-05,534.8699999996345,4.265452e-05
534.8849999996345,1.762337e-05,534.8849999996345,7.255748e-05,534.8849999996345,3.043491e-05,534.8849999996345,4.254308e-05
534.8999999996345,1.797555e-05,534.8999999996345,7.322864e-05,534.8999999996345,3.378735e-05,534.8999999996345,4.253712e-05
534.9149999996345,1.952326e-05,534.9149999996345,7.538823e-05,534.9149999996345,3.561293e-05,534.9149999996345,4.168343e-05
534.9299999996344,2.02368e-05,534.9299999996344,7.366268e-05,534.9299999996344,3.591503e-05,534.9299999996344,4.090979e-05
534.9449999996344,2.148667e-05,534.9449999996344,7.495479e-05,534.9449999996344,3.628224e-05,534.9449999996344,4.079151e-05
534.9599999996344,2.183073e-05,534.9599999996344,7.813775e-05,534.9599999996344,3.685657e-05,534.9599999996344,4.018579e-05
534.9749999996344,2.197479e-05,534.9749999996344,7.94287e-05,534.9749999996344,3.70981e-05,534.9749999996344,3.618271e-05
534.9899999996344,2.198313e-05,534.9899999996344,8.059316e-05,534.9899999996344,3.723152e-05,534.9899999996344,3.386231e-05
535.0049999996344,2.194721e-05,535.0049999996344,8.149388e-05,535.0049999996344,3.762707e-05,535.0049999996344,3.21097e-05
535.0199999996344,2.171427e-05,535.0199999996344,8.247702e-05,535.0199999996344,3.68168e-05,535.0199999996344,2.402942e-05
535.0349999996344,2.145518e-05,535.0349999996344,8.087652e-05,535.0349999996344,3.572587e-05,535.0349999996344,2.096369e-05
535.0499999996343,2.051953e-05,535.0499999996343,7.024807e-05,535.0499999996343,3.254674e-05,535.0499999996343,2.216309e-05
535.0649999996343,1.936678e-05,535.0649999996343,6.886668e-05,535.0649999996343,3.231043e-05,535.0649999996343,2.24943e-05
535.0799999996343,1.90507e-05,535.0799999996343,6.504326e-05,535.0799999996343,3.144968e-05,535.0799999996343,2.236808e-05
535.0949999996343,1.689701e-05,535.0949999996343,6.552981e-05,535.0949999996343,3.081394e-05,535.0949999996343,2.230248e-05
535.1099999996343,1.620506e-05,535.1099999996343,6.485391e-05,535.1099999996343,3.002203e-05,535.1099999996343,2.170973e-05
535.1249999996343,1.584465e-05,535.1249999996343,6.563034e-05,535.1249999996343,2.857532e-05,535.1249999996343,2.144664e-05
535.1399999996343,1.537356e-05,535.1399999996343,6.29598e-05,535.1399999996343,2.878749e-05,535.1399999996343,2.054011e-05
535.1549999996342,1.462602e-05,535.1549999996342,6.318381e-05,535.1549999996342,2.332078e-05,535.1549999996342,1.983819e-05
535.1699999996342,1.185211e-05,535.1699999996342,6.140117e-05,535.1699999996342,2.20618e-05,535.1699999996342,1.83371e-05
535.1849999996342,1.114398e-05,535.1849999996342,6.284447e-05,535.1849999996342,2.166361e-05,535.1849999996342,1.795281e-05
535.1999999996342,8.429308e-06,535.1999999996342,6.096025e-05,535.1999999996342,2.141114e-05,535.1999999996342,1.692117e-05
535.2149999996342,8.749116e-06,535.2149999996342,5.67174e-05,535.2149999996342,2.048242e-05,535.2149999996342,1.701332e-05
535.2299999996342,9.797278e-06,535.2299999996342,5.351338e-05,535.2299999996342,1.991544e-05,535.2299999996342,1.694363e-05
535.2449999996342,1.137419e-05,535.2449999996342,5.279999e-05,535.2449999996342,1.794418e-05,535.2449999996342,1.668475e-05
535.2599999996341,1.289602e-05,535.2599999996341,5.487181e-05,535.2599999996341,1.773413e-05,535.2599999996341,1.461927e-05
535.2749999996341,1.366091e-05,535.2749999996341,5.433133e-05,535.2749999996341,1.75569e-05,535.2749999996341,1.394058e-05
535.2899999996341,1.592623e-05,535.2899999996341,5.240177e-05,535.2899999996341,1.672776e-05,535.2899999996341,1.268123e-05
535.3049999996341,1.999732e-05,535.3049999996341,5.250945e-05,535.3049999996341,1.511482e-05,535.3049999996341,1.118939e-05
535.3199999996341,2.103279e-05,535.3199999996341,5.22173e-05,535.3199999996341,1.397691e-05,535.3199999996341,1.05705e-05
535.3349999996341,2.169025e-05,535.3349999996341,5.09336e-05,535.3349999996341,1.241404e-05,535.3349999996341,1.008354e-05
535.3499999996341,2.418194e-05,535.3499999996341,5.145147e-05,535.3499999996341,1.188771e-05,535.3499999996341,9.765595e-06
535.364999999634,2.430686e-05,535.364999999634,5.147009e-05,535.364999999634,1.12459e-05,535.364999999634,9.582119e-06
535.379999999634,2.539021e-05,535.379999999634,4.71949e-05,535.379999999634,1.102196e-05,535.379999999634,9.494987e-06
535.394999999634,2.603341e-05,535.394999999634,4.677185e-05,535.394999999634,9.811646e-06,535.394999999634,9.548246e-06
535.409999999634,2.767223e-05,535.409999999634,4.696061e-05,535.409999999634,1.024018e-05,535.409999999634,9.577708e-06
535.424999999634,2.937745e-05,535.424999999634,4.762425e-05,535.424999999634,1.048353e-05,535.424999999634,9.221021e-06
535.439999999634,3.032316e-05,535.439999999634,4.561178e-05,535.439999999634,1.06845e-05,535.439999999634,8.072484e-06
535.454999999634,3.074346e-05,535.454999999634,4.879421e-05,535.454999999634,1.049964e-05,535.454999999634,7.730182e-06
535.469999999634,3.117842e-05,535.469999999634,5.188334e-05,535.469999999634,1.054115e-05,535.469999999634,6.171741e-06
535.4849999996339,3.10988e-05,535.4849999996339,5.209441e-05,535.4849999996339,1.049695e-05,535.4849999996339,6.228541e-06
535.4999999996339,3.078696e-05,535.4999999996339,5.40193e-05,535.4999999996339,1.073448e-05,535.4999999996339,6.439814e-06
535.5149999996339,3.088517e-05,535.5149999996339,5.428697e-05,535.5149999996339,1.064752e-05,535.5149999996339,6.599699e-06
535.5299999996339,3.176743e-05,535.5299999996339,5.476877e-05,535.5299999996339,1.093213e-05,535.5299999996339,6.759971e-06
535.5449999996339,3.47841e-05,535.5449999996339,5.556621e-05,535.5449999996339,1.183545e-05,535.5449999996339,6.813935e-06
535.5599999996339,3.401961e-05,535.5599999996339,5.61174e-05,535.5599999996339,1.183426e-05,535.5599999996339,6.667651e-06
535.5749999996339,3.363231e-05,535.5749999996339,5.683054e-05,535.5749999996339,1.169296e-05,535.5749999996339,7.197973e-06
535.5899999996338,3.333023e-05,535.5899999996338,5.752578e-05,535.5899999996338,1.152551e-05,535.5899999996338,7.62006e-06
535.6049999996338,3.271295e-05,535.6049999996338,5.770622e-05,535.6049999996338,1.119191e-05,535.6049999996338,9.20114e-06
535.6199999996338,3.308461e-05,535.6199999996338,5.809111e-05,535.6199999996338,1.178775e-05,535.6199999996338,9.257612e-06
535.6349999996338,3.25727e-05,535.6349999996338,5.866133e-05,535.6349999996338,1.143594e-05,535.6349999996338,1.084025e-05
535.6499999996338,3.272113e-05,535.6499999996338,5.847734e-05,535.6499999996338,1.149859e-05,535.6499999996338,1.331522e-05
535.6649999996338,3.104349e-05,535.6649999996338,5.914894e-05,535.6649999996338,1.117679e-05,535.6649999996338,1.368049e-05
535.6799999996338,3.106254e-05,535.6799999996338,5.921273e-05,535.6799999996338,1.171703e-05,535.6799999996338,1.383611e-05
535.6949999996338,3.103895e-05,535.6949999996338,6.026489e-05,535.6949999996338,1.20021e-05,535.6949999996338,1.393048e-05
535.7099999996337,3.067695e-05,535.7099999996337,5.481505e-05,535.7099999996337,1.212123e-05,535.7099999996337,1.418897e-05
535.7249999996337,3.034499e-05,535.7249999996337,5.582218e-05,535.7249999996337,1.216067e-05,535.7249999996337,1.429875e-05
535.7399999996337,3.031201e-05,535.7399999996337,5.615881e-05,535.7399999996337,1.199975e-05,535.7399999996337,1.430761e-05
535.7549999996337,3.02548e-05,535.7549999996337,5.322197e-05,535.7549999996337,1.203258e-05,535.7549999996337,1.44282e-05
535.7699999996337,2.974012e-05,535.7699999996337,4.946458e-05,535.7699999996337,1.20513e-05,535.7699999996337,1.43744e-05
535.7849999996337,2.762739e-05,535.7849999996337,4.737989e-05,535.7849999996337,1.140881e-05,535.7849999996337,1.419592e-05
535.7999999996337,2.265467e-05,535.7999999996337,4.571697e-05,535.7999999996337,1.066866e-05,535.7999999996337,1.417407e-05
535.8149999996336,2.20273e-05,535.8149999996336,4.481103e-05,535.8149999996336,1.05505e-05,535.8149999996336,1.407934e-05
535.8299999996336,2.218977e-05,535.8299999996336,4.44433e-05,535.8299999996336,1.055984e-05,535.8299999996336,1.383408e-05
535.8449999996336,2.126723e-05,535.8449999996336,4.319436e-05,535.8449999996336,1.044179e-05,535.8449999996336,1.359268e-05
535.8599999996336,2.059627e-05,535.8599999996336,4.149918e-05,535.8599999996336,1.041207e-05,535.8599999996336,1.268678e-05
535.8749999996336,2.007676e-05,535.8749999996336,4.139892e-05,535.8749999996336,9.778569e-06,535.8749999996336,1.253487e-05
535.8899999996336,1.977275e-05,535.8899999996336,4.13802e-05,535.8899999996336,9.700467e-06,535.8899999996336,8.770023e-06
535.9049999996336,1.741997e-05,535.9049999996336,3.899236e-05,535.9049999996336,9.316767e-06,535.9049999996336,8.105571e-06
535.9199999996335,1.677401e-05,535.9199999996335,3.781603e-05,535.9199999996335,9.048304e-06,535.9199999996335,7.449935e-06
535.9349999996335,1.507376e-05,535.9349999996335,3.754837e-05,535.9349999996335,7.856707e-06,535.9349999996335,7.373913e-06
535.9499999996335,1.501946e-05,535.9499999996335,3.70905e-05,535.9499999996335,7.498936e-06,535.9499999996335,7.04567e-06
535.9649999996335,1.48639e-05,535.9649999996335,3.69581e-05,535.9649999996335,7.423416e-06,535.9649999996335,6.601833e-06
535.9799999996335,1.418798e-05,535.9799999996335,3.681221e-05,535.9799999996335,7.28164e-06,535.9799999996335,6.420096e-06
535.9949999996335,1.373392e-05,535.9949999996335,3.812839e-05,535.9949999996335,7.140994e-06,535.9949999996335,6.007502e-06
536.0099999996335,1.320687e-05,536.0099999996335,3.969626e-05,536.0099999996335,6.713969e-06,536.0099999996335,5.487926e-06
536.0249999996335,1.262333e-05,536.0249999996335,3.945993e-05,536.0249999996335,6.552573e-06,536.0249999996335,5.53139e-06
536.0399999996334,1.236059e-05,536.0399999996334,3.963731e-05,536.0399999996334,6.345057e-06,536.0399999996334,5.399948e-06
536.0549999996334,1.179731e-05,536.0549999996334,3.90977e-05,536.0549999996334,6.158032e-06,536.0549999996334,5.415577e-06
536.0699999996334,1.200093e-05,536.0699999996334,3.933478e-05,536.0699999996334,6.176305e-06,536.0699999996334,5.454455e-06
536.0849999996334,1.137542e-05,536.0849999996334,4.098135e-05,536.0849999996334,5.812045e-06,536.0849999996334,5.363302e-06
536.0999999996334,1.133946e-05,536.0999999996334,4.148322e-05,536.0999999996334,6.402519e-06,536.0999999996334,5.454455e-06
536.1149999996334,1.033057e-05,536.1149999996334,4.209872e-05,536.1149999996334,8.321666e-06,536.1149999996334,5.797484e-06
536.1299999996334,1.038497e-05,536.1299999996334,4.255235e-05,536.1299999996334,8.446003e-06,536.1299999996334,5.751133e-06
536.1449999996333,1.04053e-05,536.1449999996333,4.343794e-05,536.1449999996333,8.495891e-06,536.1449999996333,5.679657e-06
536.1599999996333,1.027588e-05,536.1599999996333,4.351797e-05,536.1599999996333,8.480955e-06,536.1599999996333,6.311667e-06
536.1749999996333,1.00275e-05,536.1749999996333,4.461097e-05,536.1749999996333,8.43766e-06,536.1749999996333,8.026986e-06
536.1899999996333,9.774246e-06,536.1899999996333,4.868699e-05,536.1899999996333,8.367247e-06,536.1899999996333,8.668239e-06
536.2049999996333,9.529049e-06,536.2049999996333,4.844159e-05,536.2049999996333,8.336888e-06,536.2049999996333,1.011701e-05
536.2199999996333,8.637307e-06,536.2199999996333,4.833475e-05,536.2199999996333,8.198881e-06,536.2199999996333,1.099893e-05
536.2349999996333,8.591521e-06,536.2349999996333,4.531774e-05,536.2349999996333,8.207468e-06,536.2349999996333,1.362167e-05
536.2499999996332,7.601551e-06,536.2499999996332,4.363628e-05,536.2499999996332,8.147174e-06,536.2499999996332,1.507563e-05
536.2649999996332,7.350954e-06,536.2649999996332,4.26033e-05,536.2649999996332,8.053266e-06,536.2649999996332,1.846189e-05
536.2799999996332,7.327922e-06,536.2799999996332,4.310263e-05,536.2799999996332,8.03926e-06,536.2799999996332,2.187456e-05
536.2949999996332,6.466009e-06,536.2949999996332,4.476826e-05,536.2949999996332,7.942303e-06,536.2949999996332,2.634645e-05
536.3099999996332,6.803591e-06,536.3099999996332,4.508213e-05,536.3099999996332,8.117728e-06,536.3099999996332,3.403327e-05
536.3249999996332,8.430979e-06,536.3249999996332,4.427594e-05,536.3249999996332,1.418699e-05,536.3249999996332,4.044122e-05
536.3399999996332,1.265677e-05,536.3399999996332,4.513584e-05,536.3399999996332,2.163823e-05,536.3399999996332,4.547166e-05
536.3549999996332,1.781576e-05,536.3549999996332,4.525304e-05,536.3549999996332,2.34605e-05,536.3549999996332,4.613779e-05
536.3699999996331,2.832478e-05,536.3699999996331,4.344248e-05,536.3699999996331,2.802982e-05,536.3699999996331,4.643391e-05
536.3849999996331,3.484358e-05,536.3849999996331,4.36069e-05,536.3849999996331,3.075033e-05,536.3849999996331,4.647333e-05
536.3999999996331,3.744919e-05,536.3999999996331,4.686422e-05,536.3999999996331,3.323457e-05,536.3999999996331,4.642723e-05
536.4149999996331,4.014791e-05,536.4149999996331,4.788412e-05,536.4149999996331,3.545157e-05,536.4149999996331,4.639415e-05
536.4299999996331,4.06216e-05,536.4299999996331,4.228402e-05,536.4299999996331,3.71167e-05,536.4299999996331,4.621009e-05
536.4449999996331,4.106651e-05,536.4449999996331,4.142851e-05,536.4449999996331,3.735994e-05,536.4449999996331,4.608463e-05
536.459999999633,4.111656e-05,536.459999999633,4.15704e-05,536.459999999633,4.006045e-05,536.459999999633,4.618295e-05
536.474999999633,4.14805e-05,536.474999999633,6.212871e-05,536.474999999633,4.033658e-05,536.474999999633,4.603111e-05
536.489999999633,4.181973e-05,536.489999999633,9.340746e-05,536.489999999633,4.057614e-05,536.489999999633,4.582961e-05
536.504999999633,4.230567e-05,536.504999999633,0.0001045319,536.504999999633,4.070059e-05,536.504999999633,4.532986e-05
536.519999999633,4.251426e-05,536.519999999633,0.0001271243,536.519999999633,4.088878e-05,536.519999999633,4.54986e-05
536.534999999633,4.291987e-05,536.534999999633,0.0001615695,536.534999999633,4.108297e-05,536.534999999633,4.635679e-05
536.549999999633,4.421259e-05,536.549999999633,0.0001679904,536.549999999633,4.115183e-05,536.549999999633,4.508432e-05
536.564999999633,4.440303e-05,536.564999999633,0.0001697148,536.564999999633,4.109085e-05,536.564999999633,4.194519e-05
536.579999999633,4.41153e-05,536.579999999633,0.0001762172,536.579999999633,3.797661e-05,536.579999999633,3.374939e-05
536.5949999996329,4.338862e-05,536.5949999996329,0.0001779356,536.5949999996329,3.525234e-05,536.5949999996329,3.035427e-05
536.6099999996329,4.000028e-05,536.6099999996329,0.0001810417,536.6099999996329,3.437838e-05,536.6099999996329,3.049964e-05
536.6249999996329,3.268323e-05,536.6249999996329,0.0001811803,536.6249999996329,2.855707e-05,536.6249999996329,3.045758e-05
536.6399999996329,2.747913e-05,536.6399999996329,0.0001806342,536.6399999996329,2.76488e-05,536.6399999996329,3.041778e-05
536.6549999996329,2.532244e-05,536.6549999996329,0.0001791448,536.6549999996329,2.472972e-05,536.6549999996329,3.042519e-05
536.6699999996329,2.104484e-05,536.6699999996329,0.0001787567,536.6699999996329,2.150305e-05,536.6699999996329,3.032827e-05
536.6849999996329,2.029172e-05,536.6849999996329,0.0001794231,536.6849999996329,1.845426e-05,536.6849999996329,3.028598e-05
536.6999999996328,1.955426e-05,536.6999999996328,0.0001795471,536.6999999996328,1.644837e-05,536.6999999996328,2.992004e-05
536.7149999996328,1.929974e-05,536.7149999996328,0.0001795081,536.7149999996328,1.090891e-05,536.7149999996328,2.944833e-05
536.7299999996328,1.904183e-05,536.7299999996328,0.0001705465,536.7299999996328,9.523133e-06,536.7299999996328,2.901414e-05
536.7449999996328,1.874584e-05,536.7449999996328,0.0001501444,536.7449999996328,9.08249e-06,536.7449999996328,2.859355e-05
536.7599999996328,1.906697e-05,536.7599999996328,0.0001454515,536.7599999996328,8.99365e-06,536.7599999996328,2.803987e-05
536.7749999996328,2.711272e-05,536.7749999996328,0.0001209345,536.7749999996328,1.016147e-05,536.7749999996328,2.382454e-05
536.7899999996328,2.715373e-05,536.7899999996328,7.824926e-05,536.7899999996328,9.399558e-06,536.7899999996328,2.067273e-05
536.8049999996327,2.582916e-05,536.8049999996327,6.633274e-05,536.8049999996327,9.460803e-06,536.8049999996327,1.141251e-05
536.8199999996327,2.559742e-05,536.8199999996327,5.97048e-05,536.8199999996327,9.374045e-06,536.8199999996327,1.096301e-05
536.8349999996327,2.58117e-05,536.8349999996327,4.637077e-05,536.8349999996327,9.423506e-06,536.8349999996327,9.091791e-06
536.8499999996327,2.645317e-05,536.8499999996327,4.065002e-05,536.8499999996327,9.34545e-06,536.8499999996327,7.775606e-06
536.8649999996327,2.721643e-05,536.8649999996327,2.736252e-05,536.8649999996327,9.477167e-06,536.8649999996327,6.049562e-06
536.8799999996327,2.818518e-05,536.8799999996327,2.740573e-05,536.8799999996327,9.658262e-06,536.8799999996327,5.719203e-06
536.8949999996327,2.898694e-05,536.8949999996327,2.905586e-05,536.8949999996327,9.813081e-06,536.8949999996327,5.692045e-06
536.9099999996326,3.023896e-05,536.9099999996326,3.014051e-05,536.9099999996326,1.021125e-05,536.9099999996326,5.654801e-06
536.9249999996326,3.067511e-05,536.9249999996326,3.154003e-05,536.9249999996326,1.018639e-05,536.9249999996326,5.350154e-06
536.9399999996326,3.09435e-05,536.9399999996326,2.990591e-05,536.9399999996326,1.015176e-05,536.9399999996326,5.420777e-06
536.9549999996326,3.180953e-05,536.9549999996326,2.94019e-05,536.9549999996326,1.066602e-05,536.9549999996326,5.490492e-06
536.9699999996326,3.265908e-05,536.9699999996326,2.876987e-05,536.9699999996326,1.101045e-05,536.9699999996326,5.782887e-06
536.9849999996326,3.334839e-05,536.9849999996326,2.961909e-05,536.9849999996326,1.131956e-05,536.9849999996326,5.763367e-06
536.9999999996326,3.333614e-05,536.9999999996326,3.058174e-05,536.9999999996326,1.128466e-05,536.9999999996326,5.564399e-06
537.0149999996326,3.32316e-05,537.0149999996326,3.123214e-05,537.0149999996326,1.092439e-05,537.0149999996326,5.893875e-06
537.0299999996325,2.931217e-05,537.0299999996325,3.496546e-05,537.0299999996325,1.002328e-05,537.0299999996325,5.974584e-06
537.0449999996325,2.904228e-05,537.0449999996325,3.482093e-05,537.0449999996325,9.883171e-06,537.0449999996325,6.026232e-06
537.0599999996325,2.942106e-05,537.0599999996325,3.499164e-05,537.0599999996325,9.764152e-06,537.0599999996325,5.929618e-06
537.0749999996325,2.937745e-05,537.0749999996325,3.537998e-05,537.0749999996325,9.687388e-06,537.0749999996325,6.021555e-06
537.0899999996325,2.968512e-05,537.0899999996325,3.628573e-05,537.0899999996325,9.749715e-06,537.0899999996325,6.269119e-06
537.1049999996325,3.013817e-05,537.1049999996325,3.615622e-05,537.1049999996325,9.665551e-06,537.1049999996325,6.474718e-06
537.1199999996325,3.003048e-05,537.1199999996325,3.852935e-05,537.1199999996325,9.438442e-06,537.1199999996325,6.476893e-06
537.1349999996324,2.896944e-05,537.1349999996324,4.119562e-05,537.1349999996324,9.085591e-06,537.1349999996324,6.548272e-06
537.1499999996324,2.852598e-05,537.1499999996324,3.956474e-05,537.1499999996324,8.913411e-06,537.1499999996324,6.4921e-06
537.1649999996324,2.86762e-05,537.1649999996324,4.028522e-05,537.1649999996324,1.012397e-05,537.1649999996324,6.559019e-06
537.1799999996324,2.904374e-05,537.1799999996324,4.476889e-05,537.1799999996324,1.140758e-05,537.1799999996324,6.571893e-06
537.1949999996324,3.19099e-05,537.1949999996324,4.65439e-05,537.1949999996324,1.35366e-05,537.1949999996324,6.799448e-06
537.2099999996324,3.626825e-05,537.2099999996324,4.95687e-05,537.2099999996324,1.516692e-05,537.2099999996324,1.134939e-05
537.2249999996324,3.697792e-05,537.2249999996324,5.065266e-05,537.2249999996324,1.736976e-05,537.2249999996324,1.282153e-05
537.2399999996323,3.701865e-05,537.2399999996323,5.143778e-05,537.2399999996323,1.861462e-05,537.2399999996323,1.721416e-05
537.2549999996323,3.688179e-05,537.2549999996323,5.420179e-05,537.2549999996323,2.072105e-05,537.2549999996323,1.726972e-05
537.2699999996323,3.655146e-05,537.2699999996323,5.577623e-05,537.2699999996323,2.077198e-05,537.2699999996323,1.732347e-05
537.2849999996323,3.742285e-05,537.2849999996323,5.405163e-05,537.2849999996323,2.093881e-05,537.2849999996323,1.740055e-05
537.2999999996323,3.866731e-05,537.2999999996323,5.45665e-05,537.2999999996323,2.109432e-05,537.2999999996323,1.744017e-05
537.3149999996323,3.956118e-05,537.3149999996323,5.592378e-05,537.3149999996323,2.125398e-05,537.3149999996323,1.75561e-05
537.3299999996323,4.189007e-05,537.3299999996323,5.575021e-05,537.3299999996323,2.167856e-05,537.3299999996323,1.773572e-05
537.3449999996323,4.117099e-05,537.3449999996323,5.561512e-05,537.3449999996323,2.172659e-05,537.3449999996323,1.763536e-05
537.3599999996322,4.13441e-05,537.3599999996322,5.696646e-05,537.3599999996322,2.182363e-05,537.3599999996322,1.761138e-05
537.3749999996322,4.23772e-05,537.3749999996322,5.769865e-05,537.3749999996322,2.179844e-05,537.3749999996322,1.758015e-05
537.3899999996322,4.244197e-05,537.3899999996322,5.645876e-05,537.3899999996322,2.18475e-05,537.3899999996322,1.758015e-05
537.4049999996322,4.245159e-05,537.4049999996322,5.873452e-05,537.4049999996322,2.181588e-05,537.4049999996322,1.767605e-05
537.4199999996322,4.175703e-05,537.4199999996322,5.693752e-05,537.4199999996322,2.128842e-05,537.4199999996322,1.764893e-05
537.4349999996322,4.169018e-05,537.4349999996322,5.35518e-05,537.4349999996322,1.93726e-05,537.4349999996322,1.761458e-05
537.4499999996322,3.603563e-05,537.4499999996322,5.377754e-05,537.4499999996322,1.910313e-05,537.4499999996322,1.633665e-05
537.4649999996321,3.475614e-05,537.4649999996321,5.054799e-05,537.4649999996321,1.706706e-05,537.4649999996321,1.429086e-05
537.4799999996321,3.530943e-05,537.4799999996321,5.006552e-05,537.4799999996321,1.531665e-05,537.4799999996321,1.324095e-05
537.4949999996321,3.561965e-05,537.4949999996321,4.964508e-05,537.4949999996321,1.250111e-05,537.4949999996321,8.500864e-06
537.5099999996321,3.507929e-05,537.5099999996321,4.590209e-05,537.5099999996321,1.06356e-05,537.5099999996321,8.41258e-06
537.5249999996321,3.349801e-05,537.5249999996321,4.503367e-05,537.5249999996321,1.054515e-05,537.5249999996321,7.99181e-06
537.5399999996321,3.399848e-05,537.5399999996321,4.445312e-05,537.5399999996321,1.042559e-05,537.5399999996321,8.093397e-06
537.5549999996321,3.316541e-05,537.5549999996321,4.398098e-05,537.5549999996321,1.018639e-05,537.5549999996321,7.899621e-06
537.569999999632,3.103078e-05,537.569999999632,4.285386e-05,537.569999999632,9.568879e-06,537.569999999632,7.394897e-06
537.584999999632,2.877819e-05,537.584999999632,4.291659e-05,537.584999999632,8.894426e-06,537.584999999632,7.335607e-06
537.599999999632,2.815818e-05,537.599999999632,4.416892e-05,537.599999999632,8.739451e-06,537.599999999632,7.519571e-06
537.614999999632,2.76228e-05,537.614999999632,3.952484e-05,537.614999999632,8.612809e-06,537.614999999632,7.540149e-06
537.629999999632,2.712415e-05,537.629999999632,3.89233e-05,537.629999999632,9.087142e-06,537.629999999632,7.512074e-06
537.644999999632,2.772308e-05,537.644999999632,3.80807e-05,537.644999999632,8.963841e-06,537.644999999632,7.513949e-06
537.659999999632,2.789127e-05,537.659999999632,3.651329e-05,537.659999999632,8.897593e-06,537.659999999632,7.517698e-06
537.674999999632,2.770021e-05,537.674999999632,3.540028e-05,537.674999999632,8.69096e-06,537.674999999632,7.542018e-06
537.6899999996319,2.725367e-05,537.6899999996319,3.482457e-05,537.6899999996319,8.617714e-06,537.6899999996319,7.472591e-06
537.7049999996319,2.709557e-05,537.7049999996319,3.310632e-05,537.7049999996319,8.532291e-06,537.7049999996319,6.914493e-06
537.7199999996319,2.608098e-05,537.7199999996319,3.36771e-05,537.7199999996319,8.115992e-06,537.7199999996319,6.834577e-06
537.7349999996319,2.359461e-05,537.7349999996319,3.278865e-05,537.7349999996319,7.491418e-06,537.7349999996319,6.80773e-06
537.7499999996319,2.358506e-05,537.7499999996319,3.282858e-05,537.7499999996319,7.466933e-06,537.7499999996319,6.365006e-06
537.7649999996319,2.38275e-05,537.7649999996319,3.242967e-05,537.7649999996319,7.30096e-06,537.7649999996319,6.300498e-06
537.7799999996319,2.324636e-05,537.7799999996319,3.242316e-05,537.7799999996319,7.119262e-06,537.7799999996319,6.260124e-06
537.7949999996318,2.058396e-05,537.7949999996318,3.179802e-05,537.7949999996318,6.857212e-06,537.7949999996318,6.026232e-06
537.8099999996318,2.005992e-05,537.8099999996318,3.090159e-05,537.8099999996318,6.96726e-06,537.8099999996318,5.908198e-06
537.8249999996318,1.978985e-05,537.8249999996318,3.17124e-05,537.8249999996318,6.985433e-06,537.8249999996318,6.189974e-06
537.8399999996318,1.9979e-05,537.8399999996318,3.273706e-05,537.8399999996318,7.00758e-06,537.8399999996318,6.311667e-06
537.8549999996318,2.025419e-05,537.8549999996318,3.111646e-05,537.8549999996318,6.853102e-06,537.8549999996318,6.313899e-06
537.8699999996318,2.025976e-05,537.8699999996318,3.118565e-05,537.8699999996318,6.926705e-06,537.8699999996318,6.494269e-06
537.8849999996318,1.821222e-05,537.8849999996318,3.021799e-05,537.8849999996318,6.302733e-06,537.8849999996318,6.623136e-06
537.8999999996317,1.671344e-05,537.8999999996317,3.065581e-05,537.8999999996317,6.275856e-06,537.8999999996317,6.470365e-06
537.9149999996317,1.601883e-05,537.9149999996317,3.157128e-05,537.9149999996317,6.228541e-06,537.9149999996317,6.293787e-06
537.9299999996317,1.662386e-05,537.9299999996317,3.209916e-05,537.9299999996317,6.313899e-06,537.9299999996317,6.260124e-06
537.9449999996317,1.644152e-05,537.9449999996317,3.315564e-05,537.9449999996317,6.214957e-06,537.9449999996317,6.362793e-06
537.9599999996317,1.658993e-05,537.9599999996317,3.376149e-05,537.9599999996317,6.398117e-06,537.9599999996317,6.349495e-06
537.9749999996317,1.584554e-05,537.9749999996317,3.47091e-05,537.9749999996317,6.369431e-06,537.9749999996317,6.282586e-06
537.9899999996317,1.581884e-05,537.9899999996317,3.552144e-05,537.9899999996317,6.541815e-06,537.9899999996317,6.114414e-06
538.0049999996317,1.436656e-05,538.0049999996317,3.529347e-05,538.0049999996317,6.435437e-06,538.0049999996317,6.072803e-06
538.0199999996316,1.351786e-05,538.0199999996316,3.496586e-05,538.0199999996316,6.300498e-06,538.0199999996316,6.413511e-06
538.0349999996316,1.361753e-05,538.0349999996316,3.509173e-05,538.0349999996316,6.358363e-06,538.0349999996316,6.48993e-06
538.0499999996316,1.327177e-05,538.0499999996316,3.600787e-05,538.0499999996316,6.233063e-06,538.0499999996316,6.487759e-06
538.0649999996316,1.346565e-05,538.0649999996316,3.610242e-05,538.0649999996316,6.169459e-06,538.0649999996316,6.4921e-06
538.0799999996316,1.41979e-05,538.0799999996316,3.545713e-05,538.0799999996316,6.498606e-06,538.0799999996316,6.384893e-06
538.0949999996316,1.310515e-05,538.0949999996316,3.530983e-05,538.0949999996316,6.409116e-06,538.0949999996316,6.205884e-06
538.1099999996316,1.269455e-05,538.1099999996316,3.528469e-05,538.1099999996316,6.515924e-06,538.1099999996316,6.233063e-06
538.1249999996315,1.265565e-05,538.1249999996315,3.553492e-05,538.1249999996315,6.322817e-06,538.1249999996315,6.205884e-06
538.1399999996315,1.288072e-05,538.1399999996315,3.788562e-05,538.1399999996315,6.376062e-06,538.1399999996315,6.873626e-06
538.1549999996315,1.346879e-05,538.1549999996315,3.735617e-05,538.1549999996315,6.853102e-06,538.1549999996315,7.140994e-06
538.1699999996315,1.389808e-05,538.1699999996315,3.633926e-05,538.1699999996315,7.071614e-06,538.1699999996315,7.21166e-06
538.1849999996315,1.44282e-05,538.1849999996315,3.64573e-05,538.1849999996315,7.497057e-06,538.1849999996315,7.215565e-06
538.1999999996315,1.416115e-05,538.1999999996315,3.764466e-05,538.1999999996315,7.480127e-06,538.1999999996315,7.308674e-06
538.2149999996315,1.391125e-05,538.2149999996315,4.058795e-05,538.2149999996315,7.354785e-06,538.2149999996315,7.569982e-06
538.2299999996314,1.423457e-05,538.2299999996314,4.011211e-05,538.2299999996314,7.495178e-06,538.2299999996314,7.489538e-06
538.2449999996314,1.434596e-05,538.2449999996314,4.224102e-05,538.2449999996314,7.573703e-06,538.2449999996314,7.782849e-06
538.2599999996314,1.486201e-05,538.2599999996314,4.273338e-05,538.2599999996314,7.915653e-06,538.2599999996314,8.402527e-06
538.2749999996314,1.512786e-05,538.2749999996314,4.462675e-05,538.2749999996314,7.972397e-06,538.2749999996314,8.517419e-06
538.2899999996314,1.514369e-05,538.2899999996314,4.771202e-05,538.2899999996314,7.947621e-06,538.2899999996314,1.004575e-05
538.3049999996314,1.522902e-05,538.3049999996314,5.246168e-05,538.3049999996314,7.944076e-06,538.3049999996314,1.190665e-05
538.3199999996314,1.504663e-05,538.3199999996314,5.559561e-05,538.3199999996314,7.897837e-06,538.3199999996314,1.580726e-05
538.3349999996313,1.439008e-05,538.3349999996313,5.625805e-05,538.3349999996313,7.508323e-06,538.3349999996313,1.81145e-05
538.3499999996313,1.45226e-05,538.3499999996313,5.584085e-05,538.3499999996313,7.542018e-06,538.3499999996313,1.89082e-05
538.3649999996313,1.526967e-05,538.3649999996313,5.83348e-05,538.3649999996313,7.770169e-06,538.3649999996313,2.142824e-05
538.3799999996313,1.527244e-05,538.3799999996313,5.783837e-05,538.3799999996313,7.675319e-06,538.3799999996313,2.67239e-05
538.3949999996313,1.580281e-05,538.3949999996313,5.653655e-05,538.3949999996313,7.786468e-06,538.3949999996313,3.912328e-05
538.4099999996313,1.654997e-05,538.4099999996313,5.652758e-05,538.4099999996313,8.072484e-06,538.4099999996313,5.001823e-05
538.4249999996313,1.672018e-05,538.4249999996313,5.668982e-05,538.4249999996313,1.073842e-05,538.4249999996313,5.592706e-05
538.4399999996313,2.304919e-05,538.4399999996313,5.568701e-05,538.4399999996313,1.559553e-05,538.4399999996313,6.243631e-05
538.4549999996312,3.410604e-05,538.4549999996312,5.355443e-05,538.4549999996312,2.283058e-05,538.4549999996312,6.364541e-05
538.4699999996312,3.944386e-05,538.4699999996312,5.243617e-05,538.4699999996312,3.395122e-05,538.4699999996312,6.414521e-05
538.4849999996312,4.013492e-05,538.4849999996312,5.572999e-05,538.4849999996312,3.837145e-05,538.4849999996312,6.432131e-05
538.4999999996312,4.298186e-05,538.4999999996312,5.847806e-05,538.4999999996312,4.736056e-05,538.4999999996312,6.448798e-05
538.5149999996312,4.359785e-05,538.5149999996312,5.785299e-05,538.5149999996312,5.024667e-05,538.5149999996312,6.449977e-05
538.5299999996312,4.346485e-05,538.5299999996312,6.760075e-05,538.5299999996312,5.100518e-05,538.5299999996312,6.497674e-05
538.5449999996312,4.346939e-05,538.5449999996312,7.250602e-05,538.5449999996312,5.219599e-05,538.5449999996312,6.639939e-05
538.5599999996311,4.405171e-05,538.5599999996311,7.291654e-05,538.5599999996311,5.299838e-05,538.5599999996311,6.744533e-05
538.5749999996311,4.487574e-05,538.5749999996311,7.179711e-05,538.5749999996311,5.355364e-05,538.5749999996311,6.831897e-05
538.5899999996311,4.494005e-05,538.5899999996311,7.484289e-05,538.5899999996311,5.391698e-05,538.5899999996311,6.957569e-05
538.6049999996311,4.595944e-05,538.6049999996311,7.611755e-05,538.6049999996311,5.400783e-05,538.6049999996311,6.969665e-05
538.6199999996311,4.624787e-05,538.6199999996311,7.47555e-05,538.6199999996311,5.436009e-05,538.6199999996311,6.895234e-05
538.6349999996311,4.842443e-05,538.6349999996311,7.534898e-05,538.6349999996311,5.539432e-05,538.6349999996311,6.721728e-05
538.6499999996311,4.848636e-05,538.6499999996311,7.48649e-05,538.6499999996311,5.592302e-05,538.6499999996311,5.591396e-05
538.664999999631,4.97443e-05,538.664999999631,7.468197e-05,538.664999999631,5.606516e-05,538.664999999631,5.282373e-05
538.679999999631,4.984925e-05,538.679999999631,7.457211e-05,538.679999999631,5.576537e-05,538.679999999631,4.220899e-05
538.694999999631,4.489081e-05,538.694999999631,7.487958e-05,538.694999999631,5.381551e-05,538.694999999631,3.913876e-05
538.709999999631,3.648202e-05,538.709999999631,7.528221e-05,538.709999999631,4.863169e-05,538.709999999631,3.775564e-05
538.724999999631,3.441196e-05,538.724999999631,7.458703e-05,538.724999999631,4.453638e-05,538.724999999631,3.691386e-05
538.739999999631,3.336487e-05,538.739999999631,7.1603e-05,538.739999999631,3.891714e-05,538.739999999631,3.713416e-05
538.754999999631,2.93088e-05,538.754999999631,6.961698e-05,538.754999999631,2.935779e-05,538.754999999631,3.699163e-05
538.769999999631,2.908058e-05,538.769999999631,6.414807e-05,538.769999999631,2.622748e-05,538.769999999631,3.712922e-05
538.7849999996309,2.908058e-05,538.7849999996309,5.81815e-05,538.7849999996309,2.440461e-05,538.7849999996309,3.579678e-05
538.7999999996309,2.910188e-05,538.7999999996309,4.355842e-05,538.7999999996309,2.080112e-05,538.7999999996309,3.211803e-05
538.8149999996309,2.837298e-05,538.8149999996309,4.090497e-05,538.8149999996309,2.056547e-05,538.8149999996309,3.015546e-05
538.8299999996309,2.763555e-05,538.8299999996309,4.056712e-05,538.8299999996309,1.870295e-05,538.8299999996309,2.547551e-05
538.8449999996309,2.694229e-05,538.8449999996309,3.411636e-05,538.8449999996309,1.820371e-05,538.8449999996309,2.153644e-05
538.8599999996309,2.551584e-05,538.8599999996309,3.312929e-05,538.8599999996309,1.739002e-05,538.8599999996309,2.045283e-05
538.8749999996309,2.435839e-05,538.8749999996309,3.2916e-05,538.8749999996309,1.502977e-05,538.8749999996309,1.795281e-05
538.8899999996308,2.001703e-05,538.8899999996308,3.157529e-05,538.8899999996308,1.164225e-05,538.8899999996308,1.707531e-05
538.9049999996308,1.883505e-05,538.9049999996308,3.183698e-05,538.9049999996308,9.716427e-06,538.9049999996308,1.588106e-05
538.9199999996308,1.701084e-05,538.9199999996308,3.182503e-05,538.9199999996308,9.31979e-06,538.9199999996308,1.341534e-05
538.9349999996308,1.898626e-05,538.9349999996308,3.25515e-05,538.9349999996308,8.451005e-06,538.9349999996308,1.319513e-05
538.9499999996308,1.94372e-05,538.9499999996308,3.211935e-05,538.9499999996308,8.379024e-06,538.9499999996308,1.291458e-05
538.9649999996308,1.981545e-05,538.9649999996308,3.196592e-05,538.9649999996308,8.377342e-06,538.9649999996308,1.282482e-05
538.9799999996308,1.985877e-05,538.9799999996308,3.179492e-05,538.9799999996308,8.614445e-06,538.9799999996308,1.193737e-05
538.9949999996307,2.051747e-05,538.9949999996307,3.072008e-05,538.9949999996307,8.677985e-06,538.9949999996307,1.082465e-05
539.0099999996307,2.095227e-05,539.0099999996307,3.006095e-05,539.0099999996307,8.449338e-06,539.0099999996307,1.028137e-05
539.0249999996307,2.138283e-05,539.0249999996307,2.994921e-05,539.0249999996307,7.793701e-06,539.0249999996307,9.480139e-06
539.0399999996307,2.289651e-05,539.0399999996307,3.040203e-05,539.0399999996307,8.023475e-06,539.0399999996307,9.714977e-06
539.0549999996307,2.287188e-05,539.0549999996307,3.058773e-05,539.0549999996307,8.046266e-06,539.0549999996307,9.685934e-06
539.0699999996307,2.211664e-05,539.0699999996307,2.909462e-05,539.0699999996307,7.446153e-06,539.0699999996307,8.935509e-06
539.0849999996307,2.274837e-05,539.0849999996307,2.862408e-05,539.0849999996307,7.62006e-06,539.0849999996307,8.415928e-06
539.0999999996307,2.269505e-05,539.0999999996307,2.968418e-05,539.0999999996307,7.607108e-06,539.0999999996307,8.000618e-06
539.1149999996306,2.207074e-05,539.1149999996306,3.201524e-05,539.1149999996306,7.186222e-06,539.1149999996306,8.145445e-06
539.1299999996306,2.228922e-05,539.1299999996306,3.189092e-05,539.1299999996306,7.203842e-06,539.1299999996306,7.730182e-06
539.1449999996306,2.226962e-05,539.1449999996306,3.214433e-05,539.1449999996306,7.194059e-06,539.1449999996306,7.495178e-06
539.1599999996306,2.226392e-05,539.1599999996306,3.217324e-05,539.1599999996306,7.119262e-06,539.1599999996306,7.287441e-06
539.1749999996306,1.88343e-05,539.1749999996306,3.178428e-05,539.1749999996306,6.50294e-06,539.1749999996306,7.160693e-06
539.1899999996306,1.852663e-05,539.1899999996306,3.070586e-05,539.1899999996306,6.461651e-06,539.1899999996306,7.12124e-06
539.2049999996306,1.802407e-05,539.2049999996306,3.093576e-05,539.2049999996306,6.406918e-06,539.2049999996306,6.951067e-06
539.2199999996305,1.843287e-05,539.2199999996305,3.166261e-05,539.2199999996305,6.387099e-06,539.2199999996305,6.855157e-06
539.2349999996305,1.782603e-05,539.2349999996305,3.131862e-05,539.2349999996305,6.075122e-06,539.2349999996305,6.772462e-06
539.2499999996305,1.859267e-05,539.2499999996305,3.12371e-05,539.2499999996305,6.309435e-06,539.2499999996305,6.688745e-06
539.2649999996305,1.815257e-05,539.2649999996305,3.003235e-05,539.2649999996305,6.289309e-06,539.2649999996305,6.358363e-06
539.2799999996305,1.681176e-05,539.2799999996305,3.079336e-05,539.2799999996305,5.969867e-06,539.2799999996305,6.597564e-06
539.2949999996305,1.693032e-05,539.2949999996305,2.9304e-05,539.2949999996305,6.201342e-06,539.2949999996305,6.205884e-06
539.3099999996305,1.815101e-05,539.3099999996305,2.891395e-05,539.3099999996305,6.520246e-06,539.3099999996305,6.730734e-06
539.3249999996304,1.893649e-05,539.3249999996304,2.87243e-05,539.3249999996304,6.720261e-06,539.3249999996304,6.606099e-06
539.3399999996304,2.046316e-05,539.3399999996304,2.861768e-05,539.3399999996304,7.091506e-06,539.3399999996304,6.208153e-06
539.3549999996304,2.367864e-05,539.3549999996304,2.716307e-05,539.3549999996304,7.327922e-06,539.3549999996304,6.121322e-06
539.3699999996304,2.426452e-05,539.3699999996304,2.60491e-05,539.3699999996304,7.560672e-06,539.3699999996304,6.365006e-06
539.3849999996304,2.456512e-05,539.3849999996304,2.770275e-05,539.3849999996304,7.71011e-06,539.3849999996304,6.528882e-06
539.3999999996304,2.491699e-05,539.3999999996304,2.983092e-05,539.3999999996304,8.109047e-06,539.3999999996304,6.466009e-06
539.4149999996304,2.553902e-05,539.4149999996304,3.243706e-05,539.4149999996304,8.115992e-06,539.4149999996304,6.485587e-06
539.4299999996304,2.600634e-05,539.4299999996304,3.36725e-05,539.4299999996304,8.297934e-06,539.4299999996304,6.378271e-06
539.4449999996303,2.605126e-05,539.4449999996303,3.702208e-05,539.4449999996303,8.355453e-06,539.4449999996303,6.351713e-06
539.4599999996303,2.796491e-05,539.4599999996303,3.744054e-05,539.4599999996303,8.477633e-06,539.4599999996303,6.298262e-06
539.4749999996303,2.827998e-05,539.4749999996303,3.747213e-05,539.4749999996303,8.487596e-06,539.4749999996303,6.298262e-06
539.4899999996303,2.952716e-05,539.4899999996303,3.762258e-05,539.4899999996303,8.367247e-06,539.4899999996303,6.246608e-06
539.5049999996303,2.965901e-05,539.5049999996303,3.95309e-05,539.5049999996303,8.395818e-06,539.5049999996303,6.309435e-06
539.5199999996303,3.02343e-05,539.5199999996303,4.105964e-05,539.5199999996303,8.479295e-06,539.5199999996303,6.333946e-06
539.5349999996303,2.995439e-05,539.5349999996303,4.048369e-05,539.5349999996303,8.31828e-06,539.5349999996303,6.201342e-06
539.5499999996302,3.195578e-05,539.5499999996302,4.117339e-05,539.5499999996302,8.193725e-06,539.5499999996302,5.972226e-06
539.5649999996302,3.479503e-05,539.5649999996302,4.141491e-05,539.5649999996302,8.141986e-06,539.5649999996302,6.74119e-06
539.5799999996302,3.869025e-05,539.5799999996302,4.125303e-05,539.5799999996302,8.246849e-06,539.5799999996302,7.671647e-06
539.5949999996302,3.990154e-05,539.5949999996302,4.260396e-05,539.5949999996302,8.357139e-06,539.5949999996302,7.910313e-06
539.6099999996302,3.89826e-05,539.6099999996302,4.286339e-05,539.6099999996302,8.26732e-06,539.6099999996302,7.913874e-06
539.6249999996302,3.946421e-05,539.6249999996302,4.326345e-05,539.6249999996302,8.343643e-06,539.6249999996302,7.793701e-06
539.6399999996302,3.985633e-05,539.6399999996302,4.252155e-05,539.6399999996302,8.782863e-06,539.6399999996302,7.790086e-06
539.6549999996301,3.974591e-05,539.6549999996301,4.172733e-05,539.6549999996301,8.532291e-06,539.6549999996301,7.815361e-06
539.6699999996301,3.94817e-05,539.6699999996301,3.79562e-05,539.6699999996301,8.797286e-06,539.6699999996301,7.968863e-06
539.6849999996301,3.974413e-05,539.6849999996301,3.858671e-05,539.6849999996301,8.792481e-06,539.6849999996301,8.402527e-06
539.6999999996301,4.008962e-05,539.6999999996301,3.577001e-05,539.6999999996301,8.973265e-06,539.6999999996301,8.622616e-06
539.7149999996301,3.965152e-05,539.7149999996301,3.462417e-05,539.7149999996301,8.946537e-06,539.7149999996301,8.565246e-06
539.7299999996301,4.05063e-05,539.7299999996301,3.762931e-05,539.7299999996301,9.094889e-06,539.7299999996301,8.548785e-06
539.7449999996301,3.943457e-05,539.7449999996301,3.749243e-05,539.7449999996301,9.097987e-06,539.7449999996301,8.494233e-06
539.75999999963,3.900139e-05,539.75999999963,3.566312e-05,539.75999999963,8.95126e-06,539.75999999963,8.323359e-06
539.77499999963,3.867022e-05,539.77499999963,3.504273e-05,539.77499999963,8.963841e-06,539.77499999963,8.258797e-06
539.78999999963,3.909086e-05,539.78999999963,3.491748e-05,539.78999999963,9.216436e-06,539.78999999963,8.415928e-06
539.80499999963,3.732674e-05,539.80499999963,3.406099e-05,539.80499999963,9.328855e-06,539.80499999963,8.520726e-06
539.81999999963,2.970505e-05,539.81999999963,3.431727e-05,539.81999999963,8.918151e-06,539.81999999963,7.341366e-06
539.83499999963,2.90767e-05,539.83499999963,3.34353e-05,539.83499999963,8.686096e-06,539.83499999963,6.580461e-06
539.84999999963,2.548602e-05,539.84999999963,3.155075e-05,539.84999999963,8.550433e-06,539.84999999963,6.395915e-06
539.86499999963,2.463384e-05,539.86499999963,3.118203e-05,539.86499999963,8.575109e-06,539.86499999963,6.331722e-06
539.87999999963,2.403353e-05,539.87999999963,3.154896e-05,539.87999999963,8.233172e-06,539.87999999963,6.128222e-06
539.8949999996299,2.38777e-05,539.8949999996299,3.06875e-05,539.8949999996299,7.98652e-06,539.8949999996299,6.169459e-06
539.9099999996299,2.382632e-05,539.9099999996299,2.991062e-05,539.9099999996299,7.881768e-06,539.9099999996299,6.217223e-06
539.9249999996299,2.344007e-05,539.9249999996299,2.938752e-05,539.9249999996299,7.575563e-06,539.9249999996299,5.373798e-06
539.9399999996299,2.302045e-05,539.9399999996299,2.849139e-05,539.9399999996299,7.2971e-06,539.9399999996299,5.055022e-06
539.9549999996299,2.234791e-05,539.9549999996299,2.906653e-05,539.9549999996299,7.205797e-06,539.9549999996299,5.088352e-06
539.9699999996299,1.83371e-05,539.9699999996299,2.595918e-05,539.9699999996299,6.887957e-06,539.9699999996299,5.007424e-06
539.9849999996298,1.794967e-05,539.9849999996298,2.417612e-05,539.9849999996298,6.755802e-06,539.9849999996298,5.077266e-06
539.9999999996298,1.756172e-05,539.9999999996298,2.910914e-05,539.9999999996298,6.652846e-06,539.9999999996298,5.068936e-06
540.0149999996298,1.787181e-05,540.0149999996298,2.939615e-05,540.0149999996298,6.869526e-06,540.0149999996298,5.110451e-06
540.0299999996298,1.773731e-05,540.0299999996298,2.863195e-05,540.0299999996298,6.757886e-06,540.0299999996298,5.060592e-06
540.0449999996298,1.614671e-05,540.0449999996298,2.832776e-05,540.0449999996298,6.509435e-06,540.0449999996298,4.838602e-06
540.0599999996298,1.533135e-05,540.0599999996298,2.848743e-05,540.0599999996298,6.141998e-06,540.0599999996298,4.581393e-06
540.0749999996298,1.533503e-05,540.0749999996298,2.84523e-05,540.0749999996298,6.100575e-06,540.0749999996298,4.73561e-06
540.0899999996298,1.442723e-05,540.0899999996298,2.793366e-05,540.0899999996298,5.958057e-06,540.0899999996298,4.572159e-06
540.1049999996297,1.441453e-05,540.1049999996297,2.752983e-05,540.1049999996297,5.877121e-06,540.1049999996297,4.547444e-06
540.1199999996297,1.423259e-05,540.1199999996297,2.755183e-05,540.1199999996297,5.828986e-06,540.1199999996297,4.587538e-06
540.1349999996297,1.414223e-05,540.1349999996297,3.091891e-05,540.1349999996297,5.787757e-06,540.1349999996297,4.506994e-06
540.1499999996297,1.273223e-05,540.1499999996297,3.204119e-05,540.1499999996297,5.584614e-06,540.1499999996297,4.338181e-06
540.1649999996297,1.279954e-05,540.1649999996297,3.320362e-05,540.1649999996297,5.689569e-06,540.1649999996297,4.415424e-06
540.1799999996297,1.239018e-05,540.1799999996297,3.45321e-05,540.1799999996297,5.61731e-06,540.1799999996297,4.39624e-06
540.1949999996297,1.210611e-05,540.1949999996297,3.611373e-05,540.1949999996297,5.619817e-06,540.1949999996297,4.36408e-06
540.2099999996296,1.206064e-05,540.2099999996296,3.634779e-05,540.2099999996296,5.724127e-06,540.2099999996296,4.338181e-06
540.2249999996296,1.161924e-05,540.2249999996296,3.682675e-05,540.2249999996296,5.592176e-06,540.2249999996296,4.405843e-06
540.2399999996296,1.12158e-05,540.2399999996296,3.710228e-05,540.2399999996296,5.381656e-06,540.2399999996296,4.328428e-06
540.2549999996296,1.118687e-05,540.2549999996296,3.311228e-05,540.2549999996296,5.500745e-06,540.2549999996296,4.450379e-06
540.2699999996296,1.077247e-05,540.2699999996296,3.352492e-05,540.2699999996296,5.526294e-06,540.2699999996296,4.741556e-06
540.2849999996296,1.115282e-05,540.2849999996296,3.417824e-05,540.2849999996296,5.433755e-06,540.2849999996296,5.360675e-06
540.2999999996296,1.067131e-05,540.2999999996296,3.499083e-05,540.2999999996296,5.339611e-06,540.2999999996296,5.467352e-06
540.3149999996295,9.962669e-06,540.3149999996295,3.489246e-05,540.3149999996295,5.173461e-06,540.3149999996295,5.848288e-06
540.3299999996295,9.351477e-06,540.3299999996295,3.611607e-05,540.3299999996295,4.947995e-06,540.3299999996295,7.00959e-06
540.3449999996295,8.846786e-06,540.3449999996295,3.653643e-05,540.3449999996295,4.768218e-06,540.3449999996295,8.758771e-06
540.3599999996295,8.744285e-06,540.3599999996295,3.909843e-05,540.3599999996295,4.861837e-06,540.3599999996295,1.03101e-05
540.3749999996295,8.739451e-06,540.3749999996295,4.109017e-05,540.3749999996295,4.876302e-06,540.3749999996295,1.546219e-05
540.3899999996295,8.355453e-06,540.3899999996295,3.840265e-05,540.3899999996295,5.389503e-06,540.3899999996295,1.799904e-05
540.4049999996295,8.240013e-06,540.4049999996295,3.902089e-05,540.4049999996295,6.48993e-06,540.4049999996295,1.867658e-05
540.4199999996295,7.963557e-06,540.4199999996295,4.532489e-05,540.4199999996295,6.450741e-06,540.4199999996295,1.962688e-05
540.4349999996294,7.742928e-06,540.4349999996294,4.88597e-05,540.4349999996294,6.550423e-06,540.4349999996294,2.237374e-05
540.4499999996294,7.264208e-06,540.4499999996294,4.878382e-05,540.4499999996294,6.398117e-06,540.4499999996294,2.314251e-05
540.4649999996294,7.083556e-06,540.4649999996294,4.968366e-05,540.4649999996294,6.580461e-06,540.4649999996294,2.490455e-05
540.4799999996294,6.809799e-06,540.4799999996294,5.187655e-05,540.4799999996294,6.64861e-06,540.4799999996294,2.771597e-05
540.4949999996294,7.04567e-06,540.4949999996294,5.235498e-05,540.4949999996294,7.632989e-06,540.4949999996294,2.963763e-05
540.5099999996294,8.517419e-06,540.5099999996294,5.276396e-05,540.5099999996294,1.359579e-05,540.5099999996294,4.515207e-05
540.5249999996294,9.065413e-06,540.5249999996294,5.240499e-05,540.5249999996294,1.895211e-05,540.5249999996294,6.047513e-05
540.5399999996293,2.735067e-05,540.5399999996293,5.185455e-05,540.5399999996293,2.935443e-05,540.5399999996293,6.168271e-05
540.5549999996293,3.685657e-05,540.5549999996293,5.107529e-05,540.5549999996293,3.755287e-05,540.5549999996293,6.570242e-05
540.5699999996293,4.487574e-05,540.5699999996293,5.102451e-05,540.5699999996293,4.818676e-05,540.5699999996293,6.595877e-05
540.5849999996293,4.768041e-05,540.5849999996293,5.181324e-05,540.5849999996293,5.044728e-05,540.5849999996293,6.617455e-05
540.5999999996293,5.170492e-05,540.5999999996293,5.429761e-05,540.5999999996293,5.306027e-05,540.5999999996293,6.629535e-05
540.6149999996293,5.216737e-05,540.6149999996293,5.645252e-05,540.6149999996293,5.633987e-05,540.6149999996293,7.31967e-05
540.6299999996293,5.266803e-05,540.6299999996293,5.679781e-05,540.6299999996293,5.648021e-05,540.6299999996293,7.311641e-05
540.6449999996292,5.305072e-05,540.6449999996292,5.716172e-05,540.6449999996292,5.650863e-05,540.6449999996292,7.266767e-05
540.6599999996292,5.341932e-05,540.6599999996292,5.541619e-05,540.6599999996292,5.65358e-05,540.6599999996292,7.258116e-05
540.6749999996292,5.370966e-05,540.6749999996292,4.822943e-05,540.6749999996292,5.662717e-05,540.6749999996292,7.545005e-05
540.6899999996292,5.384927e-05,540.6899999996292,4.804741e-05,540.6899999996292,5.680674e-05,540.6899999996292,7.698134e-05
540.7049999996292,5.412273e-05,540.7049999996292,4.549303e-05,540.7049999996292,5.715482e-05,540.7049999996292,7.746074e-05
540.7199999996292,5.443959e-05,540.7199999996292,4.466903e-05,540.7199999996292,5.732635e-05,540.7199999996292,7.684196e-05
540.7349999996292,5.457501e-05,540.7349999996292,4.366694e-05,540.7349999996292,5.740935e-05,540.7349999996292,7.624532e-05
540.7499999996292,5.478394e-05,540.7499999996292,4.276303e-05,540.7499999996292,5.711044e-05,540.7499999996292,7.262404e-05
540.7649999996291,5.460495e-05,540.7649999996291,4.302346e-05,540.7649999996291,5.592101e-05,540.7649999996291,6.737281e-05
540.7799999996291,5.460392e-05,540.7799999996291,4.316076e-05,540.7799999996291,5.423868e-05,540.7799999996291,5.343962e-05
540.7949999996291,4.472576e-05,540.7949999996291,4.384015e-05,540.7949999996291,4.844886e-05,540.7949999996291,5.030271e-05
540.8099999996291,3.768543e-05,540.8099999996291,4.467975e-05,540.8099999996291,3.878698e-05,540.8099999996291,4.827643e-05
540.8249999996291,3.261722e-05,540.8249999996291,4.479343e-05,540.8249999996291,2.976001e-05,540.8249999996291,4.790324e-05
540.8399999996291,2.220119e-05,540.8399999996291,4.079186e-05,540.8399999996291,2.667377e-05,540.8399999996291,4.744139e-05
540.8549999996291,2.090111e-05,540.8549999996291,3.893162e-05,540.8549999996291,1.488852e-05,540.8549999996291,4.501209e-05
540.869999999629,1.982469e-05,540.869999999629,3.158377e-05,540.869999999629,1.311911e-05,540.869999999629,3.37961e-05
540.884999999629,1.843669e-05,540.884999999629,3.144027e-05,540.884999999629,1.267345e-05,540.884999999629,3.355558e-05
540.899999999629,1.815955e-05,540.899999999629,3.005439e-05,540.899999999629,1.232635e-05,540.899999999629,3.324814e-05
540.914999999629,1.707283e-05,540.914999999629,2.941579e-05,540.914999999629,1.140387e-05,540.914999999629,3.1586e-05
540.929999999629,1.669657e-05,540.929999999629,2.969936e-05,540.929999999629,1.123713e-05,540.929999999629,1.990553e-05
540.944999999629,1.920902e-05,540.944999999629,2.918647e-05,540.944999999629,1.037819e-05,540.944999999629,1.622417e-05
540.959999999629,1.826551e-05,540.959999999629,3.048856e-05,540.959999999629,8.157542e-06,540.959999999629,1.283471e-05
540.974999999629,1.779756e-05,540.974999999629,3.084364e-05,540.974999999629,6.902258e-06,540.974999999629,1.235375e-05
540.9899999996289,1.734054e-05,540.9899999996289,2.998306e-05,540.9899999996289,6.957143e-06,540.9899999996289,1.054248e-05
541.0049999996289,1.669066e-05,541.0049999996289,3.062133e-05,541.0049999996289,6.591156e-06,541.0049999996289,9.571822e-06
541.0199999996289,1.664079e-05,541.0199999996289,3.014939e-05,541.0199999996289,6.629514e-06,541.0199999996289,9.190417e-06
541.0349999996289,1.56838e-05,541.0349999996289,3.057437e-05,541.0349999996289,6.732826e-06,541.0349999996289,8.452672e-06
541.0499999996289,1.694197e-05,541.0499999996289,3.019841e-05,541.0499999996289,6.356147e-06,541.0499999996289,7.726537e-06
541.0649999996289,1.744583e-05,541.0649999996289,2.978083e-05,541.0649999996289,6.340615e-06,541.0649999996289,7.398706e-06
541.0799999996289,1.79583e-05,541.0799999996289,2.966281e-05,541.0799999996289,6.415707e-06,541.0799999996289,7.111343e-06
541.0949999996288,2.128974e-05,541.0949999996288,2.957721e-05,541.0949999996288,7.487657e-06,541.0949999996288,6.920602e-06
541.1099999996288,2.203177e-05,541.1099999996288,2.858813e-05,541.1099999996288,7.638524e-06,541.1099999996288,6.855157e-06
541.1249999996288,2.247238e-05,541.1249999996288,2.825706e-05,541.1249999996288,7.717415e-06,541.1249999996288,6.476893e-06
541.1399999996288,2.28725e-05,541.1399999996288,2.793568e-05,541.1399999996288,8.110784e-06,541.1399999996288,6.246608e-06
541.1549999996288,2.321604e-05,541.1549999996288,2.820017e-05,541.1549999996288,8.171345e-06,541.1549999996288,6.318359e-06
541.1699999996288,2.460867e-05,541.1699999996288,2.780832e-05,541.1699999996288,8.570179e-06,541.1699999996288,6.275856e-06
541.1849999996288,2.40388e-05,541.1849999996288,2.794274e-05,541.1849999996288,8.309809e-06,541.1849999996288,6.342836e-06
541.1999999996287,2.335277e-05,541.1999999996287,2.605667e-05,541.1999999996287,7.990047e-06,541.1999999996287,5.981653e-06
541.2149999996287,2.384109e-05,541.2149999996287,2.600634e-05,541.2149999996287,8.176516e-06,541.2149999996287,5.915346e-06
541.2299999996287,2.395603e-05,541.2299999996287,2.400596e-05,541.2299999996287,8.1264e-06,541.2299999996287,5.782887e-06
541.2449999996287,2.399892e-05,541.2449999996287,2.361252e-05,541.2449999996287,8.155816e-06,541.2449999996287,5.790191e-06
541.2599999996287,2.407627e-05,541.2599999996287,2.340579e-05,541.2599999996287,8.181682e-06,541.2599999996287,5.821732e-06
541.2749999996287,2.390011e-05,541.2749999996287,2.342745e-05,541.2749999996287,8.086432e-06,541.2749999996287,5.733962e-06
541.2899999996287,2.298003e-05,541.2899999996287,2.311937e-05,541.2899999996287,7.804539e-06,541.2899999996287,5.644828e-06
541.3049999996286,2.240332e-05,541.3049999996286,2.323e-05,541.3049999996286,7.755652e-06,541.3049999996286,5.879517e-06
541.3199999996286,2.200362e-05,541.3199999996286,2.479287e-05,541.3199999996286,7.594135e-06,541.3199999996286,5.972226e-06
541.3349999996286,2.014541e-05,541.3349999996286,2.466984e-05,541.3349999996286,6.916529e-06,541.3349999996286,6.079758e-06
541.3499999996286,1.811917e-05,541.3499999996286,2.465956e-05,541.3499999996286,6.391509e-06,541.3499999996286,6.044903e-06
541.3649999996286,1.772618e-05,541.3649999996286,2.510342e-05,541.3649999996286,6.298262e-06,541.3649999996286,5.967507e-06
541.3799999996286,1.722971e-05,541.3799999996286,2.711739e-05,541.3799999996286,6.271365e-06,541.3799999996286,5.845879e-06
541.3949999996286,1.633062e-05,541.3949999996286,2.896749e-05,541.3949999996286,5.682137e-06,541.3949999996286,5.513535e-06
541.4099999996286,1.407033e-05,541.4099999996286,2.908687e-05,541.4099999996286,5.405162e-06,541.4099999996286,5.624828e-06
541.4249999996285,1.347611e-05,541.4249999996285,2.958959e-05,541.4249999996285,5.181623e-06,541.4249999996285,5.265225e-06
541.4399999996285,1.178297e-05,541.4399999996285,2.989885e-05,541.4399999996285,4.684768e-06,541.4399999996285,5.614802e-06
541.4549999996285,1.121328e-05,541.4549999996285,3.238055e-05,541.4549999996285,4.418613e-06,541.4549999996285,5.850696e-06
541.4699999996285,1.28391e-05,541.4699999996285,3.364529e-05,541.4699999996285,5.219545e-06,541.4699999996285,5.917727e-06
541.4849999996285,1.279183e-05,541.4849999996285,3.459161e-05,541.4849999996285,5.099414e-06,541.4849999996285,5.831403e-06
541.4999999996285,1.248645e-05,541.4999999996285,3.435378e-05,541.4999999996285,5.049445e-06,541.4999999996285,5.838645e-06
541.5149999996285,1.228055e-05,541.5149999996285,3.428975e-05,541.5149999996285,5.08004e-06,541.5149999996285,5.860319e-06
541.5299999996284,1.22484e-05,541.5299999996284,3.481203e-05,541.5299999996284,5.093886e-06,541.5299999996284,5.991066e-06
541.5449999996284,1.314914e-05,541.5449999996284,3.540664e-05,541.5449999996284,5.469929e-06,541.5449999996284,6.035575e-06
541.5599999996284,1.320687e-05,541.5599999996284,3.564021e-05,541.5599999996284,5.487926e-06,541.5599999996284,5.738873e-06
541.5749999996284,1.361029e-05,541.5749999996284,3.453088e-05,541.5749999996284,5.467352e-06,541.5749999996284,5.684616e-06
541.5899999996284,1.367225e-05,541.5899999996284,3.603251e-05,541.5899999996284,5.516089e-06,541.5899999996284,5.599728e-06
541.6049999996284,1.349491e-05,541.6049999996284,3.672525e-05,541.6049999996284,5.487926e-06,541.6049999996284,5.664756e-06
541.6199999996284,1.311696e-05,541.6199999996284,3.704376e-05,541.6199999996284,5.302549e-06,541.6199999996284,5.589657e-06
541.6349999996283,1.331204e-05,541.6349999996283,3.647005e-05,541.6349999996283,5.286585e-06,541.6349999996283,5.48279e-06
541.6499999996283,1.335958e-05,541.6499999996283,3.637336e-05,541.6499999996283,5.365928e-06,541.6499999996283,5.467352e-06
541.6649999996283,1.355948e-05,541.6649999996283,3.659806e-05,541.6649999996283,5.297233e-06,541.6649999996283,5.315815e-06
541.6799999996283,1.318552e-05,541.6799999996283,3.84514e-05,541.6799999996283,5.273245e-06,541.6799999996283,5.323759e-06
541.6949999996283,1.315557e-05,541.6949999996283,3.983795e-05,541.6949999996283,5.365928e-06,541.6949999996283,4.756387e-06
541.7099999996283,1.254048e-05,541.7099999996283,3.716411e-05,541.7099999996283,5.477649e-06,541.7099999996283,4.690778e-06
541.7249999996283,1.033603e-05,541.7249999996283,3.814058e-05,541.7249999996283,4.803539e-06,541.7249999996283,4.531929e-06
541.7399999996283,9.976799e-06,541.7399999996283,3.791759e-05,541.7399999996283,4.844421e-06,541.7399999996283,4.672725e-06
541.7549999996282,1.000218e-05,541.7549999996282,3.830164e-05,541.7549999996282,4.83569e-06,541.7549999996282,5.085583e-06
541.7699999996282,9.897414e-06,541.7699999996282,4.022153e-05,541.7699999996282,4.79767e-06,541.7699999996282,4.993339e-06
541.7849999996282,9.582119e-06,541.7849999996282,4.119494e-05,541.7849999996282,4.663672e-06,541.7849999996282,5.096651e-06
541.7999999996282,8.805288e-06,541.7999999996282,4.132433e-05,541.7999999996282,4.415424e-06,541.7999999996282,5.137942e-06
541.8149999996282,8.583318e-06,541.8149999996282,4.127146e-05,541.8149999996282,4.684768e-06,541.8149999996282,6.293787e-06
541.8299999996282,8.251971e-06,541.8299999996282,4.1133e-05,541.8299999996282,4.621192e-06,541.8299999996282,7.542018e-06
541.8449999996282,8.114256e-06,541.8449999996282,4.198547e-05,541.8449999996282,4.982041e-06,541.8449999996282,7.508323e-06
541.8599999996281,7.903186e-06,541.8599999996281,4.161714e-05,541.8599999996281,5.181623e-06,541.8599999996281,7.519571e-06
541.8749999996281,8.062008e-06,541.8749999996281,4.114395e-05,541.8749999996281,5.599728e-06,541.8749999996281,7.556945e-06
541.8899999996281,7.270023e-06,541.8899999996281,4.138088e-05,541.8899999996281,6.406918e-06,541.8899999996281,7.508323e-06
541.9049999996281,6.971302e-06,541.9049999996281,4.209102e-05,541.9049999996281,7.188182e-06,541.9049999996281,7.523317e-06
541.9199999996281,6.404719e-06,541.9199999996281,4.2501e-05,541.9199999996281,7.773794e-06,541.9199999996281,7.555081e-06
541.9349999996281,6.426676e-06,541.9349999996281,4.044435e-05,541.9349999996281,8.721702e-06,541.9349999996281,7.621908e-06
541.9499999996281,6.524566e-06,541.9499999996281,4.046594e-05,541.9499999996281,8.677985e-06,541.9499999996281,7.558809e-06
541.964999999628,6.367219e-06,541.964999999628,4.200258e-05,541.964999999628,8.758771e-06,541.964999999628,7.605257e-06
541.979999999628,6.53104e-06,541.979999999628,4.115662e-05,541.979999999628,8.830848e-06,541.979999999628,7.847737e-06
541.994999999628,6.58688e-06,541.994999999628,4.043808e-05,541.994999999628,8.834038e-06,541.994999999628,8.000618e-06
542.009999999628,6.635885e-06,542.009999999628,3.986163e-05,542.009999999628,8.891258e-06,542.009999999628,7.968863e-06
542.024999999628,6.635885e-06,542.024999999628,3.8711e-05,542.024999999628,8.965412e-06,542.024999999628,8.021719e-06
542.039999999628,6.701369e-06,542.039999999628,3.6477e-05,542.039999999628,9.079387e-06,542.039999999628,7.874616e-06
542.054999999628,6.65708e-06,542.054999999628,3.664922e-05,542.054999999628,9.307691e-06,542.054999999628,7.431003e-06
542.069999999628,6.387099e-06,542.069999999628,3.810067e-05,542.069999999628,9.155096e-06,542.069999999628,6.248863e-06
542.0849999996279,6.509435e-06,542.0849999996279,3.659806e-05,542.0849999996279,9.074732e-06,542.0849999996279,5.809621e-06
542.0999999996279,7.293238e-06,542.0999999996279,3.689325e-05,542.0999999996279,9.540868e-06,542.0999999996279,5.912964e-06
542.1149999996279,7.62006e-06,542.1149999996279,3.799404e-05,542.1149999996279,9.42201e-06,542.1149999996279,5.972226e-06
542.1299999996279,7.702799e-06,542.1299999996279,3.642638e-05,542.1299999996279,9.116548e-06,542.1299999996279,6.091332e-06
542.1449999996279,8.485937e-06,542.1449999996279,3.629854e-05,542.1449999996279,8.827657e-06,542.1449999996279,6.302733e-06
542.1599999996279,8.89601e-06,542.1599999996279,3.673752e-05,542.1599999996279,8.350395e-06,542.1599999996279,6.309435e-06
542.1749999996279,9.161248e-06,542.1749999996279,4.274096e-05,542.1749999996279,7.677153e-06,542.1749999996279,6.428867e-06
542.1899999996278,9.287995e-06,542.1899999996278,4.382698e-05,542.1899999996278,7.176414e-06,542.1899999996278,6.389304e-06
542.2049999996278,9.381556e-06,542.2049999996278,4.36663e-05,542.2049999996278,7.00959e-06,542.2049999996278,6.561167e-06
542.2199999996278,9.598277e-06,542.2199999996278,4.307451e-05,542.2199999996278,6.846933e-06,542.2199999996278,6.435437e-06
542.2349999996278,9.474194e-06,542.2349999996278,4.344573e-05,542.2349999996278,6.69506e-06,542.2349999996278,5.838645e-06
542.2499999996278,9.459313e-06,542.2499999996278,4.273898e-05,542.2499999996278,6.671875e-06,542.2499999996278,5.741327e-06
542.2649999996278,9.459313e-06,542.2649999996278,4.521941e-05,542.2649999996278,6.654963e-06,542.2649999996278,5.559333e-06
542.2799999996278,9.41902e-06,542.2799999996278,4.550046e-05,542.2799999996278,6.608231e-06,542.2799999996278,5.48022e-06
542.2949999996277,9.462292e-06,542.2949999996277,4.617807e-05,542.2949999996277,6.428867e-06,542.2949999996277,5.652309e-06
542.3099999996277,9.439935e-06,542.3099999996277,4.560066e-05,542.3099999996277,6.160319e-06,542.3099999996277,5.672212e-06
542.3249999996277,9.408545e-06,542.3249999996277,4.566332e-05,542.3249999996277,6.148874e-06,542.3249999996277,5.399948e-06
542.3399999996277,9.29406e-06,542.3399999996277,4.617746e-05,542.3399999996277,6.125922e-06,542.3399999996277,5.363302e-06
542.3549999996277,9.115002e-06,542.3549999996277,4.596465e-05,542.3549999996277,5.381656e-06,542.3549999996277,5.373798e-06
542.3699999996277,8.985815e-06,542.3699999996277,4.548374e-05,542.3699999996277,5.48022e-06,542.3699999996277,5.208738e-06
542.3849999996277,8.798887e-06,542.3849999996277,4.606048e-05,542.3849999996277,5.259872e-06,542.3849999996277,5.151632e-06
542.3999999996277,7.822567e-06,542.3999999996277,4.52938e-05,542.3999999996277,4.744526e-06,542.3999999996277,4.916579e-06
542.4149999996276,7.961788e-06,542.4149999996276,4.299956e-05,542.4149999996276,4.624239e-06,542.4149999996276,4.850233e-06
542.4299999996276,7.719241e-06,542.4299999996276,3.725383e-05,542.4299999996276,4.415424e-06,542.4299999996276,4.67875e-06
542.4449999996276,8.051516e-06,542.4449999996276,3.856078e-05,542.4449999996276,4.887844e-06,542.4449999996276,4.687774e-06
542.4599999996276,7.881768e-06,542.4599999996276,3.834207e-05,542.4599999996276,4.887844e-06,542.4599999996276,4.415424e-06
542.4749999996276,7.83696e-06,542.4749999996276,3.74236e-05,542.4749999996276,4.902232e-06,542.4749999996276,4.500739e-06
542.4899999996276,7.926324e-06,542.4899999996276,3.706353e-05,542.4899999996276,4.890725e-06,542.4899999996276,4.584466e-06
542.5049999996276,7.919212e-06,542.5049999996276,3.711404e-05,542.5049999996276,4.87919e-06,542.5049999996276,4.463023e-06
542.5199999996275,8.041013e-06,542.5199999996275,3.4776e-05,542.5199999996275,4.942298e-06,542.5199999996275,4.541245e-06
542.5349999996275,8.1264e-06,542.5349999996275,3.445451e-05,542.5349999996275,4.993339e-06,542.5349999996275,4.531929e-06
542.5499999996275,8.348708e-06,542.5499999996275,3.486944e-05,542.5499999996275,5.140683e-06,542.5499999996275,4.29248e-06
542.5649999996275,8.42262e-06,542.5649999996275,3.640975e-05,542.5649999996275,5.235713e-06,542.5649999996275,4.47563e-06
542.5799999996275,8.500864e-06,542.5799999996275,3.614375e-05,542.5799999996275,5.273245e-06,542.5799999996275,4.519479e-06
542.5949999996275,8.362194e-06,542.5949999996275,3.600708e-05,542.5949999996275,5.189773e-06,542.5949999996275,4.624239e-06
542.6099999996275,8.397496e-06,542.6099999996275,3.559235e-05,542.6099999996275,5.216845e-06,542.6099999996275,4.497608e-06
542.6249999996274,9.131986e-06,542.6249999996274,3.531422e-05,542.6249999996274,5.371176e-06,542.6249999996274,4.500739e-06
542.6399999996274,9.260655e-06,542.6399999996274,3.532738e-05,542.6399999996274,5.34752e-06,542.6399999996274,4.998978e-06
542.6549999996274,9.840318e-06,542.6549999996274,3.457654e-05,542.6549999996274,5.642331e-06,542.6549999996274,5.472503e-06
542.6699999996274,9.322813e-06,542.6699999996274,3.373603e-05,542.6699999996274,5.485359e-06,542.6699999996274,5.687093e-06
542.6849999996274,9.713527e-06,542.6849999996274,3.447658e-05,542.6849999996274,5.587136e-06,542.6849999996274,5.917727e-06
542.6999999996274,9.369536e-06,542.6999999996274,3.649978e-05,542.6999999996274,5.227635e-06,542.6999999996274,6.48993e-06
542.7149999996274,9.706273e-06,542.7149999996274,3.847996e-05,542.7149999996274,5.402556e-06,542.7149999996274,7.117283e-06
542.7299999996274,9.805902e-06,542.7299999996274,3.88802e-05,542.7299999996274,5.790191e-06,542.7299999996274,8.331817e-06
542.7449999996273,9.745379e-06,542.7449999996273,4.058829e-05,542.7449999996273,5.901041e-06,542.7449999996273,1.074891e-05
542.7599999996273,9.922999e-06,542.7599999996273,4.24957e-05,542.7599999996273,5.979298e-06,542.7599999996273,1.118057e-05
542.7749999996273,9.878894e-06,542.7749999996273,4.293366e-05,542.7749999996273,6.070483e-06,542.7749999996273,1.310192e-05
542.7899999996273,1.013231e-05,542.7899999996273,4.387677e-05,542.7899999996273,6.082075e-06,542.7899999996273,1.383e-05
542.8049999996273,9.834591e-06,542.8049999996273,4.288441e-05,542.8049999996273,6.318359e-06,542.8049999996273,1.736976e-05
542.8199999996273,1.001344e-05,542.8199999996273,4.062403e-05,542.8199999996273,7.34712e-06,542.8199999996273,2.026671e-05
542.8349999996273,1.037547e-05,542.8349999996273,4.025303e-05,542.8349999996273,8.046266e-06,542.8349999996273,2.231259e-05
542.8499999996272,1.443796e-05,542.8499999996272,4.020751e-05,542.8499999996272,1.286978e-05,542.8499999996272,3.226681e-05
542.8649999996272,2.167856e-05,542.8649999996272,4.003442e-05,542.8649999996272,2.315894e-05,542.8649999996272,3.388061e-05
542.8799999996272,3.186926e-05,542.8799999996272,3.985174e-05,542.8799999996272,3.004595e-05,542.8799999996272,3.486015e-05
542.8949999996272,3.375481e-05,542.8949999996272,3.8928e-05,542.8949999996272,3.273233e-05,542.8949999996272,3.617531e-05
542.9099999996272,3.932045e-05,542.9099999996272,3.846239e-05,542.9099999996272,3.925053e-05,542.9099999996272,3.704946e-05
542.9249999996272,4.299595e-05,542.9249999996272,4.146012e-05,542.9249999996272,4.394734e-05,542.9249999996272,3.794135e-05
542.9399999996272,4.535316e-05,542.9399999996272,4.28624e-05,542.9399999996272,4.642511e-05,542.9399999996272,3.812322e-05
542.9549999996271,4.650454e-05,542.9549999996271,4.86146e-05,542.9549999996271,4.937736e-05,542.9549999996271,3.843674e-05
542.9699999996271,4.67857e-05,542.9699999996271,5.146543e-05,542.9699999996271,5.074325e-05,542.9699999996271,3.911716e-05
542.9849999996271,4.735521e-05,542.9849999996271,5.210361e-05,542.9849999996271,5.115466e-05,542.9849999996271,3.924371e-05
542.9999999996271,4.838777e-05,542.9999999996271,5.15819e-05,542.9999999996271,5.247833e-05,542.9999999996271,4.088016e-05
543.0149999996271,4.887527e-05,543.0149999996271,5.08223e-05,543.0149999996271,5.297419e-05,543.0149999996271,4.085431e-05
543.0299999996271,4.996807e-05,543.0299999996271,5.186759e-05,543.0299999996271,5.312899e-05,543.0299999996271,4.161036e-05
543.0449999996271,5.038106e-05,543.0449999996271,5.246544e-05,543.0449999996271,5.32532e-05,543.0449999996271,4.21432e-05
543.059999999627,5.070936e-05,543.059999999627,5.467378e-05,543.059999999627,5.4623e-05,543.059999999627,4.0331e-05
543.074999999627,5.112242e-05,543.074999999627,5.497697e-05,543.074999999627,5.538898e-05,543.074999999627,4.008365e-05
543.089999999627,5.121053e-05,543.089999999627,5.497261e-05,543.089999999627,5.542178e-05,543.089999999627,3.820147e-05
543.104999999627,5.00033e-05,543.104999999627,5.524561e-05,543.104999999627,5.277384e-05,543.104999999627,3.301983e-05
543.119999999627,4.296744e-05,543.119999999627,5.63846e-05,543.119999999627,4.956728e-05,543.119999999627,3.214171e-05
543.134999999627,4.195425e-05,543.134999999627,5.749443e-05,543.134999999627,4.741437e-05,543.134999999627,3.059878e-05
543.149999999627,3.915495e-05,543.149999999627,5.799938e-05,543.149999999627,4.405555e-05,543.149999999627,3.014658e-05
543.164999999627,3.298782e-05,543.164999999627,5.731333e-05,543.164999999627,3.991884e-05,543.164999999627,2.891882e-05
543.179999999627,2.954957e-05,543.179999999627,5.394832e-05,543.179999999627,3.668111e-05,543.179999999627,2.851264e-05
543.1949999996269,2.683016e-05,543.1949999996269,5.412689e-05,543.1949999996269,3.240056e-05,543.1949999996269,2.878798e-05
543.2099999996269,2.53619e-05,543.2099999996269,4.36721e-05,543.2099999996269,2.957816e-05,543.2099999996269,2.813316e-05
543.2249999996269,2.454964e-05,543.2249999996269,4.311079e-05,543.2249999996269,2.717292e-05,543.2249999996269,2.704145e-05
543.2399999996269,2.290635e-05,543.2399999996269,4.583329e-05,543.2399999996269,2.524388e-05,543.2399999996269,2.692137e-05
543.2549999996269,2.114301e-05,543.2549999996269,4.473552e-05,543.2549999996269,2.37523e-05,543.2549999996269,2.365722e-05
543.2699999996269,1.993453e-05,543.2699999996269,4.258114e-05,543.2699999996269,2.274589e-05,543.2699999996269,2.29426e-05
543.2849999996268,1.772698e-05,543.2849999996268,4.180323e-05,543.2849999996268,2.268947e-05,543.2849999996268,2.099122e-05
543.2999999996268,1.765372e-05,543.2999999996268,4.290444e-05,543.2999999996268,2.218723e-05,543.2999999996268,1.983961e-05
543.3149999996268,1.65406e-05,543.3149999996268,4.082499e-05,543.3149999996268,1.8067e-05,543.3149999996268,1.966345e-05
543.3299999996268,1.577068e-05,543.3299999996268,4.137884e-05,543.3299999996268,1.572058e-05,543.3299999996268,1.831173e-05
543.3449999996268,1.612926e-05,543.3449999996268,4.164488e-05,543.3449999996268,1.478979e-05,543.3449999996268,1.684859e-05
543.3599999996268,1.607764e-05,543.3599999996268,4.121476e-05,543.3599999996268,1.456521e-05,543.3599999996268,1.408534e-05
543.3749999996268,1.610478e-05,543.3749999996268,4.001577e-05,543.3749999996268,1.440573e-05,543.3749999996268,1.313092e-05
543.3899999996268,2.001563e-05,543.3899999996268,3.843821e-05,543.3899999996268,1.292112e-05,543.3899999996268,1.272559e-05
543.4049999996267,2.029796e-05,543.4049999996267,3.928856e-05,543.4049999996267,1.15194e-05,543.4049999996267,1.185329e-05
543.4199999996267,2.045696e-05,543.4199999996267,3.863523e-05,543.4199999996267,8.674737e-06,543.4199999996267,1.085454e-05
543.4349999996267,2.051609e-05,543.4349999996267,3.774892e-05,543.4349999996267,8.857925e-06,543.4349999996267,1.073186e-05
543.4499999996267,2.087953e-05,543.4499999996267,3.69882e-05,543.4499999996267,8.933933e-06,543.4499999996267,9.228656e-06
543.4649999996267,2.087615e-05,543.4649999996267,3.794061e-05,543.4649999996267,8.992083e-06,543.4649999996267,8.857925e-06
543.4799999996267,2.208988e-05,543.4799999996267,3.68168e-05,543.4799999996267,9.387561e-06,543.4799999996267,8.387425e-06
543.4949999996267,2.356116e-05,543.4949999996267,3.395246e-05,543.4949999996267,9.420515e-06,543.4949999996267,8.352081e-06
543.5099999996266,2.410084e-05,543.5099999996266,3.605478e-05,543.5099999996266,9.447393e-06,543.5099999996266,7.942303e-06
543.5249999996266,2.447263e-05,543.5249999996266,3.420749e-05,543.5249999996266,9.450374e-06,543.5249999996266,7.697311e-06
543.5399999996266,2.355099e-05,543.5399999996266,3.381944e-05,543.5399999996266,9.107272e-06,543.5399999996266,7.448044e-06
543.5549999996266,2.355518e-05,543.5549999996266,3.042334e-05,543.5549999996266,9.116548e-06,543.5549999996266,7.051666e-06
543.5699999996266,2.379792e-05,543.5699999996266,3.052411e-05,543.5699999996266,9.136613e-06,543.5699999996266,6.642251e-06
543.5849999996266,2.343166e-05,543.5849999996266,3.073338e-05,543.5849999996266,9.188883e-06,543.5849999996266,6.713969e-06
543.5999999996266,2.254747e-05,543.5999999996266,3.501377e-05,543.5999999996266,8.774839e-06,543.5999999996266,6.669763e-06
543.6149999996265,2.248992e-05,543.6149999996265,3.608993e-05,543.6149999996265,8.598076e-06,543.6149999996265,6.665538e-06
543.6299999996265,2.21332e-05,543.6299999996265,4.32211e-05,543.6299999996265,8.340267e-06,543.6299999996265,7.258388e-06
543.6449999996265,2.017755e-05,543.6449999996265,4.414978e-05,543.6449999996265,7.888914e-06,543.6449999996265,7.457495e-06
543.6599999996265,1.984742e-05,543.6599999996265,4.572775e-05,543.6599999996265,7.790086e-06,543.6599999996265,7.549485e-06
543.6749999996265,1.960246e-05,543.6749999996265,4.839359e-05,543.6749999996265,7.40822e-06,543.6749999996265,7.568121e-06
543.6899999996265,1.976064e-05,543.6899999996265,4.802571e-05,543.6899999996265,7.246734e-06,543.6899999996265,7.59228e-06
543.7049999996265,1.956794e-05,543.7049999996265,4.97927e-05,543.7049999996265,7.242846e-06,543.7049999996265,7.564397e-06
543.7199999996265,1.902184e-05,543.7199999996265,5.246034e-05,543.7199999996265,7.111343e-06,543.7199999996265,7.71011e-06
543.7349999996264,1.698764e-05,543.7349999996264,5.273192e-05,543.7349999996264,5.898653e-06,543.7349999996264,7.358615e-06
543.7499999996264,1.602059e-05,543.7499999996264,5.271214e-05,543.7499999996264,5.602244e-06,543.7499999996264,7.213613e-06
543.7649999996264,1.52281e-05,543.7649999996264,5.220462e-05,543.7649999996264,5.526294e-06,543.7649999996264,6.846933e-06
543.7799999996264,1.536348e-05,543.7799999996264,5.391306e-05,543.7799999996264,5.599728e-06,543.7799999996264,6.944984e-06
543.7949999996264,1.493387e-05,543.7949999996264,5.439947e-05,543.7949999996264,5.397339e-06,543.7949999996264,6.906339e-06
543.8099999996264,1.50588e-05,543.8099999996264,5.425089e-05,543.8099999996264,5.441526e-06,543.8099999996264,6.873626e-06
543.8249999996264,1.451678e-05,543.8249999996264,5.477083e-05,543.8249999996264,5.082812e-06,543.8249999996264,6.898175e-06
543.8399999996263,1.43381e-05,543.8399999996263,5.494288e-05,543.8399999996263,5.010237e-06,543.8399999996263,6.885912e-06
543.8549999996263,1.423556e-05,543.8549999996263,5.846914e-05,543.8549999996263,4.950841e-06,543.8549999996263,6.7391e-06
543.8699999996263,1.428002e-05,543.8699999996263,7.255593e-05,543.8699999996263,4.893604e-06,543.8699999996263,5.867525e-06
543.8849999996263,1.229431e-05,543.8849999996263,8.399307e-05,543.8849999996263,4.82986e-06,543.8849999996263,5.446701e-06
543.8999999996263,1.240155e-05,543.8999999996263,8.614951e-05,543.8999999996263,4.844421e-06,543.8999999996263,5.297233e-06
543.9149999996263,1.273886e-05,543.9149999996263,0.0001062512,543.9149999996263,5.046655e-06,543.9149999996263,5.219545e-06
543.9299999996263,1.424149e-05,543.9299999996263,0.0001084483,543.9299999996263,5.672212e-06,543.9299999996263,5.135199e-06
543.9449999996262,1.444186e-05,543.9449999996262,0.0001089104,543.9449999996262,5.639834e-06,543.9449999996262,5.035477e-06
543.9599999996262,1.530745e-05,543.9599999996262,0.0001097902,543.9599999996262,5.917727e-06,543.9599999996262,4.699779e-06
543.9749999996262,1.569458e-05,543.9749999996262,0.000109965,543.9749999996262,5.939112e-06,543.9749999996262,4.675739e-06
543.9899999996262,1.558198e-05,543.9899999996262,0.0001094018,543.9899999996262,5.972226e-06,543.9899999996262,4.756387e-06
544.0049999996262,1.550404e-05,544.0049999996262,0.0001093804,544.0049999996262,6.005157e-06,544.0049999996262,4.850233e-06
544.0199999996262,1.540194e-05,544.0199999996262,0.000109101,544.0199999996262,6.019215e-06,544.0199999996262,4.965048e-06
544.0349999996262,1.50943e-05,544.0349999996262,0.0001081633,544.0349999996262,5.893875e-06,544.0349999996262,4.861837e-06
544.0499999996262,1.552129e-05,544.0499999996262,0.0001080082,544.0499999996262,6.139704e-06,544.0499999996262,4.812329e-06
544.0649999996261,1.531113e-05,544.0649999996261,0.0001093723,544.0649999996261,6.162605e-06,544.0649999996261,5.342249e-06
544.0799999996261,1.520032e-05,544.0799999996261,0.0001093844,544.0799999996261,6.228541e-06,544.0799999996261,5.672212e-06
544.0949999996261,1.537081e-05,544.0949999996261,0.000107132,544.0949999996261,6.19907e-06,544.0949999996261,5.877121e-06
544.1099999996261,1.690701e-05,544.1099999996261,0.0001030283,544.1099999996261,6.580461e-06,544.1099999996261,5.920107e-06
544.1249999996261,1.734947e-05,544.1249999996261,8.632903e-05,544.1249999996261,6.701369e-06,544.1249999996261,6.000464e-06
544.1399999996261,1.742805e-05,544.1399999996261,8.002519e-05,544.1399999996261,6.612493e-06,544.1399999996261,6.089019e-06
544.154999999626,1.758576e-05,544.154999999626,6.989344e-05,544.154999999626,6.673986e-06,544.154999999626,6.030905e-06
544.169999999626,1.739083e-05,544.169999999626,4.388672e-05,544.169999999626,6.494269e-06,544.169999999626,6.06584e-06
544.184999999626,1.59165e-05,544.184999999626,4.067843e-05,544.184999999626,6.114414e-06,544.184999999626,5.974584e-06
544.199999999626,1.554215e-05,544.199999999626,3.561649e-05,544.199999999626,5.946224e-06,544.199999999626,6.485587e-06
544.214999999626,1.465969e-05,544.214999999626,3.48961e-05,544.214999999626,5.795054e-06,544.214999999626,6.398117e-06
544.229999999626,1.539462e-05,544.229999999626,3.458916e-05,544.229999999626,6.280343e-06,544.229999999626,6.291548e-06
544.244999999626,1.558288e-05,544.244999999626,3.564297e-05,544.244999999626,6.496438e-06,544.244999999626,6.298262e-06
544.259999999626,1.624239e-05,544.259999999626,3.770747e-05,544.259999999626,6.707672e-06,544.259999999626,6.400318e-06
544.274999999626,1.672018e-05,544.274999999626,4.151546e-05,544.274999999626,6.942956e-06,544.274999999626,6.376062e-06
544.2899999996259,1.631249e-05,544.2899999996259,4.209738e-05,544.2899999996259,6.873626e-06,544.2899999996259,6.351713e-06
544.3049999996259,1.611527e-05,544.3049999996259,4.414084e-05,544.3049999996259,6.910417e-06,544.3049999996259,6.382687e-06
544.3199999996259,1.614409e-05,544.3199999996259,4.094145e-05,544.3199999996259,6.953093e-06,544.3199999996259,5.979298e-06
544.3349999996259,1.634441e-05,544.3349999996259,4.117407e-05,544.3349999996259,7.137048e-06,544.3349999996259,5.743781e-06
544.3499999996259,1.623632e-05,544.3499999996259,4.211712e-05,544.3499999996259,7.142966e-06,544.3499999996259,5.795054e-06
544.3649999996259,1.500351e-05,544.3649999996259,4.392618e-05,544.3649999996259,7.10738e-06,544.3649999996259,5.577042e-06
544.3799999996259,1.443699e-05,544.3799999996259,4.415137e-05,544.3799999996259,7.001547e-06,544.3799999996259,5.56693e-06
544.3949999996258,1.425632e-05,544.3949999996258,4.417306e-05,544.3949999996258,6.963215e-06,544.3949999996258,5.379038e-06
544.4099999996258,1.3892e-05,544.4099999996258,4.456737e-05,544.4099999996258,6.826328e-06,544.4099999996258,5.334332e-06
544.4249999996258,1.401516e-05,544.4249999996258,4.407473e-05,544.4249999996258,6.887957e-06,544.4249999996258,5.326404e-06
544.4399999996258,1.389707e-05,544.4399999996258,4.531805e-05,544.4399999996258,6.836638e-06,544.4399999996258,4.970719e-06
544.4549999996258,1.41213e-05,544.4549999996258,4.510587e-05,544.4549999996258,6.877724e-06,544.4549999996258,4.864733e-06
544.4699999996258,1.391024e-05,544.4699999996258,4.332722e-05,544.4699999996258,6.910417e-06,544.4699999996258,4.858938e-06
544.4849999996258,1.264675e-05,544.4849999996258,4.618844e-05,544.4849999996258,6.500773e-06,544.4849999996258,4.993339e-06
544.4999999996257,1.151206e-05,544.4999999996257,4.614206e-05,544.4999999996257,6.125922e-06,544.4999999996257,4.947995e-06
544.5149999996257,1.118813e-05,544.5149999996257,4.097894e-05,544.5149999996257,5.946224e-06,544.5149999996257,4.744526e-06
544.5299999996257,1.105131e-05,544.5299999996257,4.188335e-05,544.5299999996257,5.843468e-06,544.5299999996257,5.02147e-06
544.5449999996257,1.107042e-05,544.5449999996257,4.143973e-05,544.5449999996257,5.654801e-06,544.5449999996257,5.029879e-06
544.5599999996257,1.13407e-05,544.5599999996257,4.00302e-05,544.5599999996257,5.490492e-06,544.5599999996257,5.038274e-06
544.5749999996257,1.134939e-05,544.5749999996257,4.047882e-05,544.5749999996257,5.457037e-06,544.5749999996257,4.902232e-06
544.5899999996257,1.092439e-05,544.5899999996257,4.065072e-05,544.5899999996257,5.214144e-06,544.5899999996257,4.753424e-06
544.6049999996256,1.086751e-05,544.6049999996256,4.21228e-05,544.6049999996256,5.113207e-06,544.6049999996256,4.75046e-06
