X[s],a: EMG RMS 1-1,X[s].1,a: EMG RMS 1-2,X[s].2,a: EMG RMS 1-3,X[s].3,a: EMG RMS 1-4
545.0099999996253,7.517698e-06,545.0099999996253,4.884817e-05,545.0099999996253,4.794733e-06,545.0099999996253,1.070952e-05
545.0249999996253,8.472646e-06,545.0249999996253,5.443856e-05,545.0249999996253,5.013047e-06,545.0249999996253,1.134815e-05
545.0399999996253,9.343943e-06,545.0399999996253,5.512513e-05,545.0399999996253,5.246463e-06,545.0399999996253,1.181401e-05
545.0549999996252,9.475681e-06,545.0549999996252,5.481582e-05,545.0549999996252,5.197909e-06,545.0549999996252,1.50354e-05
545.0699999996252,9.514254e-06,545.0699999996252,5.553477e-05,545.0699999996252,5.462197e-06,545.0699999996252,1.639089e-05
545.0849999996252,9.735256e-06,545.0849999996252,5.631536e-05,545.0849999996252,5.518642e-06,545.0849999996252,1.655508e-05
545.0999999996252,9.475681e-06,545.0999999996252,5.494621e-05,545.0999999996252,5.394728e-06,545.0999999996252,2.007536e-05
545.1149999996252,9.375548e-06,545.1149999996252,5.407429e-05,545.1149999996252,5.397339e-06,545.1149999996252,2.504218e-05
545.1299999996252,9.637821e-06,545.1299999996252,5.355048e-05,545.1299999996252,5.371176e-06,545.1299999996252,2.950998e-05
545.1449999996252,9.792964e-06,545.1449999996252,5.298004e-05,545.1449999996252,5.394728e-06,545.1449999996252,3.279209e-05
545.1599999996251,9.910215e-06,545.1599999996251,5.231217e-05,545.1599999996251,5.554263e-06,545.1599999996251,3.5111e-05
545.1749999996251,1.197155e-05,545.1749999996251,5.189908e-05,545.1749999996251,6.951067e-06,545.1749999996251,4.612038e-05
545.1899999996251,1.317376e-05,545.1899999996251,5.160102e-05,545.1899999996251,9.483111e-06,545.1899999996251,5.134129e-05
545.2049999996251,1.50803e-05,545.2049999996251,5.088767e-05,545.2049999996251,1.349387e-05,545.2049999996251,5.704899e-05
545.2199999996251,1.728358e-05,545.2199999996251,5.026686e-05,545.2199999996251,2.525392e-05,545.2199999996251,5.808651e-05
545.2349999996251,2.416796e-05,545.2349999996251,5.109542e-05,545.2349999996251,3.204075e-05,545.2349999996251,5.832924e-05
545.2499999996251,3.604736e-05,545.2499999996251,5.463383e-05,545.2499999996251,3.498761e-05,545.2499999996251,5.834421e-05
545.264999999625,4.725992e-05,545.264999999625,4.542455e-05,545.264999999625,3.994812e-05,545.264999999625,5.842504e-05
545.279999999625,5.174387e-05,545.279999999625,4.72125e-05,545.279999999625,4.375653e-05,545.279999999625,5.862986e-05
545.294999999625,5.305072e-05,545.294999999625,6.019964e-05,545.294999999625,4.470591e-05,545.294999999625,5.870382e-05
545.309999999625,5.396086e-05,545.309999999625,6.229423e-05,545.309999999625,4.496543e-05,545.309999999625,5.783009e-05
545.324999999625,5.562905e-05,545.324999999625,6.376394e-05,545.324999999625,4.581423e-05,545.324999999625,5.81362e-05
545.339999999625,5.848866e-05,545.339999999625,6.447902e-05,545.339999999625,4.651908e-05,545.339999999625,5.860319e-05
545.354999999625,5.925007e-05,545.354999999625,6.699666e-05,545.354999999625,4.69342e-05,545.354999999625,5.75532e-05
545.369999999625,5.944233e-05,545.369999999625,6.71122e-05,545.369999999625,4.69735e-05,545.369999999625,5.532179e-05
545.3849999996249,6.067001e-05,545.3849999996249,6.90187e-05,545.3849999996249,4.69861e-05,545.3849999996249,5.45794e-05
545.3999999996249,6.106299e-05,545.3999999996249,6.92701e-05,545.3999999996249,4.705979e-05,545.3999999996249,5.345096e-05
545.4149999996249,6.15492e-05,545.4149999996249,6.971182e-05,545.4149999996249,4.735164e-05,545.4149999996249,5.308602e-05
545.4299999996249,6.131646e-05,545.4299999996249,7.041691e-05,545.4299999996249,4.716683e-05,545.4299999996249,3.998548e-05
545.4449999996249,6.115381e-05,545.4449999996249,7.07008e-05,545.4449999996249,4.679292e-05,545.4449999996249,3.363441e-05
545.4599999996249,6.037372e-05,545.4599999996249,7.148171e-05,545.4599999996249,4.437256e-05,545.4599999996249,2.69517e-05
545.4749999996249,5.995015e-05,545.4749999996249,7.045011e-05,545.4749999996249,3.994353e-05,545.4749999996249,2.563482e-05
545.4899999996248,5.763465e-05,545.4899999996248,6.903258e-05,545.4899999996248,3.486379e-05,545.4899999996248,2.54473e-05
545.5049999996248,5.141149e-05,545.5049999996248,6.645707e-05,545.5049999996248,3.092938e-05,545.5049999996248,2.537023e-05
545.5199999996248,4.012931e-05,545.5199999996248,6.513935e-05,545.5199999996248,2.50405e-05,545.5199999996248,2.490681e-05
545.5349999996248,3.364362e-05,545.5349999996248,6.229876e-05,545.5349999996248,1.865771e-05,545.5349999996248,2.46327e-05
545.5499999996248,3.216492e-05,545.5499999996248,4.997033e-05,545.5499999996248,1.659587e-05,545.5499999996248,2.455423e-05
545.5649999996248,3.094987e-05,545.5649999996248,4.661709e-05,545.5649999996248,1.604432e-05,545.5649999996248,2.469267e-05
545.5799999996248,3.129117e-05,545.5799999996248,4.507807e-05,545.5799999996248,1.408934e-05,545.5799999996248,2.353304e-05
545.5949999996247,2.737744e-05,545.5949999996247,4.378485e-05,545.5949999996247,9.90595e-06,545.5949999996247,2.180555e-05
545.6099999996247,2.566063e-05,545.6099999996247,4.624422e-05,545.6099999996247,9.761266e-06,545.6099999996247,2.186039e-05
545.6249999996247,2.53102e-05,545.6249999996247,4.561301e-05,545.6249999996247,9.778569e-06,545.6249999996247,1.954921e-05
545.6399999996247,2.313094e-05,545.6399999996247,4.305096e-05,545.6399999996247,1.012675e-05,545.6399999996247,1.721007e-05
545.6549999996247,2.246799e-05,545.6549999996247,5.315947e-05,545.6549999996247,9.497953e-06,545.6549999996247,1.701332e-05
545.6699999996247,2.105086e-05,545.6699999996247,5.352338e-05,545.6699999996247,8.154087e-06,545.6699999996247,1.370312e-05
545.6849999996247,2.153448e-05,545.6849999996247,5.271909e-05,545.6849999996247,8.330127e-06,545.6849999996247,1.328874e-05
545.6999999996247,2.196646e-05,545.6999999996247,5.315126e-05,545.6999999996247,8.167896e-06,545.6999999996247,1.328238e-05
545.7149999996246,2.196966e-05,545.7149999996246,5.130863e-05,545.7149999996246,7.924546e-06,545.7149999996246,1.27466e-05
545.7299999996246,2.157238e-05,545.7299999996246,5.197177e-05,545.7299999996246,7.945849e-06,545.7299999996246,1.229889e-05
545.7449999996246,2.182169e-05,545.7449999996246,5.170656e-05,545.7449999996246,7.818965e-06,545.7449999996246,1.203375e-05
545.7599999996246,2.579696e-05,545.7599999996246,5.162012e-05,545.7599999996246,8.69096e-06,545.7599999996246,1.183783e-05
545.7749999996246,2.660291e-05,545.7749999996246,5.127842e-05,545.7749999996246,8.916571e-06,545.7749999996246,1.128217e-05
545.7899999996246,2.684749e-05,545.7899999996246,5.117145e-05,545.7899999996246,9.054529e-06,545.7899999996246,1.13096e-05
545.8049999996246,2.745862e-05,545.8049999996246,5.23617e-05,545.8049999996246,9.265217e-06,545.8049999996246,1.077378e-05
545.8199999996245,2.701121e-05,545.8199999996245,5.055802e-05,545.8199999996245,9.214908e-06,545.8199999996245,1.055717e-05
545.8349999996245,2.321665e-05,545.8349999996245,5.109293e-05,545.8349999996245,8.167896e-06,545.8349999996245,1.056251e-05
545.8499999996245,2.452093e-05,545.8499999996245,4.764879e-05,545.8499999996245,8.502521e-06,545.8499999996245,9.655344e-06
545.8649999996245,2.760903e-05,545.8649999996245,4.59625e-05,545.8649999996245,9.398059e-06,545.8649999996245,9.674292e-06
545.8799999996245,2.754723e-05,545.8799999996245,4.65115e-05,545.8799999996245,9.295575e-06,545.8799999996245,9.665551e-06
545.8949999996245,2.697677e-05,545.8949999996245,4.227936e-05,545.8949999996245,8.848378e-06,545.8949999996245,9.079387e-06
545.9099999996245,2.712986e-05,545.9099999996245,3.433163e-05,545.9099999996245,8.990517e-06,545.9099999996245,7.887128e-06
545.9249999996244,2.779464e-05,545.9249999996244,3.454556e-05,545.9249999996244,9.073179e-06,545.9249999996244,7.818965e-06
545.9399999996244,2.779565e-05,545.9399999996244,3.543687e-05,545.9399999996244,8.729774e-06,545.9399999996244,7.651422e-06
545.9549999996244,2.868798e-05,545.9549999996244,3.345678e-05,545.9549999996244,8.859515e-06,545.9549999996244,7.68449e-06
545.9699999996244,2.867914e-05,545.9699999996244,3.409199e-05,545.9699999996244,8.888089e-06,545.9699999996244,7.680822e-06
545.9849999996244,2.988282e-05,545.9849999996244,3.324517e-05,545.9849999996244,9.145859e-06,545.9849999996244,7.618211e-06
545.9999999996244,2.990214e-05,545.9999999996244,3.346309e-05,545.9999999996244,8.985815e-06,545.9999999996244,7.56626e-06
546.0149999996244,2.619578e-05,546.0149999996244,3.326931e-05,546.0149999996244,8.178238e-06,546.0149999996244,7.655103e-06
546.0299999996244,2.591573e-05,546.0299999996244,3.389516e-05,546.0299999996244,8.119463e-06,546.0299999996244,7.528932e-06
546.0449999996243,2.560568e-05,546.0449999996243,3.120597e-05,546.0449999996243,7.885342e-06,546.0449999996243,6.969281e-06
546.0599999996243,2.489663e-05,546.0599999996243,3.072742e-05,546.0599999996243,7.542018e-06,546.0599999996243,6.652846e-06
546.0749999996243,2.460638e-05,546.0749999996243,3.095488e-05,546.0749999996243,7.283574e-06,546.0749999996243,6.713969e-06
546.0899999996243,2.41458e-05,546.0899999996243,3.102806e-05,546.0899999996243,7.197973e-06,546.0899999996243,6.711871e-06
546.1049999996243,1.930558e-05,546.1049999996243,3.071687e-05,546.1049999996243,5.845879e-06,546.1049999996243,6.541815e-06
546.1199999996243,1.898849e-05,546.1199999996243,3.038581e-05,546.1199999996243,5.751133e-06,546.1199999996243,6.284828e-06
546.1349999996243,1.930704e-05,546.1349999996243,3.018768e-05,546.1349999996243,5.941484e-06,546.1349999996243,5.853103e-06
546.1499999996242,1.934422e-05,546.1499999996242,2.981486e-05,546.1499999996242,6.054217e-06,546.1499999996242,5.632336e-06
546.1649999996242,1.889031e-05,546.1649999996242,3.015546e-05,546.1649999996242,5.976941e-06,546.1649999996242,5.594695e-06
546.1799999996242,1.737382e-05,546.1799999996242,3.021846e-05,546.1799999996242,5.787757e-06,546.1799999996242,5.632336e-06
546.1949999996242,1.80053e-05,546.1949999996242,2.873852e-05,546.1949999996242,6.509435e-06,546.1949999996242,5.824151e-06
546.2099999996242,1.681846e-05,546.2099999996242,2.878162e-05,546.2099999996242,6.382687e-06,546.2099999996242,5.802342e-06
546.2249999996242,1.678492e-05,546.2249999996242,2.889056e-05,546.2249999996242,6.376062e-06,546.2249999996242,5.748683e-06
546.2399999996242,1.410932e-05,546.2399999996242,2.889933e-05,546.2399999996242,6.075122e-06,546.2399999996242,5.877121e-06
546.2549999996241,1.358128e-05,546.2549999996241,2.899714e-05,546.2549999996241,6.042573e-06,546.2549999996241,5.948592e-06
546.2699999996241,1.343004e-05,546.2699999996241,2.932466e-05,546.2699999996241,5.984008e-06,546.2699999996241,6.237581e-06
546.2849999996241,1.384934e-05,546.2849999996241,3.064754e-05,546.2849999996241,6.102884e-06,546.2849999996241,7.691819e-06
546.2999999996241,1.37708e-05,546.2999999996241,3.159402e-05,546.2999999996241,6.06584e-06,546.2999999996241,1.051706e-05
546.3149999996241,1.355844e-05,546.3149999996241,2.968512e-05,546.3149999996241,6.068162e-06,546.3149999996241,1.26144e-05
546.3299999996241,1.356259e-05,546.3299999996241,2.964951e-05,546.3299999996241,6.093644e-06,546.3299999996241,1.262891e-05
546.3449999996241,1.332262e-05,546.3449999996241,3.022312e-05,546.3449999996241,6.148874e-06,546.3449999996241,1.275654e-05
546.359999999624,1.300913e-05,546.359999999624,3.06696e-05,546.359999999624,6.162605e-06,546.359999999624,1.277199e-05
546.374999999624,1.279293e-05,546.374999999624,3.042149e-05,546.374999999624,6.201342e-06,546.374999999624,1.277861e-05
546.389999999624,1.185448e-05,546.389999999624,3.274179e-05,546.389999999624,5.998116e-06,546.389999999624,1.370929e-05
546.404999999624,1.155237e-05,546.404999999624,3.580425e-05,546.404999999624,5.960421e-06,546.404999999624,1.371031e-05
546.419999999624,1.159375e-05,546.419999999624,3.535807e-05,546.419999999624,5.976941e-06,546.419999999624,1.378205e-05
546.434999999624,1.119694e-05,546.434999999624,3.486096e-05,546.434999999624,5.931993e-06,546.434999999624,1.361546e-05
546.449999999624,8.637307e-06,546.449999999624,3.626282e-05,546.449999999624,5.157098e-06,546.449999999624,1.365472e-05
546.464999999624,8.484277e-06,546.464999999624,3.46632e-05,546.464999999624,5.140683e-06,546.464999999624,1.366297e-05
546.4799999996239,9.359006e-06,546.4799999996239,3.504996e-05,546.4799999996239,5.556798e-06,546.4799999996239,1.374725e-05
546.4949999996239,9.414533e-06,546.4949999996239,3.701028e-05,546.4949999996239,5.508422e-06,546.4949999996239,1.391935e-05
546.5099999996239,9.478654e-06,546.5099999996239,3.691806e-05,546.5099999996239,5.639834e-06,546.5099999996239,1.374623e-05
546.5249999996239,8.54384e-06,546.5249999996239,3.605127e-05,546.5249999996239,5.446701e-06,546.5249999996239,1.371956e-05
546.5399999996239,8.89601e-06,546.5399999996239,3.473587e-05,546.5399999996239,5.599728e-06,546.5399999996239,1.180805e-05
546.5549999996239,9.176611e-06,546.5549999996239,3.486217e-05,546.5549999996239,5.652309e-06,546.5549999996239,1.007235e-05
546.5699999996239,9.871762e-06,546.5699999996239,3.470382e-05,546.5699999996239,5.8867e-06,546.5699999996239,8.341955e-06
546.5849999996238,1.005976e-05,546.5849999996238,3.463759e-05,546.5849999996238,5.841057e-06,546.5849999996238,8.343643e-06
546.5999999996238,1.02388e-05,546.5999999996238,3.422149e-05,546.5999999996238,5.706874e-06,546.5999999996238,8.096878e-06
546.6149999996238,1.049695e-05,546.6149999996238,3.35539e-05,546.6149999996238,5.420777e-06,546.6149999996238,8.081204e-06
546.6299999996238,1.049293e-05,546.6299999996238,3.353878e-05,546.6299999996238,5.392116e-06,546.6299999996238,8.117728e-06
546.6449999996238,1.11465e-05,546.6449999996238,2.960815e-05,546.6449999996238,5.644828e-06,546.6449999996238,7.483893e-06
546.6599999996238,1.119317e-05,546.6599999996238,2.936162e-05,546.6599999996238,6.137409e-06,546.6599999996238,7.790086e-06
546.6749999996238,1.235603e-05,546.6749999996238,2.945647e-05,546.6749999996238,6.766219e-06,546.6749999996238,8.224612e-06
546.6899999996238,1.277089e-05,546.6899999996238,2.868897e-05,546.6899999996238,7.035667e-06,546.6899999996238,8.246849e-06
546.7049999996237,1.332156e-05,546.7049999996237,2.730841e-05,546.7049999996237,7.22337e-06,546.7049999996237,8.231461e-06
546.7199999996237,1.318552e-05,546.7199999996237,2.71527e-05,546.7199999996237,7.166593e-06,546.7199999996237,8.186846e-06
546.7349999996237,1.307286e-05,546.7349999996237,2.701226e-05,546.7349999996237,7.254505e-06,546.7349999996237,7.833364e-06
546.7499999996237,1.330887e-05,546.7499999996237,2.552192e-05,546.7499999996237,7.370092e-06,546.7499999996237,7.63668e-06
546.7649999996237,1.327814e-05,546.7649999996237,2.534746e-05,546.7649999996237,7.325999e-06,546.7649999996237,7.581139e-06
546.7799999996237,1.328874e-05,546.7799999996237,2.512586e-05,546.7799999996237,7.302889e-06,546.7799999996237,7.573703e-06
546.7949999996237,1.377387e-05,546.7949999996237,2.501404e-05,546.7949999996237,7.50457e-06,546.7949999996237,7.528932e-06
546.8099999996236,1.396784e-05,546.8099999996236,2.488645e-05,546.8099999996236,7.502692e-06,546.8099999996236,7.434793e-06
546.8249999996236,1.367946e-05,546.8249999996236,2.702112e-05,546.8249999996236,7.63668e-06,546.8249999996236,7.27777e-06
546.8399999996236,1.357194e-05,546.8399999996236,2.784325e-05,546.8399999996236,7.621908e-06,546.8399999996236,7.256447e-06
546.8549999996236,1.324202e-05,546.8549999996236,3.152261e-05,546.8549999996236,7.614512e-06,546.8549999996236,7.610811e-06
546.8699999996236,1.326752e-05,546.8699999996236,3.448679e-05,546.8699999996236,7.590424e-06,546.8699999996236,7.483893e-06
546.8849999996236,1.313843e-05,546.8849999996236,3.561213e-05,546.8849999996236,7.607108e-06,546.8849999996236,6.684531e-06
546.8999999996236,1.268678e-05,546.8999999996236,3.418442e-05,546.8999999996236,7.345202e-06,546.8999999996236,6.226279e-06
546.9149999996235,1.205363e-05,546.9149999996235,3.40105e-05,546.9149999996235,6.461651e-06,546.9149999996235,5.704405e-06
546.9299999996235,1.087269e-05,546.9299999996235,3.417412e-05,546.9299999996235,6.01219e-06,546.9299999996235,5.278585e-06
546.9449999996235,1.046066e-05,546.9449999996235,3.454923e-05,546.9449999996235,5.556798e-06,546.9449999996235,5.206033e-06
546.9599999996235,9.393561e-06,546.9599999996235,3.441073e-05,546.9599999996235,5.342249e-06,546.9599999996235,4.962209e-06
546.9749999996235,8.98895e-06,546.9749999996235,3.476465e-05,546.9749999996235,4.87919e-06,546.9749999996235,5.029879e-06
546.9899999996235,8.492574e-06,546.9899999996235,3.633073e-05,546.9899999996235,4.642481e-06,546.9899999996235,5.029879e-06
547.0049999996235,8.399174e-06,547.0049999996235,3.581842e-05,547.0049999996235,4.699779e-06,547.0049999996235,5.093886e-06
547.0199999996235,8.308113e-06,547.0199999996235,3.578576e-05,547.0199999996235,4.651575e-06,547.0199999996235,5.249148e-06
547.0349999996234,8.763595e-06,547.0349999996234,3.552342e-05,547.0349999996234,4.910845e-06,547.0349999996234,5.352786e-06
547.0499999996234,7.21166e-06,547.0499999996234,3.563586e-05,547.0499999996234,4.272744e-06,547.0499999996234,5.331691e-06
547.0649999996234,7.123218e-06,547.0649999996234,3.591111e-05,547.0649999996234,4.035369e-06,547.0649999996234,5.510979e-06
547.0799999996234,6.795303e-06,547.0799999996234,3.552263e-05,547.0799999996234,3.834905e-06,547.0799999996234,5.604757e-06
547.0949999996234,6.822199e-06,547.0949999996234,3.453536e-05,547.0949999996234,3.932833e-06,547.0949999996234,5.597212e-06
547.1099999996234,6.784931e-06,547.1099999996234,2.958816e-05,547.1099999996234,3.982663e-06,547.1099999996234,5.178904e-06
547.1249999996234,6.768301e-06,547.1249999996234,2.681966e-05,547.1249999996234,4.042345e-06,547.1249999996234,5.159829e-06
547.1399999996233,6.743279e-06,547.1399999996233,2.734037e-05,547.1399999996233,4.049309e-06,547.1399999996233,5.299891e-06
547.1549999996233,6.635885e-06,547.1549999996233,2.783161e-05,547.1549999996233,4.028382e-06,547.1549999996233,5.444114e-06
547.1699999996233,6.676097e-06,547.1699999996233,2.812865e-05,547.1699999996233,3.950702e-06,547.1699999996233,5.281253e-06
547.1849999996233,6.887957e-06,547.1849999996233,2.794728e-05,547.1849999996233,4.05626e-06,547.1849999996233,5.299891e-06
547.1999999996233,7.485775e-06,547.1999999996233,2.784679e-05,547.1999999996233,4.289197e-06,547.1999999996233,5.233022e-06
547.2149999996233,7.781039e-06,547.2149999996233,2.782756e-05,547.2149999996233,4.447213e-06,547.2149999996233,5.305204e-06
547.2299999996233,9.031162e-06,547.2299999996233,2.585096e-05,547.2299999996233,5.135199e-06,547.2299999996233,5.329048e-06
547.2449999996232,9.116548e-06,547.2449999996232,2.413763e-05,547.2449999996232,5.249148e-06,547.2449999996232,5.457037e-06
547.2599999996232,1.05545e-05,547.2599999996232,2.343466e-05,547.2599999996232,5.428567e-06,547.2599999996232,5.329048e-06
547.2749999996232,1.075415e-05,547.2749999996232,2.532689e-05,547.2749999996232,5.472503e-06,547.2749999996232,5.265225e-06
547.2899999996232,1.062633e-05,547.2899999996232,2.969082e-05,547.2899999996232,5.318464e-06,547.2899999996232,5.381656e-06
547.3049999996232,1.102835e-05,547.3049999996232,2.998306e-05,547.3049999996232,5.373798e-06,547.3049999996232,5.787757e-06
547.3199999996232,1.131583e-05,547.3199999996232,3.323669e-05,547.3199999996232,5.513535e-06,547.3199999996232,8.046266e-06
547.3349999996232,1.118939e-05,547.3349999996232,3.456187e-05,547.3349999996232,5.48279e-06,547.3349999996232,1.443601e-05
547.3499999996232,1.122709e-05,547.3499999996232,3.535329e-05,547.3499999996232,5.701935e-06,547.3499999996232,1.563883e-05
547.3649999996231,1.123086e-05,547.3649999996231,3.648859e-05,547.3649999996231,5.8867e-06,547.3649999996231,1.603378e-05
547.3799999996231,1.123587e-05,547.3799999996231,3.747025e-05,547.3799999996231,5.934367e-06,547.3799999996231,1.900332e-05
547.3949999996231,1.127342e-05,547.3949999996231,3.808551e-05,547.3949999996231,6.037908e-06,547.3949999996231,2.121883e-05
547.4099999996231,1.13096e-05,547.4099999996231,3.770262e-05,547.4099999996231,6.144291e-06,547.4099999996231,2.910334e-05
547.4249999996231,1.128716e-05,547.4249999996231,3.717813e-05,547.4249999996231,6.116717e-06,547.4249999996231,3.115627e-05
547.4399999996231,1.119568e-05,547.4399999996231,3.688675e-05,547.4399999996231,6.107498e-06,547.4399999996231,3.928712e-05
547.454999999623,1.086362e-05,547.454999999623,3.712847e-05,547.454999999623,6.242096e-06,547.454999999623,5.406127e-05
547.469999999623,1.341954e-05,547.469999999623,3.755474e-05,547.469999999623,7.295169e-06,547.469999999623,6.850449e-05
547.484999999623,1.35043e-05,547.484999999623,3.810436e-05,547.484999999623,8.265616e-06,547.484999999623,7.808761e-05
547.499999999623,1.394766e-05,547.499999999623,3.801665e-05,547.499999999623,1.718796e-05,547.499999999623,7.847486e-05
547.514999999623,1.488e-05,547.514999999623,3.805961e-05,547.514999999623,2.684696e-05,547.514999999623,7.856456e-05
547.529999999623,1.815024e-05,547.529999999623,3.454148e-05,547.529999999623,3.661461e-05,547.529999999623,7.865756e-05
547.544999999623,3.200688e-05,547.544999999623,3.294509e-05,547.544999999623,3.895224e-05,547.544999999623,7.874187e-05
547.559999999623,3.764092e-05,547.559999999623,3.035288e-05,547.559999999623,4.039905e-05,547.559999999623,7.890593e-05
547.574999999623,3.907608e-05,547.574999999623,2.627739e-05,547.574999999623,4.136624e-05,547.574999999623,7.851219e-05
547.5899999996229,3.913732e-05,547.5899999996229,2.556603e-05,547.5899999996229,4.160122e-05,547.5899999996229,7.758867e-05
547.6049999996229,3.927313e-05,547.6049999996229,2.645477e-05,547.6049999996229,4.180592e-05,547.6049999996229,7.78692e-05
547.6199999996229,3.981956e-05,547.6199999996229,2.586785e-05,547.6199999996229,4.185576e-05,547.6199999996229,7.807606e-05
547.6349999996229,4.0855e-05,547.6349999996229,2.35486e-05,547.6349999996229,4.228768e-05,547.6349999996229,7.771547e-05
547.6499999996229,4.169221e-05,547.6499999996229,2.318508e-05,547.6499999996229,4.231166e-05,547.6499999996229,7.678236e-05
547.6649999996229,4.179985e-05,547.6649999996229,2.460523e-05,547.6649999996229,4.237421e-05,547.6649999996229,7.520246e-05
547.6799999996229,4.388351e-05,547.6799999996229,2.557485e-05,547.6799999996229,4.243632e-05,547.6799999996229,7.404663e-05
547.6949999996228,4.466619e-05,547.6949999996228,2.632505e-05,547.6949999996228,4.266607e-05,547.6949999996228,6.857931e-05
547.7099999996228,4.491747e-05,547.7099999996228,2.657483e-05,547.7099999996228,4.295104e-05,547.7099999996228,5.784592e-05
547.7249999996228,4.493848e-05,547.7249999996228,2.609395e-05,547.7249999996228,4.305358e-05,547.7249999996228,4.24184e-05
547.7399999996228,4.471915e-05,547.7399999996228,2.531409e-05,547.7399999996228,4.288869e-05,547.7399999996228,3.067419e-05
547.7549999996228,4.461602e-05,547.7549999996228,2.716877e-05,547.7549999996228,3.873973e-05,547.7549999996228,3.015032e-05
547.7699999996228,4.370918e-05,547.7699999996228,2.775711e-05,547.7699999996228,3.330486e-05,547.7699999996228,3.004126e-05
547.7849999996228,4.172261e-05,547.7849999996228,2.754723e-05,547.7849999996228,2.153905e-05,547.7849999996228,2.983187e-05
547.7999999996227,3.061443e-05,547.7999999996227,2.795584e-05,547.7999999996227,1.980052e-05,547.7999999996227,2.933475e-05
547.8149999996227,2.792559e-05,547.8149999996227,2.82994e-05,547.8149999996227,1.737787e-05,547.8149999996227,2.924192e-05
547.8299999996227,2.774797e-05,547.8299999996227,2.823911e-05,547.8299999996227,1.522347e-05,547.8299999996227,2.921493e-05
547.8449999996227,2.755285e-05,547.8449999996227,2.822564e-05,547.8449999996227,1.505973e-05,547.8449999996227,2.911108e-05
547.8599999996227,2.77774e-05,547.8599999996227,2.669278e-05,547.8599999996227,1.444674e-05,547.8599999996227,2.778095e-05
547.8749999996227,2.692137e-05,547.8749999996227,2.504387e-05,547.8749999996227,1.358957e-05,547.8749999996227,2.735737e-05
547.8899999996227,2.50101e-05,547.8899999996227,2.501911e-05,547.8899999996227,1.305237e-05,547.8899999996227,2.650105e-05
547.9049999996226,2.467498e-05,547.9049999996226,2.680968e-05,547.9049999996226,1.292657e-05,547.9049999996226,2.602529e-05
547.9199999996226,2.467955e-05,547.9199999996226,2.62495e-05,547.9199999996226,1.294073e-05,547.9199999996226,2.211346e-05
547.9349999996226,2.113235e-05,547.9349999996226,2.513595e-05,547.9349999996226,1.212123e-05,547.9349999996226,2.078215e-05
547.9499999996226,2.065978e-05,547.9499999996226,2.458404e-05,547.9499999996226,1.196448e-05,547.9499999996226,1.568021e-05
547.9649999996226,2.044387e-05,547.9649999996226,2.834665e-05,547.9649999996226,1.055183e-05,547.9649999996226,1.191138e-05
547.9799999996226,1.978913e-05,547.9799999996226,2.84523e-05,547.9799999996226,9.696108e-06,547.9799999996226,8.55208e-06
547.9949999996226,1.99211e-05,547.9949999996226,2.846319e-05,547.9949999996226,9.478654e-06,547.9949999996226,7.98652e-06
548.0099999996226,2.053874e-05,548.0099999996226,2.638866e-05,548.0099999996226,8.210899e-06,548.0099999996226,7.170523e-06
548.0249999996225,2.083901e-05,548.0249999996225,2.639132e-05,548.0249999996225,8.395818e-06,548.0249999996225,6.894089e-06
548.0399999996225,2.079909e-05,548.0399999996225,2.654248e-05,548.0399999996225,7.977696e-06,548.0399999996225,6.474718e-06
548.0549999996225,1.914806e-05,548.0549999996225,2.65446e-05,548.0549999996225,7.231167e-06,548.0549999996225,6.463831e-06
548.0699999996225,1.896993e-05,548.0699999996225,2.727589e-05,548.0699999996225,7.156758e-06,548.0699999996225,6.128222e-06
548.0849999996225,1.898849e-05,548.0849999996225,2.757891e-05,548.0849999996225,6.995509e-06,548.0849999996225,6.246608e-06
548.0999999996225,1.878937e-05,548.0999999996225,2.73048e-05,548.0999999996225,6.803591e-06,548.0999999996225,6.327271e-06
548.1149999996225,1.834785e-05,548.1149999996225,2.710336e-05,548.1149999996225,6.498606e-06,548.1149999996225,6.287069e-06
548.1299999996224,1.841146e-05,548.1299999996224,2.689938e-05,548.1299999996224,6.426676e-06,548.1299999996224,6.044903e-06
548.1449999996224,1.890596e-05,548.1449999996224,2.660927e-05,548.1449999996224,6.479067e-06,548.1449999996224,6.121322e-06
548.1599999996224,1.868789e-05,548.1599999996224,2.415805e-05,548.1599999996224,6.413511e-06,548.1599999996224,5.795054e-06
548.1749999996224,1.850533e-05,548.1749999996224,2.413355e-05,548.1749999996224,6.331722e-06,548.1749999996224,5.699464e-06
548.1899999996224,1.834324e-05,548.1899999996224,2.463155e-05,548.1899999996224,6.360578e-06,548.1899999996224,5.920107e-06
548.2049999996224,1.776032e-05,548.2049999996224,2.150764e-05,548.2049999996224,5.991066e-06,548.2049999996224,5.679657e-06
548.2199999996224,1.845273e-05,548.2199999996224,2.021521e-05,548.2199999996224,6.146583e-06,548.2199999996224,5.677176e-06
548.2349999996223,1.939004e-05,548.2349999996223,2.027852e-05,548.2349999996223,6.19225e-06,548.2349999996223,5.689569e-06
548.2499999996223,1.961755e-05,548.2499999996223,2.022148e-05,548.2499999996223,6.237581e-06,548.2499999996223,5.743781e-06
548.2649999996223,1.896548e-05,548.2649999996223,2.062771e-05,548.2649999996223,6.125922e-06,548.2649999996223,6.226279e-06
548.2799999996223,1.811761e-05,548.2799999996223,2.067273e-05,548.2799999996223,6.002811e-06,548.2799999996223,6.275856e-06
548.2949999996223,1.79324e-05,548.2949999996223,2.076791e-05,548.2949999996223,5.984008e-06,548.2949999996223,6.351713e-06
548.3099999996223,1.829788e-05,548.3099999996223,2.136504e-05,548.3099999996223,6.205884e-06,548.3099999996223,6.194524e-06
548.3249999996223,1.817273e-05,548.3249999996223,1.986019e-05,548.3249999996223,6.183143e-06,548.3249999996223,6.171741e-06
548.3399999996223,1.799513e-05,548.3399999996223,1.96441e-05,548.3399999996223,6.189974e-06,548.3399999996223,6.095956e-06
548.3549999996222,1.791117e-05,548.3549999996222,1.945676e-05,548.3549999996222,6.183143e-06,548.3549999996222,6.095956e-06
548.3699999996222,1.777618e-05,548.3699999996222,1.947919e-05,548.3699999996222,6.098266e-06,548.3699999996222,6.082075e-06
548.3849999996222,1.762337e-05,548.3849999996222,1.995995e-05,548.3849999996222,6.040241e-06,548.3849999996222,6.005157e-06
548.3999999996222,1.720516e-05,548.3999999996222,2.039696e-05,548.3999999996222,6.086705e-06,548.3999999996222,5.845879e-06
548.4149999996222,1.72387e-05,548.4149999996222,2.026323e-05,548.4149999996222,6.005157e-06,548.4149999996222,5.726587e-06
548.4299999996222,1.64595e-05,548.4299999996222,2.566173e-05,548.4299999996222,5.753582e-06,548.4299999996222,5.765811e-06
548.4449999996222,1.602411e-05,548.4449999996222,2.493847e-05,548.4449999996222,5.634837e-06,548.4449999996222,5.365928e-06
548.4599999996221,1.521514e-05,548.4599999996221,2.516899e-05,548.4599999996221,5.219545e-06,548.4599999996221,5.433755e-06
548.4749999996221,1.346461e-05,548.4749999996221,2.494863e-05,548.4749999996221,4.939447e-06,548.4749999996221,5.34752e-06
548.4899999996221,1.31962e-05,548.4899999996221,2.590975e-05,548.4899999996221,4.998978e-06,548.4899999996221,5.307859e-06
548.5049999996221,1.292766e-05,548.5049999996221,2.60123e-05,548.5049999996221,4.987693e-06,548.5049999996221,5.14616e-06
548.5199999996221,1.273997e-05,548.5199999996221,2.67876e-05,548.5199999996221,5.085583e-06,548.5199999996221,4.535037e-06
548.5349999996221,1.263114e-05,548.5349999996221,3.232918e-05,548.5349999996221,5.12971e-06,548.5349999996221,4.503868e-06
548.5499999996221,1.233321e-05,548.5499999996221,3.464085e-05,548.5499999996221,5.14616e-06,548.5499999996221,4.75046e-06
548.564999999622,1.210145e-05,548.564999999622,3.438002e-05,548.564999999622,4.925167e-06,548.564999999622,4.847328e-06
548.579999999622,1.153773e-05,548.579999999622,3.496586e-05,548.579999999622,4.902232e-06,548.579999999622,4.672725e-06
548.594999999622,1.157916e-05,548.594999999622,3.529267e-05,548.594999999622,4.910845e-06,548.594999999622,4.756387e-06
548.609999999622,1.155359e-05,548.609999999622,3.581212e-05,548.609999999622,4.930884e-06,548.609999999622,4.844421e-06
548.624999999622,1.123086e-05,548.624999999622,3.606845e-05,548.624999999622,4.95937e-06,548.624999999622,4.936594e-06
548.639999999622,1.098098e-05,548.639999999622,3.659768e-05,548.639999999622,4.925167e-06,548.639999999622,5.192486e-06
548.654999999622,1.004013e-05,548.654999999622,3.743151e-05,548.654999999622,4.690778e-06,548.654999999622,5.157098e-06
548.669999999622,1.017255e-05,548.669999999622,3.726782e-05,548.669999999622,4.720713e-06,548.669999999622,5.200618e-06
548.6849999996219,1.043099e-05,548.6849999996219,3.462458e-05,548.6849999996219,4.762306e-06,548.6849999996219,5.088352e-06
548.6999999996219,1.218729e-05,548.6999999996219,3.487591e-05,548.6999999996219,5.291911e-06,548.6999999996219,5.024275e-06
548.7149999996219,1.216415e-05,548.7149999996219,3.518354e-05,548.7149999996219,5.243778e-06,548.7149999996219,5.08004e-06
548.7299999996219,1.244351e-05,548.7299999996219,3.693942e-05,548.7299999996219,5.412975e-06,548.7299999996219,5.068936e-06
548.7449999996219,1.183426e-05,548.7449999996219,3.66669e-05,548.7449999996219,5.420777e-06,548.7449999996219,4.928026e-06
548.7599999996219,1.192793e-05,548.7599999996219,3.711177e-05,548.7599999996219,5.307859e-06,548.7599999996219,4.884961e-06
548.7749999996219,1.19527e-05,548.7749999996219,3.557731e-05,548.7749999996219,5.273245e-06,548.7749999996219,4.853136e-06
548.7899999996218,1.208515e-05,548.7899999996218,3.125603e-05,548.7899999996218,5.462197e-06,548.7899999996218,4.824024e-06
548.8049999996218,1.16483e-05,548.8049999996218,3.115808e-05,548.8049999996218,5.297233e-06,548.8049999996218,4.902232e-06
548.8199999996218,1.170019e-05,548.8199999996218,3.034127e-05,548.8199999996218,5.270573e-06,548.8199999996218,4.896482e-06
548.8349999996218,1.200093e-05,548.8349999996218,2.984414e-05,548.8349999996218,5.363302e-06,548.8349999996218,4.890725e-06
548.8499999996218,1.192675e-05,548.8499999996218,2.969272e-05,548.8499999996218,5.305204e-06,548.8499999996218,4.741556e-06
548.8649999996218,1.192084e-05,548.8649999996218,3.07929e-05,548.8649999996218,5.405162e-06,548.8649999996218,5.313164e-06
548.8799999996218,1.190665e-05,548.8799999996218,3.044047e-05,548.8799999996218,5.392116e-06,548.8799999996218,7.133099e-06
548.8949999996217,1.186636e-05,548.8949999996217,3.066684e-05,548.8949999996217,5.376418e-06,548.8949999996217,6.989465e-06
548.9099999996217,1.169658e-05,548.9099999996217,3.0648e-05,548.9099999996217,5.310512e-06,548.9099999996217,6.955118e-06
548.9249999996217,1.159375e-05,548.9249999996217,3.884069e-05,548.9249999996217,5.262549e-06,548.9249999996217,6.930771e-06
548.9399999996217,1.110091e-05,548.9399999996217,4.174455e-05,548.9399999996217,5.184341e-06,548.9399999996217,6.910417e-06
548.9549999996217,9.37705e-06,548.9549999996217,5.345069e-05,548.9549999996217,4.768218e-06,548.9549999996217,6.898175e-06
548.9699999996217,9.291028e-06,548.9699999996217,5.485615e-05,548.9699999996217,4.782967e-06,548.9699999996217,6.934835e-06
548.9849999996217,8.702299e-06,548.9849999996217,5.436709e-05,548.9849999996217,4.562907e-06,548.9849999996217,6.928738e-06
548.9999999996217,8.140256e-06,548.9999999996217,5.551422e-05,548.9999999996217,4.34467e-06,548.9999999996217,6.94904e-06
549.0149999996216,7.331766e-06,549.0149999996216,5.526702e-05,549.0149999996216,4.226336e-06,549.0149999996216,6.96726e-06
549.0299999996216,7.487657e-06,549.0299999996216,5.487849e-05,549.0299999996216,4.256228e-06,549.0299999996216,6.938897e-06
549.0449999996216,7.205797e-06,549.0449999996216,5.487695e-05,549.0449999996216,3.989731e-06,549.0449999996216,6.938897e-06
549.0599999996216,7.219469e-06,549.0599999996216,5.474356e-05,549.0599999996216,4.0632e-06,549.0599999996216,6.533196e-06
549.0749999996216,7.16266e-06,549.0749999996216,5.502845e-05,549.0749999996216,3.99326e-06,549.0749999996216,6.500773e-06
549.0899999996216,6.351713e-06,549.0899999996216,5.593184e-05,549.0899999996216,3.827552e-06,549.0899999996216,6.54612e-06
549.1049999996216,6.300498e-06,549.1049999996216,5.576158e-05,549.1049999996216,3.764466e-06,549.1049999996216,6.559019e-06
549.1199999996215,6.224016e-06,549.1199999996215,5.513407e-05,549.1199999996215,3.669723e-06,549.1199999996215,4.11145e-06
549.1349999996215,6.100575e-06,549.1349999996215,5.546065e-05,549.1349999996215,3.681221e-06,549.1349999996215,3.528828e-06
549.1499999996215,5.976941e-06,549.1499999996215,5.596583e-05,549.1499999996215,3.662038e-06,549.1499999996215,3.564574e-06
549.1649999996215,5.711809e-06,549.1649999996215,5.555886e-05,549.1649999996215,3.65048e-06,549.1649999996215,3.54476e-06
549.1799999996215,5.539025e-06,549.1799999996215,4.828081e-05,549.1799999996215,3.603876e-06,549.1799999996215,3.552699e-06
549.1949999996215,5.477649e-06,549.1949999996215,4.320382e-05,549.1949999996215,3.520835e-06,549.1949999996215,3.548731e-06
549.2099999996215,5.093886e-06,549.2099999996215,3.680954e-05,549.2099999996215,3.356985e-06,549.2099999996215,3.492716e-06
549.2249999996214,5.068936e-06,549.2249999996214,3.581251e-05,549.2249999996214,3.28916e-06,549.2249999996214,3.443979e-06
549.2399999996214,4.993339e-06,549.2399999996214,3.514869e-05,549.2399999996214,3.250386e-06,549.2399999996214,3.40283e-06
549.2549999996214,4.905105e-06,549.2549999996214,3.334164e-05,549.2549999996214,3.171418e-06,549.2549999996214,3.250386e-06
549.2699999996214,4.928026e-06,549.2699999996214,3.297373e-05,549.2699999996214,3.108612e-06,549.2699999996214,3.19355e-06
549.2849999996214,4.285911e-06,549.2849999996214,3.388269e-05,549.2849999996214,2.931361e-06,549.2849999996214,3.271984e-06
549.2999999996214,4.282623e-06,549.2999999996214,3.384525e-05,549.2999999996214,2.897527e-06,549.2999999996214,3.19355e-06
549.3149999996214,4.028382e-06,549.3149999996214,3.372016e-05,549.3149999996214,2.907234e-06,549.3149999996214,3.197958e-06
549.3299999996214,4.035369e-06,549.3299999996214,3.195534e-05,549.3299999996214,3.058359e-06,549.3299999996214,3.184716e-06
549.3449999996213,4.657627e-06,549.3449999996213,3.136716e-05,549.3449999996213,3.104077e-06,549.3449999996213,3.067557e-06
549.3599999996213,4.434525e-06,549.3599999996213,3.123304e-05,549.3599999996213,3.058359e-06,549.3599999996213,3.035241e-06
549.3749999996213,4.81818e-06,549.3749999996213,3.12398e-05,549.3749999996213,3.104077e-06,549.3749999996213,3.053749e-06
549.3899999996213,5.02147e-06,549.3899999996213,3.041084e-05,549.3899999996213,3.24605e-06,549.3899999996213,3.035241e-06
549.4049999996213,6.044903e-06,549.4049999996213,2.665951e-05,549.4049999996213,3.476546e-06,549.4049999996213,3.030597e-06
549.4199999996213,6.2781e-06,549.4199999996213,2.56458e-05,549.4199999996213,3.878734e-06,549.4199999996213,3.153601e-06
549.4349999996213,6.910417e-06,549.4349999996213,2.581934e-05,549.4349999996213,4.05626e-06,549.4349999996213,3.180289e-06
549.4499999996212,7.139021e-06,549.4499999996212,2.419941e-05,549.4499999996212,4.077044e-06,549.4499999996212,3.035241e-06
549.4649999996212,8.157542e-06,549.4649999996212,2.029727e-05,549.4649999996212,4.347911e-06,549.4649999996212,3.180289e-06
549.4799999996212,9.073179e-06,549.4799999996212,2.105019e-05,549.4799999996212,4.553636e-06,549.4799999996212,3.189136e-06
549.4949999996212,9.25609e-06,549.4949999996212,2.15024e-05,549.4949999996212,4.596741e-06,549.4949999996212,3.166973e-06
549.5099999996212,1.071872e-05,549.5099999996212,2.167661e-05,549.5099999996212,4.675739e-06,549.5099999996212,3.131187e-06
549.5249999996212,1.131707e-05,549.5249999996212,1.862219e-05,549.5249999996212,4.916579e-06,549.5249999996212,3.067557e-06
549.5399999996212,1.142238e-05,549.5399999996212,1.795124e-05,549.5399999996212,5.230329e-06,549.5399999996212,3.025945e-06
549.5549999996211,1.152429e-05,549.5549999996211,1.725503e-05,549.5549999996211,5.436346e-06,549.5549999996211,3.215529e-06
549.5699999996211,1.16156e-05,549.5699999996211,1.71732e-05,549.5699999996211,5.564399e-06,549.5699999996211,3.398688e-06
549.5849999996211,1.213284e-05,549.5849999996211,1.761058e-05,549.5849999996211,5.812045e-06,549.5849999996211,3.556662e-06
549.5999999996211,1.228055e-05,549.5999999996211,1.918995e-05,549.5999999996211,5.821732e-06,549.5999999996211,3.568524e-06
549.6149999996211,1.234006e-05,549.6149999996211,1.975921e-05,549.6149999996211,5.901041e-06,549.6149999996211,3.615583e-06
549.6299999996211,1.238222e-05,549.6299999996211,1.851218e-05,549.6299999996211,5.995767e-06,549.6299999996211,3.654337e-06
549.6449999996211,1.268567e-05,549.6449999996211,1.808337e-05,549.6449999996211,6.235322e-06,549.6449999996211,3.688867e-06
549.659999999621,1.251687e-05,549.659999999621,1.803188e-05,549.659999999621,6.093644e-06,549.659999999621,3.73441e-06
549.674999999621,1.254273e-05,549.674999999621,1.801704e-05,549.674999999621,6.237581e-06,549.674999999621,3.900464e-06
549.689999999621,1.23936e-05,549.689999999621,1.83609e-05,549.689999999621,6.196798e-06,549.689999999621,4.142171e-06
549.704999999621,1.336168e-05,549.704999999621,1.910977e-05,549.704999999621,6.398117e-06,549.704999999621,4.186148e-06
549.719999999621,1.299504e-05,549.719999999621,1.82871e-05,549.719999999621,6.345057e-06,549.719999999621,4.11145e-06
549.734999999621,1.29766e-05,549.734999999621,1.800452e-05,549.734999999621,6.298262e-06,549.734999999621,4.17604e-06
549.749999999621,1.341429e-05,549.749999999621,1.894393e-05,549.749999999621,6.556871e-06,549.749999999621,4.152361e-06
549.764999999621,1.205363e-05,549.764999999621,2.41096e-05,549.764999999621,6.533196e-06,549.764999999621,4.209638e-06
549.7799999996209,1.204896e-05,549.7799999996209,2.453184e-05,549.7799999996209,6.520246e-06,549.7799999996209,4.226336e-06
549.7949999996209,1.213052e-05,549.7949999996209,2.537579e-05,549.7949999996209,6.194524e-06,549.7949999996209,4.262842e-06
549.8099999996209,1.233892e-05,549.8099999996209,3.036726e-05,549.8099999996209,6.100575e-06,549.8099999996209,4.121716e-06
549.8249999996209,1.228514e-05,549.8249999996209,3.076178e-05,549.8249999996209,6.042573e-06,549.8249999996209,3.932833e-06
549.8399999996209,1.189126e-05,549.8399999996209,3.132176e-05,549.8399999996209,5.799914e-06,549.8399999996209,3.92925e-06
549.8549999996209,1.187111e-05,549.8549999996209,3.035195e-05,549.8549999996209,5.972226e-06,549.8549999996209,3.92925e-06
549.8699999996209,1.182474e-05,549.8699999996209,3.004126e-05,549.8699999996209,5.869926e-06,549.8699999996209,3.885991e-06
549.8849999996208,1.172304e-05,549.8849999996208,3.139274e-05,549.8849999996208,5.778013e-06,549.8849999996208,3.696496e-06
549.8999999996208,1.165676e-05,549.8999999996208,3.32837e-05,549.8999999996208,5.775575e-06,549.8999999996208,3.749468e-06
549.9149999996208,1.178655e-05,549.9149999996208,3.387978e-05,549.9149999996208,5.510979e-06,549.9149999996208,3.532818e-06
549.9299999996208,1.203024e-05,549.9299999996208,3.524474e-05,549.9299999996208,5.472503e-06,549.9299999996208,3.492716e-06
549.9449999996208,1.226219e-05,549.9449999996208,3.841145e-05,549.9449999996208,5.444114e-06,549.9449999996208,3.241707e-06
549.9599999996208,1.074366e-05,549.9599999996208,3.809956e-05,549.9599999996208,5.057808e-06,549.9599999996208,3.211145e-06
549.9749999996208,1.082725e-05,549.9749999996208,3.876518e-05,549.9749999996208,4.990517e-06,549.9749999996208,3.144655e-06
549.9899999996207,1.069899e-05,549.9899999996207,3.965756e-05,549.9899999996207,4.87919e-06,549.9899999996207,3.099535e-06
550.0049999996207,1.017532e-05,550.0049999996207,3.974236e-05,550.0049999996207,4.578317e-06,550.0049999996207,3.153601e-06
550.0199999996207,1.042559e-05,550.0199999996207,4.276863e-05,550.0199999996207,4.630328e-06,550.0199999996207,3.623367e-06
550.0349999996207,1.051573e-05,550.0349999996207,4.580685e-05,550.0349999996207,4.565993e-06,550.0349999996207,4.038859e-06
550.0499999996207,1.00975e-05,550.0499999996207,4.548064e-05,550.0499999996207,4.602866e-06,550.0499999996207,6.340615e-06
550.0649999996207,9.935768e-06,550.0649999996207,4.326963e-05,550.0649999996207,4.723696e-06,550.0649999996207,7.113323e-06
550.0799999996207,9.843181e-06,550.0799999996207,4.281603e-05,550.0799999996207,4.70577e-06,550.0799999996207,1.087917e-05
550.0949999996207,9.901682e-06,550.0949999996207,4.265848e-05,550.0949999996207,4.612038e-06,550.0949999996207,1.223343e-05
550.1099999996206,9.649507e-06,550.1099999996206,4.343243e-05,550.1099999996206,4.547444e-06,550.1099999996206,1.547402e-05
550.1249999996206,1.010168e-05,550.1249999996206,4.711962e-05,550.1249999996206,4.928026e-06,550.1249999996206,2.780021e-05
550.1399999996206,1.050366e-05,550.1399999996206,5.0956e-05,550.1399999996206,5.669728e-06,550.1399999996206,7.791315e-05
550.1549999996206,1.018777e-05,550.1549999996206,0.0001002061,550.1549999996206,5.981653e-06,550.1549999996206,0.0001055925
550.1699999996206,1.099509e-05,550.1699999996206,0.0001045259,550.1699999996206,6.904299e-06,550.1699999996206,0.0001211339
550.1849999996206,1.155846e-05,550.1849999996206,0.0001059283,550.1849999996206,8.728161e-06,550.1849999996206,0.0001275894
550.1999999996206,1.181878e-05,550.1999999996206,0.0001097783,550.1999999996206,9.716427e-06,550.1999999996206,0.0001305866
550.2149999996205,1.410133e-05,550.2149999996205,0.0001101509,550.2149999996205,1.085324e-05,550.2149999996205,0.0001313019
550.2299999996205,1.885523e-05,550.2299999996205,0.0001105444,550.2299999996205,1.211774e-05,550.2299999996205,0.0001314104
550.2449999996205,2.678603e-05,550.2449999996205,0.0001100415,550.2449999996205,1.772618e-05,550.2449999996205,0.0001315663
550.2599999996205,3.108747e-05,550.2599999996205,0.0001096984,550.2599999996205,2.367626e-05,550.2599999996205,0.0001318154
550.2749999996205,3.773249e-05,550.2749999996205,0.0001076281,550.2749999996205,2.574175e-05,550.2749999996205,0.0001328926
550.2899999996205,4.273865e-05,550.2899999996205,0.000107,550.2899999996205,3.015546e-05,550.2899999996205,0.000133224
550.3049999996205,4.40242e-05,550.3049999996205,0.0001073469,550.3049999996205,3.119649e-05,550.3049999996205,0.0001334825
550.3199999996204,4.598089e-05,550.3199999996204,0.0001073532,550.3199999996204,3.287575e-05,550.3199999996204,0.0001336234
550.3349999996204,4.69819e-05,550.3349999996204,0.0001075598,550.3349999996204,3.470138e-05,550.3349999996204,0.0001336135
550.3499999996204,4.786088e-05,550.3499999996204,0.0001124298,550.3499999996204,3.692225e-05,550.3499999996204,0.0001338487
550.3649999996204,4.837263e-05,550.3649999996204,0.0001141582,550.3649999996204,3.780187e-05,550.3649999996204,0.000133512
550.3799999996204,4.881268e-05,550.3799999996204,0.0001137545,550.3799999996204,3.796622e-05,550.3799999996204,0.0001268498
550.3949999996204,4.911017e-05,550.3949999996204,0.0001036321,550.3949999996204,3.797141e-05,550.3949999996204,0.0001037584
550.4099999996204,4.996413e-05,550.4099999996204,7.538393e-05,550.4099999996204,3.825932e-05,550.4099999996204,7.654514e-05
550.4249999996204,4.959484e-05,550.4249999996204,6.960261e-05,550.4249999996204,3.839934e-05,550.4249999996204,5.760482e-05
550.4399999996203,5.009899e-05,550.4399999996203,6.711305e-05,550.4399999996203,3.858123e-05,550.4399999996203,3.769477e-05
550.4549999996203,5.022733e-05,550.4549999996203,6.271769e-05,550.4549999996203,3.825195e-05,550.4549999996203,3.543329e-05
550.4699999996203,4.92119e-05,550.4699999996203,6.182027e-05,550.4699999996203,3.824017e-05,550.4699999996203,3.856919e-05
550.4849999996203,4.888852e-05,550.4849999996203,6.128957e-05,550.4849999996203,3.786851e-05,550.4849999996203,3.882546e-05
550.4999999996203,4.437193e-05,550.4999999996203,6.168591e-05,550.4999999996203,3.40163e-05,550.4999999996203,3.853082e-05
550.5149999996203,4.030409e-05,550.5149999996203,6.224016e-05,550.5149999996203,3.201083e-05,550.5149999996203,3.763867e-05
550.5299999996203,3.315139e-05,550.5299999996203,6.263544e-05,550.5299999996203,3.064708e-05,550.5299999996203,3.303988e-05
550.5449999996202,3.146356e-05,550.5449999996202,6.255802e-05,550.5449999996202,2.64244e-05,550.5449999996202,3.186705e-05
550.5599999996202,2.99511e-05,550.5599999996202,6.241036e-05,550.5599999996202,2.466242e-05,550.5599999996202,3.088198e-05
550.5749999996202,2.752779e-05,550.5749999996202,6.22603e-05,550.5749999996202,2.23706e-05,550.5749999996202,3.025386e-05
550.5899999996202,2.546777e-05,550.5899999996202,6.06045e-05,550.5899999996202,2.012442e-05,550.5899999996202,2.779768e-05
550.6049999996202,2.427265e-05,550.6049999996202,4.938877e-05,550.6049999996202,1.535614e-05,550.6049999996202,2.762025e-05
550.6199999996202,2.315529e-05,550.6199999996202,4.599773e-05,550.6199999996202,1.373803e-05,550.6199999996202,2.743347e-05
550.6349999996202,2.216881e-05,550.6349999996202,4.230267e-05,550.6349999996202,1.351681e-05,550.6349999996202,2.490908e-05
550.6499999996201,2.14519e-05,550.6499999996201,3.657227e-05,550.6499999996201,1.334797e-05,550.6499999996201,2.451518e-05
550.6649999996201,1.955786e-05,550.6649999996201,3.602742e-05,550.6649999996201,1.174345e-05,550.6649999996201,2.435203e-05
550.6799999996201,1.9414e-05,550.6799999996201,3.093257e-05,550.6799999996201,9.675749e-06,550.6799999996201,2.307973e-05
550.6949999996201,1.847638e-05,550.6949999996201,2.820866e-05,550.6949999996201,9.062304e-06,550.6949999996201,2.119824e-05
550.7099999996201,1.784104e-05,550.7099999996201,2.657536e-05,550.7099999996201,8.729774e-06,550.7099999996201,1.233207e-05
550.7249999996201,2.01468e-05,550.7249999996201,2.545338e-05,550.7249999996201,8.333508e-06,550.7249999996201,8.014691e-06
550.7399999996201,1.980479e-05,550.7399999996201,2.517795e-05,550.7399999996201,7.746566e-06,550.7399999996201,6.576178e-06
550.75499999962,2.052433e-05,550.75499999962,2.402591e-05,550.75499999962,8.041013e-06,550.75499999962,6.260124e-06
550.76999999962,2.128379e-05,550.76999999962,2.052708e-05,550.76999999962,8.250264e-06,550.76999999962,5.860319e-06
550.78499999962,2.102877e-05,550.78499999962,2.016358e-05,550.78499999962,8.070739e-06,550.78499999962,5.08004e-06
550.79999999962,2.130694e-05,550.79999999962,1.792454e-05,550.79999999962,8.079462e-06,550.79999999962,4.714741e-06
550.81499999962,2.19363e-05,550.81499999962,1.564153e-05,550.81499999962,8.634045e-06,550.81499999962,4.832776e-06
550.82999999962,2.244854e-05,550.82999999962,1.546492e-05,550.82999999962,8.5866e-06,550.82999999962,4.867628e-06
550.84499999962,2.28312e-05,550.84499999962,1.481929e-05,550.84499999962,8.537242e-06,550.84499999962,4.581393e-06
550.85999999962,2.282873e-05,550.85999999962,1.556027e-05,550.85999999962,8.181682e-06,550.85999999962,4.186148e-06
550.87499999962,2.269567e-05,550.87499999962,1.412728e-05,550.87499999962,8.314893e-06,550.87499999962,4.155752e-06
550.8899999996199,2.276632e-05,550.8899999996199,1.399404e-05,550.8899999996199,8.325052e-06,550.8899999996199,4.169289e-06
550.9049999996199,2.387062e-05,550.9049999996199,1.237767e-05,550.9049999996199,8.55208e-06,550.9049999996199,4.20294e-06
550.9199999996199,2.382809e-05,550.9199999996199,1.19031e-05,550.9199999996199,8.845193e-06,550.9199999996199,4.242968e-06
550.9349999996199,2.483488e-05,550.9349999996199,1.226219e-05,550.9349999996199,9.088692e-06,550.9349999996199,4.259536e-06
550.9499999996199,2.678603e-05,550.9499999996199,1.209912e-05,550.9499999996199,9.243908e-06,550.9499999996199,4.256228e-06
550.9649999996199,2.684119e-05,550.9649999996199,1.19232e-05,550.9649999996199,9.30012e-06,550.9649999996199,4.282623e-06
550.9799999996198,2.469381e-05,550.9799999996198,1.191848e-05,550.9799999996198,9.239335e-06,550.9799999996198,4.328428e-06
550.9949999996198,2.389775e-05,550.9949999996198,1.196213e-05,550.9949999996198,9.031162e-06,550.9949999996198,4.321914e-06
551.0099999996198,2.352406e-05,551.0099999996198,1.106787e-05,551.0099999996198,8.336888e-06,551.0099999996198,4.299038e-06
551.0249999996198,2.245419e-05,551.0249999996198,1.091794e-05,551.0249999996198,8.277538e-06,551.0249999996198,4.35115e-06
551.0399999996198,2.244164e-05,551.0399999996198,1.082335e-05,551.0399999996198,8.289442e-06,551.0399999996198,4.39624e-06
551.0549999996198,2.104819e-05,551.0549999996198,1.077901e-05,551.0549999996198,8.609537e-06,551.0549999996198,4.334932e-06
551.0699999996198,1.998605e-05,551.0699999996198,1.078815e-05,551.0699999996198,8.109047e-06,551.0699999996198,4.104592e-06
551.0849999996198,1.98055e-05,551.0849999996198,1.053179e-05,551.0849999996198,8.122932e-06,551.0849999996198,3.922073e-06
551.0999999996197,1.95283e-05,551.0999999996197,8.674737e-06,551.0999999996197,8.044515e-06,551.0999999996197,3.925663e-06
551.1149999996197,1.950015e-05,551.1149999996197,7.93698e-06,551.1149999996197,7.997096e-06,551.1149999996197,3.59605e-06
551.1299999996197,1.945386e-05,551.1299999996197,2.045214e-05,551.1299999996197,7.883556e-06,551.1299999996197,3.768206e-06
551.1449999996197,1.943938e-05,551.1449999996197,2.078486e-05,551.1449999996197,7.800928e-06,551.1449999996197,3.726858e-06
551.1599999996197,1.802094e-05,551.1599999996197,2.107828e-05,551.1599999996197,7.744747e-06,551.1599999996197,3.67356e-06
551.1749999996197,1.799043e-05,551.1749999996197,2.079638e-05,551.1749999996197,7.465047e-06,551.1749999996197,3.665883e-06
551.1899999996197,1.633838e-05,551.1899999996197,2.070949e-05,551.1899999996197,7.849532e-06,551.1899999996197,3.67356e-06
551.2049999996196,1.475738e-05,551.2049999996196,2.088493e-05,551.2049999996196,7.972397e-06,551.2049999996196,3.961384e-06
551.2199999996196,1.406132e-05,551.2199999996196,2.221008e-05,551.2199999996196,8.131598e-06,551.2199999996196,3.957827e-06
551.2349999996196,1.363097e-05,551.2349999996196,2.293216e-05,551.2349999996196,8.154087e-06,551.2349999996196,3.954266e-06
551.2499999996196,1.378307e-05,551.2499999996196,2.441615e-05,551.2499999996196,8.319974e-06,551.2499999996196,3.943564e-06
551.2649999996196,1.445064e-05,551.2649999996196,2.914251e-05,551.2649999996196,8.634045e-06,551.2649999996196,4.077044e-06
551.2799999996196,1.493198e-05,551.2799999996196,4.274788e-05,551.2799999996196,8.770023e-06,551.2799999996196,4.354386e-06
551.2949999996196,1.473062e-05,551.2949999996196,4.567967e-05,551.2949999996196,8.005899e-06,551.2949999996196,4.415424e-06
551.3099999996195,1.455651e-05,551.3099999996195,4.665666e-05,551.3099999996195,8.219473e-06,551.3099999996195,4.370531e-06
551.3249999996195,1.443504e-05,551.3249999996195,4.667416e-05,551.3249999996195,8.098617e-06,551.3249999996195,4.285911e-06
551.3399999996195,1.424248e-05,551.3399999996195,4.678449e-05,551.3399999996195,8.470984e-06,551.3399999996195,4.338181e-06
551.3549999996195,1.494612e-05,551.3549999996195,4.690808e-05,551.3549999996195,8.806888e-06,551.3549999996195,4.38019e-06
551.3699999996195,1.543027e-05,551.3699999996195,4.587292e-05,551.3699999996195,8.897593e-06,551.3699999996195,4.463023e-06
551.3849999996195,1.564783e-05,551.3849999996195,4.285122e-05,551.3849999996195,8.963841e-06,551.3849999996195,4.550541e-06
551.3999999996195,1.576443e-05,551.3999999996195,4.26631e-05,551.3999999996195,9.139696e-06,551.3999999996195,4.621192e-06
551.4149999996195,1.555393e-05,551.4149999996195,4.267664e-05,551.4149999996195,9.097987e-06,551.4149999996195,4.744526e-06
551.4299999996194,1.406633e-05,551.4299999996194,4.271656e-05,551.4299999996194,8.795684e-06,551.4299999996194,4.853136e-06
551.4449999996194,1.43597e-05,551.4449999996194,4.268126e-05,551.4449999996194,9.331874e-06,551.4449999996194,4.83569e-06
551.4599999996194,1.524289e-05,551.4599999996194,4.267961e-05,551.4599999996194,1.048353e-05,551.4599999996194,4.621192e-06
551.4749999996194,1.588815e-05,551.4749999996194,4.209169e-05,551.4749999996194,1.130462e-05,551.4749999996194,4.618143e-06
551.4899999996194,1.657124e-05,551.4899999996194,4.178772e-05,551.4899999996194,1.127217e-05,551.4899999996194,4.788854e-06
551.5049999996194,1.827477e-05,551.5049999996194,4.100059e-05,551.5049999996194,1.17038e-05,551.5049999996194,4.815255e-06
551.5199999996194,2.125266e-05,551.5199999996194,3.702322e-05,551.5199999996194,1.328662e-05,551.5199999996194,4.794733e-06
551.5349999996193,2.158609e-05,551.5349999996193,2.401535e-05,551.5349999996193,1.428199e-05,551.5349999996193,4.39624e-06
551.5499999996193,2.190416e-05,551.5499999996193,1.838926e-05,551.5499999996193,1.623025e-05,551.5499999996193,4.469331e-06
551.5649999996193,2.357849e-05,551.5649999996193,1.798965e-05,551.5649999996193,1.6922e-05,551.5649999996193,4.494475e-06
551.5799999996193,2.345089e-05,551.5799999996193,1.811217e-05,551.5799999996193,1.698017e-05,551.5799999996193,4.587538e-06
551.5949999996193,2.451806e-05,551.5949999996193,1.801e-05,551.5949999996193,1.726564e-05,551.5949999996193,4.510119e-06
551.6099999996193,2.41096e-05,551.6099999996193,1.846876e-05,551.6099999996193,1.787732e-05,551.6099999996193,4.699779e-06
551.6249999996193,2.358088e-05,551.6249999996193,2.602475e-05,551.6249999996193,1.830788e-05,551.6249999996193,4.720713e-06
551.6399999996192,2.353304e-05,551.6399999996192,2.725522e-05,551.6399999996192,1.83609e-05,551.6399999996192,4.393035e-06
551.6549999996192,2.358924e-05,551.6549999996192,3.267762e-05,551.6549999996192,1.842447e-05,551.6549999996192,4.633369e-06
551.6699999996192,2.386117e-05,551.6699999996192,3.417742e-05,551.6699999996192,1.840687e-05,551.6699999996192,4.633369e-06
551.6849999996192,2.373331e-05,551.6849999996192,3.771457e-05,551.6849999996192,1.834708e-05,551.6849999996192,4.565993e-06
551.6999999996192,2.351328e-05,551.6999999996192,3.948455e-05,551.6999999996192,1.767764e-05,551.6999999996192,4.624239e-06
551.7149999996192,2.32215e-05,551.7149999996192,4.079427e-05,551.7149999996192,1.700918e-05,551.7149999996192,4.666692e-06
551.7299999996192,2.266151e-05,551.7299999996192,4.171383e-05,551.7299999996192,1.666786e-05,551.7299999996192,4.525708e-06
551.7449999996192,2.159066e-05,551.7449999996192,4.265782e-05,551.7449999996192,1.661538e-05,551.7449999996192,4.386617e-06
551.7599999996191,2.047761e-05,551.7599999996191,4.367243e-05,551.7599999996191,1.535614e-05,551.7599999996191,4.602866e-06
551.7749999996191,2.146502e-05,551.7749999996191,4.468291e-05,551.7749999996191,1.437244e-05,551.7749999996191,4.744526e-06
551.7899999996191,2.15024e-05,551.7899999996191,4.884817e-05,551.7899999996191,1.215604e-05,551.7899999996191,4.93374e-06
551.8049999996191,2.096839e-05,551.8049999996191,5.033043e-05,551.8049999996191,1.076985e-05,551.8049999996191,5.93674e-06
551.8199999996191,1.939585e-05,551.8199999996191,5.245497e-05,551.8199999996191,9.380055e-06,551.8199999996191,1.093599e-05
551.8349999996191,1.873005e-05,551.8349999996191,5.393892e-05,551.8349999996191,9.620266e-06,551.8349999996191,2.029311e-05
551.8499999996191,1.979127e-05,551.8499999996191,5.838935e-05,551.8499999996191,1.114524e-05,551.8499999996191,2.607882e-05
551.864999999619,2.075705e-05,551.864999999619,6.064191e-05,551.864999999619,1.302752e-05,551.864999999619,3.219119e-05
551.879999999619,2.221008e-05,551.879999999619,6.976312e-05,551.879999999619,1.921782e-05,551.879999999619,4.996328e-05
551.894999999619,2.606045e-05,551.894999999619,7.120508e-05,551.894999999619,2.204392e-05,551.894999999619,5.914965e-05
551.909999999619,2.834516e-05,551.909999999619,6.890799e-05,551.909999999619,2.366674e-05,551.909999999619,6.085177e-05
551.924999999619,3.149757e-05,551.924999999619,6.860292e-05,551.924999999619,2.851264e-05,551.924999999619,6.176328e-05
551.939999999619,3.231654e-05,551.939999999619,6.631319e-05,551.939999999619,3.08797e-05,551.939999999619,6.254225e-05
551.954999999619,3.655185e-05,551.954999999619,6.590279e-05,551.954999999619,3.393545e-05,551.954999999619,6.365183e-05
551.969999999619,4.462044e-05,551.969999999619,6.493445e-05,551.969999999619,3.486904e-05,551.969999999619,6.546508e-05
551.9849999996189,4.914143e-05,551.9849999996189,6.479981e-05,551.9849999996189,3.755362e-05,551.9849999996189,6.62403e-05
551.9999999996189,5.01639e-05,551.9999999996189,6.58951e-05,551.9999999996189,3.876482e-05,551.9999999996189,6.892905e-05
552.0149999996189,4.995651e-05,552.0149999996189,7.444053e-05,552.0149999996189,3.940277e-05,552.0149999996189,6.937536e-05
552.0299999996189,5.0447e-05,552.0299999996189,7.522474e-05,552.0299999996189,4.032925e-05,552.0299999996189,6.939201e-05
552.0449999996189,5.087798e-05,552.0449999996189,8.11929e-05,552.0449999996189,4.066319e-05,552.0449999996189,6.958561e-05
552.0599999996189,5.10615e-05,552.0599999996189,8.270813e-05,552.0599999996189,4.132058e-05,552.0599999996189,6.985231e-05
552.0749999996189,5.111636e-05,552.0749999996189,8.968523e-05,552.0749999996189,4.1355e-05,552.0749999996189,6.936683e-05
552.0899999996188,5.099496e-05,552.0899999996188,8.985141e-05,552.0899999996188,4.139756e-05,552.0899999996188,6.715963e-05
552.1049999996188,5.048385e-05,552.1049999996188,8.892414e-05,552.1049999996188,4.073691e-05,552.1049999996188,6.477893e-05
552.1199999996188,5.135583e-05,552.1199999996188,8.691382e-05,552.1199999996188,4.069401e-05,552.1199999996188,5.833359e-05
552.1349999996188,5.060787e-05,552.1349999996188,8.09653e-05,552.1349999996188,3.884323e-05,552.1349999996188,4.75126e-05
552.1499999996188,4.923794e-05,552.1499999996188,7.978102e-05,552.1499999996188,3.862904e-05,552.1499999996188,3.893813e-05
552.1649999996188,4.898754e-05,552.1649999996188,8.014164e-05,552.1649999996188,3.68879e-05,552.1649999996188,3.565681e-05
552.1799999996188,4.897604e-05,552.1799999996188,8.023914e-05,552.1799999996188,3.528708e-05,552.1799999996188,3.507045e-05
552.1949999996187,4.825162e-05,552.1949999996187,8.031354e-05,552.1949999996187,3.339314e-05,552.1949999996187,3.402458e-05
552.2099999996187,4.178907e-05,552.2099999996187,8.009909e-05,552.2099999996187,3.099899e-05,552.2099999996187,3.218725e-05
552.2249999996187,3.803406e-05,552.2249999996187,7.985356e-05,552.2249999996187,2.960958e-05,552.2249999996187,2.831682e-05
552.2399999996187,3.123349e-05,552.2399999996187,7.97782e-05,552.2399999996187,2.731769e-05,552.2399999996187,2.618072e-05
552.2549999996187,3.048209e-05,552.2549999996187,7.86735e-05,552.2549999996187,2.613494e-05,552.2549999996187,1.830788e-05
552.2699999996187,2.798657e-05,552.2699999996187,6.980592e-05,552.2699999996187,2.609502e-05,552.2699999996187,1.744583e-05
552.2849999996187,2.724023e-05,552.2849999996187,6.28151e-05,552.2849999996187,2.504106e-05,552.2849999996187,1.718632e-05
552.2999999996186,2.682754e-05,552.2999999996186,5.376209e-05,552.2999999996186,2.440692e-05,552.2999999996186,1.513903e-05
552.3149999996186,2.675919e-05,552.3149999996186,5.040286e-05,552.3149999996186,2.373569e-05,552.3149999996186,1.420187e-05
552.3299999996186,2.668803e-05,552.3299999996186,3.50821e-05,552.3299999996186,2.364352e-05,552.3299999996186,1.190902e-05
552.3449999996186,2.641053e-05,552.3449999996186,3.040806e-05,552.3449999996186,2.356355e-05,552.3449999996186,1.173745e-05
552.3599999996186,2.437689e-05,552.3599999996186,2.962099e-05,552.3599999996186,2.305897e-05,552.3599999996186,1.140511e-05
552.3749999996186,2.393485e-05,552.3749999996186,2.420407e-05,552.3749999996186,2.08613e-05,552.3749999996186,9.493503e-06
552.3899999996186,2.277808e-05,552.3899999996186,2.394486e-05,552.3899999996186,1.953552e-05,552.3899999996186,9.291028e-06
552.4049999996186,2.12394e-05,552.4049999996186,2.350968e-05,552.4049999996186,1.853499e-05,552.4049999996186,9.268258e-06
552.4199999996185,1.932527e-05,552.4199999996185,2.410551e-05,552.4199999996185,1.687699e-05,552.4199999996185,8.297934e-06
552.4349999996185,1.586597e-05,552.4349999996185,2.575761e-05,552.4349999996185,1.556117e-05,552.4349999996185,8.150632e-06
552.4499999996185,1.435283e-05,552.4499999996185,2.600363e-05,552.4499999996185,1.407634e-05,552.4499999996185,6.580461e-06
552.4649999996185,1.390112e-05,552.4649999996185,2.611715e-05,552.4649999996185,1.363097e-05,552.4649999996185,6.448557e-06
552.4799999996185,1.329298e-05,552.4799999996185,2.595538e-05,552.4799999996185,1.317697e-05,552.4799999996185,6.275856e-06
552.4949999996185,1.298203e-05,552.4949999996185,2.51281e-05,552.4949999996185,1.290257e-05,552.4949999996185,6.035575e-06
552.5099999996185,1.271673e-05,552.5099999996185,2.390305e-05,552.5099999996185,1.149124e-05,552.5099999996185,5.941484e-06
552.5249999996184,1.275433e-05,552.5249999996184,2.405169e-05,552.5249999996184,1.034692e-05,552.5249999996184,5.696992e-06
552.5399999996184,1.255957e-05,552.5399999996184,2.369232e-05,552.5399999996184,1.005275e-05,552.5399999996184,5.516089e-06
552.5549999996184,1.211309e-05,552.5549999996184,2.358745e-05,552.5549999996184,9.861767e-06,552.5549999996184,5.331691e-06
552.5699999996184,1.170139e-05,552.5699999996184,2.39625e-05,552.5699999996184,9.722225e-06,552.5699999996184,5.313164e-06
552.5849999996184,1.151328e-05,552.5849999996184,2.274466e-05,552.5849999996184,9.520175e-06,552.5849999996184,5.121465e-06
552.5999999996184,1.149001e-05,552.5999999996184,2.247864e-05,552.5999999996184,9.051417e-06,552.5999999996184,4.633369e-06
552.6149999996184,1.146547e-05,552.6149999996184,2.243285e-05,552.6149999996184,8.800488e-06,552.6149999996184,4.547444e-06
552.6299999996183,1.10194e-05,552.6299999996183,2.055931e-05,552.6299999996183,8.78607e-06,552.6299999996183,4.4218e-06
552.6449999996183,8.987383e-06,552.6449999996183,1.905588e-05,552.6449999996183,8.509145e-06,552.6449999996183,4.05626e-06
552.6599999996183,9.034282e-06,552.6599999996183,1.884028e-05,552.6599999996183,8.420948e-06,552.6599999996183,3.939991e-06
552.6749999996183,9.023361e-06,552.6749999996183,1.607852e-05,552.6749999996183,8.353768e-06,552.6749999996183,3.842245e-06
552.6899999996183,8.532291e-06,552.6899999996183,1.425533e-05,552.6899999996183,7.699141e-06,552.6899999996183,3.871464e-06
552.7049999996183,8.726546e-06,552.7049999996183,1.331522e-05,552.7049999996183,6.799448e-06,552.7049999996183,3.681221e-06
552.7199999996183,9.283444e-06,552.7199999996183,1.310837e-05,552.7199999996183,6.395915e-06,552.7199999996183,3.669723e-06
552.7349999996183,9.018676e-06,552.7349999996183,1.277089e-05,552.7349999996183,6.125922e-06,552.7349999996183,3.528828e-06
552.7499999996182,1.008354e-05,552.7499999996182,1.241063e-05,552.7499999996182,6.224016e-06,552.7499999996182,3.516832e-06
552.7649999996182,9.914478e-06,552.7649999996182,1.095015e-05,552.7649999996182,6.070483e-06,552.7649999996182,3.423466e-06
552.7799999996182,9.818822e-06,552.7799999996182,1.079598e-05,552.7799999996182,6.102884e-06,552.7799999996182,3.564574e-06
552.7949999996182,9.490535e-06,552.7949999996182,1.267679e-05,552.7949999996182,5.826569e-06,552.7949999996182,3.603876e-06
552.8099999996182,8.996782e-06,552.8099999996182,1.275544e-05,552.8099999996182,5.687093e-06,552.8099999996182,3.619477e-06
552.8249999996182,9.133529e-06,552.8249999996182,1.19232e-05,552.8249999996182,5.833818e-06,552.8249999996182,3.540784e-06
552.8399999996182,9.870335e-06,552.8399999996182,1.259093e-05,552.8399999996182,5.760922e-06,552.8399999996182,3.786851e-06
552.8549999996181,1.032512e-05,552.8549999996181,1.351056e-05,552.8549999996181,7.117283e-06,552.8549999996181,3.878734e-06
552.8699999996181,1.036732e-05,552.8699999996181,1.494612e-05,552.8699999996181,9.509811e-06,552.8699999996181,3.925663e-06
552.8849999996181,1.036868e-05,552.8849999996181,1.582686e-05,552.8849999996181,9.769921e-06,552.8849999996181,4.024883e-06
552.8999999996181,1.028274e-05,552.8999999996181,1.585176e-05,552.8999999996181,9.830293e-06,552.8999999996181,4.196231e-06
552.9149999996181,1.005275e-05,552.9149999996181,1.564243e-05,552.9149999996181,1.021125e-05,552.9149999996181,4.223002e-06
552.9299999996181,1.001626e-05,552.9299999996181,1.570445e-05,552.9299999996181,1.048487e-05,552.9299999996181,4.383405e-06
552.9449999996181,1.009052e-05,552.9449999996181,1.572865e-05,552.9449999996181,1.085324e-05,552.9449999996181,4.39624e-06
552.959999999618,9.068521e-06,552.959999999618,1.57161e-05,552.959999999618,1.125842e-05,552.959999999618,4.38019e-06
552.974999999618,9.309204e-06,552.974999999618,1.575728e-05,552.974999999618,1.137047e-05,552.974999999618,4.538142e-06
552.989999999618,9.911636e-06,552.989999999618,1.573491e-05,552.989999999618,1.246613e-05,552.989999999618,4.553636e-06
553.004999999618,9.006171e-06,553.004999999618,1.55494e-05,553.004999999618,1.300155e-05,553.004999999618,4.630328e-06
553.019999999618,8.888089e-06,553.019999999618,1.538913e-05,553.019999999618,1.310515e-05,553.019999999618,4.654602e-06
553.034999999618,8.968555e-06,553.034999999618,1.517806e-05,553.034999999618,1.339433e-05,553.034999999618,4.612038e-06
553.049999999618,9.06075e-06,553.049999999618,1.345519e-05,553.049999999618,1.374828e-05,553.049999999618,4.636408e-06
553.064999999618,9.86034e-06,553.064999999618,1.335536e-05,553.064999999618,1.385239e-05,553.064999999618,4.907976e-06
553.0799999996179,1.106787e-05,553.0799999996179,1.360304e-05,553.0799999996179,1.380043e-05,553.0799999996179,4.993339e-06
553.0949999996179,1.32845e-05,553.0949999996179,1.315236e-05,553.0949999996179,1.411731e-05,553.0949999996179,4.905105e-06
553.1099999996179,2.080857e-05,553.1099999996179,1.277199e-05,553.1099999996179,1.294508e-05,553.1099999996179,5.208738e-06
553.1249999996179,2.707268e-05,553.1249999996179,1.442527e-05,553.1249999996179,1.475165e-05,553.1249999996179,5.297233e-06
553.1399999996179,2.82745e-05,553.1399999996179,1.644409e-05,553.1399999996179,1.467985e-05,553.1399999996179,5.394728e-06
553.1549999996179,2.901657e-05,553.1549999996179,1.630386e-05,553.1549999996179,1.458358e-05,553.1549999996179,5.323759e-06
553.1699999996179,2.914107e-05,553.1699999996179,1.634786e-05,553.1699999996179,1.445356e-05,553.1699999996179,5.392116e-06
553.1849999996178,2.92761e-05,553.1849999996178,1.640034e-05,553.1849999996178,1.467217e-05,553.1849999996178,5.321112e-06
553.1999999996178,2.955434e-05,553.1999999996178,1.709757e-05,553.1999999996178,1.479551e-05,553.1999999996178,5.302549e-06
553.2149999996178,2.974059e-05,553.2149999996178,2.260487e-05,553.2149999996178,1.451969e-05,553.2149999996178,5.475077e-06
553.2299999996178,2.991298e-05,553.2299999996178,2.801775e-05,553.2299999996178,1.423556e-05,553.2299999996178,5.423375e-06
553.2449999996178,3.015686e-05,553.2449999996178,2.838588e-05,553.2449999996178,1.352098e-05,553.2449999996178,5.428567e-06
553.2599999996178,3.063053e-05,553.2599999996178,2.955195e-05,553.2599999996178,1.313735e-05,553.2599999996178,5.485359e-06
553.2749999996178,3.077597e-05,553.2749999996178,3.109563e-05,553.2749999996178,1.318552e-05,553.2749999996178,5.536481e-06
553.2899999996177,3.091481e-05,553.2899999996177,3.184804e-05,553.2899999996177,1.477264e-05,553.2899999996177,5.594695e-06
553.3049999996177,3.200027e-05,553.3049999996177,3.256881e-05,553.3049999996177,1.555846e-05,553.3049999996177,5.551726e-06
553.3199999996177,3.233397e-05,553.3199999996177,3.268495e-05,553.3199999996177,1.601268e-05,553.3199999996177,5.321112e-06
553.3349999996177,3.148683e-05,553.3349999996177,3.382735e-05,553.3349999996177,1.613711e-05,553.3349999996177,5.262549e-06
553.3499999996177,3.06976e-05,553.3499999996177,3.469732e-05,553.3499999996177,1.601707e-05,553.3499999996177,4.950841e-06
553.3649999996177,2.546279e-05,553.3649999996177,3.47164e-05,553.3649999996177,1.508404e-05,553.3649999996177,4.762306e-06
553.3799999996177,1.960893e-05,553.3799999996177,3.25121e-05,553.3799999996177,1.369592e-05,553.3799999996177,4.559819e-06
553.3949999996177,1.728603e-05,553.3949999996177,3.479705e-05,553.3949999996177,1.374315e-05,553.3949999996177,4.478776e-06
553.4099999996176,1.711486e-05,553.4099999996176,3.544203e-05,553.4099999996176,1.374623e-05,553.4099999996176,4.325173e-06
553.4249999996176,1.690451e-05,553.4249999996176,3.588874e-05,553.4249999996176,1.366915e-05,553.4249999996176,4.20629e-06
553.4399999996176,1.663656e-05,553.4399999996176,3.645846e-05,553.4399999996176,1.288181e-05,553.4399999996176,4.186148e-06
553.4549999996176,1.61179e-05,553.4549999996176,3.552064e-05,553.4549999996176,1.2838e-05,553.4549999996176,4.17604e-06
553.4699999996176,1.57689e-05,553.4699999996176,3.127135e-05,553.4699999996176,1.273112e-05,553.4699999996176,4.666692e-06
553.4849999996176,1.453714e-05,553.4849999996176,3.463312e-05,553.4849999996176,1.269233e-05,553.4849999996176,5.181623e-06
553.4999999996176,1.376568e-05,553.4999999996176,3.490296e-05,553.4999999996176,1.243558e-05,553.4999999996176,5.644828e-06
553.5149999996175,1.324415e-05,553.5149999996175,3.747777e-05,553.5149999996175,1.257414e-05,553.5149999996175,1.089987e-05
553.5299999996175,1.282263e-05,553.5299999996175,3.761808e-05,553.5299999996175,1.263449e-05,553.5299999996175,1.755129e-05
553.5449999996175,1.36289e-05,553.5449999996175,3.974661e-05,553.5449999996175,9.775687e-06,553.5449999996175,2.513315e-05
553.5599999996175,1.014343e-05,553.5599999996175,4.310687e-05,553.5599999996175,9.383058e-06,553.5599999996175,3.014565e-05
553.5749999996175,9.15971e-06,553.5749999996175,4.920073e-05,553.5749999996175,9.407047e-06,553.5749999996175,6.191862e-05
553.5899999996175,1.080902e-05,553.5899999996175,5.052123e-05,553.5899999996175,9.221021e-06,553.5899999996175,6.980975e-05
553.6049999996175,1.387272e-05,553.6049999996175,5.04146e-05,553.6049999996175,1.004294e-05,553.6049999996175,7.748492e-05
553.6199999996174,1.99543e-05,553.6199999996174,5.040231e-05,553.6199999996174,1.20396e-05,553.6199999996174,7.956391e-05
553.6349999996174,2.192473e-05,553.6349999996174,5.015519e-05,553.6349999996174,1.336696e-05,553.6349999996174,7.960957e-05
553.6499999996174,2.904616e-05,553.6499999996174,4.869769e-05,553.6499999996174,2.292172e-05,553.6499999996174,7.968721e-05
553.6649999996174,3.298782e-05,553.6649999996174,4.843054e-05,553.6649999996174,2.695013e-05,553.6649999996174,8.012951e-05
553.6799999996174,3.848179e-05,553.6799999996174,4.902864e-05,553.6799999996174,2.937026e-05,553.6799999996174,8.535179e-05
553.6949999996174,4.102704e-05,553.6949999996174,4.933968e-05,553.6949999996174,3.084455e-05,553.6949999996174,8.821591e-05
553.7099999996174,4.37095e-05,553.7099999996174,4.850553e-05,553.7099999996174,3.183919e-05,553.7099999996174,8.996078e-05
553.7249999996174,4.40322e-05,553.7249999996174,4.8482e-05,553.7249999996174,3.195534e-05,553.7249999996174,9.068179e-05
553.7399999996173,4.433445e-05,553.7399999996173,5.128694e-05,553.7399999996173,3.250603e-05,553.7399999996173,9.075167e-05
553.7549999996173,4.753128e-05,553.7549999996173,5.315417e-05,553.7549999996173,3.297885e-05,553.7549999996173,9.077231e-05
553.7699999996173,4.80735e-05,553.7699999996173,5.389947e-05,553.7699999996173,3.303476e-05,553.7699999996173,8.999318e-05
553.7849999996173,4.828635e-05,553.7849999996173,5.325346e-05,553.7849999996173,3.332643e-05,553.7849999996173,8.932687e-05
553.7999999996173,4.838573e-05,553.7999999996173,5.319047e-05,553.7999999996173,3.358369e-05,553.7999999996173,8.757871e-05
553.8149999996173,4.842211e-05,553.8149999996173,5.311069e-05,553.8149999996173,3.354256e-05,553.8149999996173,8.581136e-05
553.8299999996173,4.837495e-05,553.8299999996173,5.020376e-05,553.8299999996173,3.336233e-05,553.8299999996173,6.328162e-05
553.8449999996172,4.821891e-05,553.8449999996172,4.874482e-05,553.8449999996172,3.345678e-05,553.8449999996172,5.189121e-05
553.8599999996172,4.690688e-05,553.8599999996172,5.072408e-05,553.8599999996172,3.315437e-05,553.8599999996172,4.67869e-05
553.8749999996172,4.579055e-05,553.8749999996172,5.199806e-05,553.8749999996172,3.318028e-05,553.8749999996172,4.598212e-05
553.8899999996172,4.459865e-05,553.8899999996172,5.210766e-05,553.8899999996172,3.188296e-05,553.8899999996172,4.630358e-05
553.9049999996172,4.103768e-05,553.9049999996172,5.296967e-05,553.9049999996172,2.699139e-05,553.9049999996172,4.560838e-05
553.9199999996172,3.647044e-05,553.9199999996172,5.336709e-05,553.9199999996172,2.157695e-05,553.9199999996172,4.408751e-05
553.9349999996172,3.300959e-05,553.9349999996172,5.209225e-05,553.9349999996172,1.952398e-05,553.9349999996172,3.39259e-05
553.9499999996171,2.86413e-05,553.9499999996171,5.233936e-05,553.9499999996171,1.784262e-05,553.9499999996171,2.216182e-05
553.9649999996171,2.628007e-05,553.9649999996171,5.267499e-05,553.9649999996171,1.62883e-05,553.9649999996171,1.73803e-05
553.9799999996171,2.595646e-05,553.9799999996171,5.178278e-05,553.9799999996171,1.656358e-05,553.9799999996171,1.625973e-05
553.9949999996171,2.583188e-05,553.9949999996171,4.396977e-05,553.9949999996171,1.514648e-05,553.9949999996171,1.633407e-05
554.0099999996171,2.092468e-05,554.0099999996171,4.214855e-05,554.0099999996171,1.493292e-05,554.0099999996171,1.617374e-05
554.0249999996171,2.117097e-05,554.0249999996171,3.971931e-05,554.0249999996171,1.434792e-05,554.0249999996171,1.551403e-05
554.0399999996171,2.078079e-05,554.0399999996171,3.891099e-05,554.0399999996171,1.327814e-05,554.0399999996171,1.41223e-05
554.054999999617,2.051678e-05,554.054999999617,3.976539e-05,554.054999999617,1.316413e-05,554.054999999617,1.352515e-05
554.069999999617,2.024724e-05,554.069999999617,3.99393e-05,554.069999999617,1.332051e-05,554.069999999617,1.31395e-05
554.084999999617,2.00964e-05,554.084999999617,4.014721e-05,554.084999999617,1.316092e-05,554.084999999617,1.295161e-05
554.099999999617,2.023332e-05,554.099999999617,4.121818e-05,554.099999999617,1.235375e-05,554.099999999617,1.217572e-05
554.114999999617,1.961898e-05,554.114999999617,3.893777e-05,554.114999999617,1.157065e-05,554.114999999617,9.448883e-06
554.129999999617,1.865167e-05,554.129999999617,3.820958e-05,554.129999999617,1.098611e-05,554.129999999617,9.219493e-06
554.144999999617,1.875936e-05,554.144999999617,3.793578e-05,554.144999999617,1.115661e-05,554.144999999617,7.011599e-06
554.159999999617,1.80787e-05,554.159999999617,3.666075e-05,554.159999999617,1.1896e-05,554.159999999617,6.782854e-06
554.174999999617,1.822459e-05,554.174999999617,3.611958e-05,554.174999999617,1.197508e-05,554.174999999617,6.044903e-06
554.1899999996169,1.750789e-05,554.1899999996169,3.542812e-05,554.1899999996169,1.143471e-05,554.1899999996169,5.865124e-06
554.2049999996169,1.734379e-05,554.2049999996169,3.604267e-05,554.2049999996169,1.12459e-05,554.2049999996169,5.917727e-06
554.2199999996169,1.770153e-05,554.2199999996169,3.612972e-05,554.2199999996169,1.120826e-05,554.2199999996169,5.475077e-06
554.2349999996169,1.753282e-05,554.2349999996169,3.600317e-05,554.2349999996169,1.063163e-05,554.2349999996169,5.238403e-06
554.2499999996169,1.584287e-05,554.2499999996169,3.729843e-05,554.2499999996169,1.096044e-05,554.2499999996169,4.962209e-06
554.2649999996169,1.376568e-05,554.2649999996169,3.728256e-05,554.2649999996169,1.070162e-05,554.2649999996169,4.744526e-06
554.2799999996168,1.417506e-05,554.2799999996168,3.682484e-05,554.2799999996168,1.046604e-05,554.2799999996168,4.360851e-06
554.2949999996168,1.453132e-05,554.2949999996168,3.604423e-05,554.2949999996168,1.035917e-05,554.2949999996168,4.393035e-06
554.3099999996168,1.477836e-05,554.3099999996168,2.797196e-05,554.3099999996168,1.023605e-05,554.3099999996168,4.370531e-06
554.3249999996168,1.46318e-05,554.3249999996168,2.42471e-05,554.3249999996168,1.003171e-05,554.3249999996168,4.48192e-06
554.3399999996168,1.458068e-05,554.3399999996168,2.344127e-05,554.3399999996168,9.993728e-06,554.3399999996168,4.428167e-06
554.3549999996168,1.423753e-05,554.3549999996168,1.978273e-05,554.3549999996168,1.005135e-05,554.3549999996168,4.4377e-06
554.3699999996168,1.44711e-05,554.3699999996168,1.88126e-05,554.3699999996168,9.969736e-06,554.3699999996168,4.341427e-06
554.3849999996168,1.445162e-05,554.3849999996168,1.860327e-05,554.3849999996168,9.93435e-06,554.3849999996168,4.29576e-06
554.3999999996167,1.444186e-05,554.3999999996167,1.861614e-05,554.3999999996167,8.325052e-06,554.3999999996167,3.925663e-06
554.4149999996167,1.430564e-05,554.4149999996167,1.852967e-05,554.4149999996167,8.107309e-06,554.4149999996167,3.900464e-06
554.4299999996167,1.362167e-05,554.4299999996167,1.895879e-05,554.4299999996167,8.136793e-06,554.4299999996167,3.885991e-06
554.4449999996167,1.366709e-05,554.4449999996167,1.947196e-05,554.4449999996167,7.894269e-06,554.4449999996167,3.842245e-06
554.4599999996167,1.328556e-05,554.4599999996167,1.705715e-05,554.4599999996167,7.822567e-06,554.4599999996167,3.834905e-06
554.4749999996167,1.268012e-05,554.4749999996167,1.761857e-05,554.4749999996167,7.71559e-06,554.4749999996167,3.779404e-06
554.4899999996167,1.253149e-05,554.4899999996167,1.603641e-05,554.4899999996167,7.629297e-06,554.4899999996167,3.669723e-06
554.5049999996166,1.264563e-05,554.5049999996166,1.3632e-05,554.5049999996166,6.789081e-06,554.5049999996166,3.638885e-06
554.5199999996166,1.245934e-05,554.5199999996166,1.418202e-05,554.5199999996166,7.031661e-06,554.5199999996166,3.615583e-06
554.5349999996166,1.208864e-05,554.5349999996166,1.470766e-05,554.5349999996166,8.109047e-06,554.5349999996166,3.532818e-06
554.5499999996166,1.096686e-05,554.5499999996166,1.551312e-05,554.5499999996166,9.360511e-06,554.5499999996166,3.67356e-06
554.5649999996166,1.094114e-05,554.5649999996166,1.602762e-05,554.5649999996166,1.405932e-05,554.5649999996166,3.65048e-06
554.5799999996166,1.123462e-05,554.5799999996166,1.629003e-05,554.5799999996166,3.485853e-05,554.5799999996166,3.504795e-06
554.5949999996166,1.115282e-05,554.5949999996166,1.638229e-05,554.5949999996166,0.0001245938,554.5949999996166,3.646619e-06
554.6099999996165,1.133448e-05,554.6099999996165,1.665349e-05,554.6099999996165,0.0002144669,554.6099999996165,3.84957e-06
554.6249999996165,1.144456e-05,554.6249999996165,1.753603e-05,554.6249999996165,0.0007456174,554.6249999996165,4.590608e-06
554.6399999996165,1.175903e-05,554.6399999996165,1.773572e-05,554.6399999996165,0.0008177794,554.6399999996165,4.809401e-06
554.6549999996165,1.164588e-05,554.6549999996165,1.764893e-05,554.6549999996165,0.0009041419,554.6549999996165,5.184341e-06
554.6699999996165,1.18164e-05,554.6699999996165,1.711075e-05,554.6699999996165,0.00094462,554.6699999996165,5.704405e-06
554.6849999996165,1.199506e-05,554.6849999996165,1.688367e-05,554.6849999996165,0.0009475864,554.6849999996165,5.778013e-06
554.6999999996165,1.187229e-05,554.6999999996165,1.597039e-05,554.6999999996165,0.0009544392,554.6999999996165,6.047233e-06
554.7149999996165,1.23092e-05,554.7149999996165,1.556841e-05,554.7149999996165,0.0009560499,554.7149999996165,6.037908e-06
554.7299999996164,1.222652e-05,554.7299999996164,1.554668e-05,554.7299999996164,0.0009564953,554.7299999996164,6.037908e-06
554.7449999996164,1.224149e-05,554.7449999996164,1.552038e-05,554.7449999996164,0.0009566413,554.7449999996164,6.105191e-06
554.7599999996164,1.238791e-05,554.7599999996164,1.657633e-05,554.7599999996164,0.0009566877,554.7599999996164,6.114414e-06
554.7749999996164,1.217572e-05,554.7749999996164,1.913629e-05,554.7749999996164,0.0009566984,554.7749999996164,6.169459e-06
554.7899999996164,1.163862e-05,554.7899999996164,2.018871e-05,554.7899999996164,0.0009566867,554.7899999996164,6.16489e-06
554.8049999996164,1.168814e-05,554.8049999996164,2.431787e-05,554.8049999996164,0.0009566683,554.8049999996164,6.100575e-06
554.8199999996164,1.143348e-05,554.8199999996164,2.637904e-05,554.8199999996164,0.0009564706,554.8199999996164,6.230803e-06
554.8349999996163,1.111993e-05,554.8349999996163,3.157351e-05,554.8349999996163,0.0009548506,554.8349999996163,6.266871e-06
554.8499999996163,1.064355e-05,554.8499999996163,3.348582e-05,554.8499999996163,0.0009367354,554.8499999996163,6.365006e-06
554.8649999996163,9.818822e-06,554.8649999996163,3.497231e-05,554.8649999996163,0.0008956813,554.8649999996163,6.255622e-06
554.8799999996163,9.517214e-06,554.8799999996163,3.799663e-05,554.8799999996163,0.0004845738,554.8799999996163,5.559333e-06
554.8949999996163,9.048304e-06,554.8949999996163,3.984573e-05,554.8949999996163,0.0004309721,554.8949999996163,5.669728e-06
554.9099999996163,8.908669e-06,554.9099999996163,4.237021e-05,554.9099999996163,0.0002415365,554.9099999996163,5.554263e-06
554.9249999996163,8.373978e-06,554.9249999996163,4.446421e-05,554.9249999996163,0.0001238933,554.9249999996163,5.371176e-06
554.9399999996162,8.350395e-06,554.9399999996162,4.523218e-05,554.9399999996162,0.0001064565,554.9399999996162,6.275856e-06
554.9549999996162,8.081204e-06,554.9549999996162,4.509619e-05,554.9549999996162,4.848868e-05,554.9549999996162,1.053714e-05
554.9699999996162,8.11252e-06,554.9699999996162,4.516361e-05,554.9699999996162,2.813966e-05,554.9699999996162,1.762497e-05
554.9849999996162,9.924419e-06,554.9849999996162,4.4946e-05,554.9849999996162,2.042457e-05,554.9849999996162,2.143021e-05
554.9999999996162,9.883171e-06,554.9999999996162,4.48613e-05,554.9999999996162,1.480788e-05,554.9999999996162,2.563262e-05
555.0149999996162,9.895991e-06,555.0149999996162,4.606996e-05,555.0149999996162,1.640549e-05,555.0149999996162,3.281528e-05
555.0299999996162,1.028958e-05,555.0299999996162,4.727184e-05,555.0299999996162,1.72534e-05,555.0299999996162,6.540523e-05
555.0449999996162,1.029916e-05,555.0449999996162,4.913139e-05,555.0449999996162,1.721171e-05,555.0449999996162,7.083238e-05
555.0599999996161,1.080511e-05,555.0599999996161,4.74506e-05,555.0599999996161,1.745793e-05,555.0599999996161,7.333168e-05
555.0749999996161,1.128966e-05,555.0749999996161,4.70541e-05,555.0749999996161,1.769596e-05,555.0749999996161,7.358022e-05
555.0899999996161,1.211076e-05,555.0899999996161,4.302477e-05,555.0899999996161,1.860024e-05,555.0899999996161,7.359323e-05
555.1049999996161,1.527705e-05,555.1049999996161,4.264263e-05,555.1049999996161,1.902999e-05,555.1049999996161,7.412364e-05
555.1199999996161,2.462412e-05,555.1199999996161,4.030584e-05,555.1199999996161,2.129437e-05,555.1199999996161,7.416734e-05
555.1349999996161,2.767375e-05,555.1349999996161,3.783279e-05,555.1349999996161,2.201194e-05,555.1349999996161,7.45723e-05
555.149999999616,2.901754e-05,555.149999999616,3.59746e-05,555.149999999616,2.237878e-05,555.149999999616,7.577069e-05
555.164999999616,3.179049e-05,555.164999999616,3.534612e-05,555.164999999616,2.364411e-05,555.164999999616,8.053546e-05
555.179999999616,3.304627e-05,555.179999999616,3.40254e-05,555.179999999616,2.385586e-05,555.179999999616,8.440598e-05
555.194999999616,3.362561e-05,555.194999999616,3.493483e-05,555.194999999616,2.40089e-05,555.194999999616,8.458336e-05
555.209999999616,3.414319e-05,555.209999999616,3.5688e-05,555.209999999616,2.414055e-05,555.209999999616,8.411425e-05
555.224999999616,3.550239e-05,555.224999999616,3.935197e-05,555.224999999616,2.419883e-05,555.224999999616,8.348977e-05
555.239999999616,3.51523e-05,555.239999999616,4.449715e-05,555.239999999616,2.387829e-05,555.239999999616,8.666175e-05
555.254999999616,3.529666e-05,555.254999999616,4.78803e-05,555.254999999616,2.21472e-05,555.254999999616,8.565707e-05
555.269999999616,3.53222e-05,555.269999999616,4.939875e-05,555.269999999616,1.966202e-05,555.269999999616,8.063475e-05
555.2849999996159,3.535648e-05,555.2849999996159,0.0001138531,555.2849999996159,1.933475e-05,555.2849999996159,6.293161e-05
555.2999999996159,3.541977e-05,555.2999999996159,0.0001385993,555.2999999996159,1.917232e-05,555.2999999996159,5.674099e-05
555.3149999996159,3.633306e-05,555.3149999996159,0.0001434187,555.3149999996159,1.905514e-05,555.3149999996159,5.586456e-05
555.3299999996159,3.672064e-05,555.3299999996159,0.0001535981,555.3299999996159,1.886494e-05,555.3299999996159,5.633286e-05
555.3449999996159,3.711784e-05,555.3449999996159,0.0001580428,555.3449999996159,1.852891e-05,555.3449999996159,5.692787e-05
555.3599999996159,3.41766e-05,555.3599999996159,0.0001627695,555.3599999996159,1.736976e-05,555.3599999996159,5.680376e-05
555.3749999996159,2.822164e-05,555.3749999996159,0.0001637647,555.3749999996159,1.467409e-05,555.3749999996159,5.7388e-05
555.3899999996158,2.827899e-05,555.3899999996158,0.0001640589,555.3899999996158,1.406933e-05,555.3899999996158,5.634312e-05
555.4049999996158,2.704822e-05,555.4049999996158,0.0001646288,555.4049999996158,1.339538e-05,555.4049999996158,5.282907e-05
555.4199999996158,2.408973e-05,555.4199999996158,0.000165396,555.4199999996158,1.302536e-05,555.4199999996158,4.792765e-05
555.4349999996158,2.27756e-05,555.4349999996158,0.0001663631,555.4349999996158,1.2884e-05,555.4349999996158,4.105004e-05
555.4499999996158,2.193887e-05,555.4499999996158,0.0001660009,555.4499999996158,1.306639e-05,555.4499999996158,4.132229e-05
555.4649999996158,2.164735e-05,555.4649999996158,0.0001656792,555.4649999996158,1.442137e-05,555.4649999996158,4.138292e-05
555.4799999996158,1.959312e-05,555.4799999996158,0.000165082,555.4799999996158,1.480598e-05,555.4799999996158,3.918444e-05
555.4949999996157,1.996418e-05,555.4949999996157,0.0001631333,555.4949999996157,1.467217e-05,555.4949999996157,2.983848e-05
555.5099999996157,1.985593e-05,555.5099999996157,0.0001614802,555.5099999996157,1.484114e-05,555.5099999996157,2.877966e-05
555.5249999996157,1.976206e-05,555.5249999996157,0.0001586854,555.5249999996157,1.509804e-05,555.5249999996157,2.638225e-05
555.5399999996157,1.950954e-05,555.5399999996157,0.0001037447,555.5399999996157,1.563432e-05,555.5399999996157,2.394839e-05
555.5549999996157,1.830096e-05,555.5549999996157,8.758337e-05,555.5549999996157,1.63582e-05,555.5549999996157,2.367864e-05
555.5699999996157,1.743775e-05,555.5699999996157,7.707333e-05,555.5699999996157,1.644409e-05,555.5699999996157,1.989845e-05
555.5849999996157,1.62068e-05,555.5849999996157,6.315616e-05,555.5849999996157,1.700007e-05,555.5849999996157,1.840075e-05
555.5999999996156,1.571521e-05,555.5999999996156,5.215522e-05,555.5999999996156,1.725095e-05,555.5999999996156,1.601356e-05
555.6149999996156,1.6678e-05,555.6149999996156,3.38752e-05,555.6149999996156,1.745632e-05,555.6149999996156,1.417606e-05
555.6299999996156,1.661623e-05,555.6299999996156,3.291686e-05,555.6299999996156,1.754085e-05,555.6299999996156,1.229087e-05
555.6449999996156,1.616241e-05,555.6449999996156,3.280368e-05,555.6449999996156,1.767923e-05,555.6449999996156,1.190547e-05
555.6599999996156,1.74321e-05,555.6599999996156,2.8787e-05,555.6599999996156,1.741512e-05,555.6599999996156,1.178058e-05
555.6749999996156,1.716746e-05,555.6749999996156,2.425581e-05,555.6749999996156,1.764973e-05,555.6749999996156,1.191611e-05
555.6899999996156,1.912524e-05,555.6899999996156,1.805374e-05,555.6899999996156,1.774525e-05,555.6899999996156,1.148388e-05
555.7049999996156,1.907066e-05,555.7049999996156,1.967204e-05,555.7049999996156,1.728032e-05,555.7049999996156,8.750726e-06
555.7199999996155,1.984458e-05,555.7199999996155,1.931142e-05,555.7199999996155,1.723951e-05,555.7199999996155,7.60896e-06
555.7349999996155,1.960031e-05,555.7349999996155,1.911271e-05,555.7349999996155,1.710498e-05,555.7349999996155,7.413922e-06
555.7499999996155,1.97699e-05,555.7499999996155,1.945748e-05,555.7499999996155,1.750226e-05,555.7499999996155,7.669811e-06
555.7649999996155,2.000718e-05,555.7649999996155,1.873832e-05,555.7649999996155,1.813859e-05,555.7649999996155,7.472591e-06
555.7799999996155,2.09415e-05,555.7799999996155,1.882383e-05,555.7799999996155,1.73965e-05,555.7799999996155,7.142966e-06
555.7949999996155,2.162065e-05,555.7949999996155,1.827323e-05,555.7949999996155,1.718386e-05,555.7949999996155,7.029658e-06
555.8099999996155,2.166946e-05,555.8099999996155,1.813937e-05,555.8099999996155,1.720844e-05,555.8099999996155,7.003558e-06
555.8249999996154,2.118095e-05,555.8249999996154,1.827323e-05,555.8249999996154,1.697685e-05,555.8249999996154,7.041671e-06
555.8399999996154,2.114301e-05,555.8399999996154,1.727788e-05,555.8399999996154,1.588638e-05,555.8399999996154,6.957143e-06
555.8549999996154,2.156455e-05,555.8549999996154,1.668897e-05,555.8549999996154,1.566223e-05,555.8549999996154,6.920602e-06
555.8699999996154,2.086333e-05,555.8699999996154,1.614235e-05,555.8699999996154,1.551221e-05,555.8699999996154,7.073606e-06
555.8849999996154,2.078351e-05,555.8849999996154,1.526136e-05,555.8849999996154,1.546492e-05,555.8849999996154,7.139021e-06
555.8999999996154,1.97421e-05,555.8999999996154,1.548767e-05,555.8999999996154,1.459516e-05,555.8999999996154,7.027653e-06
555.9149999996154,1.954345e-05,555.9149999996154,1.525952e-05,555.9149999996154,1.452163e-05,555.9149999996154,6.851046e-06
555.9299999996153,1.922662e-05,555.9299999996153,1.480407e-05,555.9299999996153,1.452745e-05,555.9299999996153,6.472542e-06
555.9449999996153,1.685862e-05,555.9449999996153,1.232178e-05,555.9449999996153,1.386053e-05,555.9449999996153,6.107498e-06
555.9599999996153,1.615543e-05,555.9599999996153,1.23697e-05,555.9599999996153,1.297769e-05,555.9599999996153,5.889093e-06
555.9749999996153,1.618679e-05,555.9749999996153,1.243331e-05,555.9749999996153,1.251012e-05,555.9749999996153,5.490492e-06
555.9899999996153,1.5619e-05,555.9899999996153,1.248194e-05,555.9899999996153,1.210029e-05,555.9899999996153,5.342249e-06
556.0049999996153,1.492726e-05,556.0049999996153,1.126092e-05,556.0049999996153,1.12909e-05,556.0049999996153,4.973552e-06
556.0199999996153,1.511016e-05,556.0199999996153,1.199388e-05,556.0199999996153,1.00275e-05,556.0199999996153,4.979213e-06
556.0349999996153,1.313092e-05,556.0349999996153,1.218844e-05,556.0349999996153,1.042694e-05,556.0349999996153,5.029879e-06
556.0499999996152,1.258198e-05,556.0499999996152,1.155603e-05,556.0499999996152,9.863196e-06,556.0499999996152,5.00461e-06
556.0649999996152,1.259205e-05,556.0649999996152,1.171583e-05,556.0649999996152,1.014898e-05,556.0649999996152,5.093886e-06
556.0799999996152,1.288072e-05,556.0799999996152,1.143225e-05,556.0799999996152,1.109203e-05,556.0799999996152,5.046655e-06
556.0949999996152,1.27001e-05,556.0949999996152,1.120323e-05,556.0949999996152,1.161439e-05,556.0949999996152,5.159829e-06
556.1099999996152,1.149369e-05,556.1099999996152,1.115661e-05,556.1099999996152,1.187585e-05,556.1099999996152,5.208738e-06
556.1249999996152,1.242311e-05,556.1249999996152,1.116923e-05,556.1249999996152,1.198448e-05,556.1249999996152,5.310512e-06
556.1399999996152,1.284568e-05,556.1399999996152,1.176502e-05,556.1399999996152,1.189955e-05,556.1399999996152,5.459618e-06
556.1549999996151,1.2601e-05,556.1549999996151,1.144087e-05,556.1549999996151,1.258869e-05,556.1549999996151,5.459618e-06
556.1699999996151,1.242084e-05,556.1699999996151,1.127217e-05,556.1699999996151,1.258422e-05,556.1699999996151,5.505864e-06
556.1849999996151,1.259541e-05,556.1849999996151,1.083115e-05,556.1849999996151,1.287853e-05,556.1849999996151,5.602244e-06
556.1999999996151,1.263783e-05,556.1999999996151,1.110599e-05,556.1999999996151,1.302428e-05,556.1999999996151,5.599728e-06
556.2149999996151,1.250674e-05,556.2149999996151,1.067526e-05,556.2149999996151,1.338065e-05,556.2149999996151,5.724127e-06
556.2299999996151,1.219769e-05,556.2299999996151,1.053714e-05,556.2299999996151,1.340904e-05,556.2299999996151,5.649817e-06
556.2449999996151,1.21572e-05,556.2449999996151,1.029232e-05,556.2449999996151,1.377387e-05,556.2449999996151,5.609782e-06
556.259999999615,1.188652e-05,556.259999999615,1.017532e-05,556.259999999615,1.383408e-05,556.259999999615,5.599728e-06
556.274999999615,1.157673e-05,556.274999999615,9.059196e-06,556.274999999615,1.354388e-05,556.274999999615,5.647323e-06
556.289999999615,1.159375e-05,556.289999999615,1.291894e-05,556.289999999615,1.342059e-05,556.289999999615,5.516089e-06
556.304999999615,1.169176e-05,556.304999999615,1.338065e-05,556.304999999615,1.295705e-05,556.304999999615,5.677176e-06
556.319999999615,1.179372e-05,556.319999999615,1.545581e-05,556.319999999615,1.230004e-05,556.319999999615,5.505864e-06
556.334999999615,1.115156e-05,556.334999999615,1.784972e-05,556.334999999615,1.186399e-05,556.334999999615,5.399948e-06
556.349999999615,1.098868e-05,556.349999999615,2.238822e-05,556.349999999615,1.148388e-05,556.349999999615,5.249148e-06
556.364999999615,1.097842e-05,556.364999999615,3.110423e-05,556.364999999615,1.114018e-05,556.364999999615,4.890725e-06
556.3799999996149,1.170741e-05,556.3799999996149,4.164996e-05,556.3799999996149,1.109457e-05,556.3799999996149,4.953686e-06
556.3949999996149,1.218035e-05,556.3949999996149,4.500238e-05,556.3949999996149,1.10666e-05,556.3949999996149,4.615091e-06
556.4099999996149,1.338696e-05,556.4099999996149,5.238322e-05,556.4099999996149,1.002047e-05,556.4099999996149,4.636408e-06
556.4249999996149,1.334797e-05,556.4249999996149,5.733151e-05,556.4249999996149,9.503884e-06,556.4249999996149,4.690778e-06
556.4399999996149,1.327708e-05,556.4399999996149,6.15247e-05,556.4399999996149,8.573465e-06,556.4399999996149,4.916579e-06
556.4549999996149,1.387982e-05,556.4549999996149,6.373057e-05,556.4549999996149,8.515764e-06,556.4549999996149,4.744526e-06
556.4699999996149,1.547312e-05,556.4699999996149,6.431978e-05,556.4699999996149,8.018206e-06,556.4699999996149,4.762306e-06
556.4849999996148,1.5412e-05,556.4849999996148,6.693398e-05,556.4849999996148,8.023475e-06,556.4849999996148,4.70577e-06
556.4999999996148,1.574029e-05,556.4999999996148,7.090056e-05,556.4999999996148,7.757469e-06,556.4999999996148,4.675739e-06
556.5149999996148,1.563072e-05,556.5149999996148,7.132527e-05,556.5149999996148,7.656943e-06,556.5149999996148,4.660651e-06
556.5299999996148,1.561269e-05,556.5299999996148,7.238858e-05,556.5299999996148,7.24479e-06,556.5299999996148,4.717728e-06
556.5449999996148,1.576711e-05,556.5449999996148,7.252466e-05,556.5449999996148,7.22727e-06,556.5449999996148,4.572159e-06
556.5599999996148,1.569547e-05,556.5599999996148,7.271515e-05,556.5599999996148,7.453716e-06,556.5599999996148,4.459865e-06
556.5749999996148,1.584109e-05,556.5749999996148,7.271438e-05,556.5749999996148,7.59228e-06,556.5749999996148,4.469331e-06
556.5899999996147,1.6003e-05,556.5899999996147,7.288717e-05,556.5899999996147,8.712006e-06,556.5899999996147,4.376973e-06
556.6049999996147,1.603553e-05,556.6049999996147,7.093453e-05,556.6049999996147,8.985815e-06,556.6049999996147,4.4218e-06
556.6199999996147,1.635561e-05,556.6199999996147,6.766969e-05,556.6199999996147,8.806888e-06,556.6199999996147,4.491339e-06
556.6349999996147,1.510923e-05,556.6349999996147,6.364408e-05,556.6349999996147,9.243908e-06,556.6349999996147,5.644828e-06
556.6499999996147,1.602323e-05,556.6499999996147,5.742848e-05,556.6499999996147,9.823125e-06,556.6499999996147,7.614512e-06
556.6649999996147,1.55856e-05,556.6649999996147,5.456546e-05,556.6649999996147,9.904527e-06,556.6649999996147,1.560908e-05
556.6799999996147,1.547312e-05,556.6799999996147,4.980826e-05,556.6799999996147,9.927257e-06,556.6799999996147,1.857751e-05
556.6949999996147,1.548222e-05,556.6949999996147,4.593123e-05,556.6949999996147,1.004013e-05,556.6949999996147,2.656158e-05
556.7099999996146,1.400209e-05,556.7099999996146,4.41906e-05,556.7099999996146,1.010307e-05,556.7099999996146,5.910486e-05
556.7249999996146,1.331416e-05,556.7249999996146,4.342951e-05,556.7249999996146,1.027999e-05,556.7249999996146,8.056606e-05
556.7399999996146,1.457295e-05,556.7399999996146,4.112752e-05,556.7399999996146,1.128466e-05,556.7399999996146,9.923312e-05
556.7549999996146,1.50971e-05,556.7549999996146,3.936557e-05,556.7549999996146,1.141622e-05,556.7549999996146,0.0001024609
556.7699999996146,1.817428e-05,556.7699999996146,5.43378e-05,556.7699999996146,1.376875e-05,556.7699999996146,0.0001042892
556.7849999996146,1.973853e-05,556.7849999996146,5.264877e-05,556.7849999996146,2.147421e-05,556.7849999996146,0.0001045088
556.7999999996146,2.781085e-05,556.7999999996146,5.32606e-05,556.7999999996146,2.623286e-05,556.7999999996146,0.0001047169
556.8149999996145,3.026969e-05,556.8149999996145,5.275302e-05,556.8149999996145,3.028505e-05,556.8149999996145,0.0001066477
556.8299999996145,3.643952e-05,556.8299999996145,5.365481e-05,556.8299999996145,3.124702e-05,556.8299999996145,0.0001124359
556.8449999996145,4.38138e-05,556.8449999996145,6.045137e-05,556.8449999996145,3.256535e-05,556.8449999996145,0.0001161006
556.8599999996145,4.582008e-05,556.8599999996145,6.072293e-05,556.8599999996145,3.290359e-05,556.8599999996145,0.0001176942
556.8749999996145,4.659623e-05,556.8749999996145,6.764408e-05,556.8749999996145,3.35925e-05,556.8749999996145,0.0001193645
556.8899999996145,4.72626e-05,556.8899999996145,7.328268e-05,556.8899999996145,3.369508e-05,556.8899999996145,0.0001232749
556.9049999996145,4.750934e-05,556.9049999996145,7.881733e-05,556.9049999996145,3.403948e-05,556.9049999996145,0.0001239633
556.9199999996144,4.898697e-05,556.9199999996144,9.821576e-05,556.9199999996144,3.471478e-05,556.9199999996144,0.0001235898
556.9349999996144,4.98693e-05,556.9349999996144,9.958879e-05,556.9349999996144,3.664269e-05,556.9349999996144,0.00012369
556.9499999996144,5.042438e-05,556.9499999996144,0.0001009868,556.9499999996144,3.671565e-05,556.9499999996144,0.0001205484
556.9649999996144,5.054325e-05,556.9649999996144,0.0001065453,556.9649999996144,3.672064e-05,556.9649999996144,0.0001080303
556.9799999996144,5.058671e-05,556.9799999996144,0.0001125047,556.9799999996144,3.656187e-05,556.9799999996144,9.300666e-05
556.9949999996144,5.018973e-05,556.9949999996144,0.0001173926,556.9949999996144,3.634973e-05,556.9949999996144,7.661541e-05
557.0099999996144,4.980854e-05,557.0099999996144,0.0001159676,557.0099999996144,3.600708e-05,557.0099999996144,7.064101e-05
557.0249999996144,4.901112e-05,557.0249999996144,0.0001159566,557.0249999996144,3.54897e-05,557.0249999996144,7.049708e-05
557.0399999996143,4.624604e-05,557.0399999996143,0.0001189709,557.0399999996143,2.898597e-05,557.0399999996143,7.017222e-05
557.0549999996143,4.401972e-05,557.0549999996143,0.0001190929,557.0549999996143,2.787005e-05,557.0549999996143,6.985251e-05
557.0699999996143,4.251426e-05,557.0699999996143,0.0001191045,557.0699999996143,2.406047e-05,557.0699999996143,6.463961e-05
557.0849999996143,3.781007e-05,557.0849999996143,0.0001171348,557.0849999996143,2.224557e-05,557.0849999996143,5.413392e-05
557.0999999996143,2.980399e-05,557.0999999996143,0.0001149161,557.0999999996143,2.12679e-05,557.0999999996143,4.761034e-05
557.1149999996143,2.759117e-05,557.1149999996143,0.0001139275,557.1149999996143,2.059969e-05,557.1149999996143,4.411626e-05
557.1299999996143,2.671968e-05,557.1299999996143,0.0001096616,557.1299999996143,1.992251e-05,557.1299999996143,3.219775e-05
557.1449999996142,2.676656e-05,557.1449999996142,0.0001047886,557.1449999996142,1.94951e-05,557.1449999996142,2.54567e-05
557.1599999996142,2.571163e-05,557.1599999996142,9.597308e-05,557.1599999996142,1.92676e-05,557.1599999996142,2.132148e-05
557.1749999996142,2.625862e-05,557.1749999996142,8.502504e-05,557.1749999996142,1.580102e-05,557.1749999996142,2.107427e-05
557.1899999996142,2.837943e-05,557.1899999996142,8.298375e-05,557.1899999996142,1.483924e-05,557.1899999996142,1.560276e-05
557.2049999996142,2.917054e-05,557.2049999996142,7.817776e-05,557.2049999996142,1.524012e-05,557.2049999996142,1.523642e-05
557.2199999996142,3.062041e-05,557.2199999996142,7.283013e-05,557.2199999996142,1.563613e-05,557.2199999996142,1.361132e-05
557.2349999996142,3.059188e-05,557.2349999996142,5.676382e-05,557.2349999996142,1.599067e-05,557.2349999996142,1.372161e-05
557.2499999996141,3.176566e-05,557.2499999996141,4.660016e-05,557.2499999996141,1.701167e-05,557.2499999996141,1.346251e-05
557.2649999996141,3.492152e-05,557.2649999996141,4.447846e-05,557.2649999996141,1.979554e-05,557.2649999996141,1.290039e-05
557.2799999996141,3.575071e-05,557.2799999996141,3.637607e-05,557.2799999996141,1.991968e-05,557.2799999996141,1.182831e-05
557.2949999996141,3.610047e-05,557.2949999996141,2.842754e-05,557.2949999996141,1.996065e-05,557.2949999996141,1.206298e-05
557.3099999996141,3.74522e-05,557.3099999996141,2.79629e-05,557.3099999996141,1.996842e-05,557.3099999996141,1.152551e-05
557.3249999996141,3.738067e-05,557.3249999996141,3.821032e-05,557.3249999996141,1.896399e-05,557.3249999996141,1.143101e-05
557.3399999996141,3.746085e-05,557.3399999996141,4.039312e-05,557.3399999996141,1.935586e-05,557.3399999996141,1.121328e-05
557.354999999614,3.830458e-05,557.354999999614,4.26839e-05,557.354999999614,2.016707e-05,557.354999999614,1.104111e-05
557.369999999614,3.820258e-05,557.369999999614,4.696301e-05,557.369999999614,2.025489e-05,557.369999999614,9.693203e-06
557.384999999614,3.754312e-05,557.384999999614,4.691259e-05,557.384999999614,2.053257e-05,557.384999999614,8.992083e-06
557.399999999614,3.742737e-05,557.399999999614,4.702535e-05,557.399999999614,2.177775e-05,557.399999999614,7.896054e-06
557.414999999614,3.710987e-05,557.414999999614,4.850088e-05,557.414999999614,2.241714e-05,557.414999999614,7.186222e-06
557.429999999614,3.448434e-05,557.429999999614,5.015098e-05,557.429999999614,2.276447e-05,557.429999999614,6.959168e-06
557.444999999614,3.199323e-05,557.444999999614,5.021639e-05,557.444999999614,2.305041e-05,557.444999999614,6.75163e-06
557.459999999614,2.978319e-05,557.459999999614,4.978675e-05,557.459999999614,2.670228e-05,557.459999999614,6.654963e-06
557.4749999996139,2.973349e-05,557.4749999996139,4.97086e-05,557.4749999996139,2.971975e-05,557.4749999996139,6.629514e-06
557.4899999996139,2.957959e-05,557.4899999996139,4.972107e-05,557.4899999996139,2.982998e-05,557.4899999996139,6.42229e-06
557.5049999996139,2.817818e-05,557.5049999996139,4.989303e-05,557.5049999996139,3.141517e-05,557.5049999996139,6.217223e-06
557.5199999996139,2.434913e-05,557.5199999996139,4.939647e-05,557.5199999996139,3.144296e-05,557.5199999996139,6.233063e-06
557.5349999996139,2.321786e-05,557.5349999996139,4.848839e-05,557.5349999996139,3.138781e-05,557.5349999996139,5.792623e-06
557.5499999996139,2.088897e-05,557.5499999996139,4.779314e-05,557.5499999996139,3.120552e-05,557.5499999996139,5.216845e-06
557.5649999996139,1.872102e-05,557.5649999996139,4.688525e-05,557.5649999996139,3.111873e-05,557.5649999996139,5.052234e-06
557.5799999996138,1.777697e-05,557.5799999996138,4.179008e-05,557.5799999996138,3.096261e-05,557.5799999996138,4.853136e-06
557.5949999996138,1.7688e-05,557.5949999996138,4.133456e-05,557.5949999996138,3.05951e-05,557.5949999996138,4.666692e-06
557.6099999996138,1.51027e-05,557.6099999996138,3.784619e-05,557.6099999996138,3.006845e-05,557.6099999996138,4.720713e-06
557.6249999996138,1.470382e-05,557.6249999996138,3.249996e-05,557.6249999996138,2.980778e-05,557.6249999996138,4.824024e-06
557.6399999996138,1.332685e-05,557.6399999996138,3.208468e-05,557.6399999996138,2.963098e-05,557.6399999996138,5.071714e-06
557.6549999996138,1.284129e-05,557.6549999996138,3.066362e-05,557.6549999996138,2.900151e-05,557.6549999996138,5.010237e-06
557.6699999996138,1.209447e-05,557.6699999996138,2.755387e-05,557.6699999996138,2.810861e-05,557.6699999996138,4.812329e-06
557.6849999996138,1.185567e-05,557.6849999996138,2.358386e-05,557.6849999996138,2.759525e-05,557.6849999996138,4.768218e-06
557.6999999996137,1.19173e-05,557.6999999996137,2.338351e-05,557.6999999996137,2.677445e-05,557.6999999996137,4.559819e-06
557.7149999996137,1.191611e-05,557.7149999996137,2.3296e-05,557.7149999996137,2.171102e-05,557.7149999996137,4.714741e-06
557.7299999996137,1.067262e-05,557.7299999996137,2.281145e-05,557.7299999996137,1.860857e-05,557.7299999996137,4.699779e-06
557.7449999996137,1.065942e-05,557.7449999996137,2.198248e-05,557.7449999996137,1.763136e-05,557.7449999996137,4.729657e-06
557.7599999996137,1.018915e-05,557.7599999996137,2.163954e-05,557.7599999996137,1.398195e-05,557.7599999996137,4.841512e-06
557.7749999996137,1.004154e-05,557.7749999996137,2.134987e-05,557.7749999996137,1.189955e-05,557.7749999996137,4.81818e-06
557.7899999996137,1.005696e-05,557.7899999996137,2.131751e-05,557.7899999996137,1.544669e-05,557.7899999996137,4.953686e-06
557.8049999996136,9.699014e-06,557.8049999996136,2.116765e-05,557.8049999996136,2.338833e-05,557.8049999996136,4.947995e-06
557.8199999996136,9.735256e-06,557.8199999996136,1.323031e-05,557.8199999996136,3.029667e-05,557.8199999996136,4.657627e-06
557.8349999996136,1.049427e-05,557.8349999996136,1.142732e-05,557.8349999996136,3.093121e-05,557.8349999996136,4.720713e-06
557.8499999996136,1.222883e-05,557.8499999996136,1.021539e-05,557.8499999996136,3.949026e-05,557.8499999996136,4.794733e-06
557.8649999996136,1.238109e-05,557.8649999996136,1.092568e-05,557.8649999996136,5.381473e-05,557.8649999996136,4.708762e-06
557.8799999996136,1.263226e-05,557.8799999996136,1.030053e-05,557.8799999996136,6.086774e-05,557.8799999996136,4.47563e-06
557.8949999996136,1.294182e-05,557.8949999996136,1.004294e-05,557.8949999996136,6.200933e-05,557.8949999996136,4.186148e-06
557.9099999996135,1.296031e-05,557.9099999996135,1.117301e-05,557.9099999996135,6.490038e-05,557.9099999996135,4.216325e-06
557.9249999996135,1.47354e-05,557.9249999996135,1.260211e-05,557.9249999996135,6.684447e-05,557.9249999996135,4.485062e-06
557.9399999996135,1.465873e-05,557.9399999996135,1.256741e-05,557.9399999996135,6.734124e-05,557.9399999996135,4.544346e-06
557.9549999996135,1.516785e-05,557.9549999996135,1.248871e-05,557.9549999996135,6.752402e-05,557.9549999996135,4.393035e-06
557.9699999996135,1.444674e-05,557.9699999996135,1.273223e-05,557.9699999996135,6.757782e-05,557.9699999996135,4.321914e-06
557.9849999996135,1.436362e-05,557.9849999996135,1.307178e-05,557.9849999996135,6.753466e-05,557.9849999996135,4.376973e-06
557.9999999996135,1.429283e-05,557.9999999996135,1.306855e-05,557.9999999996135,6.754863e-05,557.9999999996135,4.31539e-06
558.0149999996135,1.416612e-05,558.0149999996135,1.289165e-05,558.0149999996135,6.750608e-05,558.0149999996135,4.229668e-06
558.0299999996134,1.426324e-05,558.0299999996134,1.277089e-05,558.0299999996134,6.752277e-05,558.0299999996134,4.182782e-06
558.0449999996134,1.462216e-05,558.0449999996134,1.268234e-05,558.0449999996134,6.624816e-05,558.0449999996134,4.152361e-06
558.0599999996134,1.451678e-05,558.0599999996134,1.264118e-05,558.0599999996134,6.265927e-05,558.0599999996134,4.259536e-06
558.0749999996134,1.507563e-05,558.0749999996134,1.263003e-05,558.0749999996134,5.883038e-05,558.0749999996134,4.302314e-06
558.0899999996134,1.346147e-05,558.0899999996134,1.253149e-05,558.0899999996134,5.86265e-05,558.0899999996134,4.325173e-06
558.1049999996134,1.330781e-05,558.1049999996134,1.138285e-05,558.1049999996134,5.213009e-05,558.1049999996134,4.209638e-06
558.1199999996134,1.371545e-05,558.1199999996134,9.891719e-06,558.1199999996134,3.678771e-05,558.1199999996134,4.229668e-06
558.1349999996133,1.409534e-05,558.1349999996133,9.620266e-06,558.1349999996133,2.737075e-05,558.1349999996133,4.20629e-06
558.1499999996133,1.547038e-05,558.1499999996133,9.627584e-06,558.1499999996133,2.635073e-05,558.1499999996133,4.20294e-06
558.1649999996133,1.576443e-05,558.1649999996133,7.71011e-06,558.1649999996133,1.977845e-05,558.1649999996133,4.000309e-06
558.1799999996133,1.576264e-05,558.1799999996133,5.692045e-06,558.1799999996133,1.598538e-05,558.1799999996133,3.853228e-06
558.1949999996133,1.637111e-05,558.1949999996133,5.493057e-06,558.1949999996133,1.397893e-05,558.1949999996133,3.786851e-06
558.2099999996133,1.659757e-05,558.2099999996133,5.415577e-06,558.2099999996133,1.364337e-05,558.2099999996133,3.719291e-06
558.2249999996133,1.666617e-05,558.2249999996133,6.014533e-06,558.2249999996133,1.329192e-05,558.2249999996133,3.57641e-06
558.2399999996132,1.673281e-05,558.2399999996132,5.384273e-06,558.2399999996132,1.311589e-05,558.2399999996132,3.658189e-06
558.2549999996132,1.684524e-05,558.2549999996132,5.962784e-06,558.2549999996132,1.300155e-05,558.2549999996132,3.700305e-06
558.2699999996132,1.70588e-05,558.2699999996132,6.002811e-06,558.2699999996132,1.263226e-05,558.2699999996132,3.730636e-06
558.2849999996132,1.746842e-05,558.2849999996132,6.109804e-06,558.2849999996132,1.236287e-05,558.2849999996132,3.642754e-06
558.2999999996132,1.737625e-05,558.2999999996132,6.158032e-06,558.2999999996132,1.135063e-05,558.2999999996132,3.592131e-06
558.3149999996132,1.748213e-05,558.3149999996132,6.228541e-06,558.3149999996132,1.196684e-05,558.3149999996132,3.669723e-06
558.3299999996132,1.74224e-05,558.3299999996132,6.230803e-06,558.3299999996132,1.656188e-05,558.3299999996132,3.536803e-06
558.3449999996132,1.747326e-05,558.3449999996132,6.2781e-06,558.3449999996132,1.898701e-05,558.3449999996132,3.524834e-06
558.3599999996131,1.872027e-05,558.3599999996131,6.155743e-06,558.3599999996131,2.143416e-05,558.3599999996131,3.548731e-06
558.3749999996131,1.842294e-05,558.3749999996131,7.017624e-06,558.3749999996131,2.936402e-05,558.3749999996131,3.500774e-06
558.3899999996131,1.777618e-05,558.3899999996131,7.246734e-06,558.3899999996131,3.329978e-05,558.3899999996131,3.415227e-06
558.4049999996131,1.694695e-05,558.4049999996131,7.03967e-06,558.4049999996131,3.376149e-05,558.4049999996131,3.427579e-06
558.4199999996131,1.691201e-05,558.4199999996131,7.087532e-06,558.4199999996131,3.718192e-05,558.4199999996131,3.468433e-06
558.4349999996131,1.619723e-05,558.4349999996131,7.231167e-06,558.4349999996131,4.043808e-05,558.4349999996131,3.443979e-06
558.449999999613,1.757935e-05,558.449999999613,7.201887e-06,558.449999999613,4.071443e-05,558.449999999613,3.435788e-06
558.464999999613,2.038729e-05,558.464999999613,6.865424e-06,558.464999999613,4.087224e-05,558.464999999613,3.552699e-06
558.479999999613,2.076994e-05,558.479999999613,6.342836e-06,558.479999999613,4.094352e-05,558.479999999613,3.623367e-06
558.494999999613,2.114234e-05,558.494999999613,5.821732e-06,558.494999999613,4.112204e-05,558.494999999613,3.480596e-06
558.509999999613,2.115433e-05,558.509999999613,5.677176e-06,558.509999999613,4.143735e-05,558.509999999613,3.572469e-06
558.524999999613,2.159392e-05,558.524999999613,5.619817e-06,558.524999999613,4.156362e-05,558.524999999613,3.611685e-06
558.539999999613,2.219739e-05,558.539999999613,5.444114e-06,558.539999999613,4.165706e-05,558.539999999613,3.719291e-06
558.554999999613,2.238067e-05,558.554999999613,5.415577e-06,558.554999999613,4.169694e-05,558.554999999613,3.588207e-06
558.569999999613,2.246297e-05,558.569999999613,5.331691e-06,558.569999999613,4.145605e-05,558.569999999613,3.592131e-06
558.5849999996129,2.211027e-05,558.5849999996129,5.329048e-06,558.5849999996129,3.909446e-05,558.5849999996129,3.631134e-06
558.5999999996129,2.152466e-05,558.5999999996129,5.321112e-06,558.5999999996129,3.853155e-05,558.5999999996129,3.67356e-06
558.6149999996129,2.158544e-05,558.6149999996129,5.024275e-06,558.6149999996129,3.673867e-05,558.6149999996129,3.654337e-06
558.6299999996129,2.144796e-05,558.6299999996129,4.035369e-06,558.6299999996129,3.130377e-05,558.6299999996129,3.688867e-06
558.6449999996129,2.165971e-05,558.6449999996129,3.801702e-06,558.6449999996129,2.777436e-05,558.6449999996129,3.730636e-06
558.6599999996129,2.173048e-05,558.6599999996129,3.889614e-06,558.6599999996129,2.71122e-05,558.6599999996129,3.753223e-06
558.6749999996129,2.098652e-05,558.6749999996129,3.715501e-06,558.6749999996129,2.088425e-05,558.6749999996129,3.723076e-06
558.6899999996128,2.031253e-05,558.6899999996128,3.56062e-06,558.6899999996128,1.749662e-05,558.6899999996128,3.820184e-06
558.7049999996128,1.689367e-05,558.7049999996128,3.504795e-06,558.7049999996128,1.65372e-05,558.7049999996128,3.760722e-06
558.7199999996128,1.676813e-05,558.7199999996128,3.59605e-06,558.7199999996128,1.696025e-05,558.7199999996128,3.764466e-06
558.7349999996128,1.632199e-05,558.7349999996128,3.801702e-06,558.7349999996128,1.714365e-05,558.7349999996128,3.82387e-06
558.7499999996128,1.678492e-05,558.7499999996128,4.272744e-06,558.7499999996128,1.730639e-05,558.7499999996128,3.805405e-06
558.7649999996128,1.732754e-05,558.7649999996128,5.833818e-06,558.7649999996128,1.68352e-05,558.7649999996128,3.67356e-06
558.7799999996128,1.680254e-05,558.7799999996128,6.916529e-06,558.7799999996128,1.681678e-05,558.7799999996128,3.611685e-06
558.7949999996127,1.618331e-05,558.7949999996127,7.19993e-06,558.7949999996127,1.681595e-05,558.7949999996127,3.528828e-06
558.8099999996127,1.61406e-05,558.8099999996127,7.827967e-06,558.8099999996127,1.665772e-05,558.8099999996127,3.504795e-06
558.8249999996127,1.601356e-05,558.8249999996127,1.140387e-05,558.8249999996127,1.632544e-05,558.8249999996127,3.54476e-06
558.8399999996127,1.622504e-05,558.8399999996127,1.265677e-05,558.8399999996127,1.599683e-05,558.8399999996127,3.779404e-06
558.8549999996127,1.657803e-05,558.8549999996127,1.379941e-05,558.8549999996127,1.617286e-05,558.8549999996127,3.794284e-06
558.8699999996127,1.562982e-05,558.8699999996127,1.666871e-05,558.8699999996127,1.615456e-05,558.8699999996127,3.853228e-06
558.8849999996127,1.565953e-05,558.8849999996127,1.785603e-05,558.8849999996127,1.509244e-05,558.8849999996127,3.842245e-06
558.8999999996126,1.549404e-05,558.8999999996126,1.92537e-05,558.8999999996126,1.754567e-05,558.8999999996126,3.885991e-06
558.9149999996126,1.595451e-05,558.9149999996126,2.486436e-05,558.9149999996126,1.795202e-05,558.9149999996126,3.820184e-06
558.9299999996126,1.610303e-05,558.9299999996126,2.813966e-05,558.9299999996126,2.064682e-05,558.9299999996126,3.989731e-06
558.9449999996126,1.587928e-05,558.9449999996126,3.661115e-05,558.9449999996126,3.231436e-05,558.9449999996126,4.003829e-06
558.9599999996126,1.488758e-05,558.9599999996126,3.8828e-05,558.9599999996126,3.92096e-05,558.9599999996126,4.007346e-06
558.9749999996126,1.518827e-05,558.9749999996126,3.949061e-05,558.9749999996126,5.149772e-05,558.9749999996126,4.003829e-06
558.9899999996126,1.473827e-05,558.9899999996126,4.199721e-05,558.9899999996126,5.461501e-05,558.9899999996126,3.964939e-06
559.0049999996126,1.440866e-05,559.0049999996126,4.49413e-05,559.0049999996126,8.61876e-05,559.0049999996126,4.519479e-06
559.0199999996125,1.352098e-05,559.0199999996125,4.59484e-05,559.0199999996125,0.0001269947,559.0199999996125,4.639445e-06
559.0349999996125,1.263895e-05,559.0349999996125,4.602774e-05,559.0349999996125,0.0001323477,559.0349999996125,5.035477e-06
559.0499999996125,1.247177e-05,559.0499999996125,4.639961e-05,559.0499999996125,0.000135391,559.0499999996125,5.305204e-06
559.0649999996125,1.220461e-05,559.0649999996125,4.660228e-05,559.0649999996125,0.0001458734,559.0649999996125,5.415577e-06
559.0799999996125,1.318231e-05,559.0799999996125,4.627467e-05,559.0799999996125,0.0001543899,559.0799999996125,6.749543e-06
559.0949999996125,1.330146e-05,559.0949999996125,4.743783e-05,559.0949999996125,0.0001569055,559.0949999996125,9.67866e-06
559.1099999996125,1.329616e-05,559.1099999996125,4.718863e-05,559.1099999996125,0.0001568985,559.1099999996125,1.334375e-05
559.1249999996124,1.323563e-05,559.1249999996124,5.118576e-05,559.1249999996124,0.0001572273,559.1249999996124,1.938568e-05
559.1399999996124,1.483069e-05,559.1399999996124,5.438316e-05,559.1399999996124,0.0001577908,559.1399999996124,3.31446e-05
559.1549999996124,1.567392e-05,559.1549999996124,5.817302e-05,559.1549999996124,0.0001579446,559.1549999996124,4.389827e-05
559.1699999996124,1.74539e-05,559.1699999996124,5.698624e-05,559.1699999996124,0.0001582218,559.1699999996124,4.747731e-05
559.1849999996124,2.30284e-05,559.1849999996124,5.608476e-05,559.1849999996124,0.0001576486,559.1849999996124,5.11709e-05
559.1999999996124,2.413004e-05,559.1999999996124,5.167876e-05,559.1999999996124,0.0001557416,559.1999999996124,5.718587e-05
559.2149999996124,2.881537e-05,559.2149999996124,5.04685e-05,559.2149999996124,0.0001535855,559.2149999996124,5.88603e-05
559.2299999996123,2.98583e-05,559.2299999996123,5.073158e-05,559.2299999996123,0.0001483708,559.2299999996123,6.07162e-05
559.2449999996123,4.01928e-05,559.2449999996123,4.856328e-05,559.2449999996123,0.0001468232,559.2449999996123,6.390407e-05
559.2599999996123,4.107268e-05,559.2599999996123,5.050924e-05,559.2599999996123,0.000120923,559.2599999996123,6.491145e-05
559.2749999996123,4.185172e-05,559.2749999996123,5.60614e-05,559.2749999996123,8.689761e-05,559.2749999996123,6.689145e-05
559.2899999996123,4.267532e-05,559.2899999996123,5.934201e-05,559.2899999996123,8.210607e-05,559.2899999996123,6.875819e-05
559.3049999996123,4.319078e-05,559.3049999996123,6.044927e-05,559.3049999996123,7.649102e-05,559.3049999996123,7.06743e-05
559.3199999996123,4.34094e-05,559.3199999996123,6.556699e-05,559.3199999996123,5.814468e-05,559.3199999996123,7.226918e-05
559.3349999996123,4.393869e-05,559.3349999996123,7.075498e-05,559.3349999996123,3.657188e-05,559.3349999996123,7.236035e-05
559.3499999996122,4.40939e-05,559.3499999996122,8.0547e-05,559.3499999996122,2.929438e-05,559.3499999996122,7.289142e-05
559.3649999996122,4.455789e-05,559.3649999996122,8.379544e-05,559.3649999996122,2.99558e-05,559.3649999996122,7.200635e-05
559.3799999996122,4.490461e-05,559.3799999996122,7.920741e-05,559.3799999996122,2.844042e-05,559.3799999996122,7.038289e-05
559.3949999996122,4.478682e-05,559.3949999996122,8.306231e-05,559.3949999996122,2.591192e-05,559.3949999996122,6.430313e-05
559.4099999996122,4.384594e-05,559.4099999996122,8.141363e-05,559.4099999996122,2.393132e-05,559.4099999996122,5.897937e-05
559.4249999996122,4.343859e-05,559.4249999996122,8.107188e-05,559.4249999996122,2.264597e-05,559.4249999996122,5.662966e-05
559.4399999996122,4.133763e-05,559.4399999996122,8.116322e-05,559.4399999996122,2.225696e-05,559.4399999996122,4.787736e-05
559.4549999996121,4.05935e-05,559.4549999996121,8.149267e-05,559.4549999996121,1.997759e-05,559.4549999996121,4.742476e-05
559.4699999996121,3.833399e-05,559.4699999996121,8.153967e-05,559.4699999996121,1.88836e-05,559.4699999996121,4.577117e-05
559.4849999996121,3.662653e-05,559.4849999996121,8.106528e-05,559.4849999996121,1.724605e-05,559.4849999996121,4.096381e-05
559.4999999996121,2.595483e-05,559.4999999996121,7.98846e-05,559.4999999996121,1.649028e-05,559.4999999996121,3.808588e-05
559.5149999996121,2.460752e-05,559.5149999996121,7.833526e-05,559.5149999996121,1.634441e-05,559.5149999996121,3.488398e-05
559.5299999996121,2.458347e-05,559.5299999996121,7.508717e-05,559.5299999996121,1.625107e-05,559.5299999996121,3.079199e-05
559.5449999996121,2.339255e-05,559.5449999996121,7.160044e-05,559.5449999996121,1.624153e-05,559.5449999996121,2.89383e-05
559.559999999612,2.246611e-05,559.559999999612,6.981701e-05,559.559999999612,1.677569e-05,559.559999999612,2.303268e-05
559.574999999612,2.257058e-05,559.574999999612,6.689777e-05,559.574999999612,1.701167e-05,559.574999999612,1.909797e-05
559.589999999612,2.086873e-05,559.589999999612,5.921202e-05,559.589999999612,1.667547e-05,559.589999999612,1.696191e-05
559.604999999612,2.013281e-05,559.604999999612,4.838689e-05,559.604999999612,1.557565e-05,559.604999999612,1.470286e-05
