X[s],a: EMG RMS 1-1,X[s].1,a: EMG RMS 1-2,X[s].2,a: EMG RMS 1-3,X[s].3,a: EMG RMS 1-4
560.0099999996116,1.677317e-05,560.0099999996116,1.156334e-05,560.0099999996116,1.216531e-05,560.0099999996116,4.593675e-06
560.0249999996116,1.682265e-05,560.0249999996116,1.102962e-05,560.0249999996116,1.208398e-05,560.0249999996116,4.605925e-06
560.0399999996116,1.593773e-05,560.0399999996116,1.076855e-05,560.0399999996116,1.209912e-05,560.0399999996116,4.500739e-06
560.0549999996116,1.488379e-05,560.0549999996116,1.058782e-05,560.0549999996116,1.408334e-05,560.0549999996116,4.399444e-06
560.0699999996116,1.35314e-05,560.0699999996116,1.015037e-05,560.0699999996116,1.434596e-05,560.0699999996116,4.148967e-06
560.0849999996116,1.361856e-05,560.0849999996116,8.729774e-06,560.0849999996116,1.317483e-05,560.0849999996116,3.911283e-06
560.0999999996116,1.364956e-05,560.0999999996116,8.248557e-06,560.0999999996116,1.280724e-05,560.0999999996116,4.0632e-06
560.1149999996115,1.390619e-05,560.1149999996115,7.897837e-06,560.1149999996115,1.291131e-05,560.1149999996115,4.135364e-06
560.1299999996115,1.334692e-05,560.1299999996115,7.782849e-06,560.1299999996115,1.232064e-05,560.1299999996115,3.986198e-06
560.1449999996115,1.324095e-05,560.1449999996115,6.963215e-06,560.1449999996115,1.21514e-05,560.1449999996115,3.982663e-06
560.1599999996115,1.295922e-05,560.1599999996115,6.246608e-06,560.1599999996115,1.216067e-05,560.1599999996115,4.094283e-06
560.1749999996115,1.250674e-05,560.1749999996115,5.915346e-06,560.1749999996115,1.220115e-05,560.1749999996115,3.96849e-06
560.1899999996115,1.219769e-05,560.1899999996115,6.093644e-06,560.1899999996115,1.216531e-05,560.1899999996115,3.842245e-06
560.2049999996115,1.209447e-05,560.2049999996115,6.13052e-06,560.2049999996115,1.191966e-05,560.2049999996115,3.922073e-06
560.2199999996114,1.11982e-05,560.2199999996114,7.337527e-06,560.2199999996114,1.295161e-05,560.2199999996114,3.986198e-06
560.2349999996114,1.086492e-05,560.2349999996114,7.62006e-06,560.2349999996114,2.157695e-05,560.2349999996114,3.989731e-06
560.2499999996114,1.073448e-05,560.2499999996114,8.798887e-06,560.2499999996114,5.938425e-05,560.2499999996114,3.92925e-06
560.2649999996114,1.083766e-05,560.2649999996114,9.712076e-06,560.2649999996114,0.0001157307,560.2649999996114,4.172666e-06
560.2799999996114,1.130337e-05,560.2799999996114,1.910608e-05,560.2799999996114,0.0002654007,560.2799999996114,4.155752e-06
560.2949999996114,1.2838e-05,560.2949999996114,2.045007e-05,560.2949999996114,0.0002810666,560.2949999996114,4.367307e-06
560.3099999996114,1.309224e-05,560.3099999996114,2.055793e-05,560.3099999996114,0.000306528,560.3099999996114,4.412233e-06
560.3249999996114,1.363614e-05,560.3249999996114,2.169869e-05,560.3249999996114,0.0003112765,560.3249999996114,4.642481e-06
560.3399999996113,1.432237e-05,560.3399999996113,2.205925e-05,560.3399999996113,0.0003116552,560.3399999996113,4.777073e-06
560.3549999996113,1.451969e-05,560.3549999996113,2.409382e-05,560.3549999996113,0.0003124337,560.3549999996113,5.055022e-06
560.3699999996113,1.473732e-05,560.3699999996113,2.432482e-05,560.3699999996113,0.0003135392,560.3699999996113,5.28392e-06
560.3849999996113,1.513066e-05,560.3849999996113,2.520758e-05,560.3849999996113,0.0003137444,560.3849999996113,5.495621e-06
560.3999999996113,1.534238e-05,560.3999999996113,2.64718e-05,560.3999999996113,0.0003137705,560.3999999996113,5.574516e-06
560.4149999996113,1.554125e-05,560.4149999996113,2.803183e-05,560.4149999996113,0.0003137699,560.4149999996113,5.592176e-06
560.4299999996113,1.544031e-05,560.4299999996113,2.952e-05,560.4299999996113,0.0003137763,560.4299999996113,5.684616e-06
560.4449999996112,1.550313e-05,560.4449999996112,3.022312e-05,560.4449999996112,0.0003138021,560.4449999996112,5.652309e-06
560.4599999996112,1.5619e-05,560.4599999996112,3.04978e-05,560.4599999996112,0.0003138009,560.4599999996112,5.561867e-06
560.4749999996112,1.555846e-05,560.4749999996112,3.294851e-05,560.4749999996112,0.0003137262,560.4749999996112,5.622323e-06
560.4899999996112,1.533687e-05,560.4899999996112,3.449087e-05,560.4899999996112,0.0003123147,560.4899999996112,5.719203e-06
560.5049999996112,1.534238e-05,560.5049999996112,3.774967e-05,560.5049999996112,0.000303425,560.5049999996112,5.787757e-06
560.5199999996112,1.549586e-05,560.5199999996112,4.023343e-05,560.5199999996112,0.0002411225,560.5199999996112,5.649817e-06
560.5349999996112,1.427311e-05,560.5349999996112,3.96849e-05,560.5349999996112,0.0001550539,560.5349999996112,5.644828e-06
560.5499999996111,1.379022e-05,560.5499999996111,4.344508e-05,560.5499999996111,0.0001121274,560.5499999996111,5.498184e-06
560.5649999996111,1.330252e-05,560.5649999996111,4.662555e-05,560.5649999996111,5.27402e-05,560.5649999996111,5.679657e-06
560.5799999996111,1.197625e-05,560.5799999996111,4.793588e-05,560.5799999996111,3.998795e-05,560.5799999996111,5.797484e-06
560.5949999996111,1.139522e-05,560.5949999996111,4.837495e-05,560.5949999996111,3.819631e-05,560.5949999996111,5.423375e-06
560.6099999996111,1.036461e-05,560.6099999996111,4.861808e-05,560.6099999996111,3.197826e-05,560.6099999996111,5.358047e-06
560.6249999996111,1.000641e-05,560.6249999996111,4.874973e-05,560.6249999996111,2.648989e-05,560.6249999996111,5.099414e-06
560.6399999996111,9.429483e-06,560.6399999996111,4.894986e-05,560.6399999996111,2.636035e-05,560.6399999996111,4.824024e-06
560.654999999611,9.662636e-06,560.654999999611,4.979836e-05,560.654999999611,2.608098e-05,560.654999999611,4.794733e-06
560.669999999611,9.586528e-06,560.669999999611,4.906656e-05,560.669999999611,2.603233e-05,560.669999999611,4.672725e-06
560.684999999611,1.054515e-05,560.684999999611,4.923451e-05,560.684999999611,2.590485e-05,560.684999999611,4.68176e-06
560.699999999611,1.038497e-05,560.699999999611,4.989388e-05,560.699999999611,2.563701e-05,560.699999999611,5.384273e-06
560.714999999611,1.048084e-05,560.714999999611,4.978591e-05,560.714999999611,2.562767e-05,560.714999999611,7.154789e-06
560.729999999611,1.055317e-05,560.729999999611,5.293961e-05,560.729999999611,2.553792e-05,560.729999999611,7.741108e-06
560.744999999611,1.043369e-05,560.744999999611,5.365639e-05,560.744999999611,2.556438e-05,560.744999999611,2.669489e-05
560.759999999611,1.033194e-05,560.759999999611,5.07363e-05,560.759999999611,2.55732e-05,560.759999999611,4.062715e-05
560.7749999996109,1.100149e-05,560.7749999996109,5.074296e-05,560.7749999996109,2.553516e-05,560.7749999996109,6.521327e-05
560.7899999996109,1.194681e-05,560.7899999996109,4.965303e-05,560.7899999996109,2.483318e-05,560.7899999996109,8.917835e-05
560.8049999996109,1.345728e-05,560.8049999996109,4.959398e-05,560.8049999996109,2.377779e-05,560.8049999996109,9.674365e-05
560.8199999996109,1.975636e-05,560.8199999996109,4.952321e-05,560.8199999996109,2.177905e-05,560.8199999996109,9.728989e-05
560.8349999996109,2.257931e-05,560.8349999996109,5.088767e-05,560.8349999996109,2.168895e-05,560.8349999996109,9.738786e-05
560.8499999996109,2.3631e-05,560.8499999996109,5.404433e-05,560.8499999996109,2.296899e-05,560.8499999996109,9.795884e-05
560.8649999996109,2.718277e-05,560.8649999996109,5.430617e-05,560.8649999996109,2.330628e-05,560.8649999996109,0.0001055286
560.8799999996108,2.982903e-05,560.8799999996108,5.789412e-05,560.8799999996108,2.647552e-05,560.8799999996108,0.00010619
560.8949999996108,3.411678e-05,560.8949999996108,6.391509e-05,560.8949999996108,2.737024e-05,560.8949999996108,0.0001091433
560.9099999996108,3.593699e-05,560.9099999996108,7.36883e-05,560.9099999996108,2.82999e-05,560.9099999996108,0.0001141344
560.9249999996108,3.667381e-05,560.9249999996108,7.550698e-05,560.9249999996108,2.848249e-05,560.9249999996108,0.0001207656
560.9399999996108,3.692721e-05,560.9399999996108,7.653778e-05,560.9399999996108,2.875469e-05,560.9399999996108,0.0001255331
560.9549999996108,3.73358e-05,560.9549999996108,7.717781e-05,560.9549999996108,2.896701e-05,560.9549999996108,0.0001259147
560.9699999996108,3.826484e-05,560.9699999996108,7.940919e-05,560.9699999996108,2.933186e-05,560.9699999996108,0.0001263396
560.9849999996107,3.916502e-05,560.9849999996107,7.830019e-05,560.9849999996107,2.972164e-05,560.9849999996107,0.000126788
560.9999999996107,3.980753e-05,560.9999999996107,7.875314e-05,560.9999999996107,2.96875e-05,560.9999999996107,0.000122724
561.0149999996107,4.049448e-05,561.0149999996107,8.067125e-05,561.0149999996107,2.986443e-05,561.0149999996107,0.0001206093
561.0299999996107,4.035404e-05,561.0299999996107,8.608294e-05,561.0299999996107,2.988848e-05,561.0299999996107,0.0001058812
561.0449999996107,3.9946e-05,561.0449999996107,9.913086e-05,561.0449999996107,2.986773e-05,561.0449999996107,9.038631e-05
561.0599999996107,3.949026e-05,561.0599999996107,0.0001018057,561.0599999996107,2.875028e-05,561.0599999996107,8.368694e-05
561.0749999996107,3.693103e-05,561.0749999996107,0.0001033916,561.0749999996107,2.837149e-05,561.0749999996107,8.342817e-05
561.0899999996107,3.511461e-05,561.0899999996107,0.0001044521,561.0899999996107,2.806096e-05,561.0899999996107,8.319059e-05
561.1049999996106,3.305352e-05,561.1049999996106,0.0001025783,561.1049999996106,2.673286e-05,561.1049999996106,8.207725e-05
561.1199999996106,3.081714e-05,561.1199999996106,0.0001041299,561.1199999996106,1.96613e-05,561.1199999996106,7.288852e-05
561.1349999996106,2.805694e-05,561.1349999996106,0.0001036099,561.1349999996106,1.691451e-05,561.1349999996106,7.082959e-05
561.1499999996106,2.504275e-05,561.1499999996106,9.396665e-05,561.1499999996106,1.428495e-05,561.1499999996106,6.585875e-05
561.1649999996106,2.260799e-05,561.1649999996106,9.325865e-05,561.1649999996106,1.394665e-05,561.1649999996106,5.713683e-05
561.1799999996106,2.108029e-05,561.1799999996106,9.198858e-05,561.1799999996106,1.363407e-05,561.1799999996106,4.111484e-05
561.1949999996106,2.05408e-05,561.1949999996106,9.101562e-05,561.1949999996106,1.329616e-05,561.1949999996106,2.679076e-05
561.2099999996105,1.996136e-05,561.2099999996105,9.036916e-05,561.2099999996105,1.345937e-05,561.2099999996105,2.30608e-05
561.2249999996105,1.695443e-05,561.2249999996105,8.935178e-05,561.2249999996105,1.295052e-05,561.2249999996105,2.238507e-05
561.2399999996105,1.55666e-05,561.2399999996105,8.753495e-05,561.2399999996105,1.212587e-05,561.2399999996105,1.809661e-05
561.2549999996105,1.372469e-05,561.2549999996105,8.726466e-05,561.2549999996105,1.18628e-05,561.2549999996105,1.762657e-05
561.2699999996105,1.237767e-05,561.2699999996105,8.444735e-05,561.2699999996105,1.140016e-05,561.2699999996105,1.773492e-05
561.2849999996105,1.237084e-05,561.2849999996105,6.831114e-05,561.2849999996105,1.132951e-05,561.2849999996105,1.544031e-05
561.2999999996105,1.292766e-05,561.2999999996105,5.811948e-05,561.2999999996105,1.173385e-05,561.2999999996105,1.23754e-05
561.3149999996104,1.249096e-05,561.3149999996104,4.846485e-05,561.3149999996104,1.132329e-05,561.3149999996104,1.121077e-05
561.3299999996104,1.222422e-05,561.3299999996104,4.274096e-05,561.3299999996104,1.114903e-05,561.3299999996104,9.975386e-06
561.3449999996104,1.293202e-05,561.3449999996104,4.059072e-05,561.3449999996104,1.109203e-05,561.3449999996104,9.439935e-06
561.3599999996104,1.228629e-05,561.3599999996104,3.918121e-05,561.3599999996104,1.049158e-05,561.3599999996104,9.142777e-06
561.3749999996104,1.244916e-05,561.3749999996104,3.525873e-05,561.3749999996104,1.023055e-05,561.3749999996104,7.768356e-06
561.3899999996104,1.262557e-05,561.3899999996104,3.11992e-05,561.3899999996104,9.990908e-06,561.3899999996104,7.366268e-06
561.4049999996104,1.130711e-05,561.4049999996104,2.717707e-05,561.4049999996104,9.96691e-06,561.4049999996104,7.306746e-06
561.4199999996104,1.162288e-05,561.4199999996104,2.790743e-05,561.4199999996104,1.00289e-05,561.4199999996104,7.571843e-06
561.4349999996103,1.260323e-05,561.4349999996103,2.603774e-05,561.4349999996103,9.668466e-06,561.4349999996103,6.828391e-06
561.4499999996103,1.219076e-05,561.4499999996103,2.561778e-05,561.4499999996103,9.92016e-06,561.4499999996103,6.580461e-06
561.4649999996103,1.239587e-05,561.4649999996103,2.353902e-05,561.4649999996103,9.278891e-06,561.4649999996103,6.452925e-06
561.4799999996103,1.269344e-05,561.4799999996103,2.240394e-05,561.4799999996103,9.500919e-06,561.4799999996103,6.362793e-06
561.4949999996103,1.273112e-05,561.4949999996103,2.119824e-05,561.4949999996103,1.027588e-05,561.4949999996103,6.000464e-06
561.5099999996103,1.275212e-05,561.5099999996103,2.073261e-05,561.5099999996103,1.124715e-05,561.5099999996103,5.559333e-06
561.5249999996103,1.280504e-05,561.5249999996103,2.076859e-05,561.5249999996103,1.235603e-05,561.5249999996103,5.551726e-06
561.5399999996102,1.283032e-05,561.5399999996102,2.037209e-05,561.5399999996102,1.258534e-05,561.5399999996102,5.579567e-06
561.5549999996102,1.257414e-05,561.5549999996102,1.965342e-05,561.5549999996102,1.217572e-05,561.5549999996102,5.402556e-06
561.5699999996102,1.274771e-05,561.5699999996102,1.916056e-05,561.5699999996102,1.273333e-05,561.5699999996102,5.438937e-06
561.5849999996102,1.290912e-05,561.5849999996102,1.932017e-05,561.5849999996102,1.281933e-05,561.5849999996102,5.433755e-06
561.5999999996102,1.236515e-05,561.5999999996102,1.927856e-05,561.5999999996102,1.31277e-05,561.5999999996102,5.035477e-06
561.6149999996102,1.291785e-05,561.6149999996102,1.957442e-05,561.6149999996102,1.294617e-05,561.6149999996102,5.137942e-06
561.6299999996102,1.304157e-05,561.6299999996102,1.899962e-05,561.6299999996102,1.332896e-05,561.6299999996102,4.93374e-06
561.6449999996101,1.288837e-05,561.6449999996101,1.904109e-05,561.6449999996101,1.357816e-05,561.6449999996101,5.024275e-06
561.6599999996101,1.328026e-05,561.6599999996101,1.833402e-05,561.6599999996101,1.346461e-05,561.6599999996101,4.876302e-06
561.6749999996101,1.319513e-05,561.6749999996101,1.475165e-05,561.6749999996101,1.341534e-05,561.6749999996101,4.890725e-06
561.6899999996101,1.279293e-05,561.6899999996101,1.483734e-05,561.6899999996101,1.335325e-05,561.6899999996101,4.759348e-06
561.7049999996101,1.269677e-05,561.7049999996101,1.328768e-05,561.7049999996101,1.319299e-05,561.7049999996101,4.838602e-06
561.7199999996101,1.242425e-05,561.7199999996101,1.281274e-05,561.7199999996101,1.419294e-05,561.7199999996101,4.780021e-06
561.7349999996101,1.215256e-05,561.7349999996101,1.262891e-05,561.7349999996101,1.370518e-05,561.7349999996101,4.821102e-06
561.74999999961,1.201266e-05,561.74999999961,1.278302e-05,561.74999999961,1.265343e-05,561.74999999961,4.858938e-06
561.76499999961,1.176502e-05,561.76499999961,1.253599e-05,561.76499999961,1.205714e-05,561.76499999961,4.765263e-06
561.77999999961,1.190784e-05,561.77999999961,1.23754e-05,561.77999999961,1.168332e-05,561.77999999961,4.913713e-06
561.79499999961,1.187704e-05,561.79499999961,1.2215e-05,561.79499999961,1.27278e-05,561.79499999961,5.093886e-06
561.80999999961,1.107805e-05,561.80999999961,1.197978e-05,561.80999999961,1.215604e-05,561.80999999961,5.162558e-06
561.82499999961,1.107551e-05,561.82499999961,1.189955e-05,561.82499999961,1.232864e-05,561.82499999961,5.015856e-06
561.83999999961,1.114903e-05,561.83999999961,1.090245e-05,561.83999999961,1.210727e-05,561.83999999961,5.010237e-06
561.85499999961,1.096686e-05,561.85499999961,1.064487e-05,561.85499999961,1.19173e-05,561.85499999961,4.87919e-06
561.86999999961,9.952766e-06,561.86999999961,8.872225e-06,561.86999999961,1.194327e-05,561.86999999961,5.088352e-06
561.8849999996099,9.714977e-06,561.8849999996099,8.072484e-06,561.8849999996099,1.200914e-05,561.8849999996099,5.157098e-06
561.8999999996099,9.315255e-06,561.8999999996099,8.609537e-06,561.8999999996099,1.236629e-05,561.8999999996099,5.200618e-06
561.9149999996099,8.274134e-06,561.9149999996099,9.518695e-06,561.9149999996099,1.250787e-05,561.9149999996099,5.246463e-06
561.9299999996099,8.004139e-06,561.9299999996099,9.772805e-06,561.9299999996099,1.264675e-05,561.9299999996099,5.096651e-06
561.9449999996099,8.016449e-06,561.9449999996099,9.614407e-06,561.9449999996099,1.264341e-05,561.9449999996099,5.200618e-06
561.9599999996099,8.056763e-06,561.9599999996099,9.935768e-06,561.9599999996099,1.235147e-05,561.9599999996099,5.208738e-06
561.9749999996098,8.289442e-06,561.9749999996098,1.059712e-05,561.9749999996098,1.184973e-05,561.9749999996098,5.211442e-06
561.9899999996098,8.442667e-06,561.9899999996098,1.158889e-05,561.9899999996098,1.19102e-05,561.9899999996098,5.241091e-06
562.0049999996098,8.528988e-06,562.0049999996098,1.237995e-05,562.0049999996098,1.151206e-05,562.0049999996098,5.230329e-06
562.0199999996098,8.43766e-06,562.0199999996098,1.348656e-05,562.0199999996098,1.159618e-05,562.0199999996098,5.176183e-06
562.0349999996098,8.291141e-06,562.0349999996098,1.35875e-05,562.0349999996098,1.108186e-05,562.0349999996098,4.982041e-06
562.0499999996098,8.355453e-06,562.0499999996098,1.448375e-05,562.0499999996098,1.003031e-05,562.0499999996098,4.976383e-06
562.0649999996098,8.966984e-06,562.0649999996098,1.5324e-05,562.0649999996098,1.006256e-05,562.0649999996098,4.962209e-06
562.0799999996098,9.442919e-06,562.0799999996098,1.654742e-05,562.0799999996098,9.932932e-06,562.0799999996098,5.113207e-06
562.0949999996097,9.462292e-06,562.0949999996097,1.82331e-05,562.0949999996097,9.870335e-06,562.0949999996097,5.118714e-06
562.1099999996097,9.20267e-06,562.1099999996097,1.802407e-05,562.1099999996097,9.81021e-06,562.1099999996097,5.057808e-06
562.1249999996097,9.75838e-06,562.1249999996097,2.039075e-05,562.1249999996097,9.837455e-06,562.1249999996097,4.870521e-06
562.1399999996097,1.028137e-05,562.1399999996097,2.16011e-05,562.1399999996097,1.014759e-05,562.1399999996097,4.794733e-06
562.1549999996097,1.019745e-05,562.1549999996097,2.204647e-05,562.1549999996097,9.761266e-06,562.1549999996097,4.672725e-06
562.1699999996097,1.072923e-05,562.1699999996097,2.192217e-05,562.1699999996097,9.650967e-06,562.1699999996097,4.47563e-06
562.1849999996097,1.060244e-05,562.1849999996097,2.204967e-05,562.1849999996097,9.392062e-06,562.1849999996097,4.488202e-06
562.1999999996096,1.091924e-05,562.1999999996096,2.298493e-05,562.1999999996096,9.389061e-06,562.1999999996096,4.383405e-06
562.2149999996096,1.05745e-05,562.2149999996096,2.477866e-05,562.2149999996096,9.074732e-06,562.2149999996096,4.581393e-06
562.2299999996096,1.062368e-05,562.2299999996096,2.701121e-05,562.2299999996096,9.23781e-06,562.2299999996096,4.621192e-06
562.2449999996096,1.067262e-05,562.2449999996096,2.888812e-05,562.2449999996096,9.465269e-06,562.2449999996096,4.593675e-06
562.2599999996096,1.052108e-05,562.2599999996096,3.038581e-05,562.2599999996096,9.333384e-06,562.2599999996096,4.525708e-06
562.2749999996096,1.034284e-05,562.2749999996096,3.582156e-05,562.2749999996096,9.272816e-06,562.2749999996096,4.506994e-06
562.2899999996096,1.026217e-05,562.2899999996096,3.831818e-05,562.2899999996096,9.20114e-06,562.2899999996096,4.456705e-06
562.3049999996095,1.00975e-05,562.3049999996095,3.981106e-05,562.3049999996095,9.141237e-06,562.3049999996095,4.453544e-06
562.3199999996095,9.336401e-06,562.3199999996095,4.198312e-05,562.3199999996095,9.073179e-06,562.3199999996095,4.36408e-06
562.3349999996095,8.479295e-06,562.3349999996095,4.309053e-05,562.3349999996095,9.051417e-06,562.3349999996095,4.405843e-06
562.3499999996095,8.627516e-06,562.3499999996095,4.310165e-05,562.3499999996095,8.982679e-06,562.3499999996095,4.4218e-06
562.3649999996095,8.452672e-06,562.3649999996095,4.330218e-05,562.3649999996095,9.017113e-06,562.3649999996095,4.738583e-06
562.3799999996095,8.397496e-06,562.3799999996095,4.231432e-05,562.3799999996095,7.951166e-06,562.3799999996095,5.402556e-06
562.3949999996095,8.272431e-06,562.3949999996095,4.592295e-05,562.3949999996095,7.910313e-06,562.3949999996095,7.2971e-06
562.4099999996095,8.384065e-06,562.4099999996095,4.757275e-05,562.4099999996095,7.451826e-06,562.4099999996095,9.824559e-06
562.4249999996094,7.869248e-06,562.4249999996094,5.588422e-05,562.4249999996094,7.248678e-06,562.4249999996094,1.663741e-05
562.4399999996094,7.954708e-06,562.4399999996094,5.931779e-05,562.4399999996094,8.357139e-06,562.4399999996094,1.891863e-05
562.4549999996094,8.77805e-06,562.4549999996094,6.410522e-05,562.4549999996094,8.977973e-06,562.4549999996094,2.287004e-05
562.4699999996094,8.813284e-06,562.4699999996094,7.002673e-05,562.4699999996094,9.304663e-06,562.4699999996094,2.885885e-05
562.4849999996094,8.943388e-06,562.4849999996094,7.085743e-05,562.4849999996094,9.866052e-06,562.4849999996094,3.206404e-05
562.4999999996094,9.480139e-06,562.4999999996094,7.770187e-05,562.4999999996094,9.993728e-06,562.4999999996094,3.391718e-05
562.5149999996094,9.717876e-06,562.5149999996094,8.224493e-05,562.5149999996094,1.062898e-05,562.5149999996094,3.536843e-05
562.5299999996093,1.214097e-05,562.5299999996093,8.438611e-05,562.5299999996093,1.170861e-05,562.5299999996093,3.556622e-05
562.5449999996093,1.358439e-05,562.5449999996093,8.800344e-05,562.5449999996093,1.243331e-05,562.5449999996093,3.566668e-05
562.5599999996093,1.923028e-05,562.5599999996093,9.085219e-05,562.5599999996093,1.327283e-05,562.5599999996093,3.585458e-05
562.5749999996093,2.175316e-05,562.5749999996093,9.237703e-05,562.5749999996093,1.588904e-05,562.5749999996093,3.68795e-05
562.5899999996093,2.362623e-05,562.5899999996093,9.431275e-05,562.5899999996093,1.978486e-05,562.5899999996093,3.825637e-05
562.6049999996093,3.204031e-05,562.6049999996093,9.666761e-05,562.6049999996093,2.245921e-05,562.6049999996093,4.045306e-05
562.6199999996093,3.266081e-05,562.6199999996093,0.0001004575,562.6199999996093,2.372441e-05,562.6199999996093,4.286437e-05
562.6349999996092,3.380152e-05,562.6349999996092,0.0001022827,562.6349999996092,2.501686e-05,562.6349999996092,4.589043e-05
562.6499999996092,3.425687e-05,562.6499999996092,0.0001029566,562.6499999996092,2.591355e-05,562.6499999996092,4.872256e-05
562.6649999996092,3.455249e-05,562.6649999996092,0.0001089583,562.6649999996092,2.61371e-05,562.6649999996092,5.028227e-05
562.6799999996092,3.623795e-05,562.6799999996092,0.0001105064,562.6799999996092,2.618233e-05,562.6799999996092,4.869509e-05
562.6949999996092,3.673368e-05,562.6949999996092,0.000111382,562.6949999996092,2.574065e-05,562.6949999996092,4.886806e-05
562.7099999996092,3.723379e-05,562.7099999996092,0.000113127,562.7099999996092,2.592714e-05,562.7099999996092,4.729121e-05
562.7249999996092,3.750708e-05,562.7249999996092,0.0001228036,562.7249999996092,2.622319e-05,562.7249999996092,4.313268e-05
562.7399999996092,3.773735e-05,562.7399999996092,0.0001280207,562.7399999996092,2.658967e-05,562.7399999996092,4.250631e-05
562.7549999996091,3.78164e-05,562.7549999996091,0.0001247714,562.7549999996091,2.666849e-05,562.7549999996091,4.089946e-05
562.7699999996091,3.773697e-05,562.7699999996091,0.0001223119,562.7699999996091,2.644305e-05,562.7699999996091,4.035369e-05
562.7849999996091,3.719442e-05,562.7849999996091,0.000118591,562.7849999996091,2.609395e-05,562.7849999996091,4.026983e-05
562.7999999996091,3.644764e-05,562.7999999996091,0.0001169479,562.7999999996091,2.590431e-05,562.7999999996091,4.052925e-05
562.8149999996091,3.441933e-05,562.8149999996091,0.000114205,562.8149999996091,2.512306e-05,562.8149999996091,4.052508e-05
562.8299999996091,3.238577e-05,562.8299999996091,0.0001141971,562.8299999996091,2.357669e-05,562.8299999996091,3.949917e-05
562.8449999996091,2.776523e-05,562.8449999996091,0.0001127362,562.8449999996091,1.932017e-05,562.8449999996091,3.734787e-05
562.859999999609,2.336483e-05,562.859999999609,0.0001102858,562.859999999609,1.804594e-05,562.859999999609,3.638537e-05
562.874999999609,2.257369e-05,562.874999999609,0.0001067833,562.874999999609,1.761138e-05,562.874999999609,3.034545e-05
562.889999999609,2.082684e-05,562.889999999609,0.0001052014,562.889999999609,1.650138e-05,562.889999999609,2.949279e-05
562.904999999609,2.042388e-05,562.904999999609,0.0001005076,562.904999999609,1.565683e-05,562.904999999609,1.957873e-05
562.919999999609,1.821609e-05,562.919999999609,9.344169e-05,562.919999999609,1.540834e-05,562.919999999609,1.843822e-05
562.934999999609,1.741916e-05,562.934999999609,8.035825e-05,562.934999999609,1.656273e-05,562.934999999609,1.816575e-05
562.949999999609,1.718468e-05,562.949999999609,7.989871e-05,562.949999999609,1.665687e-05,562.949999999609,1.665941e-05
562.964999999609,1.6922e-05,562.964999999609,7.605942e-05,562.964999999609,1.709675e-05,562.964999999609,1.482879e-05
562.9799999996089,1.812772e-05,562.9799999996089,6.62539e-05,562.9799999996089,1.698515e-05,562.9799999996089,1.465104e-05
562.9949999996089,1.832557e-05,562.9949999996089,6.249832e-05,562.9949999996089,1.633665e-05,562.9949999996089,1.391935e-05
563.0099999996089,1.814636e-05,563.0099999996089,6.40982e-05,563.0099999996089,1.720762e-05,563.0099999996089,1.360925e-05
563.0249999996089,1.865318e-05,563.0249999996089,6.40034e-05,563.0249999996089,1.726238e-05,563.0249999996089,1.273776e-05
563.0399999996089,1.84451e-05,563.0399999996089,6.435349e-05,563.0399999996089,1.723788e-05,563.0399999996089,1.237312e-05
563.0549999996089,1.829557e-05,563.0549999996089,6.457813e-05,563.0549999996089,1.7142e-05,563.0549999996089,1.100021e-05
563.0699999996089,1.789465e-05,563.0699999996089,6.407534e-05,563.0699999996089,1.71346e-05,563.0699999996089,1.039311e-05
563.0849999996088,1.847028e-05,563.0849999996088,6.113516e-05,563.0849999996088,1.697104e-05,563.0849999996088,8.668239e-06
563.0999999996088,1.873607e-05,563.0999999996088,6.024362e-05,563.0999999996088,1.678325e-05,563.0999999996088,8.36893e-06
563.1149999996088,1.861235e-05,563.1149999996088,6.090083e-05,563.1149999996088,1.638229e-05,563.1149999996088,7.035667e-06
563.1299999996088,1.874058e-05,563.1299999996088,6.125969e-05,563.1299999996088,1.578586e-05,563.1299999996088,7.2971e-06
563.1449999996088,1.881484e-05,563.1449999996088,6.153821e-05,563.1449999996088,1.761378e-05,563.1449999996088,7.123218e-06
563.1599999996088,1.93464e-05,563.1599999996088,6.146056e-05,563.1599999996088,1.763695e-05,563.1599999996088,6.466009e-06
563.1749999996088,1.848782e-05,563.1749999996088,6.141402e-05,563.1749999996088,1.747568e-05,563.1749999996088,5.991066e-06
563.1899999996087,1.811061e-05,563.1899999996087,6.215659e-05,563.1899999996087,1.645779e-05,563.1899999996087,5.981653e-06
563.2049999996087,1.771585e-05,563.2049999996087,6.140323e-05,563.2049999996087,1.612751e-05,563.2049999996087,5.910582e-06
563.2199999996087,1.63625e-05,563.2199999996087,4.811919e-05,563.2199999996087,1.46904e-05,563.2199999996087,5.828986e-06
563.2349999996087,1.52244e-05,563.2349999996087,4.27571e-05,563.2349999996087,1.482309e-05,563.2349999996087,5.699464e-06
563.2499999996087,1.51994e-05,563.2499999996087,3.134514e-05,563.2499999996087,1.40543e-05,563.2499999996087,5.664756e-06
563.2649999996087,1.571879e-05,563.2649999996087,2.55765e-05,563.2649999996087,1.420584e-05,563.2649999996087,5.632336e-06
563.2799999996087,1.509524e-05,563.2799999996087,2.571711e-05,563.2799999996087,1.408734e-05,563.2799999996087,5.659781e-06
563.2949999996086,1.501102e-05,563.2949999996086,2.568916e-05,563.2949999996086,1.369695e-05,563.2949999996086,5.639834e-06
563.3099999996086,1.518734e-05,563.3099999996086,2.548767e-05,563.3099999996086,1.369387e-05,563.3099999996086,5.659781e-06
563.3249999996086,1.545216e-05,563.3249999996086,2.483034e-05,563.3249999996086,1.406432e-05,563.3249999996086,5.634837e-06
563.3399999996086,1.475928e-05,563.3399999996086,2.465899e-05,563.3399999996086,1.352203e-05,563.3399999996086,5.56693e-06
563.3549999996086,1.460674e-05,563.3549999996086,2.412888e-05,563.3549999996086,1.367946e-05,563.3549999996086,5.462197e-06
563.3699999996086,1.423061e-05,563.3699999996086,2.248052e-05,563.3699999996086,1.347925e-05,563.3699999996086,4.965048e-06
563.3849999996086,1.35709e-05,563.3849999996086,2.217834e-05,563.3849999996086,1.308794e-05,563.3849999996086,4.864733e-06
563.3999999996086,1.328874e-05,563.3999999996086,2.112368e-05,563.3999999996086,1.084935e-05,563.3999999996086,4.902232e-06
563.4149999996085,1.253487e-05,563.4149999996085,2.122679e-05,563.4149999996085,1.088046e-05,563.4149999996085,4.844421e-06
563.4299999996085,1.23754e-05,563.4299999996085,2.046522e-05,563.4299999996085,1.138656e-05,563.4299999996085,4.584466e-06
563.4449999996085,1.224264e-05,563.4449999996085,1.358646e-05,563.4449999996085,1.127717e-05,563.4449999996085,4.621192e-06
563.4599999996085,1.226793e-05,563.4599999996085,1.229889e-05,563.4599999996085,1.163378e-05,563.4599999996085,4.559819e-06
563.4749999996085,1.20068e-05,563.4749999996085,1.199153e-05,563.4749999996085,1.169055e-05,563.4749999996085,4.341427e-06
563.4899999996085,1.181282e-05,563.4899999996085,1.20968e-05,563.4899999996085,1.127467e-05,563.4899999996085,4.472482e-06
563.5049999996085,1.093213e-05,563.5049999996085,1.281713e-05,563.5049999996085,1.107042e-05,563.5049999996085,4.756387e-06
563.5199999996084,1.017255e-05,563.5199999996084,1.233321e-05,563.5199999996084,1.077901e-05,563.5199999996084,4.690778e-06
563.5349999996084,1.021815e-05,563.5349999996084,1.339538e-05,563.5349999996084,1.123086e-05,563.5349999996084,4.605925e-06
563.5499999996084,1.003031e-05,563.5499999996084,1.39325e-05,563.5499999996084,1.121454e-05,563.5499999996084,4.562907e-06
563.5649999996084,9.423506e-06,563.5649999996084,1.458744e-05,563.5649999996084,1.10309e-05,563.5649999996084,4.399444e-06
563.5799999996084,9.087142e-06,563.5799999996084,1.487148e-05,563.5799999996084,1.088435e-05,563.5799999996084,4.444044e-06
563.5949999996084,9.408545e-06,563.5949999996084,1.483449e-05,563.5949999996084,1.110345e-05,563.5949999996084,4.459865e-06
563.6099999996084,9.227129e-06,563.6099999996084,1.72583e-05,563.6099999996084,1.074366e-05,563.6099999996084,4.469331e-06
563.6249999996083,9.897414e-06,563.6249999996083,1.794889e-05,563.6249999996083,1.150839e-05,563.6249999996083,4.338181e-06
563.6399999996083,9.648047e-06,563.6399999996083,1.788047e-05,563.6399999996083,1.226793e-05,563.6399999996083,4.302314e-06
563.6549999996083,9.868907e-06,563.6549999996083,2.066932e-05,563.6549999996083,1.217341e-05,563.6549999996083,4.289197e-06
563.6699999996083,9.736703e-06,563.6699999996083,2.402239e-05,563.6699999996083,1.203726e-05,563.6699999996083,4.249604e-06
563.6849999996083,9.477167e-06,563.6849999996083,2.809959e-05,563.6849999996083,1.364646e-05,563.6849999996083,4.272744e-06
563.6999999996083,9.669923e-06,563.6999999996083,3.25861e-05,563.6999999996083,1.394463e-05,563.6999999996083,4.239647e-06
563.7149999996083,9.62173e-06,563.7149999996083,3.305735e-05,563.7149999996083,1.366915e-05,563.7149999996083,4.370531e-06
563.7299999996083,1.3209e-05,563.7299999996083,3.388102e-05,563.7299999996083,1.549495e-05,563.7299999996083,5.632336e-06
563.7449999996082,1.445064e-05,563.7449999996082,3.666498e-05,563.7449999996082,1.573223e-05,563.7449999996082,9.765595e-06
563.7599999996082,1.756011e-05,563.7599999996082,3.694132e-05,563.7599999996082,1.795595e-05,563.7599999996082,2.090852e-05
563.7749999996082,1.771585e-05,563.7749999996082,3.80122e-05,563.7749999996082,1.835783e-05,563.7749999996082,2.28725e-05
563.7899999996082,1.817428e-05,563.7899999996082,3.784731e-05,563.7899999996082,1.866375e-05,563.7899999996082,2.414522e-05
563.8049999996082,2.002266e-05,563.8049999996082,3.848106e-05,563.8049999996082,1.881784e-05,563.8049999996082,2.86703e-05
563.8199999996082,2.01929e-05,563.8199999996082,3.901547e-05,563.8199999996082,1.902703e-05,563.8199999996082,3.140261e-05
563.8349999996082,2.023053e-05,563.8349999996082,3.974343e-05,563.8349999996082,2.980258e-05,563.8349999996082,3.149489e-05
563.8499999996081,2.012582e-05,563.8499999996081,4.253314e-05,563.8499999996081,3.795026e-05,563.8499999996081,3.186307e-05
563.8649999996081,2.018383e-05,563.8649999996081,4.154023e-05,563.8649999996081,5.734085e-05,563.8649999996081,3.224016e-05
563.8799999996081,1.997335e-05,563.8799999996081,4.211745e-05,563.8799999996081,5.920131e-05,563.8799999996081,3.230476e-05
563.8949999996081,2.003251e-05,563.8949999996081,4.344475e-05,563.8949999996081,5.958553e-05,563.8949999996081,3.2327e-05
563.9099999996081,1.9885e-05,563.9099999996081,4.39608e-05,563.9099999996081,6.124726e-05,563.9099999996081,3.233571e-05
563.9249999996081,1.988287e-05,563.9249999996081,4.43678e-05,563.9249999996081,6.210467e-05,563.9249999996081,3.233702e-05
563.9399999996081,1.979412e-05,563.9399999996081,4.238119e-05,563.9399999996081,6.338126e-05,563.9399999996081,3.235531e-05
563.954999999608,1.993594e-05,563.954999999608,4.254109e-05,563.954999999608,6.365338e-05,563.954999999608,3.235574e-05
563.969999999608,1.981759e-05,563.969999999608,4.267928e-05,563.969999999608,6.360977e-05,563.969999999608,3.227466e-05
563.984999999608,1.754647e-05,563.984999999608,4.280189e-05,563.984999999608,6.382907e-05,563.984999999608,3.188871e-05
563.999999999608,1.68352e-05,563.999999999608,4.316794e-05,563.999999999608,6.43235e-05,563.999999999608,3.053888e-05
564.014999999608,1.36382e-05,564.014999999608,4.229434e-05,564.014999999608,6.383217e-05,564.014999999608,2.373331e-05
564.029999999608,1.332368e-05,564.029999999608,4.200123e-05,564.029999999608,6.394638e-05,564.029999999608,2.191574e-05
564.044999999608,1.191493e-05,564.044999999608,4.149205e-05,564.044999999608,6.461541e-05,564.044999999608,2.042319e-05
564.059999999608,9.087142e-06,564.059999999608,4.35707e-05,564.059999999608,6.460211e-05,564.059999999608,1.385341e-05
564.0749999996079,8.50749e-06,564.0749999996079,4.278872e-05,564.0749999996079,6.435897e-05,564.0749999996079,1.336379e-05
564.0899999996079,8.358825e-06,564.0899999996079,4.564543e-05,564.0899999996079,5.720631e-05,564.0899999996079,2.433409e-05
564.1049999996079,8.382385e-06,564.1049999996079,5.402712e-05,564.1049999996079,4.860272e-05,564.1049999996079,3.63505e-05
564.1199999996079,8.190286e-06,564.1199999996079,5.858924e-05,564.1199999996079,3.233745e-05,564.1199999996079,6.067141e-05
564.1349999996079,8.472646e-06,564.1349999996079,7.134521e-05,564.1349999996079,3.064846e-05,564.1349999996079,9.123158e-05
564.1499999996079,9.091791e-06,564.1499999996079,7.340157e-05,564.1499999996079,2.956959e-05,564.1499999996079,0.0001029565
564.1649999996079,9.592404e-06,564.1649999996079,7.391029e-05,564.1649999996079,2.838737e-05,564.1649999996079,0.000103552
564.1799999996078,1.017532e-05,564.1799999996078,7.833436e-05,564.1799999996078,2.587166e-05,564.1799999996078,0.0001071033
564.1949999996078,1.39517e-05,564.1949999996078,8.194018e-05,564.1949999996078,2.310718e-05,564.1949999996078,0.0001073831
564.2099999996078,2.917923e-05,564.2099999996078,8.174965e-05,564.2099999996078,2.746477e-05,564.2099999996078,0.0001075508
564.2249999996078,3.097126e-05,564.2249999996078,8.144114e-05,564.2249999996078,3.181352e-05,564.2249999996078,0.000108701
564.2399999996078,3.354886e-05,564.2399999996078,8.283168e-05,564.2399999996078,3.210575e-05,564.2399999996078,0.0001124587
564.2549999996078,3.610203e-05,564.2549999996078,9.803028e-05,564.2549999996078,3.327566e-05,564.2549999996078,0.0001159673
564.2699999996078,3.906635e-05,564.2699999996078,0.0001227679,564.2699999996078,3.407546e-05,564.2699999996078,0.0001178773
564.2849999996077,3.920996e-05,564.2849999996077,0.000132213,564.2849999996077,3.441769e-05,564.2849999996077,0.0001186318
564.2999999996077,3.948063e-05,564.2999999996077,0.0001583836,564.2999999996077,3.335304e-05,564.2999999996077,0.0001189623
564.3149999996077,3.953803e-05,564.3149999996077,0.0001904412,564.3149999996077,3.414938e-05,564.3149999996077,0.0001195325
564.3299999996077,3.998019e-05,564.3299999996077,0.0001926907,564.3299999996077,3.420585e-05,564.3299999996077,0.0001192173
564.3449999996077,4.007662e-05,564.3449999996077,0.0001952056,564.3449999996077,3.421861e-05,564.3449999996077,0.0001162966
564.3599999996077,4.00615e-05,564.3599999996077,0.0002114954,564.3599999996077,3.418195e-05,564.3599999996077,0.00011084
564.3749999996077,4.015072e-05,564.3749999996077,0.0002211895,564.3749999996077,3.427291e-05,564.3749999996077,9.985916e-05
564.3899999996077,4.019875e-05,564.3899999996077,0.0002264519,564.3899999996077,3.421038e-05,564.3899999996077,7.350781e-05
564.4049999996076,4.027752e-05,564.4049999996076,0.0002267339,564.4049999996076,3.393046e-05,564.4049999996076,6.355106e-05
564.4199999996076,4.027892e-05,564.4199999996076,0.0002259654,564.4199999996076,3.326889e-05,564.4199999996076,6.162102e-05
564.4349999996076,4.019911e-05,564.4349999996076,0.0002239209,564.4349999996076,3.30548e-05,564.4349999996076,5.839634e-05
564.4499999996076,3.761471e-05,564.4499999996076,0.0002231427,564.4499999996076,3.09667e-05,564.4499999996076,5.854595e-05
564.4649999996076,2.883052e-05,564.4649999996076,0.0002227478,564.4649999996076,2.798405e-05,564.4649999996076,5.748095e-05
564.4799999996076,2.73517e-05,564.4799999996076,0.0002226435,564.4799999996076,2.255184e-05,564.4799999996076,5.515399e-05
564.4949999996076,2.457487e-05,564.4949999996076,0.0002211787,564.4949999996076,1.853272e-05,564.4949999996076,4.724412e-05
564.5099999996075,1.609253e-05,564.5099999996075,0.0002095336,564.5099999996075,1.789544e-05,564.5099999996075,3.729729e-05
564.5249999996075,1.549949e-05,564.5249999996075,0.0001940992,564.5249999996075,1.453617e-05,564.5249999996075,3.068108e-05
564.5399999996075,1.53488e-05,564.5399999996075,0.0001887667,564.5399999996075,1.422764e-05,564.5399999996075,3.052319e-05
564.5549999996075,1.549768e-05,564.5549999996075,0.0001621611,564.5549999996075,1.172544e-05,564.5549999996075,2.793114e-05
564.5699999996075,1.539737e-05,564.5699999996075,0.0001393713,564.5699999996075,1.058915e-05,564.5699999996075,2.468697e-05
564.5849999996075,1.648515e-05,564.5849999996075,0.0001363868,564.5849999996075,1.07777e-05,564.5849999996075,2.355219e-05
564.5999999996075,1.651077e-05,564.5999999996075,0.0001185932,564.5999999996075,1.037955e-05,564.5999999996075,2.250182e-05
564.6149999996074,1.610653e-05,564.6149999996074,8.896706e-05,564.6149999996074,1.073448e-05,564.6149999996074,2.091929e-05
564.6299999996074,1.646036e-05,564.6299999996074,5.62613e-05,564.6299999996074,1.098868e-05,564.6299999996074,2.001844e-05
564.6449999996074,1.589347e-05,564.6449999996074,2.407276e-05,564.6449999996074,1.104366e-05,564.6449999996074,1.95737e-05
564.6599999996074,1.570445e-05,564.6599999996074,2.319358e-05,564.6599999996074,1.11465e-05,564.6599999996074,1.589081e-05
564.6749999996074,1.554306e-05,564.6749999996074,2.026254e-05,564.6749999996074,1.101045e-05,564.6749999996074,1.156456e-05
564.6899999996074,1.492726e-05,564.6899999996074,1.77063e-05,564.6899999996074,1.059447e-05,564.6899999996074,9.352983e-06
564.7049999996074,1.466929e-05,564.7049999996074,1.654486e-05,564.7049999996074,1.058116e-05,564.7049999996074,7.719241e-06
564.7199999996074,1.400913e-05,564.7199999996074,1.634786e-05,564.7199999996074,1.086881e-05,564.7199999996074,7.752019e-06
564.7349999996073,1.390619e-05,564.7349999996073,1.461927e-05,564.7349999996073,1.065413e-05,564.7349999996073,7.459384e-06
564.7499999996073,1.369284e-05,564.7499999996073,1.302212e-05,564.7499999996073,1.060244e-05,564.7499999996073,7.385367e-06
564.7649999996073,1.365472e-05,564.7649999996073,1.342584e-05,564.7649999996073,1.117175e-05,564.7649999996073,6.563313e-06
564.7799999996073,1.3602e-05,564.7799999996073,1.358024e-05,564.7799999996073,1.071872e-05,564.7799999996073,6.155743e-06
564.7949999996073,1.28358e-05,564.7949999996073,1.255732e-05,564.7949999996073,1.050902e-05,564.7949999996073,6.153455e-06
564.8099999996073,1.291894e-05,564.8099999996073,1.188534e-05,564.8099999996073,1.056784e-05,564.8099999996073,5.797484e-06
564.8249999996073,1.261217e-05,564.8249999996073,1.166039e-05,564.8249999996073,1.035373e-05,564.8249999996073,5.943854e-06
564.8399999996072,9.602679e-06,564.8399999996072,1.076069e-05,564.8399999996072,9.94852e-06,564.8399999996072,5.828986e-06
564.8549999996072,9.645126e-06,564.8549999996072,1.063693e-05,564.8549999996072,1.008214e-05,564.8549999996072,5.629835e-06
564.8699999996072,9.815953e-06,564.8699999996072,1.200914e-05,564.8699999996072,9.360511e-06,564.8699999996072,5.733962e-06
564.8849999996072,9.41902e-06,564.8849999996072,1.178536e-05,564.8849999996072,9.327345e-06,564.8849999996072,5.714275e-06
564.8999999996072,9.398059e-06,564.8999999996072,1.190784e-05,564.8999999996072,1.024705e-05,564.8999999996072,5.433755e-06
564.9149999996072,1.019606e-05,564.9149999996072,1.210843e-05,564.9149999996072,1.018777e-05,564.9149999996072,5.495621e-06
564.9299999996072,1.025667e-05,564.9299999996072,1.250674e-05,564.9299999996072,1.047008e-05,564.9299999996072,5.148897e-06
564.9449999996071,1.041342e-05,564.9449999996071,1.308471e-05,564.9449999996071,1.053981e-05,564.9449999996071,5.104936e-06
564.9599999996071,1.030873e-05,564.9599999996071,1.328874e-05,564.9599999996071,1.05184e-05,564.9599999996071,5.140683e-06
564.9749999996071,1.027177e-05,564.9749999996071,1.32122e-05,564.9749999996071,9.898837e-06,564.9749999996071,5.137942e-06
564.9899999996071,1.046604e-05,564.9899999996071,1.300588e-05,564.9899999996071,9.764152e-06,564.9899999996071,5.099414e-06
565.0049999996071,9.696108e-06,565.0049999996071,1.227138e-05,565.0049999996071,9.571822e-06,565.0049999996071,5.001795e-06
565.0199999996071,9.604145e-06,565.0199999996071,1.132205e-05,565.0199999996071,8.776445e-06,565.0199999996071,5.00461e-06
565.0349999996071,9.615872e-06,565.0349999996071,1.113765e-05,565.0349999996071,8.755555e-06,565.0349999996071,5.00461e-06
565.049999999607,9.951351e-06,565.049999999607,1.13096e-05,565.049999999607,8.228038e-06,565.049999999607,4.953686e-06
565.064999999607,9.736703e-06,565.064999999607,1.171583e-05,565.064999999607,8.051516e-06,565.064999999607,4.973552e-06
565.079999999607,9.843181e-06,565.079999999607,1.205947e-05,565.079999999607,8.469321e-06,565.079999999607,4.321914e-06
565.094999999607,9.648047e-06,565.094999999607,1.2015e-05,565.094999999607,8.367247e-06,565.094999999607,4.27604e-06
565.109999999607,9.199609e-06,565.109999999607,1.195153e-05,565.109999999607,8.164447e-06,565.109999999607,4.305587e-06
565.124999999607,8.819675e-06,565.124999999607,1.078684e-05,565.124999999607,7.838757e-06,565.124999999607,4.070128e-06
565.139999999607,8.563602e-06,565.139999999607,1.109965e-05,565.139999999607,6.262374e-06,565.139999999607,3.964939e-06
565.154999999607,7.312527e-06,565.154999999607,1.165797e-05,565.154999999607,6.007502e-06,565.154999999607,3.939991e-06
565.169999999607,6.859265e-06,565.169999999607,1.158525e-05,565.169999999607,5.659781e-06,565.169999999607,3.801702e-06
565.1849999996069,6.871577e-06,565.1849999996069,1.092052e-05,565.1849999996069,5.449287e-06,565.1849999996069,3.73441e-06
565.1999999996069,6.99148e-06,565.1999999996069,1.145071e-05,565.1999999996069,5.299891e-06,565.1999999996069,3.700305e-06
565.2149999996069,7.982992e-06,565.2149999996069,1.111613e-05,565.2149999996069,5.323759e-06,565.2149999996069,3.592131e-06
565.2299999996069,7.949394e-06,565.2299999996069,1.120071e-05,565.2299999996069,5.521194e-06,565.2299999996069,3.552699e-06
565.2449999996069,8.472646e-06,565.2449999996069,1.913334e-05,565.2449999996069,6.420096e-06,565.2449999996069,3.588207e-06
565.2599999996069,9.387561e-06,565.2599999996069,2.247551e-05,565.2599999996069,1.404729e-05,565.2599999996069,3.548731e-06
565.2749999996068,9.674292e-06,565.2749999996068,2.423315e-05,565.2749999996068,1.519105e-05,565.2749999996068,3.603876e-06
565.2899999996068,1.008912e-05,565.2899999996068,2.488928e-05,565.2899999996068,2.513315e-05,565.2899999996068,3.356985e-06
565.3049999996068,1.070689e-05,565.3049999996068,2.47246e-05,565.3049999996068,5.07177e-05,565.3049999996068,3.323245e-06
565.3199999996068,1.092826e-05,565.3199999996068,2.475933e-05,565.3199999996068,5.675663e-05,565.3199999996068,3.271984e-06
565.3349999996068,1.10194e-05,565.3349999996068,2.462355e-05,565.3349999996068,6.353753e-05,565.3349999996068,3.284874e-06
565.3499999996068,1.176981e-05,565.3499999996068,2.468697e-05,565.3499999996068,7.764166e-05,565.3499999996068,3.280583e-06
565.3649999996068,1.210843e-05,565.3649999996068,2.452093e-05,565.3649999996068,8.29481e-05,565.3649999996068,3.306247e-06
565.3799999996068,1.20968e-05,565.3799999996068,2.449737e-05,565.3799999996068,8.376787e-05,565.3799999996068,3.398688e-06
565.3949999996067,1.212936e-05,565.3949999996067,2.434798e-05,565.3949999996067,8.697911e-05,565.3949999996067,3.228645e-06
565.4099999996067,1.213632e-05,565.4099999996067,2.427613e-05,565.4099999996067,8.90117e-05,565.4099999996067,3.215529e-06
565.4249999996067,1.214097e-05,565.4249999996067,2.450139e-05,565.4249999996067,8.931725e-05,565.4249999996067,3.180289e-06
565.4399999996067,1.212123e-05,565.4399999996067,2.449506e-05,565.4399999996067,8.972747e-05,565.4399999996067,3.280583e-06
565.4549999996067,1.195035e-05,565.4549999996067,2.421105e-05,565.4549999996067,9.040579e-05,565.4549999996067,3.202359e-06
565.4699999996067,1.145809e-05,565.4699999996067,2.425639e-05,565.4699999996067,9.047276e-05,565.4699999996067,3.197958e-06
565.4849999996067,1.180327e-05,565.4849999996067,2.39625e-05,565.4849999996067,9.043804e-05,565.4849999996067,3.24605e-06
565.4999999996066,1.106023e-05,565.4999999996066,1.434301e-05,565.4999999996066,9.013692e-05,565.4999999996066,3.211145e-06
565.5149999996066,1.152673e-05,565.5149999996066,1.284897e-05,565.5149999996066,8.906739e-05,565.5149999996066,3.314757e-06
565.5299999996066,1.130836e-05,565.5299999996066,9.993728e-06,565.5299999996066,8.88877e-05,565.5299999996066,3.323245e-06
565.5449999996066,1.089857e-05,565.5449999996066,8.810087e-06,565.5449999996066,8.432649e-05,565.5449999996066,3.631134e-06
565.5599999996066,1.090633e-05,565.5599999996066,8.642199e-06,565.5599999996066,7.032202e-05,565.5599999996066,3.745709e-06
565.5749999996066,1.103345e-05,565.5749999996066,8.58496e-06,565.5749999996066,6.737051e-05,565.5749999996066,4.031877e-06
565.5899999996066,1.115661e-05,565.5899999996066,8.710389e-06,565.5899999996066,5.785201e-05,565.5899999996066,4.148967e-06
565.6049999996065,1.146792e-05,565.6049999996065,1.005275e-05,565.6049999996065,4.253811e-05,565.6049999996065,4.690778e-06
565.6199999996065,1.288728e-05,565.6199999996065,1.072529e-05,565.6199999996065,3.346941e-05,565.6199999996065,4.87919e-06
565.6349999996065,1.295813e-05,565.6349999996065,1.149247e-05,565.6349999996065,3.138377e-05,565.6349999996065,5.00461e-06
565.6499999996065,1.368872e-05,565.6499999996065,1.168091e-05,565.6499999996065,2.227341e-05,565.6499999996065,5.418178e-06
565.6649999996065,1.406633e-05,565.6649999996065,1.183902e-05,565.6649999996065,2.0891e-05,565.6649999996065,5.711809e-06
565.6799999996065,1.5717e-05,565.6799999996065,1.16616e-05,565.6799999996065,1.870446e-05,565.6799999996065,6.082075e-06
565.6949999996065,1.572686e-05,565.6949999996065,1.361856e-05,565.6949999996065,2.10736e-05,565.6949999996065,6.205884e-06
565.7099999996065,1.612926e-05,565.7099999996065,1.68895e-05,565.7099999996065,2.430455e-05,565.7099999996065,6.358363e-06
565.7249999996064,1.62068e-05,565.7249999996064,1.803579e-05,565.7249999996064,2.856694e-05,565.7249999996064,6.646491e-06
565.7399999996064,1.642008e-05,565.7399999996064,1.878337e-05,565.7399999996064,2.887397e-05,565.7399999996064,6.671875e-06
565.7549999996064,1.651589e-05,565.7549999996064,1.970996e-05,565.7549999996064,3.195754e-05,565.7549999996064,6.667651e-06
565.7699999996064,1.618592e-05,565.7699999996064,1.996771e-05,565.7699999996064,3.69234e-05,565.7699999996064,6.747456e-06
565.7849999996064,1.614148e-05,565.7849999996064,1.995148e-05,565.7849999996064,4.001154e-05,565.7849999996064,6.778699e-06
565.7999999996064,1.594568e-05,565.7999999996064,1.994936e-05,565.7999999996064,4.049239e-05,565.7999999996064,6.768301e-06
565.8149999996064,1.617635e-05,565.8149999996064,1.99663e-05,565.8149999996064,4.054384e-05,565.8149999996064,6.678206e-06
565.8299999996063,1.593596e-05,565.8299999996063,1.993029e-05,565.8299999996063,4.086534e-05,565.8299999996063,6.559019e-06
565.8449999996063,1.543118e-05,565.8449999996063,1.940021e-05,565.8449999996063,4.11121e-05,565.8449999996063,6.248863e-06
565.8599999996063,1.534697e-05,565.8599999996063,1.888285e-05,565.8599999996063,4.113711e-05,565.8599999996063,5.948592e-06
565.8749999996063,1.418699e-05,565.8749999996063,1.890224e-05,565.8749999996063,4.119391e-05,565.8749999996063,6.082075e-06
565.8899999996063,1.4281e-05,565.8899999996063,1.873005e-05,565.8899999996063,4.11169e-05,565.8899999996063,6.005157e-06
565.9049999996063,1.376773e-05,565.9049999996063,1.877512e-05,565.9049999996063,4.000239e-05,565.9049999996063,5.857914e-06
565.9199999996063,1.16156e-05,565.9199999996063,1.8629e-05,565.9199999996063,3.915783e-05,565.9199999996063,5.804769e-06
565.9349999996062,1.149247e-05,565.9349999996062,1.848477e-05,565.9349999996062,3.87917e-05,565.9349999996062,5.467352e-06
565.9499999996062,1.137914e-05,565.9499999996062,1.748374e-05,565.9499999996062,3.63474e-05,565.9499999996062,5.462197e-06
565.9649999996062,1.061174e-05,565.9649999996062,1.431155e-05,565.9649999996062,3.157886e-05,565.9649999996062,5.102175e-06
565.9799999996062,1.11465e-05,565.9799999996062,1.464815e-05,565.9799999996062,2.736046e-05,565.9799999996062,5.178904e-06
565.9949999996062,1.09938e-05,565.9949999996062,1.449444e-05,565.9949999996062,2.686532e-05,565.9949999996062,5.459618e-06
566.0099999996062,1.054382e-05,566.0099999996062,1.507095e-05,566.0099999996062,2.36465e-05,566.0099999996062,5.464775e-06
566.0249999996062,1.067922e-05,566.0249999996062,1.550676e-05,566.0249999996062,1.588017e-05,566.0249999996062,5.469929e-06
566.0399999996062,1.068582e-05,566.0399999996062,1.577783e-05,566.0399999996062,8.924467e-06,566.0399999996062,5.505864e-06
566.0549999996061,1.052242e-05,566.0549999996061,1.734379e-05,566.0549999996061,7.127172e-06,566.0549999996061,5.584614e-06
566.0699999996061,9.536437e-06,566.0699999996061,1.791275e-05,566.0699999996061,6.957143e-06,566.0699999996061,5.639834e-06
566.0849999996061,9.604145e-06,566.0849999996061,1.804594e-05,566.0849999996061,5.807196e-06,566.0849999996061,5.775575e-06
566.0999999996061,9.565934e-06,566.0999999996061,1.821068e-05,566.0999999996061,4.79767e-06,566.0999999996061,5.799914e-06
566.1149999996061,9.662636e-06,566.1149999996061,1.794496e-05,566.1149999996061,4.367307e-06,566.1149999996061,5.841057e-06
566.1299999996061,9.694656e-06,566.1299999996061,1.747407e-05,566.1299999996061,4.125132e-06,566.1299999996061,5.564399e-06
566.1449999996061,9.520175e-06,566.1449999996061,1.733567e-05,566.1449999996061,4.083948e-06,566.1449999996061,5.523745e-06
566.159999999606,1.02704e-05,566.159999999606,1.663487e-05,566.159999999606,4.094283e-06,566.159999999606,5.315815e-06
566.174999999606,1.034692e-05,566.174999999606,1.666871e-05,566.174999999606,4.114875e-06,566.174999999606,5.157098e-06
566.189999999606,1.036596e-05,566.189999999606,1.650906e-05,566.189999999606,4.066665e-06,566.189999999606,5.195198e-06
566.204999999606,1.058116e-05,566.204999999606,1.617461e-05,566.204999999606,4.007346e-06,566.204999999606,5.096651e-06
566.219999999606,1.059181e-05,566.219999999606,1.537906e-05,566.219999999606,4.000309e-06,566.219999999606,5.041069e-06
566.234999999606,9.304663e-06,566.234999999606,1.574923e-05,566.234999999606,3.936414e-06,566.234999999606,4.913713e-06
566.249999999606,9.052973e-06,566.249999999606,1.453617e-05,566.249999999606,3.925663e-06,566.249999999606,4.870521e-06
566.264999999606,8.932356e-06,566.264999999606,1.332051e-05,566.264999999606,4.007346e-06,566.264999999606,4.780021e-06
566.2799999996059,1.088435e-05,566.2799999996059,1.293529e-05,566.2799999996059,4.121716e-06,566.2799999996059,4.666692e-06
566.2949999996059,1.099124e-05,566.2949999996059,1.220808e-05,566.2949999996059,4.155752e-06,566.2949999996059,4.826943e-06
566.3099999996059,1.101173e-05,566.3099999996059,1.012397e-05,566.3099999996059,4.15914e-06,566.3099999996059,4.81818e-06
566.3249999996059,1.214677e-05,566.3249999996059,9.732362e-06,566.3249999996059,4.165909e-06,566.3249999996059,4.847328e-06
566.3399999996059,1.212704e-05,566.3399999996059,9.671379e-06,566.3399999996059,4.049309e-06,566.3399999996059,4.861837e-06
566.3549999996059,1.207932e-05,566.3549999996059,1.0005e-05,566.3549999996059,3.84957e-06,566.3549999996059,4.876302e-06
566.3699999996059,1.2015e-05,566.3699999996059,1.012258e-05,566.3699999996059,3.889614e-06,566.3699999996059,4.962209e-06
566.3849999996058,1.159254e-05,566.3849999996058,1.014343e-05,566.3849999996058,3.685046e-06,566.3849999996058,4.965048e-06
566.3999999996058,1.113639e-05,566.3999999996058,1.034828e-05,566.3999999996058,3.564574e-06,566.3999999996058,4.984868e-06
566.4149999996058,1.055984e-05,566.4149999996058,1.0306e-05,566.4149999996058,3.472492e-06,566.4149999996058,5.257193e-06
566.4299999996058,1.085065e-05,566.4299999996058,1.026491e-05,566.4299999996058,3.439886e-06,566.4299999996058,5.154366e-06
566.4449999996058,1.25775e-05,566.4449999996058,9.861767e-06,566.4449999996058,3.492716e-06,566.4449999996058,5.12971e-06
566.4599999996058,1.246613e-05,566.4599999996058,9.800154e-06,566.4599999996058,3.588207e-06,566.4599999996058,5.254512e-06
566.4749999996058,1.260882e-05,566.4749999996058,9.052973e-06,566.4749999996058,3.592131e-06,566.4749999996058,5.235713e-06
566.4899999996057,1.270675e-05,566.4899999996057,7.977696e-06,566.4899999996057,3.646619e-06,566.4899999996057,5.219545e-06
566.5049999996057,1.27742e-05,566.5049999996057,8.240013e-06,566.5049999996057,3.669723e-06,566.5049999996057,5.027078e-06
566.5199999996057,1.282043e-05,566.5199999996057,8.736227e-06,566.5199999996057,3.603876e-06,566.5199999996057,5.135199e-06
566.5349999996057,1.176861e-05,566.5349999996057,8.814882e-06,566.5349999996057,3.488681e-06,566.5349999996057,5.126963e-06
566.5499999996057,1.175664e-05,566.5499999996057,8.78607e-06,566.5499999996057,3.439886e-06,566.5499999996057,4.882076e-06
566.5649999996057,1.194681e-05,566.5649999996057,8.765202e-06,566.5649999996057,3.536803e-06,566.5649999996057,4.824024e-06
566.5799999996057,1.063693e-05,566.5799999996057,8.718472e-06,566.5799999996057,3.456227e-06,566.5799999996057,4.648545e-06
566.5949999996056,1.0462e-05,566.5949999996056,8.530639e-06,566.5949999996056,3.532818e-06,566.5949999996056,4.765263e-06
566.6099999996056,1.025942e-05,566.6099999996056,8.289442e-06,566.6099999996056,3.584279e-06,566.6099999996056,4.732634e-06
566.6249999996056,1.036596e-05,566.6249999996056,8.160995e-06,566.6249999996056,3.631134e-06,566.6249999996056,4.699779e-06
566.6399999996056,1.034964e-05,566.6399999996056,8.077717e-06,566.6399999996056,3.607783e-06,566.6399999996056,4.66971e-06
566.6549999996056,1.034828e-05,566.6549999996056,7.560672e-06,566.6549999996056,3.532818e-06,566.6549999996056,4.565993e-06
566.6699999996056,1.173265e-05,566.6699999996056,7.404416e-06,566.6699999996056,3.56062e-06,566.6699999996056,4.305587e-06
566.6849999996056,1.009471e-05,566.6849999996056,7.093493e-06,566.6849999996056,3.524834e-06,566.6849999996056,4.334932e-06
566.6999999996056,1.011144e-05,566.6999999996056,6.902258e-06,566.6999999996056,3.448066e-06,566.6999999996056,4.35115e-06
566.7149999996055,1.025118e-05,566.7149999996055,7.168558e-06,566.7149999996055,3.443979e-06,566.7149999996055,4.216325e-06
566.7299999996055,9.94427e-06,566.7299999996055,7.691819e-06,566.7299999996055,3.472492e-06,566.7299999996055,3.975583e-06
566.7449999996055,9.942854e-06,566.7449999996055,7.640368e-06,566.7449999996055,3.394541e-06,566.7449999996055,3.950702e-06
566.7599999996055,9.830293e-06,566.7599999996055,7.773794e-06,566.7599999996055,3.352786e-06,566.7599999996055,3.889614e-06
566.7749999996055,9.79584e-06,566.7749999996055,7.293238e-06,566.7749999996055,3.306247e-06,566.7749999996055,3.635012e-06
566.7899999996055,9.669923e-06,566.7899999996055,7.1823e-06,566.7899999996055,3.206755e-06,566.7899999996055,3.599965e-06
566.8049999996055,1.008633e-05,566.8049999996055,7.40061e-06,566.8049999996055,3.099535e-06,566.8049999996055,3.707911e-06
566.8199999996054,1.033603e-05,566.8199999996054,7.343284e-06,566.8199999996054,3.263362e-06,566.8199999996054,3.794284e-06
566.8349999996054,1.049024e-05,566.8349999996054,7.36818e-06,566.8349999996054,3.319004e-06,566.8349999996054,3.867824e-06
566.8499999996054,1.070689e-05,566.8499999996054,7.15085e-06,566.8499999996054,3.228645e-06,566.8499999996054,3.692683e-06
566.8649999996054,1.069109e-05,566.8649999996054,7.621908e-06,566.8649999996054,3.427579e-06,566.8649999996054,3.520835e-06
566.8799999996054,1.061704e-05,566.8799999996054,9.198077e-06,566.8799999996054,3.377901e-06,566.8799999996054,3.572469e-06
566.8949999996054,1.134815e-05,566.8949999996054,1.109203e-05,566.8949999996054,3.520835e-06,566.8949999996054,3.572469e-06
566.9099999996054,1.137295e-05,566.9099999996054,1.148388e-05,566.9099999996054,3.496747e-06,566.9099999996054,3.56062e-06
566.9249999996053,1.057983e-05,566.9249999996053,1.182236e-05,566.9249999996053,3.460301e-06,566.9249999996053,3.520835e-06
566.9399999996053,1.035645e-05,566.9399999996053,1.268345e-05,566.9399999996053,3.40283e-06,566.9399999996053,3.448066e-06
566.9549999996053,1.042559e-05,566.9549999996053,1.360615e-05,566.9549999996053,3.406967e-06,566.9549999996053,3.394541e-06
566.9699999996053,1.013787e-05,566.9699999996053,1.408734e-05,566.9699999996053,3.386231e-06,566.9699999996053,3.323245e-06
566.9849999996053,1.020297e-05,566.9849999996053,1.613711e-05,566.9849999996053,3.390388e-06,566.9849999996053,3.352786e-06
566.9999999996053,1.025393e-05,566.9999999996053,1.65048e-05,566.9999999996053,3.520835e-06,566.9999999996053,3.348582e-06
567.0149999996053,1.050634e-05,567.0149999996053,1.666955e-05,567.0149999996053,3.524834e-06,567.0149999996053,3.335938e-06
567.0299999996053,1.057983e-05,567.0299999996053,1.787496e-05,567.0299999996053,3.516832e-06,567.0299999996053,3.394541e-06
567.0449999996052,9.861767e-06,567.0449999996052,1.8484e-05,567.0449999996052,3.67356e-06,567.0449999996052,3.323245e-06
567.0599999996052,9.414533e-06,567.0599999996052,1.839845e-05,567.0599999996052,3.809105e-06,567.0599999996052,3.184716e-06
567.0749999996052,9.210321e-06,567.0749999996052,1.851066e-05,567.0749999996052,3.70411e-06,567.0749999996052,2.788521e-06
567.0899999996052,9.099535e-06,567.0899999996052,1.888957e-05,567.0899999996052,3.939991e-06,567.0899999996052,2.742679e-06
567.1049999996052,8.771629e-06,567.1049999996052,1.932236e-05,567.1049999996052,3.92925e-06,567.1049999996052,2.732388e-06
567.1199999996052,8.752336e-06,567.1199999996052,1.923541e-05,567.1199999996052,3.775675e-06,567.1199999996052,2.706488e-06
567.1349999996052,9.048304e-06,567.1349999996052,1.896251e-05,567.1349999996052,3.964939e-06,567.1349999996052,2.653929e-06
567.1499999996051,9.065413e-06,567.1499999996051,1.78118e-05,567.1499999996051,4.066665e-06,567.1499999996051,2.742679e-06
567.1649999996051,8.927624e-06,567.1649999996051,1.826551e-05,567.1649999996051,4.525708e-06,567.1649999996051,2.716877e-06
567.1799999996051,8.330127e-06,567.1799999996051,1.927199e-05,567.1799999996051,4.965048e-06,567.1799999996051,2.788521e-06
567.1949999996051,7.775606e-06,567.1949999996051,2.276632e-05,567.1949999996051,1.006536e-05,567.1949999996051,2.803635e-06
567.2099999996051,7.612662e-06,567.2099999996051,2.381331e-05,567.2099999996051,1.311911e-05,567.2099999996051,2.823661e-06
567.2249999996051,7.677153e-06,567.2249999996051,2.604477e-05,567.2249999996051,1.42494e-05,567.2249999996051,2.793568e-06
567.2399999996051,7.656943e-06,567.2399999996051,2.642226e-05,567.2399999996051,1.6347e-05,567.2399999996051,2.902385e-06
567.254999999605,7.645896e-06,567.254999999605,3.030829e-05,567.254999999605,1.679331e-05,567.254999999605,3.094987e-06
567.269999999605,8.070739e-06,567.269999999605,3.119965e-05,567.269999999605,1.689117e-05,567.269999999605,3.197958e-06
567.284999999605,7.926324e-06,567.284999999605,3.065214e-05,567.284999999605,1.707613e-05,567.284999999605,3.654337e-06
567.299999999605,8.311504e-06,567.299999999605,3.085551e-05,567.299999999605,1.710334e-05,567.299999999605,3.853228e-06
567.314999999605,8.304722e-06,567.314999999605,3.238316e-05,567.314999999605,1.706706e-05,567.314999999605,3.91848e-06
567.329999999605,8.377342e-06,567.329999999605,3.417083e-05,567.329999999605,1.708108e-05,567.329999999605,4.717728e-06
567.344999999605,8.358825e-06,567.344999999605,3.451945e-05,567.344999999605,1.717402e-05,567.344999999605,4.81818e-06
567.359999999605,8.469321e-06,567.359999999605,3.433081e-05,567.359999999605,1.722807e-05,567.359999999605,5.018664e-06
567.3749999996049,8.62425e-06,567.3749999996049,3.433451e-05,567.3749999996049,1.72436e-05,567.3749999996049,5.038274e-06
567.3899999996049,7.42721e-06,567.3899999996049,3.560066e-05,567.3899999996049,1.72387e-05,567.3899999996049,5.02147e-06
567.4049999996049,7.379642e-06,567.4049999996049,3.707873e-05,567.4049999996049,1.725177e-05,567.4049999996049,5.024275e-06
567.4199999996049,7.364355e-06,567.4199999996049,3.669608e-05,567.4199999996049,1.720025e-05,567.4199999996049,4.973552e-06
567.4349999996049,7.36818e-06,567.4349999996049,3.637375e-05,567.4349999996049,1.678492e-05,567.4349999996049,4.998978e-06
567.4499999996049,7.34712e-06,567.4499999996049,3.425317e-05,567.4499999996049,1.278081e-05,567.4499999996049,5.013047e-06
567.4649999996049,7.333686e-06,567.4649999996049,3.261981e-05,567.4649999996049,1.060643e-05,567.4649999996049,5.024275e-06
567.4799999996048,7.790086e-06,567.4799999996048,3.104803e-05,567.4799999996048,1.00975e-05,567.4799999996048,5.018664e-06
567.4949999996048,8.176516e-06,567.4949999996048,2.89777e-05,567.4949999996048,9.976799e-06,567.4949999996048,4.945147e-06
567.5099999996048,7.289374e-06,567.5099999996048,2.483602e-05,567.5099999996048,1.042153e-05,567.5099999996048,4.794733e-06
567.5249999996048,7.146909e-06,567.5249999996048,2.403939e-05,567.5249999996048,1.058249e-05,567.5249999996048,4.687774e-06
567.5399999996048,6.877724e-06,567.5399999996048,2.399129e-05,567.5399999996048,1.041748e-05,567.5399999996048,4.302314e-06
567.5549999996048,6.293787e-06,567.5549999996048,2.367448e-05,567.5549999996048,1.08701e-05,567.5549999996048,4.148967e-06
567.5699999996048,6.554722e-06,567.5699999996048,2.154625e-05,567.5699999996048,1.166643e-05,567.5699999996048,3.96849e-06
567.5849999996047,6.556871e-06,567.5849999996047,1.858281e-05,567.5849999996047,1.210843e-05,567.5849999996047,2.912075e-06
567.5999999996047,6.621009e-06,567.5999999996047,1.760658e-05,567.5999999996047,1.202321e-05,567.5999999996047,2.706488e-06
567.6149999996047,6.345057e-06,567.6149999996047,1.744825e-05,567.6149999996047,1.217457e-05,567.6149999996047,2.584006e-06
567.6299999996047,6.293787e-06,567.6299999996047,1.708273e-05,567.6299999996047,1.236629e-05,567.6299999996047,2.523327e-06
567.6449999996047,6.180865e-06,567.6449999996047,1.385341e-05,567.6449999996047,1.221038e-05,567.6449999996047,2.483942e-06
567.6599999996047,6.589018e-06,567.6599999996047,1.035509e-05,567.6599999996047,1.208281e-05,567.6599999996047,2.54556e-06
567.6749999996047,6.606099e-06,567.6749999996047,9.904527e-06,567.6749999996047,1.191966e-05,567.6749999996047,2.506524e-06
567.6899999996047,6.57832e-06,567.6899999996047,8.819675e-06,567.6899999996047,1.169417e-05,567.6899999996047,2.443922e-06
567.7049999996046,6.563313e-06,567.7049999996046,7.768356e-06,567.7049999996046,1.173985e-05,567.7049999996046,2.483942e-06
567.7199999996046,6.53104e-06,567.7199999996046,7.329844e-06,567.7199999996046,1.156943e-05,567.7199999996046,2.523327e-06
567.7349999996046,5.493057e-06,567.7349999996046,7.238955e-06,567.7349999996046,1.064222e-05,567.7349999996046,2.472574e-06
567.7499999996046,5.251831e-06,567.7499999996046,6.894089e-06,567.7499999996046,9.275854e-06,567.7499999996046,2.584006e-06
567.7649999996046,5.187057e-06,567.7649999996046,6.749543e-06,567.7649999996046,8.219473e-06,567.7649999996046,2.701278e-06
567.7799999996046,5.222243e-06,567.7799999996046,6.618881e-06,567.7799999996046,7.737468e-06,567.7799999996046,2.783465e-06
567.7949999996046,5.28392e-06,567.7949999996046,6.174023e-06,567.7949999996046,7.647739e-06,567.7949999996046,2.993181e-06
567.8099999996045,5.192486e-06,567.8099999996045,5.132455e-06,567.8099999996045,7.011599e-06,567.8099999996045,3.394541e-06
567.8249999996045,4.806471e-06,567.8249999996045,5.500745e-06,567.8249999996045,5.753582e-06,567.8249999996045,3.580347e-06
567.8399999996045,4.870521e-06,567.8399999996045,5.018664e-06,567.8399999996045,5.010237e-06,567.8399999996045,3.8751e-06
567.8549999996045,4.69378e-06,567.8549999996045,5.032679e-06,567.8549999996045,4.864733e-06,567.8549999996045,4.832776e-06
567.8699999996045,4.882076e-06,567.8699999996045,6.042573e-06,567.8699999996045,4.097722e-06,567.8699999996045,6.376062e-06
567.8849999996045,5.438937e-06,567.8849999996045,6.805661e-06,567.8849999996045,3.615583e-06,567.8849999996045,6.877724e-06
567.8999999996045,5.687093e-06,567.8999999996045,7.115304e-06,567.8999999996045,3.464369e-06,567.8999999996045,7.083556e-06
567.9149999996044,5.770695e-06,567.9149999996044,7.316379e-06,567.9149999996044,3.607783e-06,567.9149999996044,7.093493e-06
567.9299999996044,6.709772e-06,567.9299999996044,7.27777e-06,567.9299999996044,3.65048e-06,567.9299999996044,7.219469e-06
567.9449999996044,6.776621e-06,567.9449999996044,8.192006e-06,567.9449999996044,3.607783e-06,567.9449999996044,7.262268e-06
567.9599999996044,7.724713e-06,567.9599999996044,8.609537e-06,567.9599999996044,3.572469e-06,567.9599999996044,7.588568e-06
567.9749999996044,1.130337e-05,567.9749999996044,8.655229e-06,567.9749999996044,4.409039e-06,567.9749999996044,7.618211e-06
567.9899999996044,1.152184e-05,567.9899999996044,8.702299e-06,567.9899999996044,4.547444e-06,567.9899999996044,7.675319e-06
568.0049999996044,1.201735e-05,568.0049999996044,9.185817e-06,568.0049999996044,4.624239e-06,568.0049999996044,7.820766e-06
568.0199999996044,1.221154e-05,568.0199999996044,9.287995e-06,568.0199999996044,4.630328e-06,568.0199999996044,8.007658e-06
568.0349999996043,1.237426e-05,568.0349999996043,9.283444e-06,568.0349999996043,4.741556e-06,568.0349999996043,8.007658e-06
568.0499999996043,1.50775e-05,568.0499999996043,9.633435e-06,568.0499999996043,5.093886e-06,568.0499999996043,8.224612e-06
568.0649999996043,1.637799e-05,568.0649999996043,9.834591e-06,568.0649999996043,5.592176e-06,568.0649999996043,8.269024e-06
568.0799999996043,1.662131e-05,568.0799999996043,9.96691e-06,568.0799999996043,5.659781e-06,568.0799999996043,8.284342e-06
568.0949999996043,1.671428e-05,568.0949999996043,9.988088e-06,568.0949999996043,5.701935e-06,568.0949999996043,7.995334e-06
568.1099999996043,1.681176e-05,568.1099999996043,9.910215e-06,568.1099999996043,5.714275e-06,568.1099999996043,7.761099e-06
568.1249999996043,1.698349e-05,568.1249999996043,9.352983e-06,568.1249999996043,5.731505e-06,568.1249999996043,6.554722e-06
568.1399999996042,1.695194e-05,568.1399999996042,1.012536e-05,568.1399999996042,5.855509e-06,568.1399999996042,6.369431e-06
568.1549999996042,1.769835e-05,568.1549999996042,1.033057e-05,568.1549999996042,5.915346e-06,568.1549999996042,6.260124e-06
568.1699999996042,1.741916e-05,568.1699999996042,1.204545e-05,568.1699999996042,5.833818e-06,568.1699999996042,6.251117e-06
568.1849999996042,1.734623e-05,568.1849999996042,1.369695e-05,568.1849999996042,5.826569e-06,568.1849999996042,6.196798e-06
568.1999999996042,1.742482e-05,568.1999999996042,1.384833e-05,568.1999999996042,5.814468e-06,568.1999999996042,5.773135e-06
568.2149999996042,1.706623e-05,568.2149999996042,1.414422e-05,568.2149999996042,5.741327e-06,568.2149999996042,5.726587e-06
568.2299999996042,1.527797e-05,568.2299999996042,1.42583e-05,568.2299999996042,5.001795e-06,568.2299999996042,5.674694e-06
568.2449999996041,1.649113e-05,568.2449999996041,1.447791e-05,568.2449999996041,5.085583e-06,568.2449999996041,5.546649e-06
568.2599999996041,1.670501e-05,568.2599999996041,1.435381e-05,568.2599999996041,5.066156e-06,568.2599999996041,5.394728e-06
568.2749999996041,1.686279e-05,568.2749999996041,1.503914e-05,568.2749999996041,5.010237e-06,568.2749999996041,5.34752e-06
568.2899999996041,1.703236e-05,568.2899999996041,1.629694e-05,568.2899999996041,5.093886e-06,568.2899999996041,5.438937e-06
568.3049999996041,1.404227e-05,568.3049999996041,1.623893e-05,568.3049999996041,4.569077e-06,568.3049999996041,4.998978e-06
568.3199999996041,1.340169e-05,568.3199999996041,1.639948e-05,568.3199999996041,4.402644e-06,568.3199999996041,4.887844e-06
568.3349999996041,1.333636e-05,568.3349999996041,1.634614e-05,568.3349999996041,4.472482e-06,568.3349999996041,4.803539e-06
568.349999999604,1.350952e-05,568.349999999604,1.669573e-05,568.349999999604,4.47563e-06,568.349999999604,4.48192e-06
568.364999999604,1.356675e-05,568.364999999604,1.85813e-05,568.364999999604,4.434525e-06,568.364999999604,4.259536e-06
568.379999999604,1.375237e-05,568.379999999604,1.878262e-05,568.379999999604,4.39624e-06,568.379999999604,4.412233e-06
568.394999999604,1.315664e-05,568.394999999604,1.756252e-05,568.394999999604,4.497608e-06,568.394999999604,4.642481e-06
568.409999999604,1.26512e-05,568.409999999604,1.761378e-05,568.409999999604,4.513241e-06,568.409999999604,4.729657e-06
568.424999999604,1.283361e-05,568.424999999604,1.787102e-05,568.424999999604,4.52882e-06,568.424999999604,4.747494e-06
568.439999999604,1.27731e-05,568.439999999604,2.007325e-05,568.439999999604,4.516361e-06,568.439999999604,4.726678e-06
568.454999999604,1.274881e-05,568.454999999604,2.053257e-05,568.454999999604,4.596741e-06,568.454999999604,4.744526e-06
568.4699999996039,1.272669e-05,568.4699999996039,2.118428e-05,568.4699999996039,4.596741e-06,568.4699999996039,4.744526e-06
568.4849999996039,1.211658e-05,568.4849999996039,2.162782e-05,568.4849999996039,4.642481e-06,568.4849999996039,4.777073e-06
568.4999999996039,1.031146e-05,568.4999999996039,2.165385e-05,568.4999999996039,4.624239e-06,568.4999999996039,4.714741e-06
568.5149999996039,9.269777e-06,568.5149999996039,2.195876e-05,568.5149999996039,4.711753e-06,568.5149999996039,4.541245e-06
568.5299999996039,9.156633e-06,568.5299999996039,2.127452e-05,568.5299999996039,4.982041e-06,568.5299999996039,4.266145e-06
568.5449999996039,1.040395e-05,568.5449999996039,2.025767e-05,568.5449999996039,4.876302e-06,568.5449999996039,4.118297e-06
568.5599999996039,1.070294e-05,568.5599999996039,2.02375e-05,568.5599999996039,4.762306e-06,568.5599999996039,4.035369e-06
568.5749999996038,1.089987e-05,568.5749999996038,2.014051e-05,568.5749999996038,5.063375e-06,568.5749999996038,3.964939e-06
568.5899999996038,1.136799e-05,568.5899999996038,2.008728e-05,568.5899999996038,5.449287e-06,568.5899999996038,3.939991e-06
568.6049999996038,1.108186e-05,568.6049999996038,1.919655e-05,568.6049999996038,5.587136e-06,568.6049999996038,3.90768e-06
568.6199999996038,1.122835e-05,568.6199999996038,1.738678e-05,568.6199999996038,5.669728e-06,568.6199999996038,3.84957e-06
568.6349999996038,1.133821e-05,568.6349999996038,1.707283e-05,568.6349999996038,6.08439e-06,568.6349999996038,3.398688e-06
568.6499999996038,1.140264e-05,568.6499999996038,1.714118e-05,568.6499999996038,6.444187e-06,568.6499999996038,3.135683e-06
568.6649999996038,1.143594e-05,568.6649999996038,1.694695e-05,568.6649999996038,6.426676e-06,568.6649999996038,2.858369e-06
568.6799999996038,1.147897e-05,568.6799999996038,1.493387e-05,568.6799999996038,6.4921e-06,568.6799999996038,2.931361e-06
568.6949999996037,1.132578e-05,568.6949999996037,8.76681e-06,568.6949999996037,6.505105e-06,568.6949999996037,2.926552e-06
568.7099999996037,1.175304e-05,568.7099999996037,7.847737e-06,568.7099999996037,6.576178e-06,568.7099999996037,2.945742e-06
568.7249999996037,1.222422e-05,568.7249999996037,7.205797e-06,568.7249999996037,6.671875e-06,568.7249999996037,2.997883e-06
568.7399999996037,1.320473e-05,568.7399999996037,6.496438e-06,568.7399999996037,6.597564e-06,568.7399999996037,3.085871e-06
568.7549999996037,1.330887e-05,568.7549999996037,5.528843e-06,568.7549999996037,6.614623e-06,568.7549999996037,3.090432e-06
568.7699999996037,1.334481e-05,568.7699999996037,4.453544e-06,568.7699999996037,6.699267e-06,568.7699999996037,3.175857e-06
568.7849999996037,1.325265e-05,568.7849999996037,5.48022e-06,568.7849999996037,6.822199e-06,568.7849999996037,3.189136e-06
568.7999999996036,1.220115e-05,568.7999999996036,5.704405e-06,568.7999999996036,6.883865e-06,568.7999999996036,3.224279e-06
568.8149999996036,1.194917e-05,568.8149999996036,5.748683e-06,568.8149999996036,6.871577e-06,568.8149999996036,3.314757e-06
568.8299999996036,1.158889e-05,568.8299999996036,6.550423e-06,568.8299999996036,6.97938e-06,568.8299999996036,3.419349e-06
568.8449999996036,1.160104e-05,568.8449999996036,6.582601e-06,568.8449999996036,7.444261e-06,568.8449999996036,3.448066e-06
568.8599999996036,1.228973e-05,568.8599999996036,6.635885e-06,568.8599999996036,1.241744e-05,568.8599999996036,3.809105e-06
568.8749999996036,1.176023e-05,568.8749999996036,7.264208e-06,568.8749999996036,1.996842e-05,568.8749999996036,3.911283e-06
568.8899999996036,1.195977e-05,568.8899999996036,1.015731e-05,568.8899999996036,2.199274e-05,568.8899999996036,4.334932e-06
568.9049999996035,1.215256e-05,568.9049999996035,1.087528e-05,568.9049999996035,2.33099e-05,568.9049999996035,4.347911e-06
568.9199999996035,1.227252e-05,568.9199999996035,1.144579e-05,568.9199999996035,3.505559e-05,568.9199999996035,4.47563e-06
568.9349999996035,1.224264e-05,568.9349999996035,1.185924e-05,568.9349999996035,4.307386e-05,568.9349999996035,4.424985e-06
568.9499999996035,1.199388e-05,568.9499999996035,1.264229e-05,568.9499999996035,4.386296e-05,568.9499999996035,4.370531e-06
568.9649999996035,1.188178e-05,568.9649999996035,1.339748e-05,568.9649999996035,4.429885e-05,568.9649999996035,4.338181e-06
568.9799999996035,1.075284e-05,568.9799999996035,1.430958e-05,568.9799999996035,4.560375e-05,568.9799999996035,4.367307e-06
568.9949999996035,1.027588e-05,568.9949999996035,1.439399e-05,568.9949999996035,4.816513e-05,568.9949999996035,4.29576e-06
569.0099999996035,1.043909e-05,569.0099999996035,1.498472e-05,569.0099999996035,5.025789e-05,569.0099999996035,4.31539e-06
569.0249999996034,1.023192e-05,569.0249999996034,1.662216e-05,569.0249999996034,5.033183e-05,569.0249999996034,4.302314e-06
569.0399999996034,1.027588e-05,569.0399999996034,1.665687e-05,569.0399999996034,5.122098e-05,569.0399999996034,4.285911e-06
569.0549999996034,1.048218e-05,569.0549999996034,1.6678e-05,569.0549999996034,5.267418e-05,569.0549999996034,4.302314e-06
569.0699999996034,1.040936e-05,569.0699999996034,1.662894e-05,569.0699999996034,5.308416e-05,569.0699999996034,4.216325e-06
569.0849999996034,1.014759e-05,569.0849999996034,1.644066e-05,569.0849999996034,5.3116e-05,569.0849999996034,4.125132e-06
569.0999999996034,9.818822e-06,569.0999999996034,1.713296e-05,569.0999999996034,5.285439e-05,569.0999999996034,4.01437e-06
569.1149999996034,8.782863e-06,569.1149999996034,1.723788e-05,569.1149999996034,5.174986e-05,569.1149999996034,3.834905e-06
569.1299999996033,8.776445e-06,569.1299999996033,1.629953e-05,569.1299999996033,4.934454e-05,569.1299999996033,3.500774e-06
569.1449999996033,7.931653e-06,569.1449999996033,1.511109e-05,569.1449999996033,4.868207e-05,569.1449999996033,3.382069e-06
569.1599999996033,7.358615e-06,569.1599999996033,1.547858e-05,569.1599999996033,4.769961e-05,569.1599999996033,3.323245e-06
569.1749999996033,7.168558e-06,569.1749999996033,1.626839e-05,569.1749999996033,3.963233e-05,569.1749999996033,3.211145e-06
569.1899999996033,7.025649e-06,569.1899999996033,1.583754e-05,569.1899999996033,3.361933e-05,569.1899999996033,3.327482e-06
569.2049999996033,6.797376e-06,569.2049999996033,1.588727e-05,569.2049999996033,3.451496e-05,569.2049999996033,3.352786e-06
569.2199999996033,6.280343e-06,569.2199999996033,1.517806e-05,569.2199999996033,3.527111e-05,569.2199999996033,3.344373e-06
569.2349999996032,6.040241e-06,569.2349999996032,1.410133e-05,569.2349999996032,3.421285e-05,569.2349999996032,3.314757e-06
569.2499999996032,5.664756e-06,569.2499999996032,1.401416e-05,569.2499999996032,3.164437e-05,569.2499999996032,3.335938e-06
569.2649999996032,5.917727e-06,569.2649999996032,1.363924e-05,569.2649999996032,2.939806e-05,569.2649999996032,3.344373e-06
569.2799999996032,6.189974e-06,569.2799999996032,1.204194e-05,569.2799999996032,3.017461e-05,569.2799999996032,3.271984e-06
569.2949999996032,5.869926e-06,569.2949999996032,1.235147e-05,569.2949999996032,2.964428e-05,569.2949999996032,3.340158e-06
569.3099999996032,5.726587e-06,569.3099999996032,1.237995e-05,569.3099999996032,2.93669e-05,569.3099999996032,3.878734e-06
569.3249999996032,5.984008e-06,569.3249999996032,1.244237e-05,569.3249999996032,4.582868e-05,569.3249999996032,4.087396e-06
569.3399999996032,6.246608e-06,569.3399999996032,1.188652e-05,569.3399999996032,0.000140509,569.3399999996032,4.212983e-06
569.3549999996031,6.42229e-06,569.3549999996031,1.163499e-05,569.3549999996031,0.000192847,569.3549999996031,4.266145e-06
569.3699999996031,6.4921e-06,569.3699999996031,1.176023e-05,569.3699999996031,0.0003024319,569.3699999996031,4.581393e-06
569.3849999996031,6.871577e-06,569.3849999996031,1.509804e-05,569.3849999996031,0.0003576699,569.3849999996031,4.584466e-06
569.3999999996031,7.581139e-06,569.3999999996031,1.609866e-05,569.3999999996031,0.0004877344,569.3999999996031,5.082812e-06
569.4149999996031,7.724713e-06,569.4149999996031,1.885747e-05,569.4149999996031,0.0005024428,569.4149999996031,5.2679e-06
569.4299999996031,7.924546e-06,569.4299999996031,2.812614e-05,569.4299999996031,0.0005930722,569.4299999996031,5.373798e-06
569.444999999603,8.39414e-06,569.444999999603,2.978839e-05,569.444999999603,0.0006224911,569.444999999603,5.373798e-06
569.459999999603,8.782863e-06,569.459999999603,3.015453e-05,569.459999999603,0.0006242759,569.459999999603,5.910582e-06
569.474999999603,9.393561e-06,569.474999999603,3.520555e-05,569.474999999603,0.0006307914,569.474999999603,6.313899e-06
569.489999999603,9.413036e-06,569.489999999603,3.903424e-05,569.489999999603,0.0006355284,569.489999999603,6.320588e-06
569.504999999603,9.426494e-06,569.504999999603,4.028102e-05,569.504999999603,0.0006364411,569.504999999603,6.322817e-06
569.519999999603,9.263696e-06,569.519999999603,4.020856e-05,569.519999999603,0.0006363725,569.519999999603,6.446372e-06
569.534999999603,9.068521e-06,569.534999999603,4.039312e-05,569.534999999603,0.0006363295,569.534999999603,6.576178e-06
569.549999999603,9.073179e-06,569.549999999603,4.256625e-05,569.549999999603,0.0006363568,569.549999999603,6.554722e-06
569.564999999603,8.617714e-06,569.564999999603,4.348721e-05,569.564999999603,0.0006404354,569.564999999603,6.169459e-06
569.5799999996029,8.570179e-06,569.5799999996029,4.354063e-05,569.5799999996029,0.0006524713,569.5799999996029,6.082075e-06
569.5949999996029,8.432649e-06,569.5949999996029,4.372336e-05,569.5949999996029,0.0007040812,569.5949999996029,5.986361e-06
569.6099999996029,8.321666e-06,569.6099999996029,4.356294e-05,569.6099999996029,0.001010707,569.6099999996029,5.901041e-06
569.6249999996029,7.919212e-06,569.6249999996029,4.394862e-05,569.6249999996029,0.001067851,569.6249999996029,5.850696e-06
569.6399999996029,7.383459e-06,569.6399999996029,4.305947e-05,569.6399999996029,0.001206726,569.6399999996029,5.662269e-06
569.6549999996029,7.21166e-06,569.6549999996029,4.2867e-05,569.6549999996029,0.001184525,569.6549999996029,5.469929e-06
569.6699999996029,6.789081e-06,569.6699999996029,3.987682e-05,569.6699999996029,0.001188518,569.6699999996029,5.251831e-06
569.6849999996028,5.912964e-06,569.6849999996028,3.447576e-05,569.6849999996028,0.001150407,569.6849999996028,5.173461e-06
569.6999999996028,5.795054e-06,569.6999999996028,3.406761e-05,569.6999999996028,0.001149755,569.6999999996028,5.041069e-06
569.7149999996028,5.230329e-06,569.7149999996028,4.579486e-05,569.7149999996028,0.00114852,569.7149999996028,4.259536e-06
569.7299999996028,4.47563e-06,569.7299999996028,4.536062e-05,569.7299999996028,0.001145447,569.7299999996028,4.035369e-06
569.7449999996028,4.393035e-06,569.7449999996028,4.489677e-05,569.7449999996028,0.001144677,569.7449999996028,4.162526e-06
569.7599999996028,4.305587e-06,569.7599999996028,4.598457e-05,569.7599999996028,0.001146706,569.7599999996028,4.17604e-06
569.7749999996028,4.083948e-06,569.7749999996028,4.681038e-05,569.7749999996028,0.001147067,569.7749999996028,4.003829e-06
569.7899999996027,3.964939e-06,569.7899999996027,4.657476e-05,569.7899999996027,0.001149495,569.7899999996027,3.856882e-06
569.8049999996027,3.827552e-06,569.8049999996027,4.538639e-05,569.8049999996027,0.00114987,569.8049999996027,3.867824e-06
569.8199999996027,3.756974e-06,569.8199999996027,4.640326e-05,569.8199999996027,0.001146712,569.8199999996027,4.128545e-06
569.8349999996027,3.564574e-06,569.8349999996027,4.664186e-05,569.8349999996027,0.001118824,569.8349999996027,4.229668e-06
569.8499999996027,3.603876e-06,569.8499999996027,4.655903e-05,569.8499999996027,0.001072083,569.8499999996027,4.15914e-06
569.8649999996027,3.54476e-06,569.8649999996027,4.647848e-05,569.8649999996027,0.0007498141,569.8649999996027,4.20629e-06
569.8799999996027,3.476546e-06,569.8799999996027,4.588213e-05,569.8799999996027,0.0005668292,569.8799999996027,4.083948e-06
569.8949999996026,3.452149e-06,569.8949999996026,4.5423e-05,569.8949999996026,0.0002751277,569.8949999996026,3.989731e-06
569.9099999996026,3.419349e-06,569.9099999996026,4.525491e-05,569.9099999996026,0.0002573064,569.9099999996026,3.911283e-06
569.9249999996026,3.59605e-06,569.9249999996026,4.516954e-05,569.9249999996026,0.0002045377,569.9249999996026,3.939991e-06
569.9399999996026,3.986198e-06,569.9399999996026,4.499549e-05,569.9399999996026,0.0001515839,569.9399999996026,3.99326e-06
569.9549999996026,3.900464e-06,569.9549999996026,4.148933e-05,569.9549999996026,0.0001441803,569.9549999996026,3.989731e-06
569.9699999996026,3.707911e-06,569.9699999996026,2.673602e-05,569.9699999996026,0.0001522637,569.9699999996026,4.038859e-06
569.9849999996026,3.654337e-06,569.9849999996026,2.507535e-05,569.9849999996026,0.0001805918,569.9849999996026,3.989731e-06
569.9999999996026,3.700305e-06,569.9999999996026,2.661562e-05,569.9999999996026,0.0001824133,569.9999999996026,3.871464e-06
570.0149999996025,3.882364e-06,570.0149999996025,2.620438e-05,570.0149999996025,0.0001754742,570.0149999996025,4.035369e-06
570.0299999996025,4.249604e-06,570.0299999996025,3.539709e-05,570.0299999996025,0.000172595,570.0299999996025,3.979125e-06
570.0449999996025,4.777073e-06,570.0449999996025,4.238085e-05,570.0449999996025,0.0001732374,570.0449999996025,4.017877e-06
570.0599999996025,5.170737e-06,570.0599999996025,4.236423e-05,570.0599999996025,0.0002312744,570.0599999996025,4.148967e-06
570.0749999996025,5.329048e-06,570.0749999996025,4.071823e-05,570.0749999996025,0.000263488,570.0749999996025,4.259536e-06
570.0899999996025,5.469929e-06,570.0899999996025,4.079531e-05,570.0899999996025,0.0002665296,570.0899999996025,4.52882e-06
570.1049999996025,5.518642e-06,570.1049999996025,4.084672e-05,570.1049999996025,0.0002740043,570.1049999996025,4.627284e-06
570.1199999996024,5.612292e-06,570.1199999996024,4.32061e-05,570.1199999996024,0.0002769157,570.1199999996024,5.093886e-06
570.1349999996024,5.682137e-06,570.1349999996024,6.66038e-05,570.1349999996024,0.0002771503,570.1349999996024,5.143422e-06
570.1499999996024,5.692045e-06,570.1499999996024,7.087195e-05,570.1499999996024,0.0002771147,570.1499999996024,5.140683e-06
570.1649999996024,5.577042e-06,570.1649999996024,7.136021e-05,570.1649999996024,0.0002770044,570.1649999996024,5.181623e-06
570.1799999996024,5.556798e-06,570.1799999996024,7.36072e-05,570.1799999996024,0.0002755378,570.1799999996024,5.088352e-06
570.1949999996024,5.564399e-06,570.1949999996024,7.468386e-05,570.1949999996024,0.0002745246,570.1949999996024,5.091119e-06
570.2099999996024,5.544109e-06,570.2099999996024,7.493373e-05,570.2099999996024,0.0002697636,570.2099999996024,5.865124e-06
570.2249999996023,5.549188e-06,570.2249999996023,7.521126e-05,570.2249999996023,0.0002635981,570.2249999996023,6.269119e-06
570.2399999996023,5.751133e-06,570.2399999996023,7.518972e-05,570.2399999996023,0.0002427788,570.2399999996023,6.351713e-06
570.2549999996023,5.826569e-06,570.2549999996023,7.24269e-05,570.2549999996023,0.0002380269,570.2549999996023,6.42229e-06
570.2699999996023,5.677176e-06,570.2699999996023,7.182731e-05,570.2699999996023,0.0002364348,570.2699999996023,6.360578e-06
570.2849999996023,5.577042e-06,570.2849999996023,6.682803e-05,570.2849999996023,0.0002272502,570.2849999996023,6.402519e-06
570.2999999996023,5.162558e-06,570.2999999996023,6.467818e-05,570.2999999996023,0.0002135988,570.2999999996023,6.309435e-06
570.3149999996023,4.717728e-06,570.3149999996023,6.47252e-05,570.3149999996023,0.0001224429,570.3149999996023,6.121322e-06
570.3299999996023,4.711753e-06,570.3299999996023,6.512659e-05,570.3299999996023,8.629018e-05,570.3299999996023,5.879517e-06
570.3449999996022,4.887844e-06,570.3449999996022,6.621626e-05,570.3449999996022,7.058575e-05,570.3449999996022,5.790191e-06
570.3599999996022,4.826943e-06,570.3599999996022,6.651152e-05,570.3599999996022,3.669301e-05,570.3599999996022,5.773135e-06
570.3749999996022,4.660651e-06,570.3749999996022,6.008979e-05,570.3749999996022,1.868336e-05,570.3749999996022,5.402556e-06
570.3899999996022,4.68176e-06,570.3899999996022,3.38594e-05,570.3899999996022,1.641236e-05,570.3899999996022,5.428567e-06
570.4049999996022,4.777073e-06,570.4049999996022,3.067327e-05,570.4049999996022,1.569637e-05,570.4049999996022,5.602244e-06
570.4199999996022,4.651575e-06,570.4199999996022,3.016013e-05,570.4199999996022,1.429579e-05,570.4199999996022,5.647323e-06
570.4349999996022,4.618143e-06,570.4349999996022,2.621352e-05,570.4349999996022,1.380962e-05,570.4349999996022,5.48022e-06
570.4499999996021,4.500739e-06,570.4499999996021,2.514604e-05,570.4499999996021,1.379635e-05,570.4499999996021,5.331691e-06
570.4649999996021,4.531929e-06,570.4649999996021,2.527121e-05,570.4649999996021,1.382491e-05,570.4649999996021,4.196231e-06
570.4799999996021,4.450379e-06,570.4799999996021,2.506411e-05,570.4799999996021,1.37134e-05,570.4799999996021,3.939991e-06
570.4949999996021,4.29576e-06,570.4949999996021,3.724173e-05,570.4949999996021,1.225299e-05,570.4949999996021,3.885991e-06
570.5099999996021,4.318654e-06,570.5099999996021,4.337953e-05,570.5099999996021,1.104366e-05,570.5099999996021,3.805405e-06
570.5249999996021,4.415424e-06,570.5249999996021,4.673539e-05,570.5249999996021,1.082985e-05,570.5249999996021,3.838577e-06
570.5399999996021,4.256228e-06,570.5399999996021,6.141722e-05,570.5399999996021,1.069504e-05,570.5399999996021,3.853228e-06
570.554999999602,4.20629e-06,570.554999999602,6.66501e-05,570.554999999602,1.001766e-05,570.554999999602,3.900464e-06
570.569999999602,4.101159e-06,570.569999999602,6.728829e-05,570.569999999602,8.987383e-06,570.569999999602,3.96849e-06
570.584999999602,4.035369e-06,570.584999999602,7.981456e-05,570.584999999602,8.063755e-06,570.584999999602,3.989731e-06
570.599999999602,3.460301e-06,570.599999999602,8.184023e-05,570.599999999602,7.1823e-06,570.599999999602,3.957827e-06
570.614999999602,3.520835e-06,570.614999999602,8.149214e-05,570.614999999602,7.023643e-06,570.614999999602,3.84957e-06
570.629999999602,3.599965e-06,570.629999999602,8.16222e-05,570.629999999602,6.975343e-06,570.629999999602,3.936414e-06
570.644999999602,3.707911e-06,570.644999999602,8.220467e-05,570.644999999602,5.955692e-06,570.644999999602,4.145571e-06
570.659999999602,3.552699e-06,570.659999999602,8.316824e-05,570.659999999602,5.674694e-06,570.659999999602,3.986198e-06
570.6749999996019,3.914884e-06,570.6749999996019,8.341803e-05,570.6749999996019,5.599728e-06,570.6749999996019,3.925663e-06
570.6899999996019,3.979125e-06,570.6899999996019,8.349821e-05,570.6899999996019,5.677176e-06,570.6899999996019,4.028382e-06
570.7049999996019,4.172666e-06,570.7049999996019,8.35063e-05,570.7049999996019,5.490492e-06,570.7049999996019,4.114875e-06
570.7199999996019,4.182782e-06,570.7199999996019,8.336279e-05,570.7199999996019,5.597212e-06,570.7199999996019,4.182782e-06
570.7349999996019,4.192873e-06,570.7349999996019,8.238987e-05,570.7349999996019,4.791795e-06,570.7349999996019,4.272744e-06
570.7499999996019,4.4218e-06,570.7499999996019,7.616362e-05,570.7499999996019,4.844421e-06,570.7499999996019,4.409039e-06
570.7649999996019,4.605925e-06,570.7649999996019,7.336817e-05,570.7649999996019,5.192486e-06,570.7649999996019,4.544346e-06
570.7799999996018,4.519479e-06,570.7799999996018,6.919909e-05,570.7799999996018,5.423375e-06,570.7799999996018,4.472482e-06
570.7949999996018,4.70577e-06,570.7949999996018,5.659632e-05,570.7949999996018,5.386888e-06,570.7949999996018,4.569077e-06
570.8099999996018,4.794733e-06,570.8099999996018,5.065266e-05,570.8099999996018,5.444114e-06,570.8099999996018,4.541245e-06
570.8249999996018,4.890725e-06,570.8249999996018,4.486256e-05,570.8249999996018,5.582091e-06,570.8249999996018,4.538142e-06
570.8399999996018,5.165286e-06,570.8399999996018,2.442538e-05,570.8399999996018,5.61731e-06,570.8399999996018,4.538142e-06
570.8549999996018,5.281253e-06,570.8549999996018,2.017824e-05,570.8549999996018,5.624828e-06,570.8549999996018,4.503868e-06
570.8699999996018,5.326404e-06,570.8699999996018,2.007185e-05,570.8699999996018,5.627332e-06,570.8699999996018,4.556728e-06
570.8849999996017,5.297233e-06,570.8849999996017,1.954849e-05,570.8849999996017,5.869926e-06,570.8849999996017,4.29576e-06
570.8999999996017,5.286585e-06,570.8999999996017,1.714529e-05,570.8999999996017,5.799914e-06,570.8999999996017,4.252917e-06
570.9149999996017,5.358047e-06,570.9149999996017,1.158646e-05,570.9149999996017,5.879517e-06,570.9149999996017,4.383405e-06
570.9299999996017,5.168013e-06,570.9299999996017,1.096686e-05,570.9299999996017,5.924864e-06,570.9299999996017,4.459865e-06
570.9449999996017,5.088352e-06,570.9449999996017,1.015176e-05,570.9449999996017,5.972226e-06,570.9449999996017,4.450379e-06
570.9599999996017,4.939447e-06,570.9599999996017,8.482616e-06,570.9599999996017,5.915346e-06,570.9599999996017,4.52882e-06
570.9749999996017,5.162558e-06,570.9749999996017,7.713764e-06,570.9749999996017,5.711809e-06,570.9749999996017,4.466178e-06
570.9899999996017,5.046655e-06,570.9899999996017,7.883556e-06,570.9899999996017,5.694519e-06,570.9899999996017,4.308857e-06
571.0049999996016,4.982041e-06,571.0049999996016,8.806888e-06,571.0049999996016,5.760922e-06,571.0049999996016,4.135364e-06
571.0199999996016,4.858938e-06,571.0199999996016,1.00289e-05,571.0199999996016,5.500745e-06,571.0199999996016,4.024883e-06
571.0349999996016,4.882076e-06,571.0349999996016,1.019468e-05,571.0349999996016,5.170737e-06,571.0349999996016,4.01437e-06
571.0499999996016,4.639445e-06,571.0499999996016,1.037547e-05,571.0499999996016,5.124215e-06,571.0499999996016,3.932833e-06
571.0649999996016,4.867628e-06,571.0649999996016,1.050902e-05,571.0649999996016,5.246463e-06,571.0649999996016,3.911283e-06
571.0799999996016,4.824024e-06,571.0799999996016,1.05184e-05,571.0799999996016,5.410373e-06,571.0799999996016,3.805405e-06
571.0949999996016,4.624239e-06,571.0949999996016,1.396381e-05,571.0949999996016,5.741327e-06,571.0949999996016,3.779404e-06
571.1099999996015,4.794733e-06,571.1099999996015,1.912671e-05,571.1099999996015,6.205884e-06,571.1099999996015,3.805405e-06
571.1249999996015,4.699779e-06,571.1249999996015,1.932163e-05,571.1249999996015,6.162605e-06,571.1249999996015,3.67356e-06
571.1399999996015,4.68176e-06,571.1399999996015,2.14519e-05,571.1399999996015,6.174023e-06,571.1399999996015,3.54476e-06
571.1549999996015,4.575239e-06,571.1549999996015,2.314129e-05,571.1549999996015,7.15282e-06,571.1549999996015,3.512824e-06
571.1699999996015,4.605925e-06,571.1699999996015,2.350309e-05,571.1699999996015,7.822567e-06,571.1699999996015,3.140172e-06
571.1849999996015,4.633369e-06,571.1849999996015,2.353962e-05,571.1849999996015,7.892485e-06,571.1849999996015,3.19355e-06
571.1999999996015,4.657627e-06,571.1999999996015,2.426626e-05,571.1999999996015,8.309809e-06,571.1999999996015,3.377901e-06
571.2149999996014,4.308857e-06,571.2149999996014,2.427845e-05,571.2149999996014,9.408545e-06,571.2149999996014,3.19355e-06
571.2299999996014,4.169289e-06,571.2299999996014,2.43144e-05,571.2299999996014,9.420515e-06,571.2299999996014,3.580347e-06
571.2449999996014,4.070128e-06,571.2449999996014,2.419941e-05,571.2449999996014,9.861767e-06,571.2449999996014,3.662038e-06
571.2599999996014,4.097722e-06,571.2599999996014,2.377719e-05,571.2599999996014,1.06581e-05,571.2599999996014,3.749468e-06
571.2749999996014,4.262842e-06,571.2749999996014,2.333648e-05,571.2749999996014,1.089857e-05,571.2749999996014,3.871464e-06
571.2899999996014,4.34467e-06,571.2899999996014,2.377186e-05,571.2899999996014,1.171823e-05,571.2899999996014,3.82387e-06
571.3049999996014,4.506994e-06,571.3049999996014,2.391601e-05,571.3049999996014,1.196802e-05,571.3049999996014,3.842245e-06
571.3199999996014,4.186148e-06,571.3199999996014,2.373687e-05,571.3199999996014,1.195624e-05,571.3199999996014,3.853228e-06
571.3349999996013,4.028382e-06,571.3349999996013,2.355936e-05,571.3349999996013,1.179492e-05,571.3349999996013,3.86418e-06
571.3499999996013,3.936414e-06,571.3499999996013,1.969709e-05,571.3499999996013,1.163257e-05,571.3499999996013,3.99326e-06
571.3649999996013,3.711708e-06,571.3649999996013,1.669319e-05,571.3649999996013,1.141251e-05,571.3649999996013,3.982663e-06
571.3799999996013,3.696496e-06,571.3799999996013,1.678157e-05,571.3799999996013,1.163983e-05,571.3799999996013,3.961384e-06
571.3949999996013,4.4218e-06,571.3949999996013,1.742482e-05,571.3949999996013,1.157795e-05,571.3949999996013,3.989731e-06
571.4099999996013,4.593675e-06,571.4099999996013,1.66069e-05,571.4099999996013,1.25135e-05,571.4099999996013,4.042345e-06
571.4249999996013,4.791795e-06,571.4249999996013,1.683353e-05,571.4249999996013,1.365781e-05,571.4249999996013,4.031877e-06
571.4399999996012,4.744526e-06,571.4399999996012,1.87022e-05,571.4399999996012,1.379329e-05,571.4399999996012,3.786851e-06
571.4549999996012,4.645514e-06,571.4549999996012,1.843975e-05,571.4549999996012,1.387475e-05,571.4549999996012,3.54476e-06
571.4699999996012,4.663672e-06,571.4699999996012,1.844891e-05,571.4699999996012,1.518085e-05,571.4699999996012,3.54476e-06
571.4849999996012,4.870521e-06,571.4849999996012,1.851294e-05,571.4849999996012,1.558831e-05,571.4849999996012,3.331712e-06
571.4999999996012,4.913713e-06,571.4999999996012,1.852663e-05,571.4999999996012,1.536806e-05,571.4999999996012,3.327482e-06
571.5149999996012,5.032679e-06,571.5149999996012,1.853955e-05,571.5149999996012,1.485158e-05,571.5149999996012,3.394541e-06
571.5299999996012,5.459618e-06,571.5299999996012,1.83747e-05,571.5299999996012,1.458358e-05,571.5299999996012,3.344373e-06
571.5449999996011,5.451871e-06,571.5449999996011,1.775636e-05,571.5449999996011,1.419393e-05,571.5449999996011,3.28916e-06
571.5599999996011,5.355417e-06,571.5599999996011,1.790331e-05,571.5599999996011,1.410932e-05,571.5599999996011,3.254718e-06
571.5749999996011,5.436346e-06,571.5749999996011,1.79151e-05,571.5749999996011,1.409934e-05,571.5749999996011,3.254718e-06
571.5899999996011,5.48279e-06,571.5899999996011,1.803813e-05,571.5899999996011,1.443699e-05,571.5899999996011,3.197958e-06
571.6049999996011,5.513535e-06,571.6049999996011,1.988146e-05,571.6049999996011,1.448666e-05,571.6049999996011,3.131187e-06
571.6199999996011,5.521194e-06,571.6199999996011,2.083157e-05,571.6199999996011,1.449833e-05,571.6199999996011,3.104077e-06
571.6349999996011,5.102175e-06,571.6349999996011,2.124934e-05,571.6349999996011,1.436264e-05,571.6349999996011,3.104077e-06
571.649999999601,5.043863e-06,571.649999999601,2.839779e-05,571.649999999601,1.407334e-05,571.649999999601,3.062961e-06
571.664999999601,4.998978e-06,571.664999999601,2.868258e-05,571.664999999601,1.191848e-05,571.664999999601,2.993181e-06
571.679999999601,4.75046e-06,571.679999999601,3.071045e-05,571.679999999601,1.083245e-05,571.679999999601,2.997883e-06
571.694999999601,4.902232e-06,571.694999999601,3.276502e-05,571.694999999601,1.096943e-05,571.694999999601,2.960054e-06
571.709999999601,4.930884e-06,571.709999999601,3.317858e-05,571.709999999601,9.23476e-06,571.709999999601,2.969556e-06
571.724999999601,4.976383e-06,571.724999999601,3.315522e-05,571.724999999601,7.532673e-06,571.724999999601,3.104077e-06
571.739999999601,4.780021e-06,571.739999999601,3.34079e-05,571.739999999601,6.061194e-06,571.739999999601,3.094987e-06
571.754999999601,4.663672e-06,571.754999999601,3.352828e-05,571.754999999601,6.107498e-06,571.754999999601,3.390388e-06
571.7699999996009,4.338181e-06,571.7699999996009,3.354592e-05,571.7699999996009,7.19993e-06,571.7699999996009,3.348582e-06
571.7849999996009,4.209638e-06,571.7849999996009,3.35518e-05,571.7849999996009,9.307691e-06,571.7849999996009,3.348582e-06
571.7999999996009,4.412233e-06,571.7999999996009,3.345257e-05,571.7999999996009,1.057983e-05,571.7999999996009,3.36955e-06
571.8149999996009,4.962209e-06,571.8149999996009,3.333445e-05,571.8149999996009,1.068318e-05,571.8149999996009,3.40283e-06
571.8299999996009,4.910845e-06,571.8299999996009,3.34433e-05,571.8299999996009,1.044044e-05,571.8299999996009,3.415227e-06
571.8449999996009,4.896482e-06,571.8449999996009,3.418031e-05,571.8449999996009,1.530929e-05,571.8449999996009,3.681221e-06
571.8599999996009,4.945147e-06,571.8599999996009,3.54142e-05,571.8599999996009,2.005078e-05,571.8599999996009,3.73441e-06
571.8749999996008,4.990517e-06,571.8749999996008,3.519835e-05,571.8749999996008,2.093411e-05,571.8749999996008,3.760722e-06
571.8899999996008,5.041069e-06,571.8899999996008,3.317008e-05,571.8899999996008,2.100196e-05,571.8899999996008,3.779404e-06
571.9049999996008,4.890725e-06,571.9049999996008,2.712518e-05,571.9049999996008,2.232206e-05,571.9049999996008,3.92925e-06
571.9199999996008,4.945147e-06,571.9199999996008,2.672759e-05,571.9199999996008,2.408739e-05,571.9199999996008,3.939991e-06
571.9349999996008,4.882076e-06,571.9349999996008,2.376475e-05,571.9349999996008,2.472688e-05,571.9349999996008,3.986198e-06
571.9499999996008,4.771172e-06,571.9499999996008,2.056821e-05,571.9499999996008,2.476957e-05,571.9499999996008,4.083948e-06
571.9649999996008,4.69378e-06,571.9649999996008,2.045007e-05,571.9649999996008,2.480026e-05,571.9649999996008,4.077044e-06
571.9799999996008,4.708762e-06,571.9799999996008,2.026393e-05,571.9799999996008,2.486549e-05,571.9799999996008,3.889614e-06
571.9949999996007,4.696781e-06,571.9949999996007,2.006132e-05,571.9949999996007,2.484282e-05,571.9949999996007,3.723076e-06
572.0099999996007,4.612038e-06,572.0099999996007,1.997194e-05,572.0099999996007,2.479855e-05,572.0099999996007,3.552699e-06
572.0249999996007,4.535037e-06,572.0249999996007,2.016428e-05,572.0249999996007,2.430629e-05,572.0249999996007,3.642754e-06
572.0399999996007,4.232997e-06,572.0399999996007,2.025419e-05,572.0399999996007,2.356952e-05,572.0399999996007,3.646619e-06
572.0549999996007,4.128545e-06,572.0549999996007,2.025211e-05,572.0549999996007,2.324879e-05,572.0549999996007,3.756974e-06
572.0699999996007,3.801702e-06,572.0699999996007,2.037623e-05,572.0699999996007,2.302718e-05,572.0699999996007,3.775675e-06
572.0849999996007,4.393035e-06,572.0849999996007,2.079435e-05,572.0849999996007,2.284723e-05,572.0849999996007,3.719291e-06
572.0999999996006,4.590608e-06,572.0999999996006,1.713954e-05,572.0999999996006,1.844739e-05,572.0999999996006,3.427579e-06
572.1149999996006,6.298262e-06,572.1149999996006,1.446331e-05,572.1149999996006,1.475069e-05,572.1149999996006,3.448066e-06
572.1299999996006,7.250621e-06,572.1299999996006,1.496496e-05,572.1299999996006,1.384833e-05,572.1299999996006,3.536803e-06
572.1449999996006,9.231709e-06,572.1449999996006,1.563883e-05,572.1449999996006,1.362477e-05,572.1449999996006,3.484641e-06
572.1599999996006,9.996546e-06,572.1599999996006,1.565324e-05,572.1599999996006,1.181282e-05,572.1599999996006,3.439886e-06
572.1749999996006,1.113512e-05,572.1749999996006,1.673028e-05,572.1749999996006,8.935509e-06,572.1749999996006,3.431686e-06
572.1899999996006,1.903221e-05,572.1899999996006,1.677401e-05,572.1899999996006,7.551351e-06,572.1899999996006,3.508812e-06
572.2049999996005,1.945748e-05,572.2049999996005,1.677317e-05,572.2049999996005,7.373913e-06,572.2049999996005,3.476546e-06
572.2199999996005,1.974566e-05,572.2199999996005,1.704228e-05,572.2199999996005,7.498936e-06,572.2199999996005,3.423466e-06
572.2349999996005,2.006483e-05,572.2349999996005,1.730313e-05,572.2349999996005,7.571843e-06,572.2349999996005,3.476546e-06
572.2499999996005,2.07428e-05,572.2499999996005,1.884925e-05,572.2499999996005,7.569982e-06,572.2499999996005,3.464369e-06
572.2649999996005,2.080044e-05,572.2649999996005,1.905736e-05,572.2649999996005,7.781039e-06,572.2649999996005,3.284874e-06
572.2799999996005,2.088965e-05,572.2799999996005,1.914953e-05,572.2799999996005,7.824367e-06,572.2799999996005,3.241707e-06
572.2949999996005,2.13261e-05,572.2949999996005,2.035341e-05,572.2949999996005,7.623756e-06,572.2949999996005,3.398688e-06
572.3099999996004,2.14729e-05,572.3099999996004,2.084104e-05,572.3099999996004,7.746566e-06,572.3099999996004,3.431686e-06
572.3249999996004,2.151615e-05,572.3249999996004,2.050511e-05,572.3249999996004,8.041013e-06,572.3249999996004,3.427579e-06
572.3399999996004,2.14965e-05,572.3399999996004,1.972996e-05,572.3399999996004,7.952937e-06,572.3399999996004,3.460301e-06
572.3549999996004,2.116898e-05,572.3549999996004,1.974638e-05,572.3549999996004,7.638524e-06,572.3549999996004,3.56062e-06
572.3699999996004,2.092333e-05,572.3699999996004,1.930704e-05,572.3699999996004,7.40061e-06,572.3699999996004,3.635012e-06
572.3849999996004,2.059354e-05,572.3849999996004,1.760818e-05,572.3849999996004,7.091506e-06,572.3849999996004,3.615583e-06
572.3999999996004,1.990199e-05,572.3999999996004,1.7142e-05,572.3999999996004,6.914493e-06,572.3999999996004,3.552699e-06
572.4149999996004,1.965629e-05,572.4149999996004,1.671091e-05,572.4149999996004,6.214957e-06,572.4149999996004,3.646619e-06
572.4299999996003,1.834785e-05,572.4299999996003,1.635303e-05,572.4299999996003,6.160319e-06,572.4299999996003,3.688867e-06
572.4449999996003,1.138533e-05,572.4449999996003,1.700504e-05,572.4449999996003,6.576178e-06,572.4449999996003,3.882364e-06
572.4599999996003,1.085843e-05,572.4599999996003,1.691617e-05,572.4599999996003,7.383459e-06,572.4599999996003,3.900464e-06
572.4749999996003,1.041342e-05,572.4749999996003,1.740217e-05,572.4749999996003,7.375824e-06,572.4749999996003,3.904074e-06
572.4899999996003,8.745896e-06,572.4899999996003,1.704476e-05,572.4899999996003,7.331766e-06,572.4899999996003,3.972038e-06
572.5049999996003,8.545489e-06,572.5049999996003,1.49216e-05,572.5049999996003,7.285508e-06,572.5049999996003,4.066665e-06
572.5199999996003,8.353768e-06,572.5199999996003,1.485252e-05,572.5199999996003,6.993494e-06,572.5199999996003,4.077044e-06
572.5349999996002,8.181682e-06,572.5349999996002,1.482119e-05,572.5349999996002,6.971302e-06,572.5349999996002,4.038859e-06
572.5499999996002,7.46882e-06,572.5499999996002,1.367637e-05,572.5499999996002,7.129148e-06,572.5499999996002,3.932833e-06
572.5649999996002,7.087532e-06,572.5649999996002,1.532308e-05,572.5649999996002,6.851046e-06,572.5649999996002,3.957827e-06
572.5799999996002,6.623136e-06,572.5799999996002,1.635045e-05,572.5799999996002,6.709772e-06,572.5799999996002,3.996786e-06
572.5949999996002,6.494269e-06,572.5949999996002,1.635131e-05,572.5949999996002,6.638008e-06,572.5949999996002,3.957827e-06
572.6099999996002,6.371642e-06,572.6099999996002,1.619637e-05,572.6099999996002,6.487759e-06,572.6099999996002,4.11145e-06
572.6249999996002,6.282586e-06,572.6249999996002,1.639948e-05,572.6249999996002,6.435437e-06,572.6249999996002,4.021382e-06
572.6399999996001,6.282586e-06,572.6399999996001,1.74224e-05,572.6399999996001,6.58688e-06,572.6399999996001,4.049309e-06
572.6549999996001,5.812045e-06,572.6549999996001,1.771108e-05,572.6549999996001,6.574036e-06,572.6549999996001,4.152361e-06
572.6699999996001,5.860319e-06,572.6699999996001,1.764973e-05,572.6699999996001,6.57832e-06,572.6699999996001,4.090841e-06
572.6849999996001,6.174023e-06,572.6849999996001,1.72485e-05,572.6849999996001,6.593293e-06,572.6849999996001,3.939991e-06
572.6999999996001,6.226279e-06,572.6999999996001,1.659841e-05,572.6999999996001,6.910417e-06,572.6999999996001,3.925663e-06
572.7149999996001,6.920602e-06,572.7149999996001,1.652527e-05,572.7149999996001,6.309435e-06,572.7149999996001,4.021382e-06
572.7299999996001,6.928738e-06,572.7299999996001,1.603817e-05,572.7299999996001,6.431058e-06,572.7299999996001,4.031877e-06
572.7449999996,6.789081e-06,572.7449999996,1.733485e-05,572.7449999996,6.638008e-06,572.7449999996,3.878734e-06
572.7599999996,7.061647e-06,572.7599999996,1.775953e-05,572.7599999996,6.749543e-06,572.7599999996,3.950702e-06
572.7749999996,7.011599e-06,572.7749999996,1.846876e-05,572.7749999996,6.890002e-06,572.7749999996,3.925663e-06
572.7899999996,6.393712e-06,572.7899999996,1.877737e-05,572.7899999996,6.855157e-06,572.7899999996,3.91848e-06
572.8049999996,6.340615e-06,572.8049999996,2.004235e-05,572.8049999996,6.711871e-06,572.8049999996,3.856882e-06
572.8199999996,6.400318e-06,572.8199999996,2.007185e-05,572.8199999996,6.816002e-06,572.8199999996,3.794284e-06
572.8349999996,6.393712e-06,572.8349999996,2.004587e-05,572.8349999996,7.087532e-06,572.8349999996,3.794284e-06
572.8499999996,6.420096e-06,572.8499999996,2.317475e-05,572.8499999996,7.137048e-06,572.8499999996,4.070128e-06
572.8649999996,6.642251e-06,572.8649999996,2.437862e-05,572.8649999996,7.586711e-06,572.8649999996,4.01437e-06
572.8799999995999,7.36818e-06,572.8799999995999,2.415863e-05,572.8799999995999,1.004434e-05,572.8799999995999,4.052786e-06
572.8949999995999,8.373978e-06,572.8949999995999,2.321665e-05,572.8949999995999,1.027588e-05,572.8949999995999,4.01437e-06
572.9099999995999,9.618801e-06,572.9099999995999,2.326635e-05,572.9099999995999,1.175903e-05,572.9099999995999,4.485062e-06
572.9249999995999,1.127717e-05,572.9249999995999,2.339375e-05,572.9249999995999,1.196684e-05,572.9249999995999,4.663672e-06
572.9399999995999,1.245934e-05,572.9399999995999,2.333648e-05,572.9399999995999,1.206648e-05,572.9399999995999,4.759348e-06
572.9549999995999,1.32792e-05,572.9549999995999,2.34695e-05,572.9549999995999,1.185211e-05,572.9549999995999,4.861837e-06
572.9699999995998,1.375954e-05,572.9699999995998,2.353723e-05,572.9699999995998,1.185211e-05,572.9699999995998,4.905105e-06
572.9849999995998,1.554396e-05,572.9849999995998,2.436648e-05,572.9849999995998,1.205831e-05,572.9849999995998,4.907976e-06
572.9999999995998,1.581973e-05,572.9999999995998,2.567545e-05,572.9999999995998,1.208515e-05,572.9999999995998,4.925167e-06
573.0149999995998,1.629867e-05,573.0149999995998,2.61069e-05,573.0149999995998,1.228858e-05,573.0149999995998,4.847328e-06
573.0299999995998,1.662386e-05,573.0299999995998,2.705811e-05,573.0299999995998,1.224149e-05,573.0299999995998,4.844421e-06
573.0449999995998,1.678912e-05,573.0449999995998,2.840622e-05,573.0449999995998,1.22e-05,573.0449999995998,4.844421e-06
573.0599999995998,1.689701e-05,573.0599999995998,2.678813e-05,573.0599999995998,1.221154e-05,573.0599999995998,4.803539e-06
573.0749999995998,1.714447e-05,573.0749999995998,2.583134e-05,573.0749999995998,1.214561e-05,573.0749999995998,4.803539e-06
573.0899999995997,1.730313e-05,573.0899999995997,2.467726e-05,573.0899999995997,1.19527e-05,573.0899999995997,4.690778e-06
573.1049999995997,1.752317e-05,573.1049999995997,2.269567e-05,573.1049999995997,1.182355e-05,573.1049999995997,4.478776e-06
573.1199999995997,1.784262e-05,573.1199999995997,2.187005e-05,573.1199999995997,1.159254e-05,573.1199999995997,4.428167e-06
573.1349999995997,1.789229e-05,573.1349999995997,2.174344e-05,573.1349999995997,9.631973e-06,573.1349999995997,4.513241e-06
573.1499999995997,1.775001e-05,573.1499999995997,2.163628e-05,573.1499999995997,9.675749e-06,573.1499999995997,4.36408e-06
573.1649999995997,1.664757e-05,573.1649999995997,2.15763e-05,573.1649999995997,8.995216e-06,573.1649999995997,3.91848e-06
573.1799999995997,1.654231e-05,573.1799999995997,2.206308e-05,573.1799999995997,8.538892e-06,573.1799999995997,3.83123e-06
573.1949999995996,1.685109e-05,573.1949999995996,2.214465e-05,573.1949999995996,8.8754e-06,573.1949999995996,3.771943e-06
573.2099999995996,1.645436e-05,573.2099999995996,2.220056e-05,573.2099999995996,1.078293e-05,573.2099999995996,3.435788e-06
573.2249999995996,1.526136e-05,573.2249999995996,2.232521e-05,573.2249999995996,1.134939e-05,573.2249999995996,3.394541e-06
573.2399999995996,1.453714e-05,573.2399999995996,1.99543e-05,573.2399999995996,1.122458e-05,573.2399999995996,3.435788e-06
573.2549999995996,1.430958e-05,573.2549999995996,1.588549e-05,573.2549999995996,1.177938e-05,573.2549999995996,3.373728e-06
573.2699999995996,1.401114e-05,573.2699999995996,1.511109e-05,573.2699999995996,1.163257e-05,573.2699999995996,3.423466e-06
573.2849999995996,1.411531e-05,573.2849999995996,1.235147e-05,573.2849999995996,1.168332e-05,573.2849999995996,3.427579e-06
573.2999999995995,1.388185e-05,573.2999999995995,9.393561e-06,573.2999999995995,1.185329e-05,573.2999999995995,3.516832e-06
573.3149999995995,1.407934e-05,573.3149999995995,9.383058e-06,573.3149999995995,1.189363e-05,573.3149999995995,3.540784e-06
573.3299999995995,1.406332e-05,573.3299999995995,9.626121e-06,573.3299999995995,1.19527e-05,573.3299999995995,3.524834e-06
573.3449999995995,1.398497e-05,573.3449999995995,9.634898e-06,573.3449999995995,1.192202e-05,573.3449999995995,3.564574e-06
573.3599999995995,1.408034e-05,573.3599999995995,9.853194e-06,573.3599999995995,1.194209e-05,573.3599999995995,3.361178e-06
573.3749999995995,1.3989e-05,573.3749999995995,1.012953e-05,573.3749999995995,1.197625e-05,573.3749999995995,3.356985e-06
573.3899999995995,1.357713e-05,573.3899999995995,1.029095e-05,573.3899999995995,1.203141e-05,573.3899999995995,3.348582e-06
573.4049999995995,1.282702e-05,573.4049999995995,1.043234e-05,573.4049999995995,1.172544e-05,573.4049999995995,3.36955e-06
573.4199999995994,1.281713e-05,573.4199999995994,1.036325e-05,573.4199999995994,1.139151e-05,573.4199999995994,3.263362e-06
573.4349999995994,1.2465e-05,573.4349999995994,1.000781e-05,573.4349999995994,1.145809e-05,573.4349999995994,3.340158e-06
573.4499999995994,1.113259e-05,573.4499999995994,9.870335e-06,573.4499999995994,1.353348e-05,573.4499999995994,3.382069e-06
573.4649999995994,1.126967e-05,573.4649999995994,9.46378e-06,573.4649999995994,1.442039e-05,573.4649999995994,3.352786e-06
573.4799999995994,1.140634e-05,573.4799999995994,1.038904e-05,573.4799999995994,1.401013e-05,573.4799999995994,3.314757e-06
573.4949999995994,1.147652e-05,573.4949999995994,1.092052e-05,573.4949999995994,1.503071e-05,573.4949999995994,3.427579e-06
573.5099999995994,1.282373e-05,573.5099999995994,1.090374e-05,573.5099999995994,1.925883e-05,573.5099999995994,3.448066e-06
573.5249999995993,1.286212e-05,573.5249999995993,1.109203e-05,573.5249999995993,2.163563e-05,573.5249999995993,3.468433e-06
573.5399999995993,1.291131e-05,573.5399999995993,1.143594e-05,573.5399999995993,2.166101e-05,573.5399999995993,3.57641e-06
573.5549999995993,1.410833e-05,573.5549999995993,1.149492e-05,573.5549999995993,2.17784e-05,573.5549999995993,3.56062e-06
573.5699999995993,1.433515e-05,573.5699999995993,1.132703e-05,573.5699999995993,2.242468e-05,573.5699999995993,3.615583e-06
573.5849999995993,1.419096e-05,573.5849999995993,1.192439e-05,573.5849999995993,2.720142e-05,573.5849999995993,3.700305e-06
573.5999999995993,1.404428e-05,573.5999999995993,1.198683e-05,573.5999999995993,4.665997e-05,573.5999999995993,3.73818e-06
573.6149999995993,1.35574e-05,573.6149999995993,1.163983e-05,573.6149999995993,0.0001390235,573.6149999995993,3.779404e-06
573.6299999995992,1.339748e-05,573.6299999995992,1.15974e-05,573.6299999995992,0.0002351412,573.6299999995992,3.707911e-06
573.6449999995992,1.338275e-05,573.6449999995992,1.163015e-05,573.6449999995992,0.0006929453,573.6449999995992,3.764466e-06
573.6599999995992,1.303293e-05,573.6599999995992,1.130711e-05,573.6599999995992,0.0007536272,573.6599999995992,4.01437e-06
573.6749999995992,1.284677e-05,573.6749999995992,1.108441e-05,573.6749999995992,0.0009014596,573.6749999995992,4.135364e-06
573.6899999995992,1.281054e-05,573.6899999995992,1.065545e-05,573.6899999995992,0.0009171534,573.6899999995992,4.239647e-06
573.7049999995992,1.269122e-05,573.7049999995992,1.066999e-05,573.7049999995992,0.0009236584,573.7049999995992,4.463023e-06
573.7199999995992,1.192202e-05,573.7199999995992,1.161318e-05,573.7199999995992,0.0009304869,573.7199999995992,4.472482e-06
573.7349999995992,1.180805e-05,573.7349999995992,1.123713e-05,573.7349999995992,0.0009314383,573.7349999995992,4.376973e-06
573.7499999995991,1.15816e-05,573.7499999995991,1.099124e-05,573.7499999995991,0.0009325813,573.7499999995991,4.376973e-06
573.7649999995991,9.474194e-06,573.7649999995991,1.134318e-05,573.7649999995991,0.0009388376,573.7649999995991,4.428167e-06
573.7799999995991,9.263696e-06,573.7799999995991,1.167729e-05,573.7799999995991,0.00097735,573.7799999995991,4.450379e-06
573.7949999995991,8.710389e-06,573.7949999995991,1.170019e-05,573.7949999995991,0.001120425,573.7949999995991,4.412233e-06
573.8099999995991,6.260124e-06,573.8099999995991,1.157065e-05,573.8099999995991,0.001149483,573.8099999995991,4.463023e-06
573.8249999995991,6.019215e-06,573.8249999995991,1.201969e-05,573.8249999995991,0.001170981,573.8249999995991,4.491339e-06
573.8399999995991,5.821732e-06,573.8399999995991,1.494518e-05,573.8399999995991,0.001267644,573.8399999995991,4.519479e-06
573.854999999599,6.713969e-06,573.854999999599,1.522717e-05,573.854999999599,0.001312957,573.854999999599,4.519479e-06
573.869999999599,6.638008e-06,573.869999999599,1.612139e-05,573.869999999599,0.001304535,573.869999999599,4.453544e-06
573.884999999599,6.563313e-06,573.884999999599,1.71198e-05,573.884999999599,0.001249898,573.884999999599,4.497608e-06
573.899999999599,6.470365e-06,573.899999999599,1.912082e-05,573.899999999599,0.001086843,573.899999999599,4.252917e-06
573.914999999599,6.349495e-06,573.914999999599,2.019639e-05,573.914999999599,0.001064825,573.914999999599,4.125132e-06
573.929999999599,6.347276e-06,573.929999999599,2.024863e-05,573.929999999599,0.001086743,573.929999999599,4.393035e-06
573.944999999599,6.513761e-06,573.944999999599,2.165711e-05,573.944999999599,0.001095797,573.944999999599,4.31539e-06
573.959999999599,7.021637e-06,573.959999999599,2.648723e-05,573.959999999599,0.001158903,573.959999999599,4.341427e-06
573.9749999995989,7.10738e-06,573.9749999995989,2.879385e-05,573.9749999995989,0.001199601,573.9749999995989,4.389827e-06
573.9899999995989,7.089519e-06,573.9899999995989,2.867669e-05,573.9899999995989,0.001202533,573.9899999995989,4.559819e-06
574.0049999995989,7.22337e-06,574.0049999995989,3.143624e-05,574.0049999995989,0.001203299,574.0049999995989,4.547444e-06
574.0199999995989,7.28164e-06,574.0199999995989,3.420049e-05,574.0199999995989,0.001189677,574.0199999995989,4.726678e-06
574.0349999995989,7.293238e-06,574.0349999995989,3.49715e-05,574.0349999995989,0.001129763,574.0349999995989,4.723696e-06
574.0499999995989,7.158726e-06,574.0499999995989,3.514909e-05,574.0499999995989,0.001007473,574.0499999995989,4.584466e-06
574.0649999995989,7.190141e-06,574.0649999995989,3.764092e-05,574.0649999995989,0.0009901378,574.0649999995989,4.702775e-06
574.0799999995988,7.429107e-06,574.0799999995988,3.973563e-05,574.0799999995988,0.0009465073,574.0799999995988,4.910845e-06
574.0949999995988,7.170523e-06,574.0949999995988,3.936342e-05,574.0949999995988,0.0008183799,574.0949999995988,5.013047e-06
574.1099999995988,6.894089e-06,574.1099999995988,3.950916e-05,574.1099999995988,0.0007773056,574.1099999995988,5.132455e-06
574.1249999995988,7.410121e-06,574.1249999995988,3.928067e-05,574.1249999995988,0.0007763506,574.1249999995988,5.331691e-06
574.1399999995988,8.459336e-06,574.1399999995988,3.865638e-05,574.1399999995988,0.0007749922,574.1399999995988,5.521194e-06
574.1549999995988,1.06051e-05,574.1549999995988,3.804739e-05,574.1549999995988,0.0007738546,574.1549999995988,5.584614e-06
574.1699999995988,1.098868e-05,574.1699999995988,3.790495e-05,574.1699999995988,0.0006794061,574.1699999995988,5.418178e-06
574.1849999995987,1.157551e-05,574.1849999995987,3.822506e-05,574.1849999995987,0.0005131607,574.1849999995987,5.619817e-06
574.1999999995987,1.25225e-05,574.1999999995987,3.846349e-05,574.1999999995987,0.0004834241,574.1999999995987,5.692045e-06
574.2149999995987,1.428396e-05,574.2149999995987,3.561649e-05,574.2149999995987,0.0003037816,574.2149999995987,6.262374e-06
574.2299999995987,1.665095e-05,574.2299999995987,3.57101e-05,574.2299999995987,0.0001729946,574.2299999995987,6.255622e-06
574.2449999995987,1.717566e-05,574.2449999995987,3.580543e-05,574.2449999995987,0.0001631413,574.2449999995987,6.840758e-06
574.2599999995987,2.191445e-05,574.2599999995987,3.373895e-05,574.2599999995987,0.0001540071,574.2599999995987,7.057657e-06
574.2749999995987,2.364948e-05,574.2749999995987,3.233658e-05,574.2749999995987,0.00013411,574.2749999995987,7.186222e-06
574.2899999995986,2.374696e-05,574.2899999995986,3.187103e-05,574.2899999995986,0.0001001611,574.2899999995986,7.291306e-06
574.3049999995986,2.394368e-05,574.3049999995986,3.173194e-05,574.3049999995986,7.315705e-05,574.3049999995986,7.291306e-06
574.3199999995986,2.435318e-05,574.3199999995986,2.726659e-05,574.3199999995986,7.042711e-05,574.3199999995986,7.30096e-06
574.3349999995986,2.579969e-05,574.3349999995986,2.469438e-05,574.3349999995986,5.078376e-05,574.3349999995986,7.188182e-06
574.3499999995986,2.594072e-05,574.3499999995986,2.444383e-05,574.3499999995986,2.856743e-05,574.3499999995986,7.238955e-06
574.3649999995986,2.690095e-05,574.3649999995986,2.451289e-05,574.3649999995986,2.548878e-05,574.3649999995986,7.248678e-06
574.3799999995986,2.685116e-05,574.3799999995986,2.45743e-05,574.3799999995986,2.328511e-05,574.3799999995986,7.197973e-06
574.3949999995986,2.730015e-05,574.3949999995986,2.503037e-05,574.3949999995986,2.33799e-05,574.3949999995986,7.24479e-06
574.4099999995985,2.70206e-05,574.4099999995985,2.371906e-05,574.4099999995985,2.27056e-05,574.4099999995985,7.935205e-06
574.4249999995985,2.753546e-05,574.4249999995985,2.367329e-05,574.4249999995985,2.4047e-05,574.4249999995985,8.070739e-06
574.4399999995985,2.775e-05,574.4399999995985,2.205925e-05,574.4399999995985,2.635019e-05,574.4399999995985,8.026986e-06
574.4549999995985,2.781693e-05,574.4549999995985,1.976206e-05,574.4549999995985,2.57691e-05,574.4549999995985,8.265616e-06
574.4699999995985,2.749758e-05,574.4699999995985,2.105555e-05,574.4699999995985,2.558256e-05,574.4699999995985,8.128133e-06
574.4849999995985,2.664418e-05,574.4849999995985,1.876461e-05,574.4849999995985,2.535302e-05,574.4849999995985,8.297934e-06
574.4999999995985,2.53669e-05,574.4999999995985,2.002548e-05,574.4999999995985,2.523048e-05,574.4999999995985,7.811755e-06
574.5149999995984,2.185008e-05,574.5149999995984,2.725936e-05,574.5149999995984,2.539299e-05,574.5149999995984,7.607108e-06
574.5299999995984,2.271987e-05,574.5299999995984,2.886177e-05,574.5299999995984,2.542625e-05,574.5299999995984,7.579281e-06
574.5449999995984,2.34839e-05,574.5449999995984,2.87341e-05,574.5449999995984,2.551474e-05,574.5449999995984,7.719241e-06
574.5599999995984,2.318994e-05,574.5599999995984,2.994733e-05,574.5599999995984,2.557154e-05,574.5599999995984,7.938755e-06
574.5749999995984,2.181524e-05,574.5749999995984,3.096216e-05,574.5749999995984,2.585314e-05,574.5749999995984,8.589881e-06
574.5899999995984,2.114701e-05,574.5899999995984,3.380277e-05,574.5899999995984,2.550535e-05,574.5899999995984,8.702299e-06
574.6049999995984,2.096974e-05,574.6049999995984,3.648009e-05,574.6049999995984,2.726866e-05,574.6049999995984,9.210321e-06
574.6199999995983,1.968636e-05,574.6199999995983,3.783986e-05,574.6199999995983,2.844834e-05,574.6199999995983,9.243908e-06
