X[s],a: EMG RMS 1-1,X[s].1,a: EMG RMS 1-2,X[s].2,a: EMG RMS 1-3,X[s].3,a: EMG RMS 1-4
400.0049999997571,9.306177e-06,400.0049999997571,8.078415e-05,400.0049999997571,5.475077e-06,400.0049999997571,3.28916e-06
400.0199999997571,8.984247e-06,400.0199999997571,8.072554e-05,400.0199999997571,5.48022e-06,400.0199999997571,3.314757e-06
400.0349999997571,8.454338e-06,400.0349999997571,7.903454e-05,400.0349999997571,5.629835e-06,400.0349999997571,3.284874e-06
400.04999999975706,8.419275e-06,400.04999999975706,7.243235e-05,400.04999999975706,6.351713e-06,400.04999999975706,3.419349e-06
400.06499999975705,7.451826e-06,400.06499999975705,4.486507e-05,400.06499999975705,9.101082e-06,400.06499999975705,3.54476e-06
400.07999999975704,7.515824e-06,400.07999999975704,3.557929e-05,400.07999999975704,9.227129e-06,400.07999999975704,3.443979e-06
400.094999999757,7.322153e-06,400.094999999757,2.002266e-05,400.094999999757,9.791525e-06,400.094999999757,3.386231e-06
400.109999999757,6.749543e-06,400.109999999757,1.95924e-05,400.109999999757,1.111486e-05,400.109999999757,3.464369e-06
400.124999999757,8.321666e-06,400.124999999757,2.061541e-05,400.124999999757,1.141498e-05,400.124999999757,3.452149e-06
400.139999999757,8.673113e-06,400.139999999757,1.91407e-05,400.139999999757,1.156943e-05,400.139999999757,3.711708e-06
400.15499999975697,9.048304e-06,400.15499999975697,1.790803e-05,400.15499999975697,1.188415e-05,400.15499999975697,3.853228e-06
400.16999999975695,9.481625e-06,400.16999999975695,1.833787e-05,400.16999999975695,1.234006e-05,400.16999999975695,3.979125e-06
400.18499999975694,1.096815e-05,400.18499999975694,1.826089e-05,400.18499999975694,1.546674e-05,400.18499999975694,4.000309e-06
400.1999999997569,1.280724e-05,400.1999999997569,1.787496e-05,400.1999999997569,2.624145e-05,400.1999999997569,4.042345e-06
400.2149999997569,1.355116e-05,400.2149999997569,1.823155e-05,400.2149999997569,3.093712e-05,400.2149999997569,4.031877e-06
400.2299999997569,1.440866e-05,400.2299999997569,1.891118e-05,400.2299999997569,3.139005e-05,400.2299999997569,4.01437e-06
400.2449999997569,1.461638e-05,400.2449999997569,1.994865e-05,400.2449999997569,3.640278e-05,400.2449999997569,3.996786e-06
400.2599999997569,1.517806e-05,400.2599999997569,2.174474e-05,400.2599999997569,3.994071e-05,400.2599999997569,3.820184e-06
400.27499999975686,1.535706e-05,400.27499999975686,2.181136e-05,400.27499999975686,4.066423e-05,400.27499999975686,3.842245e-06
400.28999999975684,1.549313e-05,400.28999999975684,2.22443e-05,400.28999999975684,4.066769e-05,400.28999999975684,3.950702e-06
400.30499999975683,1.589258e-05,400.30499999975683,2.2375e-05,400.30499999975683,4.050317e-05,400.30499999975683,4.077044e-06
400.3199999997568,1.679499e-05,400.3199999997568,2.177128e-05,400.3199999997568,4.052994e-05,400.3199999997568,4.575239e-06
400.3349999997568,1.676897e-05,400.3349999997568,2.121551e-05,400.3349999997568,4.089326e-05,400.3349999997568,4.651575e-06
400.3499999997568,1.910166e-05,400.3499999997568,2.050304e-05,400.3499999997568,4.089498e-05,400.3499999997568,4.925167e-06
400.3649999997568,1.885747e-05,400.3649999997568,1.852511e-05,400.3649999997568,4.075454e-05,400.3649999997568,5.055022e-06
400.37999999975676,2.035687e-05,400.37999999975676,1.805921e-05,400.37999999975676,4.176176e-05,400.37999999975676,5.099414e-06
400.39499999975675,2.085725e-05,400.39499999975675,1.811839e-05,400.39499999975675,4.734212e-05,400.39499999975675,5.22494e-06
400.40999999975674,2.274404e-05,400.40999999975674,1.783077e-05,400.40999999975674,5.119209e-05,400.40999999975674,5.469929e-06
400.4249999997567,2.289958e-05,400.4249999997567,1.751513e-05,400.4249999997567,5.19235e-05,400.4249999997567,5.541568e-06
400.4399999997567,2.203497e-05,400.4399999997567,1.780073e-05,400.4399999997567,5.587817e-05,400.4399999997567,5.544109e-06
400.4549999997567,2.223226e-05,400.4549999997567,1.779994e-05,400.4549999997567,6.056148e-05,400.4549999997567,5.536481e-06
400.4699999997567,2.167076e-05,400.4699999997567,1.699344e-05,400.4699999997567,6.25328e-05,400.4699999997567,5.490492e-06
400.48499999975667,2.17415e-05,400.48499999975667,1.679164e-05,400.48499999975667,6.237288e-05,400.48499999975667,5.634837e-06
400.49999999975665,2.172465e-05,400.49999999975665,1.573491e-05,400.49999999975665,6.155195e-05,400.49999999975665,5.901041e-06
400.51499999975664,2.154886e-05,400.51499999975664,1.583131e-05,400.51499999975664,6.259652e-05,400.51499999975664,5.979298e-06
400.5299999997566,2.16037e-05,400.5299999997566,1.769039e-05,400.5299999997566,6.279446e-05,400.5299999997566,6.028569e-06
400.5449999997566,2.156912e-05,400.5449999997566,1.897884e-05,400.5449999997566,6.298105e-05,400.5449999997566,5.872325e-06
400.5599999997566,2.112568e-05,400.5599999997566,1.876536e-05,400.5599999997566,6.301638e-05,400.5599999997566,5.743781e-06
400.5749999997566,2.081331e-05,400.5749999997566,1.92398e-05,400.5749999997566,6.315349e-05,400.5749999997566,5.399948e-06
400.58999999975657,2.003392e-05,400.58999999975657,1.917379e-05,400.58999999975657,6.345656e-05,400.58999999975657,5.436346e-06
400.60499999975656,2.003602e-05,400.60499999975656,1.88358e-05,400.60499999975656,6.328206e-05,400.60499999975656,5.360675e-06
400.61999999975654,1.97991e-05,400.61999999975654,1.889553e-05,400.61999999975654,6.325667e-05,400.61999999975654,5.254512e-06
400.63499999975653,1.851903e-05,400.63499999975653,1.870747e-05,400.63499999975653,6.18936e-05,400.63499999975653,5.060592e-06
400.6499999997565,1.711157e-05,400.6499999997565,1.83655e-05,400.6499999997565,5.627808e-05,400.6499999997565,4.876302e-06
400.6649999997565,1.533227e-05,400.6649999997565,1.841605e-05,400.6649999997565,5.338582e-05,400.6649999997565,4.453544e-06
400.6799999997565,1.494612e-05,400.6799999997565,1.884103e-05,400.6799999997565,5.232402e-05,400.6799999997565,4.431347e-06
400.6949999997565,1.536623e-05,400.6949999997565,1.923907e-05,400.6949999997565,4.4449e-05,400.6949999997565,4.35115e-06
400.70999999975646,1.589524e-05,400.70999999975646,1.97321e-05,400.70999999975646,3.393379e-05,400.70999999975646,4.360851e-06
400.72499999975645,1.538455e-05,400.72499999975645,2.233152e-05,400.72499999975645,2.754058e-05,400.72499999975645,4.550541e-06
400.73999999975644,1.559192e-05,400.73999999975644,2.276323e-05,400.73999999975644,2.737229e-05,400.73999999975644,4.39624e-06
400.7549999997564,1.689618e-05,400.7549999997564,2.249493e-05,400.7549999997564,2.141246e-05,400.7549999997564,4.38019e-06
400.7699999997564,1.772539e-05,400.7699999997564,2.497064e-05,400.7699999997564,1.607677e-05,400.7699999997564,4.305587e-06
400.7849999997564,1.810906e-05,400.7849999997564,2.492886e-05,400.7849999997564,1.614409e-05,400.7849999997564,4.325173e-06
400.7999999997564,1.966345e-05,400.7999999997564,2.46824e-05,400.7999999997564,1.548767e-05,400.7999999997564,4.312125e-06
400.81499999975637,1.959096e-05,400.81499999975637,2.978508e-05,400.81499999975637,1.513624e-05,400.81499999975637,4.602866e-06
400.82999999975635,1.984884e-05,400.82999999975635,4.116757e-05,400.82999999975635,1.361029e-05,400.82999999975635,4.52882e-06
400.84499999975634,1.921416e-05,400.84499999975634,4.19136e-05,400.84499999975634,1.310837e-05,400.84499999975634,4.412233e-06
400.8599999997563,1.875034e-05,400.8599999997563,4.272612e-05,400.8599999997563,1.30048e-05,400.8599999997563,4.48192e-06
400.8749999997563,1.838849e-05,400.8749999997563,4.273469e-05,400.8749999997563,1.292766e-05,400.8749999997563,4.497608e-06
400.8899999997563,1.859191e-05,400.8899999997563,4.486664e-05,400.8899999997563,1.377182e-05,400.8899999997563,4.513241e-06
400.9049999997563,1.897736e-05,400.9049999997563,4.614755e-05,400.9049999997563,1.409734e-05,400.9049999997563,4.615091e-06
400.91999999975627,1.942923e-05,400.91999999975627,4.803275e-05,400.91999999975627,1.372058e-05,400.91999999975627,5.015856e-06
400.93499999975626,1.878112e-05,400.93499999975626,4.885278e-05,400.93499999975626,1.38351e-05,400.93499999975626,5.02147e-06
400.94999999975624,1.843364e-05,400.94999999975624,4.888334e-05,400.94999999975624,1.410833e-05,400.94999999975624,5.085583e-06
400.96499999975623,1.844968e-05,400.96499999975623,4.978534e-05,400.96499999975623,1.620419e-05,400.96499999975623,4.993339e-06
400.9799999997562,1.906549e-05,400.9799999997562,4.975846e-05,400.9799999997562,1.69195e-05,400.9799999997562,4.907976e-06
400.9949999997562,1.902259e-05,400.9949999997562,4.964281e-05,400.9949999997562,1.68126e-05,400.9949999997562,4.675739e-06
401.0099999997562,1.793082e-05,401.0099999997562,4.888996e-05,401.0099999997562,1.795202e-05,401.0099999997562,4.497608e-06
401.0249999997562,1.729336e-05,401.0249999997562,4.734241e-05,401.0249999997562,1.879837e-05,401.0249999997562,4.424985e-06
401.03999999975616,1.656528e-05,401.03999999975616,4.683896e-05,401.03999999975616,1.85866e-05,401.03999999975616,4.409039e-06
401.05499999975615,1.574834e-05,401.05499999975615,4.680677e-05,401.05499999975615,2.006132e-05,401.05499999975615,4.145571e-06
401.06999999975613,1.605134e-05,401.06999999975613,3.968597e-05,401.06999999975613,2.087008e-05,401.06999999975613,4.094283e-06
401.0849999997561,1.522995e-05,401.0849999997561,3.240534e-05,401.0849999997561,2.082481e-05,401.0849999997561,4.05626e-06
401.0999999997561,1.498096e-05,401.0999999997561,3.207414e-05,401.0999999997561,2.027991e-05,401.0999999997561,3.979125e-06
401.1149999997561,1.434596e-05,401.1149999997561,3.269357e-05,401.1149999997561,2.027435e-05,401.1149999997561,3.723076e-06
401.1299999997561,1.409234e-05,401.1299999997561,3.247221e-05,401.1299999997561,1.996842e-05,401.1299999997561,3.70411e-06
401.14499999975607,1.390011e-05,401.14499999975607,2.812364e-05,401.14499999975607,1.932309e-05,401.14499999975607,3.677393e-06
401.15999999975605,1.272669e-05,401.15999999975605,2.692817e-05,401.15999999975605,1.892979e-05,401.15999999975605,3.394541e-06
401.17499999975604,1.240382e-05,401.17499999975604,2.34827e-05,401.17499999975604,1.861387e-05,401.17499999975604,3.01662e-06
401.189999999756,1.20021e-05,401.189999999756,2.198569e-05,401.189999999756,1.843134e-05,401.189999999756,3.039879e-06
401.204999999756,1.26512e-05,401.204999999756,2.161479e-05,401.204999999756,1.78031e-05,401.204999999756,2.931361e-06
401.219999999756,1.151206e-05,401.219999999756,1.972925e-05,401.219999999756,1.603553e-05,401.219999999756,2.916909e-06
401.234999999756,1.128342e-05,401.234999999756,1.792768e-05,401.234999999756,1.588549e-05,401.234999999756,2.873116e-06
401.24999999975597,1.113133e-05,401.24999999975597,1.807246e-05,401.24999999975597,1.595274e-05,401.24999999975597,2.945742e-06
401.26499999975596,1.108568e-05,401.26499999975596,1.914364e-05,401.26499999975596,1.378103e-05,401.26499999975596,3.01662e-06
401.27999999975594,1.098227e-05,401.27999999975594,1.9081e-05,401.27999999975594,1.270897e-05,401.27999999975594,3.044509e-06
401.29499999975593,1.012536e-05,401.29499999975593,1.802251e-05,401.29499999975593,1.214677e-05,401.29499999975593,3.090432e-06
401.3099999997559,1.043909e-05,401.3099999997559,1.777142e-05,401.3099999997559,9.017113e-06,401.3099999997559,3.36955e-06
401.3249999997559,1.120826e-05,401.3249999997559,1.71814e-05,401.3249999997559,7.755652e-06,401.3249999997559,3.382069e-06
401.3399999997559,1.21711e-05,401.3399999997559,1.702905e-05,401.3399999997559,8.277538e-06,401.3399999997559,3.685046e-06
401.3549999997559,1.279183e-05,401.3549999997559,1.589702e-05,401.3549999997559,8.489256e-06,401.3549999997559,3.753223e-06
401.36999999975586,1.303401e-05,401.36999999975586,1.462313e-05,401.36999999975586,8.286042e-06,401.36999999975586,3.707911e-06
401.38499999975585,1.318445e-05,401.38499999975585,1.47134e-05,401.38499999975585,8.668239e-06,401.38499999975585,3.711708e-06
401.39999999975583,1.357713e-05,401.39999999975583,1.478122e-05,401.39999999975583,8.888089e-06,401.39999999975583,3.786851e-06
401.4149999997558,1.36475e-05,401.4149999997558,1.499881e-05,401.4149999997558,9.013988e-06,401.4149999997558,3.932833e-06
401.4299999997558,1.376671e-05,401.4299999997558,1.50354e-05,401.4299999997558,9.287995e-06,401.4299999997558,4.003829e-06
401.4449999997558,1.374315e-05,401.4449999997558,1.348969e-05,401.4449999997558,1.100917e-05,401.4449999997558,4.017877e-06
401.4599999997558,1.290148e-05,401.4599999997558,1.309869e-05,401.4599999997558,1.450027e-05,401.4599999997558,4.028382e-06
401.47499999975577,1.259764e-05,401.47499999975577,1.211192e-05,401.47499999975577,1.712145e-05,401.47499999975577,4.114875e-06
401.48999999975575,1.281274e-05,401.48999999975575,1.312555e-05,401.48999999975575,2.594343e-05,401.48999999975575,4.196231e-06
401.50499999975574,1.276317e-05,401.50499999975574,1.299179e-05,401.50499999975574,7.402494e-05,401.50499999975574,4.148967e-06
401.5199999997557,1.27278e-05,401.5199999997557,1.208398e-05,401.5199999997557,0.0002003663,401.5199999997557,4.453544e-06
401.5349999997557,1.243784e-05,401.5349999997557,1.226219e-05,401.5349999997557,0.001049875,401.5349999997557,4.708762e-06
401.5499999997557,1.255396e-05,401.5499999997557,1.305992e-05,401.5499999997557,0.001278685,401.5499999997557,6.924671e-06
401.5649999997557,1.184378e-05,401.5649999997557,1.540834e-05,401.5649999997557,0.001601533,401.5649999997557,7.717415e-06
401.57999999975567,1.02498e-05,401.57999999975567,2.369827e-05,401.57999999975567,0.001679141,401.57999999975567,7.878193e-06
401.59499999975566,9.330365e-06,401.59499999975566,2.706904e-05,401.59499999975566,0.001690268,401.59499999975566,8.154087e-06
401.60999999975564,8.669864e-06,401.60999999975564,2.717033e-05,401.60999999975564,0.001713859,401.60999999975564,8.517419e-06
401.62499999975563,8.43599e-06,401.62499999975563,2.793568e-05,401.62499999975563,0.001720494,401.62499999975563,8.713623e-06
401.6399999997556,8.343643e-06,401.6399999997556,2.93645e-05,401.6399999997556,0.001721816,401.6399999997556,8.734614e-06
401.6549999997556,8.637307e-06,401.6549999997556,3.19875e-05,401.6549999997556,0.001722105,401.6549999997556,8.721702e-06
401.6699999997556,9.823125e-06,401.6699999997556,3.47922e-05,401.6699999997556,0.001722383,401.6699999997556,8.629149e-06
401.6849999997556,1.021401e-05,401.6849999997556,3.761097e-05,401.6849999997556,0.001722735,401.6849999997556,8.629149e-06
401.69999999975556,1.025118e-05,401.69999999975556,3.854617e-05,401.69999999975556,0.001726144,401.69999999975556,8.677985e-06
401.71499999975555,1.122333e-05,401.71499999975555,4.779756e-05,401.71499999975555,0.001739184,401.71499999975555,8.664989e-06
401.72999999975553,1.350848e-05,401.72999999975553,5.460727e-05,401.72999999975553,0.001741251,401.72999999975553,8.716856e-06
401.7449999997555,1.552583e-05,401.7449999997555,5.762976e-05,401.7449999997555,0.001761538,401.7449999997555,8.699061e-06
401.7599999997555,1.572865e-05,401.7599999997555,5.829156e-05,401.7599999997555,0.001768324,401.7599999997555,9.017113e-06
401.7749999997555,1.747648e-05,401.7749999997555,7.66178e-05,401.7749999997555,0.001820943,401.7749999997555,9.007736e-06
401.7899999997555,1.885299e-05,401.7899999997555,8.27335e-05,401.7899999997555,0.001578572,401.7899999997555,8.687718e-06
401.80499999975547,1.879912e-05,401.80499999975547,8.305468e-05,401.80499999975547,0.001746943,401.80499999975547,7.293238e-06
401.81999999975545,1.898181e-05,401.81999999975545,8.393939e-05,401.81999999975545,0.00171072,401.81999999975545,6.703471e-06
401.83499999975544,1.92581e-05,401.83499999975544,8.168276e-05,401.83499999975544,0.001676809,401.83499999975544,6.580461e-06
401.8499999997554,1.935877e-05,401.8499999997554,8.127475e-05,401.8499999997554,0.001683705,401.8499999997554,6.533196e-06
401.8649999997554,1.949437e-05,401.8649999997554,8.126573e-05,401.8649999997554,0.001685015,401.8649999997554,6.049562e-06
401.8799999997554,1.946038e-05,401.8799999997554,8.108908e-05,401.8799999997554,0.001684645,401.8799999997554,5.884307e-06
401.8949999997554,1.965629e-05,401.8949999997554,8.074351e-05,401.8949999997554,0.001684435,401.8949999997554,5.853103e-06
401.90999999975537,1.916424e-05,401.90999999975537,7.97533e-05,401.90999999975537,0.001684249,401.90999999975537,5.812045e-06
401.92499999975536,1.84237e-05,401.92499999975536,7.794605e-05,401.92499999975536,0.001684136,401.92499999975536,5.862722e-06
401.93999999975534,1.831327e-05,401.93999999975534,7.635148e-05,401.93999999975534,0.001683638,401.93999999975534,5.790191e-06
401.95499999975533,1.802407e-05,401.95499999975533,7.522699e-05,401.95499999975533,0.001677933,401.95499999975533,5.862722e-06
401.9699999997553,1.7723e-05,401.9699999997553,6.968877e-05,401.9699999997553,0.001665414,401.9699999997553,5.770695e-06
401.9849999997553,1.519661e-05,401.9849999997553,6.381495e-05,401.9849999997553,0.001662801,401.9849999997553,5.709342e-06
401.9999999997553,1.354388e-05,401.9999999997553,6.128635e-05,401.9999999997553,0.001641033,401.9999999997553,5.664756e-06
402.0149999997553,1.325265e-05,402.0149999997553,5.783034e-05,402.0149999997553,0.001635629,402.0149999997553,5.057808e-06
402.02999999975526,1.061572e-05,402.02999999975526,2.899034e-05,402.02999999975526,0.001416804,402.02999999975526,4.887844e-06
402.04499999975525,9.413036e-06,402.04499999975525,2.168181e-05,402.04499999975525,0.001167805,402.04499999975525,4.299038e-06
402.05999999975523,9.529049e-06,402.05999999975523,1.876837e-05,402.05999999975523,0.0006567463,402.05999999975523,3.8751e-06
402.0749999997552,9.398059e-06,402.0749999997552,1.461638e-05,402.0749999997552,0.0003008355,402.0749999997552,3.889614e-06
402.0899999997552,9.028043e-06,402.0899999997552,1.415518e-05,402.0899999997552,0.0002815022,402.0899999997552,3.950702e-06
402.1049999997552,9.730914e-06,402.1049999997552,1.45226e-05,402.1049999997552,0.0002017597,402.1049999997552,3.771943e-06
402.1199999997552,9.713527e-06,402.1199999997552,1.454683e-05,402.1199999997552,0.0001496059,402.1199999997552,3.715501e-06
402.13499999975517,9.893143e-06,402.13499999975517,1.429185e-05,402.13499999975517,0.0001371017,402.13499999975517,3.775675e-06
402.14999999975515,9.589467e-06,402.14999999975515,1.433712e-05,402.14999999975515,0.0001361612,402.14999999975515,4.003829e-06
402.16499999975514,9.558568e-06,402.16499999975514,1.455747e-05,402.16499999975514,0.0001361219,402.16499999975514,3.996786e-06
402.1799999997551,1.01933e-05,402.1799999997551,1.569099e-05,402.1799999997551,0.000135633,402.1799999997551,4.182782e-06
402.1949999997551,1.004294e-05,402.1949999997551,1.782287e-05,402.1949999997551,0.0001345382,402.1949999997551,4.239647e-06
402.2099999997551,1.028274e-05,402.2099999997551,1.778331e-05,402.2099999997551,0.0001309447,402.2099999997551,4.152361e-06
402.2249999997551,1.087269e-05,402.2249999997551,1.744017e-05,402.2249999997551,0.0001260021,402.2249999997551,4.169289e-06
402.23999999975507,1.084545e-05,402.23999999975507,1.747487e-05,402.23999999975507,0.0001140415,402.23999999975507,4.179412e-06
402.25499999975506,1.097328e-05,402.25499999975506,1.719042e-05,402.25499999975506,6.74706e-05,402.25499999975506,4.279333e-06
402.26999999975504,1.103218e-05,402.26999999975504,1.924346e-05,402.26999999975504,5.908842e-05,402.26999999975504,4.142171e-06
402.28499999975503,1.085324e-05,402.28499999975503,2.003321e-05,402.28499999975503,5.413912e-05,402.28499999975503,4.282623e-06
402.299999999755,1.068845e-05,402.299999999755,1.977703e-05,402.299999999755,4.14659e-05,402.299999999755,4.252917e-06
402.314999999755,1.047681e-05,402.314999999755,1.957154e-05,402.314999999755,2.690147e-05,402.314999999755,4.219664e-06
402.329999999755,1.03904e-05,402.329999999755,1.921416e-05,402.329999999755,2.159262e-05,402.329999999755,4.262842e-06
402.344999999755,1.010865e-05,402.344999999755,1.854487e-05,402.344999999755,2.145321e-05,402.344999999755,4.145571e-06
402.35999999975496,1.002328e-05,402.35999999975496,1.864789e-05,402.35999999975496,2.09986e-05,402.35999999975496,4.087396e-06
402.37499999975495,1.034147e-05,402.37499999975495,1.902555e-05,402.37499999975495,2.011041e-05,402.37499999975495,4.172666e-06
402.38999999975493,1.008354e-05,402.38999999975493,1.924785e-05,402.38999999975493,1.93085e-05,402.38999999975493,4.114875e-06
402.4049999997549,1.015731e-05,402.4049999997549,1.915247e-05,402.4049999997549,1.940239e-05,402.4049999997549,3.922073e-06
402.4199999997549,1.009889e-05,402.4199999997549,1.940601e-05,402.4199999997549,1.907435e-05,402.4199999997549,3.834905e-06
402.4349999997549,9.360511e-06,402.4349999997549,1.771664e-05,402.4349999997549,1.691034e-05,402.4349999997549,3.749468e-06
402.4499999997549,9.208791e-06,402.4499999997549,1.715843e-05,402.4499999997549,1.417308e-05,402.4499999997549,3.631134e-06
402.46499999975487,8.566891e-06,402.46499999975487,1.709263e-05,402.46499999975487,1.243671e-05,402.46499999975487,3.685046e-06
402.47999999975485,8.183403e-06,402.47999999975485,1.771823e-05,402.47999999975485,9.484596e-06,402.47999999975485,3.603876e-06
402.49499999975484,7.974164e-06,402.49499999975484,1.707531e-05,402.49499999975484,1.118309e-05,402.49499999975484,3.627253e-06
402.5099999997548,8.532291e-06,402.5099999997548,1.709345e-05,402.5099999997548,1.324946e-05,402.5099999997548,3.638885e-06
402.5249999997548,8.424293e-06,402.5249999997548,1.456521e-05,402.5249999997548,1.341954e-05,402.5249999997548,3.669723e-06
402.5399999997548,8.482616e-06,402.5399999997548,1.407133e-05,402.5399999997548,1.324521e-05,402.5399999997548,3.611685e-06
402.5549999997548,8.718472e-06,402.5549999997548,1.450221e-05,402.5549999997548,1.326646e-05,402.5549999997548,3.556662e-06
402.56999999975477,8.949686e-06,402.56999999975477,1.548313e-05,402.56999999975477,1.339853e-05,402.56999999975477,3.415227e-06
402.58499999975476,9.292544e-06,402.58499999975476,1.601707e-05,402.58499999975476,1.509057e-05,402.58499999975476,3.726858e-06
402.59999999975474,9.480139e-06,402.59999999975474,2.588799e-05,402.59999999975474,1.689367e-05,402.59999999975474,4.553636e-06
402.61499999975473,8.927624e-06,402.61499999975473,2.864474e-05,402.61499999975473,1.931652e-05,402.61499999975473,5.085583e-06
402.6299999997547,9.026482e-06,402.6299999997547,3.369508e-05,402.6299999997547,2.100196e-05,402.6299999997547,5.379038e-06
402.6449999997547,9.094889e-06,402.6449999997547,4.272843e-05,402.6449999997547,2.1155e-05,402.6449999997547,6.151165e-06
402.6599999997547,1.007655e-05,402.6599999997547,5.145914e-05,402.6599999997547,2.13624e-05,402.6599999997547,6.384893e-06
402.6749999997547,1.027314e-05,402.6749999997547,5.263673e-05,402.6749999997547,2.255059e-05,402.6749999997547,7.242846e-06
402.68999999975466,1.275433e-05,402.68999999975466,6.457027e-05,402.68999999975466,2.765288e-05,402.68999999975466,8.449338e-06
402.70499999975465,1.347297e-05,402.70499999975465,7.360893e-05,402.70499999975465,2.788976e-05,402.70499999975465,8.673113e-06
402.71999999975463,1.349074e-05,402.71999999975463,7.39444e-05,402.71999999975463,2.813366e-05,402.71999999975463,8.861105e-06
402.7349999997546,1.335747e-05,402.7349999997546,7.401752e-05,402.7349999997546,2.805242e-05,402.7349999997546,9.097987e-06
402.7499999997546,1.330146e-05,402.7499999997546,7.396669e-05,402.7499999997546,2.726452e-05,402.7499999997546,9.136613e-06
402.7649999997546,1.292221e-05,402.7649999997546,7.390648e-05,402.7649999997546,2.712467e-05,402.7649999997546,9.077836e-06
402.7799999997546,1.282592e-05,402.7799999997546,7.402285e-05,402.7799999997546,5.590312e-05,402.7799999997546,9.105725e-06
402.79499999975457,1.268567e-05,402.79499999975457,7.418766e-05,402.79499999975457,0.0001747756,402.79499999975457,9.077836e-06
402.80999999975455,1.269122e-05,402.80999999975455,7.426547e-05,402.80999999975455,0.0003420069,402.80999999975455,9.231709e-06
402.82499999975454,1.298854e-05,402.82499999975454,7.50457e-05,402.82499999975454,0.0004788464,402.82499999975454,9.260655e-06
402.8399999997545,1.275102e-05,402.8399999997545,7.559946e-05,402.8399999997545,0.0005276186,402.8399999997545,8.999913e-06
402.8549999997545,1.281274e-05,402.8549999997545,7.338103e-05,402.8549999997545,0.0006452711,402.8549999997545,8.68934e-06
402.8699999997545,1.273444e-05,402.8699999997545,7.157309e-05,402.8699999997545,0.0006636399,402.8699999997545,8.41258e-06
402.8849999997545,1.290694e-05,402.8849999997545,7.079996e-05,402.8849999997545,0.0006735424,402.8849999997545,8.195444e-06
402.89999999975447,1.262222e-05,402.89999999975447,6.354818e-05,402.89999999975447,0.0006867389,402.89999999975447,7.569982e-06
402.91499999975446,1.198801e-05,402.91499999975446,5.745374e-05,402.91499999975446,0.0007114551,402.91499999975446,7.42721e-06
402.92999999975444,1.115661e-05,402.92999999975444,5.608702e-05,402.92999999975444,0.0007284019,402.92999999975444,6.446372e-06
402.94499999975443,9.457824e-06,402.94499999975443,3.749167e-05,402.94499999975443,0.0007306918,402.94499999975443,4.942298e-06
402.9599999997544,9.268258e-06,402.9599999997544,3.104939e-05,402.9599999997544,0.0007376329,402.9599999997544,4.780021e-06
402.9749999997544,9.343943e-06,402.9749999997544,3.185777e-05,402.9749999997544,0.0007498272,402.9749999997544,4.266145e-06
402.9899999997544,9.41902e-06,402.9899999997544,3.205261e-05,402.9899999997544,0.0007569605,402.9899999997544,4.028382e-06
403.0049999997544,9.38606e-06,403.0049999997544,3.233135e-05,403.0049999997544,0.0007578065,403.0049999997544,3.996786e-06
403.01999999975436,9.568879e-06,403.01999999975436,3.411595e-05,403.01999999975436,0.0007584454,403.01999999975436,4.20294e-06
403.03499999975435,9.981033e-06,403.03499999975435,3.915135e-05,403.03499999975435,0.0007542706,403.03499999975435,4.077044e-06
403.04999999975433,1.018501e-05,403.04999999975433,3.907824e-05,403.04999999975433,0.0007339219,403.04999999975433,3.889614e-06
403.0649999997543,9.72657e-06,403.0649999997543,3.906779e-05,403.0649999997543,0.0006337775,403.0649999997543,3.842245e-06
403.0799999997543,9.390561e-06,403.0799999997543,3.651869e-05,403.0799999997543,0.0005794833,403.0799999997543,3.853228e-06
403.0949999997543,9.518695e-06,403.0949999997543,3.52751e-05,403.0949999997543,0.0005040199,403.0949999997543,3.90768e-06
403.1099999997543,9.389061e-06,403.1099999997543,3.518994e-05,403.1099999997543,0.0003982621,403.1099999997543,3.979125e-06
403.12499999975427,9.038959e-06,403.12499999975427,3.438944e-05,403.12499999975427,0.0003836975,403.12499999975427,3.756974e-06
403.13999999975425,8.755555e-06,403.13999999975425,3.259e-05,403.13999999975425,0.0003740072,403.13999999975425,3.658189e-06
403.15499999975424,8.449338e-06,403.15499999975424,3.087422e-05,403.15499999975424,0.0003511731,403.15499999975424,3.658189e-06
403.1699999997542,8.402527e-06,403.1699999997542,3.167196e-05,403.1699999997542,0.0002972708,403.1699999997542,3.654337e-06
403.1849999997542,8.632413e-06,403.1849999997542,3.228514e-05,403.1849999997542,0.0002536743,403.1849999997542,3.700305e-06
403.1999999997542,8.474309e-06,403.1999999997542,3.229473e-05,403.1999999997542,0.0002494115,403.1999999997542,3.646619e-06
403.2149999997542,8.248557e-06,403.2149999997542,3.320998e-05,403.2149999997542,0.0002290105,403.2149999997542,3.775675e-06
403.22999999975417,8.835633e-06,403.22999999975417,3.473668e-05,403.22999999975417,0.0001947576,403.22999999975417,3.794284e-06
403.24499999975416,9.018676e-06,403.24499999975416,3.489165e-05,403.24499999975416,0.0001756411,403.24499999975416,3.78313e-06
403.25999999975414,9.324323e-06,403.25999999975414,3.45798e-05,403.25999999975414,0.000174159,403.25999999975414,3.70411e-06
403.27499999975413,9.056085e-06,403.27499999975413,3.087924e-05,403.27499999975413,0.000170978,403.27499999975413,3.611685e-06
403.2899999997541,8.752336e-06,403.2899999997541,2.582534e-05,403.2899999997541,0.0001685996,403.2899999997541,3.775675e-06
403.3049999997541,8.68934e-06,403.3049999997541,2.675814e-05,403.3049999997541,0.0001661702,403.3049999997541,3.768206e-06
403.3199999997541,8.5866e-06,403.3199999997541,2.754416e-05,403.3199999997541,0.0001479048,403.3199999997541,3.681221e-06
403.3349999997541,8.384065e-06,403.3349999997541,2.685168e-05,403.3349999997541,0.0001302285,403.3349999997541,3.568524e-06
403.34999999975406,8.404203e-06,403.34999999975406,2.652124e-05,403.34999999975406,0.0001225886,403.34999999975406,3.528828e-06
403.36499999975405,8.414254e-06,403.36499999975405,2.656423e-05,403.36499999975405,9.287964e-05,403.36499999975405,3.452149e-06
403.37999999975403,8.39414e-06,403.37999999975403,2.655097e-05,403.37999999975403,7.149412e-05,403.37999999975403,3.615583e-06
403.394999999754,8.607901e-06,403.394999999754,2.652177e-05,403.394999999754,7.217127e-05,403.394999999754,3.685046e-06
403.409999999754,8.702299e-06,403.409999999754,2.602854e-05,403.409999999754,7.748711e-05,403.409999999754,3.711708e-06
403.424999999754,8.470984e-06,403.424999999754,2.445881e-05,403.424999999754,7.83045e-05,403.424999999754,3.764466e-06
403.439999999754,8.58496e-06,403.439999999754,2.393721e-05,403.439999999754,7.728323e-05,403.439999999754,3.611685e-06
403.45499999975397,8.750726e-06,403.45499999975397,2.290327e-05,403.45499999975397,7.723856e-05,403.45499999975397,3.536803e-06
403.46999999975395,8.790878e-06,403.46999999975395,1.747084e-05,403.46999999975395,7.740544e-05,403.46999999975395,3.592131e-06
403.48499999975394,8.131598e-06,403.48499999975394,1.287197e-05,403.48499999975394,7.743564e-05,403.48499999975394,3.556662e-06
403.4999999997539,8.1264e-06,403.4999999997539,1.271894e-05,403.4999999997539,7.745056e-05,403.4999999997539,3.568524e-06
403.5149999997539,7.935205e-06,403.5149999997539,1.270564e-05,403.5149999997539,7.748329e-05,403.5149999997539,3.54476e-06
403.5299999997539,8.030494e-06,403.5299999997539,1.263449e-05,403.5299999997539,7.728687e-05,403.5299999997539,3.520835e-06
403.5449999997539,7.856707e-06,403.5449999997539,1.231949e-05,403.5449999997539,7.714969e-05,403.5449999997539,3.319004e-06
403.55999999975387,7.990047e-06,403.55999999975387,9.894567e-06,403.55999999975387,7.66371e-05,403.55999999975387,3.382069e-06
403.57499999975386,7.981227e-06,403.57499999975386,7.231167e-06,403.57499999975386,7.215585e-05,403.57499999975386,3.456227e-06
403.58999999975384,8.243432e-06,403.58999999975384,6.944984e-06,403.58999999975384,6.949668e-05,403.58999999975384,3.524834e-06
403.60499999975383,8.26732e-06,403.60499999975383,8.352081e-06,403.60499999975383,6.307894e-05,403.60499999975383,3.540784e-06
403.6199999997538,1.005416e-05,403.6199999997538,9.275854e-06,403.6199999997538,4.307157e-05,403.6199999997538,3.484641e-06
403.6349999997538,1.050902e-05,403.6349999997538,9.91874e-06,403.6349999997538,3.764728e-05,403.6349999997538,3.398688e-06
403.6499999997538,1.106151e-05,403.6499999997538,1.038633e-05,403.6499999997538,3.097353e-05,403.6499999997538,3.419349e-06
403.6649999997538,1.103856e-05,403.6649999997538,1.459903e-05,403.6649999997538,1.847562e-05,403.6649999997538,3.373728e-06
403.67999999975376,1.138161e-05,403.67999999975376,1.521977e-05,403.67999999975376,1.135807e-05,403.67999999975376,3.310505e-06
403.69499999975375,1.16059e-05,403.69499999975375,1.519569e-05,403.69499999975375,1.069109e-05,403.69499999975375,3.284874e-06
403.70999999975373,1.19786e-05,403.70999999975373,1.513903e-05,403.70999999975373,7.854914e-06,403.70999999975373,3.344373e-06
403.7249999997537,1.249885e-05,403.7249999997537,1.505506e-05,403.7249999997537,6.160319e-06,403.7249999997537,3.65048e-06
403.7399999997537,1.280394e-05,403.7399999997537,1.500632e-05,403.7399999997537,7.069622e-06,403.7399999997537,3.662038e-06
403.7549999997537,1.340799e-05,403.7549999997537,1.503727e-05,403.7549999997537,6.745368e-06,403.7549999997537,3.677393e-06
403.7699999997537,1.422764e-05,403.7699999997537,1.500726e-05,403.7699999997537,7.178377e-06,403.7699999997537,3.681221e-06
403.78499999975367,1.434694e-05,403.78499999975367,1.516599e-05,403.78499999975367,7.786468e-06,403.78499999975367,3.615583e-06
403.79999999975365,1.434399e-05,403.79999999975365,1.524012e-05,403.79999999975365,8.234882e-06,403.79999999975365,3.484641e-06
403.81499999975364,1.428199e-05,403.81499999975364,1.52318e-05,403.81499999975364,8.580036e-06,403.81499999975364,3.476546e-06
403.8299999997536,1.452939e-05,403.8299999997536,1.536898e-05,403.8299999997536,8.768416e-06,403.8299999997536,3.348582e-06
403.8449999997536,1.443308e-05,403.8449999997536,1.684859e-05,403.8449999997536,8.929201e-06,403.8449999997536,3.394541e-06
403.8599999997536,1.444186e-05,403.8599999997536,2.355876e-05,403.8599999997536,9.442919e-06,403.8599999997536,3.301983e-06
403.8749999997536,1.343843e-05,403.8749999997536,2.619416e-05,403.8749999997536,9.800154e-06,403.8749999997536,3.29344e-06
403.88999999975357,1.318765e-05,403.88999999975357,2.944833e-05,403.88999999975357,1.036868e-05,403.88999999975357,3.228645e-06
403.90499999975356,1.262557e-05,403.90499999975356,3.232525e-05,403.90499999975356,1.03714e-05,403.90499999975356,3.197958e-06
403.91999999975354,1.25719e-05,403.91999999975354,3.285132e-05,403.91999999975354,1.058249e-05,403.91999999975354,3.301983e-06
403.93499999975353,1.20396e-05,403.93499999975353,5.69056e-05,403.93499999975353,1.097328e-05,403.93499999975353,3.301983e-06
403.9499999997535,1.12484e-05,403.9499999997535,7.204703e-05,403.9499999997535,1.109838e-05,403.9499999997535,3.301983e-06
403.9649999997535,1.109965e-05,403.9649999997535,8.233874e-05,403.9649999997535,1.12459e-05,403.9649999997535,3.049133e-06
403.9799999997535,1.037683e-05,403.9799999997535,0.0001168462,403.9799999997535,1.157916e-05,403.9799999997535,2.868209e-06
403.9949999997535,1.081423e-05,403.9949999997535,0.0001342775,403.9949999997535,1.211774e-05,403.9949999997535,2.892662e-06
404.00999999975346,9.723673e-06,404.00999999975346,0.000136018,404.00999999975346,1.316092e-05,404.00999999975346,2.912075e-06
404.02499999975345,9.723673e-06,404.02499999975345,0.0001367366,404.02499999975345,1.249773e-05,404.02499999975345,2.940956e-06
404.03999999975343,9.637821e-06,404.03999999975343,0.0001401371,404.03999999975343,1.293202e-05,404.03999999975343,3.01662e-06
404.0549999997534,9.90595e-06,404.0549999997534,0.0001447813,404.0549999997534,1.33353e-05,404.0549999997534,3.035241e-06
404.0699999997534,1.096943e-05,404.0699999997534,0.0001462071,404.0699999997534,1.314593e-05,404.0699999997534,2.916909e-06
404.0849999997534,1.24469e-05,404.0849999997534,0.000146271,404.0849999997534,1.334058e-05,404.0849999997534,3.002579e-06
404.0999999997534,1.225414e-05,404.0999999997534,0.0001460193,404.0999999997534,1.340379e-05,404.0999999997534,3.090432e-06
404.11499999975337,1.280064e-05,404.11499999975337,0.0001449857,404.11499999975337,1.315557e-05,404.11499999975337,3.158065e-06
404.12999999975335,1.277861e-05,404.12999999975335,0.0001448485,404.12999999975335,1.310192e-05,404.12999999975335,3.237359e-06
404.14499999975334,1.280504e-05,404.14499999975334,0.0001439693,404.14499999975334,1.267012e-05,404.14499999975334,3.206755e-06
404.1599999997533,1.3103e-05,404.1599999997533,0.0001438679,404.1599999997533,1.295161e-05,404.1599999997533,3.126685e-06
404.1749999997533,1.339958e-05,404.1749999997533,0.0001421559,404.1749999997533,1.268345e-05,404.1749999997533,3.076727e-06
404.1899999997533,1.42494e-05,404.1899999997533,0.0001290399,404.1899999997533,1.243671e-05,404.1899999997533,3.276286e-06
404.2049999997533,1.553671e-05,404.2049999997533,0.0001228932,404.2049999997533,1.360511e-05,404.2049999997533,3.568524e-06
404.21999999975327,1.567212e-05,404.21999999975327,0.0001124743,404.21999999975327,1.364337e-05,404.21999999975327,3.669723e-06
404.23499999975326,1.517621e-05,404.23499999975326,7.681868e-05,404.23499999975326,1.30286e-05,404.23499999975326,3.771943e-06
404.24999999975324,1.531665e-05,404.24999999975324,5.19368e-05,404.24999999975324,1.530929e-05,404.24999999975324,3.79057e-06
404.26499999975323,1.514927e-05,404.26499999975323,4.870984e-05,404.26499999975323,1.826474e-05,404.26499999975323,3.768206e-06
404.2799999997532,1.557655e-05,404.2799999997532,4.856271e-05,404.2799999997532,2.130099e-05,404.2799999997532,3.779404e-06
404.2949999997532,1.581973e-05,404.2949999997532,3.889795e-05,404.2949999997532,4.09387e-05,404.2949999997532,3.753223e-06
404.3099999997532,1.534146e-05,404.3099999997532,2.461611e-05,404.3099999997532,5.479243e-05,404.3099999997532,3.711708e-06
404.3249999997532,1.486769e-05,404.3249999997532,1.928222e-05,404.3249999997532,5.891484e-05,404.3249999997532,3.726858e-06
404.33999999975316,1.35792e-05,404.33999999975316,1.894393e-05,404.33999999975316,7.569517e-05,404.33999999975316,3.669723e-06
404.35499999975315,1.360097e-05,404.35499999975315,1.923614e-05,404.35499999975315,8.625312e-05,404.35499999975315,3.688867e-06
404.36999999975313,1.407934e-05,404.36999999975313,1.959528e-05,404.36999999975313,8.791952e-05,404.36999999975313,3.700305e-06
404.3849999997531,1.417904e-05,404.3849999997531,1.750145e-05,404.3849999997531,8.870336e-05,404.3849999997531,3.794284e-06
404.3999999997531,1.422566e-05,404.3999999997531,1.771108e-05,404.3999999997531,9.106637e-05,404.3999999997531,3.827552e-06
404.4149999997531,1.489987e-05,404.4149999997531,1.779281e-05,404.4149999997531,9.277342e-05,404.4149999997531,3.856882e-06
404.4299999997531,1.436362e-05,404.4299999997531,1.736895e-05,404.4299999997531,9.322692e-05,404.4299999997531,3.86418e-06
404.44499999975307,1.41691e-05,404.44499999975307,1.606099e-05,404.44499999975307,9.325577e-05,404.44499999975307,3.588207e-06
404.45999999975305,1.288619e-05,404.45999999975305,1.503821e-05,404.45999999975305,9.301469e-05,404.45999999975305,3.386231e-06
404.47499999975304,1.40242e-05,404.47499999975304,1.51083e-05,404.47499999975304,9.303512e-05,404.47499999975304,3.319004e-06
404.489999999753,1.422467e-05,404.489999999753,1.50457e-05,404.489999999753,9.307721e-05,404.489999999753,3.189136e-06
404.504999999753,1.430072e-05,404.504999999753,1.509804e-05,404.504999999753,9.232807e-05,404.504999999753,3.135683e-06
404.519999999753,1.410034e-05,404.519999999753,1.505599e-05,404.519999999753,9.179435e-05,404.519999999753,3.149131e-06
404.534999999753,1.385849e-05,404.534999999753,1.33353e-05,404.534999999753,9.075741e-05,404.534999999753,3.158065e-06
404.54999999975297,1.40232e-05,404.54999999975297,1.314486e-05,404.54999999975297,7.883609e-05,404.54999999975297,3.250386e-06
404.56499999975296,1.416313e-05,404.56499999975296,1.306424e-05,404.56499999975296,7.243293e-05,404.56499999975296,3.237359e-06
404.57999999975294,1.43263e-05,404.57999999975294,1.278192e-05,404.57999999975294,6.699919e-05,404.57999999975294,3.206755e-06
404.59499999975293,1.46106e-05,404.59499999975293,1.256181e-05,404.59499999975293,4.834612e-05,404.59499999975293,3.306247e-06
404.6099999997529,1.432335e-05,404.6099999997529,1.066734e-05,404.6099999997529,2.978981e-05,404.6099999997529,3.314757e-06
404.6249999997529,1.375237e-05,404.6249999997529,7.117283e-06,404.6249999997529,2.679339e-05,404.6249999997529,3.40283e-06
404.6399999997529,1.368666e-05,404.6399999997529,7.00758e-06,404.6399999997529,2.445823e-05,404.6399999997529,3.386231e-06
404.6549999997529,1.335747e-05,404.6549999997529,6.091332e-06,404.6549999997529,1.764654e-05,404.6549999997529,3.390388e-06
404.66999999975286,1.270121e-05,404.66999999975286,6.185421e-06,404.66999999975286,9.823125e-06,404.66999999975286,3.377901e-06
404.68499999975285,1.241063e-05,404.68499999975285,7.465047e-06,404.68499999975285,7.502692e-06,404.68499999975285,3.373728e-06
404.69999999975283,1.21711e-05,404.69999999975283,7.623756e-06,404.69999999975283,7.041671e-06,404.69999999975283,3.419349e-06
404.7149999997528,1.234006e-05,404.7149999997528,7.899621e-06,404.7149999997528,6.940926e-06,404.7149999997528,3.419349e-06
404.7299999997528,1.105641e-05,404.7299999997528,1.095144e-05,404.7299999997528,6.409116e-06,404.7299999997528,3.439886e-06
404.7449999997528,1.082985e-05,404.7449999997528,1.137295e-05,404.7449999997528,5.869926e-06,404.7449999997528,3.456227e-06
404.7599999997528,1.032102e-05,404.7599999997528,1.171102e-05,404.7599999997528,5.855509e-06,404.7599999997528,3.472492e-06
404.77499999975277,1.003312e-05,404.77499999975277,1.182593e-05,404.77499999975277,6.03324e-06,404.77499999975277,3.419349e-06
404.78999999975275,9.130444e-06,404.78999999975275,1.192439e-05,404.78999999975275,5.724127e-06,404.78999999975275,3.406967e-06
404.80499999975274,9.283444e-06,404.80499999975274,1.233207e-05,404.80499999975274,5.444114e-06,404.80499999975274,3.348582e-06
404.8199999997527,9.62173e-06,404.8199999997527,1.274218e-05,404.8199999997527,5.371176e-06,404.8199999997527,3.344373e-06
404.8349999997527,9.153557e-06,404.8349999997527,1.27278e-05,404.8349999997527,5.397339e-06,404.8349999997527,3.280583e-06
404.8499999997527,9.020237e-06,404.8499999997527,1.273997e-05,404.8499999997527,5.733962e-06,404.8499999997527,3.11314e-06
404.8649999997527,8.032248e-06,404.8649999997527,1.277751e-05,404.8649999997527,6.461651e-06,404.8649999997527,2.858369e-06
404.87999999975267,8.355453e-06,404.87999999975267,1.286102e-05,404.87999999975267,6.859265e-06,404.87999999975267,2.752932e-06
404.89499999975266,8.45767e-06,404.89499999975266,1.305129e-05,404.89499999975266,7.131124e-06,404.89499999975266,2.798606e-06
404.90999999975264,8.594799e-06,404.90999999975264,1.309116e-05,404.90999999975264,7.24479e-06,404.90999999975264,2.863294e-06
404.92499999975263,9.469733e-06,404.92499999975263,1.359682e-05,404.92499999975263,1.722971e-05,404.92499999975263,2.955291e-06
404.9399999997526,1.246613e-05,404.9399999997526,2.45238e-05,404.9399999997526,2.007536e-05,404.9399999997526,3.241707e-06
404.9549999997526,1.264118e-05,404.9549999997526,2.705186e-05,404.9549999997526,2.918261e-05,404.9549999997526,3.327482e-06
404.9699999997526,1.328344e-05,404.9699999997526,3.319938e-05,404.9699999997526,3.242185e-05,404.9699999997526,3.57641e-06
404.9849999997526,1.846037e-05,404.9849999997526,4.278345e-05,404.9849999997526,3.478653e-05,404.9849999997526,4.083948e-06
404.99999999975256,2.038798e-05,404.99999999975256,4.483083e-05,404.99999999975256,3.780038e-05,404.99999999975256,4.192873e-06
405.01499999975255,2.073465e-05,405.01499999975255,4.650666e-05,405.01499999975255,6.188176e-05,405.01499999975255,4.229668e-06
405.02999999975253,2.205414e-05,405.02999999975253,5.182656e-05,405.02999999975253,0.0004554334,405.02999999975253,4.633369e-06
405.0449999997525,2.276385e-05,405.0449999997525,5.481736e-05,405.0449999997525,0.0005545684,405.0449999997525,5.027078e-06
405.0599999997525,2.30724e-05,405.0599999997525,5.552868e-05,405.0599999997525,0.0008376691,405.0599999997525,5.339611e-06
405.0749999997525,2.326211e-05,405.0749999997525,5.556976e-05,405.0749999997525,0.0008502619,405.0749999997525,5.436346e-06
405.0899999997525,2.334432e-05,405.0899999997525,5.789874e-05,405.0899999997525,0.0008667362,405.0899999997525,5.493057e-06
405.10499999975247,2.350249e-05,405.10499999975247,6.025811e-05,405.10499999975247,0.0008901767,405.10499999975247,5.797484e-06
405.11999999975245,2.355936e-05,405.11999999975245,6.046115e-05,405.11999999975245,0.0009482954,405.11999999975245,5.792623e-06
405.13499999975244,2.344187e-05,405.13499999975244,6.101083e-05,405.13499999975244,0.001184848,405.13499999975244,5.908198e-06
405.1499999997524,2.373806e-05,405.1499999997524,6.149562e-05,405.1499999997524,0.001250263,405.1499999997524,5.862722e-06
405.1649999997524,2.398542e-05,405.1649999997524,6.19416e-05,405.1649999997524,0.001503579,405.1649999997524,5.787757e-06
405.1799999997524,2.285771e-05,405.1799999997524,6.121805e-05,405.1799999997524,0.001623966,405.1799999997524,5.797484e-06
405.1949999997524,2.156128e-05,405.1949999997524,5.719622e-05,405.1949999997524,0.002086195,405.1949999997524,5.627332e-06
405.20999999975237,2.124735e-05,405.20999999975237,5.635262e-05,405.20999999975237,0.002161813,405.20999999975237,5.809621e-06
405.22499999975236,2.04604e-05,405.22499999975236,5.176619e-05,405.22499999975236,0.002338348,405.22499999975236,5.644828e-06
405.23999999975234,1.671344e-05,405.23999999975234,4.330478e-05,405.23999999975234,0.002439192,405.23999999975234,5.475077e-06
405.25499999975233,1.55222e-05,405.25499999975233,4.210675e-05,405.25499999975233,0.002444278,405.25499999975233,5.441526e-06
405.2699999997523,1.524289e-05,405.2699999997523,4.014159e-05,405.2699999997523,0.002449896,405.2699999997523,5.459618e-06
405.2849999997523,1.32026e-05,405.2849999997523,3.349465e-05,405.2849999997523,0.002402564,405.2849999997523,5.135199e-06
405.2999999997523,1.267456e-05,405.2999999997523,2.968702e-05,405.2999999997523,0.002370948,405.2999999997523,4.522595e-06
405.3149999997523,1.282373e-05,405.3149999997523,2.826204e-05,405.3149999997523,0.00231313,405.3149999997523,4.544346e-06
405.32999999975226,1.316627e-05,405.32999999975226,2.738413e-05,405.32999999975226,0.00231103,405.32999999975226,4.535037e-06
405.34499999975225,1.290367e-05,405.34499999975225,2.155148e-05,405.34499999975225,0.002304283,405.34499999975225,4.645514e-06
405.35999999975223,1.303509e-05,405.35999999975223,1.696938e-05,405.35999999975223,0.002288183,405.35999999975223,4.34467e-06
405.3749999997522,1.335325e-05,405.3749999997522,1.662046e-05,405.3749999997522,0.002262191,405.3749999997522,4.256228e-06
405.3899999997522,1.303941e-05,405.3899999997522,1.360511e-05,405.3899999997522,0.002130734,405.3899999997522,4.15914e-06
405.4049999997522,1.3061e-05,405.4049999997522,1.219769e-05,405.4049999997522,0.002088174,405.4049999997522,4.338181e-06
405.4199999997522,1.275102e-05,405.4199999997522,9.675749e-06,405.4199999997522,0.001891485,405.4199999997522,4.488202e-06
405.43499999975216,1.276758e-05,405.43499999975216,8.143716e-06,405.43499999975216,0.001693243,405.43499999975216,4.409039e-06
405.44999999975215,1.313628e-05,405.44999999975215,7.003558e-06,405.44999999975215,0.001152443,405.44999999975215,4.472482e-06
405.46499999975214,1.297117e-05,405.46499999975214,6.526725e-06,405.46499999975214,0.001062379,405.46499999975214,4.148967e-06
405.4799999997521,1.284129e-05,405.4799999997521,6.625263e-06,405.4799999997521,0.0005922056,405.4799999997521,4.087396e-06
405.4949999997521,1.28391e-05,405.4949999997521,7.306746e-06,405.4949999997521,0.0002680772,405.4949999997521,4.042345e-06
405.5099999997521,1.258981e-05,405.5099999997521,9.199609e-06,405.5099999997521,0.0002510037,405.5099999997521,4.045829e-06
405.5249999997521,1.246613e-05,405.5249999997521,9.639282e-06,405.5249999997521,0.0001888573,405.5249999997521,3.954266e-06
405.53999999975207,1.216415e-05,405.53999999975207,1.006676e-05,405.53999999975207,0.0001016348,405.53999999975207,3.99326e-06
405.55499999975206,1.105386e-05,405.55499999975206,9.890295e-06,405.55499999975206,4.92305e-05,405.55499999975206,3.975583e-06
405.56999999975204,1.053981e-05,405.56999999975204,1.00975e-05,405.56999999975204,3.931759e-05,405.56999999975204,3.90768e-06
405.58499999975203,1.037004e-05,405.58499999975203,1.026217e-05,405.58499999975203,3.8763e-05,405.58499999975203,3.607783e-06
405.599999999752,1.025118e-05,405.599999999752,1.070689e-05,405.599999999752,3.462661e-05,405.599999999752,3.623367e-06
405.614999999752,9.777128e-06,405.614999999752,1.278522e-05,405.614999999752,2.838042e-05,405.614999999752,3.646619e-06
405.629999999752,9.486082e-06,405.629999999752,1.918334e-05,405.629999999752,2.264223e-05,405.629999999752,3.67356e-06
405.644999999752,9.33791e-06,405.644999999752,2.504275e-05,405.644999999752,2.052845e-05,405.644999999752,3.70411e-06
405.65999999975196,9.170469e-06,405.65999999975196,2.741498e-05,405.65999999975196,2.035479e-05,405.65999999975196,3.484641e-06
405.67499999975195,8.851561e-06,405.67499999975195,3.312419e-05,405.67499999975195,1.838849e-05,405.67499999975195,3.431686e-06
405.68999999975193,9.009299e-06,405.68999999975193,3.91384e-05,405.68999999975193,1.684357e-05,405.68999999975193,3.352786e-06
405.7049999997519,8.645458e-06,405.7049999997519,4.024183e-05,405.7049999997519,1.541474e-05,405.7049999997519,3.241707e-06
405.7199999997519,7.791894e-06,405.7199999997519,4.034951e-05,405.7199999997519,1.47421e-05,405.7199999997519,3.259043e-06
405.7349999997519,7.761099e-06,405.7349999997519,4.035998e-05,405.7349999997519,1.461638e-05,405.7349999997519,3.184716e-06
405.7499999997519,7.938755e-06,405.7499999997519,4.018123e-05,405.7499999997519,1.401013e-05,405.7499999997519,3.241707e-06
405.76499999975186,8.535592e-06,405.76499999975186,4.015387e-05,405.76499999975186,1.376773e-05,405.76499999975186,3.254718e-06
405.77999999975185,8.851561e-06,405.77999999975185,4.017246e-05,405.77999999975185,1.395674e-05,405.77999999975185,3.297714e-06
405.79499999975184,9.188883e-06,405.79499999975184,4.016159e-05,405.79499999975184,1.389301e-05,405.79499999975184,3.301983e-06
405.8099999997518,9.199609e-06,405.8099999997518,4.110799e-05,405.8099999997518,1.450318e-05,405.8099999997518,3.276286e-06
405.8249999997518,9.222548e-06,405.8249999997518,4.135296e-05,405.8249999997518,1.444089e-05,405.8249999997518,3.197958e-06
405.8399999997518,9.122726e-06,405.8399999997518,4.16459e-05,405.8399999997518,1.445259e-05,405.8399999997518,3.206755e-06
405.8549999997518,8.971695e-06,405.8549999997518,4.15643e-05,405.8549999997518,1.479551e-05,405.8549999997518,3.233005e-06
405.86999999975177,9.33791e-06,405.86999999975177,4.080532e-05,405.86999999975177,1.359579e-05,405.86999999975177,3.237359e-06
405.88499999975176,1.001766e-05,405.88499999975176,3.871973e-05,405.88499999975176,1.183902e-05,405.88499999975176,3.306247e-06
405.89999999975174,1.00275e-05,405.89999999975174,3.350769e-05,405.89999999975174,1.214097e-05,405.89999999975174,3.348582e-06
405.9149999997517,1.035509e-05,405.9149999997517,3.343572e-05,405.9149999997517,1.210611e-05,405.9149999997517,3.386231e-06
405.9299999997517,1.032784e-05,405.9299999997517,3.136177e-05,405.9299999997517,1.249547e-05,405.9299999997517,4.021382e-06
405.9449999997517,1.001485e-05,405.9449999997517,2.773477e-05,405.9449999997517,1.208981e-05,405.9449999997517,4.272744e-06
405.9599999997517,1.02498e-05,405.9599999997517,2.724023e-05,405.9599999997517,1.175903e-05,405.9599999997517,4.519479e-06
405.9749999997517,1.022366e-05,405.9749999997517,2.709401e-05,405.9749999997517,1.164709e-05,405.9749999997517,4.723696e-06
405.98999999975166,9.866052e-06,405.98999999975166,2.734501e-05,405.98999999975166,1.250336e-05,405.98999999975166,4.68176e-06
406.00499999975165,9.769921e-06,406.00499999975165,2.75508e-05,406.00499999975165,1.350639e-05,406.00499999975165,4.922306e-06
406.01999999975163,9.952766e-06,406.01999999975163,2.7416e-05,406.01999999975163,1.388388e-05,406.01999999975163,5.007424e-06
406.0349999997516,9.239335e-06,406.0349999997516,3.396905e-05,406.0349999997516,1.40041e-05,406.0349999997516,5.291911e-06
406.0499999997516,9.408545e-06,406.0499999997516,3.883344e-05,406.0499999997516,1.471627e-05,406.0499999997516,5.526294e-06
406.0649999997516,9.340927e-06,406.0649999997516,3.874155e-05,406.0649999997516,1.437538e-05,406.0649999997516,5.533936e-06
406.0799999997516,9.230183e-06,406.0799999997516,3.995658e-05,406.0799999997516,1.430072e-05,406.0799999997516,5.682137e-06
406.09499999975156,9.073179e-06,406.09499999975156,4.001471e-05,406.09499999975156,1.398397e-05,406.09499999975156,5.659781e-06
406.10999999975155,9.153557e-06,406.10999999975155,4.014265e-05,406.10999999975155,1.342164e-05,406.10999999975155,5.674694e-06
406.12499999975154,8.350395e-06,406.12499999975154,4.106136e-05,406.12499999975154,1.33004e-05,406.12499999975154,5.664756e-06
406.1399999997515,8.350395e-06,406.1399999997515,3.944814e-05,406.1399999997515,1.31791e-05,406.1399999997515,5.559333e-06
406.1549999997515,8.263912e-06,406.1549999997515,3.831818e-05,406.1549999997515,1.293529e-05,406.1549999997515,5.579567e-06
406.1699999997515,8.077717e-06,406.1699999997515,3.818856e-05,406.1699999997515,1.311052e-05,406.1699999997515,5.508422e-06
406.1849999997515,8.086432e-06,406.1849999997515,3.706809e-05,406.1849999997515,1.499787e-05,406.1849999997515,5.055022e-06
406.19999999975147,8.044515e-06,406.19999999975147,3.65318e-05,406.19999999975147,1.632026e-05,406.19999999975147,5.088352e-06
406.21499999975146,7.790086e-06,406.21499999975146,3.62154e-05,406.21499999975146,1.92559e-05,406.21499999975146,4.809401e-06
406.22999999975144,8.042764e-06,406.22999999975144,3.620528e-05,406.22999999975144,1.967706e-05,406.22999999975144,4.747494e-06
406.2449999997514,8.058511e-06,406.2449999997514,3.614999e-05,406.2449999997514,1.953191e-05,406.2449999997514,4.675739e-06
406.2599999997514,8.485937e-06,406.2599999997514,3.639968e-05,406.2599999997514,1.911566e-05,406.2599999997514,4.431347e-06
406.2749999997514,8.169621e-06,406.2749999997514,3.717889e-05,406.2749999997514,1.936459e-05,406.2749999997514,4.503868e-06
406.2899999997514,8.424293e-06,406.2899999997514,2.772563e-05,406.2899999997514,1.968851e-05,406.2899999997514,3.893234e-06
406.3049999997514,8.728161e-06,406.3049999997514,2.313581e-05,406.3049999997514,1.994442e-05,406.3049999997514,3.871464e-06
406.31999999975136,9.512773e-06,406.31999999975136,2.219168e-05,406.31999999975136,2.004024e-05,406.31999999975136,3.827552e-06
406.33499999975135,9.813081e-06,406.33499999975135,2.140061e-05,406.33499999975135,2.084171e-05,406.33499999975135,3.615583e-06
406.34999999975133,1.050098e-05,406.34999999975133,2.386353e-05,406.34999999975133,2.190031e-05,406.34999999975133,3.642754e-06
406.3649999997513,1.055317e-05,406.3649999997513,2.452265e-05,406.3649999997513,2.553957e-05,406.3649999997513,3.65048e-06
406.3799999997513,1.07777e-05,406.3799999997513,5.090345e-05,406.3799999997513,3.133076e-05,406.3799999997513,3.730636e-06
406.3949999997513,1.059314e-05,406.3949999997513,6.108236e-05,406.3949999997513,0.0001376724,406.3949999997513,3.741947e-06
406.4099999997513,1.051439e-05,406.4099999997513,7.081846e-05,406.4099999997513,0.0001824145,406.4099999997513,3.631134e-06
406.42499999975126,1.051439e-05,406.42499999975126,7.104188e-05,406.42499999975126,0.0002884652,406.42499999975126,3.662038e-06
406.43999999975125,1.077901e-05,406.43999999975125,7.194411e-05,406.43999999975125,0.0003105578,406.43999999975125,3.406967e-06
406.45499999975124,1.22966e-05,406.45499999975124,7.207146e-05,406.45499999975124,0.0003205159,406.45499999975124,3.323245e-06
406.4699999997512,1.288072e-05,406.4699999997512,7.344761e-05,406.4699999997512,0.0003317801,406.4699999997512,3.323245e-06
406.4849999997512,1.300371e-05,406.4849999997512,7.704116e-05,406.4849999997512,0.0003334254,406.4849999997512,3.297714e-06
406.4999999997512,1.309977e-05,406.4999999997512,8.114899e-05,406.4999999997512,0.0003336945,406.4999999997512,3.512824e-06
406.5149999997512,1.290585e-05,406.5149999997512,8.161634e-05,406.5149999997512,0.0003345403,406.5149999997512,3.500774e-06
406.52999999975117,1.30707e-05,406.52999999975117,8.129225e-05,406.52999999975117,0.0003349337,406.52999999975117,3.36955e-06
406.54499999975116,1.288728e-05,406.54499999975116,8.125151e-05,406.54499999975116,0.0003349791,406.54499999975116,3.423466e-06
406.55999999975114,1.294944e-05,406.55999999975114,8.12432e-05,406.55999999975114,0.0003349305,406.55999999975114,3.373728e-06
406.5749999997511,1.309332e-05,406.5749999997511,8.126868e-05,406.5749999997511,0.0003349454,406.5749999997511,3.439886e-06
406.5899999997511,1.298311e-05,406.5899999997511,8.100444e-05,406.5899999997511,0.0003348956,406.5899999997511,3.439886e-06
406.6049999997511,1.325265e-05,406.6049999997511,8.027055e-05,406.6049999997511,0.0003348853,406.6049999997511,3.415227e-06
406.6199999997511,1.323351e-05,406.6199999997511,7.894501e-05,406.6199999997511,0.0003343917,406.6199999997511,3.464369e-06
406.6349999997511,1.328662e-05,406.6349999997511,6.332167e-05,406.6349999997511,0.0003322448,406.6349999997511,3.496747e-06
406.64999999975106,1.322499e-05,406.64999999975106,4.93254e-05,406.64999999975106,0.0002835982,406.64999999975106,3.524834e-06
406.66499999975105,1.35116e-05,406.66499999975105,4.260065e-05,406.66499999975105,0.0002564258,406.66499999975105,3.564574e-06
406.67999999975103,1.377387e-05,406.67999999975103,4.226303e-05,406.67999999975103,0.000135064,406.67999999975103,3.599965e-06
406.694999999751,1.247968e-05,406.694999999751,4.112135e-05,406.694999999751,0.0001165889,406.694999999751,3.642754e-06
406.709999999751,1.241517e-05,406.709999999751,4.096863e-05,406.709999999751,7.911239e-05,406.709999999751,3.662038e-06
406.724999999751,1.172064e-05,406.724999999751,3.315309e-05,406.724999999751,3.82619e-05,406.724999999751,3.631134e-06
406.739999999751,1.147406e-05,406.739999999751,2.571382e-05,406.739999999751,3.180821e-05,406.739999999751,3.623367e-06
406.75499999975096,1.127467e-05,406.75499999975096,1.39325e-05,406.75499999975096,2.756512e-05,406.75499999975096,3.500774e-06
406.76999999975095,1.161075e-05,406.76999999975095,1.231721e-05,406.76999999975095,1.73511e-05,406.76999999975095,3.516832e-06
406.78499999975094,1.162894e-05,406.78499999975094,1.195388e-05,406.78499999975094,1.071609e-05,406.78499999975094,3.665883e-06
406.7999999997509,1.153651e-05,406.7999999997509,1.199975e-05,406.7999999997509,9.505367e-06,406.7999999997509,3.681221e-06
406.8149999997509,1.112247e-05,406.8149999997509,1.22461e-05,406.8149999997509,1.088823e-05,406.8149999997509,3.646619e-06
406.8299999997509,1.039988e-05,406.8299999997509,1.217225e-05,406.8299999997509,1.076069e-05,406.8299999997509,3.588207e-06
406.8449999997509,9.754049e-06,406.8449999997509,1.203375e-05,406.8449999997509,9.876042e-06,406.8449999997509,3.599965e-06
406.85999999975087,9.340927e-06,406.85999999975087,1.148388e-05,406.85999999975087,9.486082e-06,406.85999999975087,3.572469e-06
406.87499999975086,8.761987e-06,406.87499999975086,1.014204e-05,406.87499999975086,9.712076e-06,406.87499999975086,3.460301e-06
406.88999999975084,8.666614e-06,406.88999999975084,1.002047e-05,406.88999999975084,9.959841e-06,406.88999999975084,3.423466e-06
406.9049999997508,8.419275e-06,406.9049999997508,1.030326e-05,406.9049999997508,1.002047e-05,406.9049999997508,3.406967e-06
406.9199999997508,8.479295e-06,406.9199999997508,1.023192e-05,406.9199999997508,1.036189e-05,406.9199999997508,3.280583e-06
406.9349999997508,9.113456e-06,406.9349999997508,1.018086e-05,406.9349999997508,1.181163e-05,406.9349999997508,3.149131e-06
406.9499999997508,1.080642e-05,406.9499999997508,9.646586e-06,406.9499999997508,1.303725e-05,406.9499999997508,3.140172e-06
406.9649999997508,1.180327e-05,406.9649999997508,9.47122e-06,406.9649999997508,1.52835e-05,406.9649999997508,3.058359e-06
406.97999999975076,1.229775e-05,406.97999999975076,9.125813e-06,406.97999999975076,1.62476e-05,406.97999999975076,3.099535e-06
406.99499999975075,1.361649e-05,406.99499999975075,9.334893e-06,406.99499999975075,1.663656e-05,406.99499999975075,2.916909e-06
407.00999999975073,1.516878e-05,407.00999999975073,1.006396e-05,407.00999999975073,1.6927e-05,407.00999999975073,2.931361e-06
407.0249999997507,1.480883e-05,407.0249999997507,1.023192e-05,407.0249999997507,1.693365e-05,407.0249999997507,2.768241e-06
407.0399999997507,1.477931e-05,407.0399999997507,1.103473e-05,407.0399999997507,1.761777e-05,407.0399999997507,2.813666e-06
407.0549999997507,1.642952e-05,407.0549999997507,1.146424e-05,407.0549999997507,1.729254e-05,407.0549999997507,2.858369e-06
407.0699999997507,1.754406e-05,407.0699999997507,1.134442e-05,407.0699999997507,1.709345e-05,407.0699999997507,2.907234e-06
407.08499999975066,1.840381e-05,407.08499999975066,1.137666e-05,407.08499999975066,1.6887e-05,407.08499999975066,3.058359e-06
407.09999999975065,1.899813e-05,407.09999999975065,1.15609e-05,407.09999999975065,1.690784e-05,407.09999999975065,3.058359e-06
407.11499999975064,1.94227e-05,407.11499999975064,1.258981e-05,407.11499999975064,1.715679e-05,407.11499999975064,3.117661e-06
407.1299999997506,1.974923e-05,407.1299999997506,1.492537e-05,407.1299999997506,1.697104e-05,407.1299999997506,3.700305e-06
407.1449999997506,2.012932e-05,407.1449999997506,1.418103e-05,407.1449999997506,1.69893e-05,407.1449999997506,3.741947e-06
407.1599999997506,2.156324e-05,407.1599999997506,1.416313e-05,407.1599999997506,1.749743e-05,407.1599999997506,3.893234e-06
407.1749999997506,2.155932e-05,407.1749999997506,1.484493e-05,407.1749999997506,1.712062e-05,407.1749999997506,3.90768e-06
407.18999999975057,2.086873e-05,407.18999999975057,1.55349e-05,407.18999999975057,1.618767e-05,407.18999999975057,4.097722e-06
407.20499999975056,2.060653e-05,407.20499999975056,1.55666e-05,407.20499999975056,1.517714e-05,407.20499999975056,4.073587e-06
407.21999999975054,2.023402e-05,407.21999999975054,1.627965e-05,407.21999999975054,1.299071e-05,407.21999999975054,4.028382e-06
407.2349999997505,1.975779e-05,407.2349999997505,1.674039e-05,407.2349999997505,1.187822e-05,407.2349999997505,4.104592e-06
407.2499999997505,1.881784e-05,407.2499999997505,1.650224e-05,407.2499999997505,1.125717e-05,407.2499999997505,4.172666e-06
407.2649999997505,1.829249e-05,407.2649999997505,1.639347e-05,407.2649999997505,1.213632e-05,407.2649999997505,4.229668e-06
407.2799999997505,1.843517e-05,407.2799999997505,1.624239e-05,407.2799999997505,1.244124e-05,407.2799999997505,4.285911e-06
407.2949999997505,1.866149e-05,407.2949999997505,1.642266e-05,407.2949999997505,1.268567e-05,407.2949999997505,4.285911e-06
407.30999999975046,1.698764e-05,407.30999999975046,1.617896e-05,407.30999999975046,1.405731e-05,407.30999999975046,4.376973e-06
407.32499999975045,1.774921e-05,407.32499999975045,1.624846e-05,407.32499999975045,1.499317e-05,407.32499999975045,4.302314e-06
407.33999999975043,1.674796e-05,407.33999999975043,1.648259e-05,407.33999999975043,1.516321e-05,407.33999999975043,4.331681e-06
407.3549999997504,1.623285e-05,407.3549999997504,1.635648e-05,407.3549999997504,1.693615e-05,407.3549999997504,4.450379e-06
407.3699999997504,1.617635e-05,407.3699999997504,1.473349e-05,407.3699999997504,1.686697e-05,407.3699999997504,4.27604e-06
407.3849999997504,1.623979e-05,407.3849999997504,1.321859e-05,407.3849999997504,1.674123e-05,407.3849999997504,3.975583e-06
407.3999999997504,1.513066e-05,407.3999999997504,1.335958e-05,407.3999999997504,1.633062e-05,407.3999999997504,4.189512e-06
407.41499999975036,1.391834e-05,407.41499999975036,1.330675e-05,407.41499999975036,1.596775e-05,407.41499999975036,4.118297e-06
407.42999999975035,1.38086e-05,407.42999999975035,1.244803e-05,407.42999999975035,1.689868e-05,407.42999999975035,4.142171e-06
407.44499999975034,1.36258e-05,407.44499999975034,1.223804e-05,407.44499999975034,1.71814e-05,407.44499999975034,4.131956e-06
407.4599999997503,1.366915e-05,407.4599999997503,1.264229e-05,407.4599999997503,1.82871e-05,407.4599999997503,4.155752e-06
407.4749999997503,1.412828e-05,407.4749999997503,1.184616e-05,407.4749999997503,2.00304e-05,407.4749999997503,4.236323e-06
407.4899999997503,1.406533e-05,407.4899999997503,1.165072e-05,407.4899999997503,2.036379e-05,407.4899999997503,4.179412e-06
407.5049999997503,1.428988e-05,407.5049999997503,1.186517e-05,407.5049999997503,2.024724e-05,407.5049999997503,4.15914e-06
407.51999999975027,1.370826e-05,407.51999999975027,1.187822e-05,407.51999999975027,2.028755e-05,407.51999999975027,4.145571e-06
407.53499999975026,1.346356e-05,407.53499999975026,1.169898e-05,407.53499999975026,2.04356e-05,407.53499999975026,4.059732e-06
407.54999999975024,1.325584e-05,407.54999999975024,1.073973e-05,407.54999999975024,2.022078e-05,407.54999999975024,3.936414e-06
407.5649999997502,1.248532e-05,407.5649999997502,1.050232e-05,407.5649999997502,1.915247e-05,407.5649999997502,3.889614e-06
407.5799999997502,1.11174e-05,407.5799999997502,1.011283e-05,407.5799999997502,1.849848e-05,407.5799999997502,3.827552e-06
407.5949999997502,1.126717e-05,407.5949999997502,9.973975e-06,407.5949999997502,1.802016e-05,407.5949999997502,3.711708e-06
407.6099999997502,1.121454e-05,407.6099999997502,9.935768e-06,407.6099999997502,1.661368e-05,407.6099999997502,3.654337e-06
407.6249999997502,1.100661e-05,407.6249999997502,9.937185e-06,407.6249999997502,1.661284e-05,407.6249999997502,3.685046e-06
407.63999999975016,9.931514e-06,407.63999999975016,1.01684e-05,407.63999999975016,1.647404e-05,407.63999999975016,3.532818e-06
407.65499999975015,9.893143e-06,407.65499999975015,1.003873e-05,407.65499999975015,1.610216e-05,407.65499999975015,3.344373e-06
407.66999999975013,9.648047e-06,407.66999999975013,1.008493e-05,407.66999999975013,1.586153e-05,407.66999999975013,3.29344e-06
407.6849999997501,9.490535e-06,407.6849999997501,8.480955e-06,407.6849999997501,1.525583e-05,407.6849999997501,3.184716e-06
407.6999999997501,9.321302e-06,407.6999999997501,8.745896e-06,407.6999999997501,1.523365e-05,407.6999999997501,3.117661e-06
407.7149999997501,8.8754e-06,407.7149999997501,7.571843e-06,407.7149999997501,1.269122e-05,407.7149999997501,3.215529e-06
407.7299999997501,8.609537e-06,407.7299999997501,6.959168e-06,407.7299999997501,1.078684e-05,407.7299999997501,3.099535e-06
407.74499999975006,8.309809e-06,407.74499999975006,6.987449e-06,407.74499999975006,9.315255e-06,407.74499999975006,3.149131e-06
407.75999999975005,8.568535e-06,407.75999999975005,6.642251e-06,407.75999999975005,9.104177e-06,407.75999999975005,3.135683e-06
407.77499999975004,8.37566e-06,407.77499999975004,6.50294e-06,407.77499999975004,7.642211e-06,407.77499999975004,2.993181e-06
407.78999999975,8.535592e-06,407.78999999975,7.10738e-06,407.78999999975,6.591156e-06,407.78999999975,3.01662e-06
407.80499999975,8.519072e-06,407.80499999975,7.616361e-06,407.80499999975,6.322817e-06,407.80499999975,3.011947e-06
407.81999999975,8.625883e-06,407.81999999975,7.614512e-06,407.81999999975,6.431058e-06,407.81999999975,2.955291e-06
407.83499999975,9.164322e-06,407.83499999975,7.655103e-06,407.83499999975,6.567604e-06,407.83499999975,2.955291e-06
407.84999999974997,9.015552e-06,407.84999999974997,7.682656e-06,407.84999999974997,5.958057e-06,407.84999999974997,3.067557e-06
407.86499999974995,9.115002e-06,407.86499999974995,7.658783e-06,407.86499999974995,5.768253e-06,407.86499999974995,3.025945e-06
407.87999999974994,9.116548e-06,407.87999999974994,7.502692e-06,407.87999999974994,5.659781e-06,407.87999999974994,3.007266e-06
407.8949999997499,9.131986e-06,407.8949999997499,7.22532e-06,407.8949999997499,5.592176e-06,407.8949999997499,3.025945e-06
407.9099999997499,9.09334e-06,407.9099999997499,7.285508e-06,407.9099999997499,5.238403e-06,407.9099999997499,3.039879e-06
407.9249999997499,9.062304e-06,407.9249999997499,8.068993e-06,407.9249999997499,5.077266e-06,407.9249999997499,3.140172e-06
407.9399999997499,8.888089e-06,407.9399999997499,7.997096e-06,407.9399999997499,5.329048e-06,407.9399999997499,3.099535e-06
407.9549999997499,8.905506e-06,407.9549999997499,7.768356e-06,407.9549999997499,5.420777e-06,407.9549999997499,3.122176e-06
407.96999999974986,8.59316e-06,407.96999999974986,7.773794e-06,407.96999999974986,5.819312e-06,407.96999999974986,3.011947e-06
407.98499999974985,8.325052e-06,407.98499999974985,7.913874e-06,407.98499999974985,5.917727e-06,407.98499999974985,3.062961e-06
407.99999999974983,8.236593e-06,407.99999999974983,8.321666e-06,407.99999999974983,5.874723e-06,407.99999999974983,3.002579e-06
408.0149999997498,7.761099e-06,408.0149999997498,8.345331e-06,408.0149999997498,5.795054e-06,408.0149999997498,2.964809e-06
408.0299999997498,7.478244e-06,408.0299999997498,8.26732e-06,408.0299999997498,6.293787e-06,408.0299999997498,3.171418e-06
408.0449999997498,7.258388e-06,408.0449999997498,7.506446e-06,408.0449999997498,7.553216e-06,408.0449999997498,3.171418e-06
408.0599999997498,7.067629e-06,408.0599999997498,7.444261e-06,408.0599999997498,9.21338e-06,408.0599999997498,3.158065e-06
408.07499999974976,7.156758e-06,408.07499999974976,7.588568e-06,408.07499999974976,1.057583e-05,408.07499999974976,3.215529e-06
408.08999999974975,6.535352e-06,408.08999999974975,8.150632e-06,408.08999999974975,1.048621e-05,408.08999999974975,3.335938e-06
408.10499999974974,6.189974e-06,408.10499999974974,8.92131e-06,408.10499999974974,1.207932e-05,408.10499999974974,3.250386e-06
408.1199999997497,5.694519e-06,408.1199999997497,9.359006e-06,408.1199999997497,1.786865e-05,408.1199999997497,3.297714e-06
408.1349999997497,5.459618e-06,408.1349999997497,9.38606e-06,408.1349999997497,2.421571e-05,408.1349999997497,3.301983e-06
408.1499999997497,5.828986e-06,408.1499999997497,9.257612e-06,408.1499999997497,2.564141e-05,408.1499999997497,3.344373e-06
408.1649999997497,5.8867e-06,408.1649999997497,9.239335e-06,408.1649999997497,2.629561e-05,408.1649999997497,3.344373e-06
408.17999999974967,6.526725e-06,408.17999999974967,9.439935e-06,408.17999999974967,3.021053e-05,408.17999999974967,3.29344e-06
408.19499999974965,7.724713e-06,408.19499999974965,9.951351e-06,408.19499999974965,3.2203e-05,408.19499999974965,3.344373e-06
408.20999999974964,7.876405e-06,408.20999999974964,1.000922e-05,408.20999999974964,3.24605e-05,408.20999999974964,3.36955e-06
408.2249999997496,7.860292e-06,408.2249999997496,1.025393e-05,408.2249999997496,3.243445e-05,408.2249999997496,3.398688e-06
408.2399999997496,7.894269e-06,408.2399999997496,1.043639e-05,408.2399999997496,3.238969e-05,408.2399999997496,3.352786e-06
408.2549999997496,8.192006e-06,408.2549999997496,9.949936e-06,408.2549999997496,3.240229e-05,408.2549999997496,3.361178e-06
408.2699999997496,8.204034e-06,408.2699999997496,1.002328e-05,408.2699999997496,3.241055e-05,408.2699999997496,3.29344e-06
408.2849999997496,8.243432e-06,408.2849999997496,9.965496e-06,408.2849999997496,3.233484e-05,408.2849999997496,3.126685e-06
408.29999999974956,8.282642e-06,408.29999999974956,9.927257e-06,408.29999999974956,3.226375e-05,408.29999999974956,3.108612e-06
408.31499999974955,8.136793e-06,408.31499999974955,9.863196e-06,408.31499999974955,3.147251e-05,408.31499999974955,3.131187e-06
408.32999999974953,7.856707e-06,408.32999999974953,9.874615e-06,408.32999999974953,3.10217e-05,408.32999999974953,3.094987e-06
408.3449999997495,8.058511e-06,408.3449999997495,9.107272e-06,408.3449999997495,3.113502e-05,408.3449999997495,3.011947e-06
408.3599999997495,8.145445e-06,408.3599999997495,8.734614e-06,408.3599999997495,3.061029e-05,408.3599999997495,3.067557e-06
408.3749999997495,8.638938e-06,408.3749999997495,8.400851e-06,408.3749999997495,2.711168e-05,408.3749999997495,3.067557e-06
408.3899999997495,9.306177e-06,408.3899999997495,8.407555e-06,408.3899999997495,2.217262e-05,408.3899999997495,3.049133e-06
408.40499999974946,9.021799e-06,408.40499999974946,8.838821e-06,408.40499999974946,2.076723e-05,408.40499999974946,2.974296e-06
408.41999999974945,9.173541e-06,408.41999999974945,8.872225e-06,408.41999999974945,1.936969e-05,408.41999999974945,3.099535e-06
408.43499999974944,8.686096e-06,408.43499999974944,7.205797e-06,408.43499999974944,1.49866e-05,408.43499999974944,3.039879e-06
408.4499999997494,7.90675e-06,408.4499999997494,6.865424e-06,408.4499999997494,1.258757e-05,408.4499999997494,2.974296e-06
408.4649999997494,7.915653e-06,408.4649999997494,7.364355e-06,408.4649999997494,1.228629e-05,408.4649999997494,2.997883e-06
408.4799999997494,7.97063e-06,408.4799999997494,7.139021e-06,408.4799999997494,1.2134e-05,408.4799999997494,2.993181e-06
408.4949999997494,7.835162e-06,408.4949999997494,6.887957e-06,408.4949999997494,1.215488e-05,408.4949999997494,3.021286e-06
408.50999999974937,7.844146e-06,408.50999999974937,6.977362e-06,408.50999999974937,1.221846e-05,408.50999999974937,3.01662e-06
408.52499999974935,7.924546e-06,408.52499999974935,7.065636e-06,408.52499999974935,1.228973e-05,408.52499999974935,3.131187e-06
408.53999999974934,8.726546e-06,408.53999999974934,7.22532e-06,408.53999999974934,1.225874e-05,408.53999999974934,3.153601e-06
408.5549999997493,9.472707e-06,408.5549999997493,7.197973e-06,408.5549999997493,1.152673e-05,408.5549999997493,3.301983e-06
408.5699999997493,9.717876e-06,408.5699999997493,7.158726e-06,408.5699999997493,1.145809e-05,408.5699999997493,3.331712e-06
408.5849999997493,9.848904e-06,408.5849999997493,7.135074e-06,408.5849999997493,1.101173e-05,408.5849999997493,3.323245e-06
408.5999999997493,1.002188e-05,408.5999999997493,7.876405e-06,408.5999999997493,9.864624e-06,408.5999999997493,3.276286e-06
408.6149999997493,1.003873e-05,408.6149999997493,7.831566e-06,408.6149999997493,9.384559e-06,408.6149999997493,3.297714e-06
408.62999999974926,9.725122e-06,408.62999999974926,9.242383e-06,408.62999999974926,9.291028e-06,408.62999999974926,3.250386e-06
408.64499999974925,9.585059e-06,408.64499999974925,1.037004e-05,408.64499999974925,8.687718e-06,408.64499999974925,3.29344e-06
408.65999999974923,1.027177e-05,408.65999999974923,1.008773e-05,408.65999999974923,8.959125e-06,408.65999999974923,3.24605e-06
408.6749999997492,1.057583e-05,408.6749999997492,1.049695e-05,408.6749999997492,8.527336e-06,408.6749999997492,3.233005e-06
408.6899999997492,1.128591e-05,408.6899999997492,1.078162e-05,408.6899999997492,8.846786e-06,408.6899999997492,3.331712e-06
408.7049999997492,1.128466e-05,408.7049999997492,1.090762e-05,408.7049999997492,8.532291e-06,408.7049999997492,3.373728e-06
408.7199999997492,1.224724e-05,408.7199999997492,1.082075e-05,408.7199999997492,8.474309e-06,408.7199999997492,3.40283e-06
408.73499999974916,1.221615e-05,408.73499999974916,1.08012e-05,408.73499999974916,8.504177e-06,408.73499999974916,3.390388e-06
408.74999999974915,1.217457e-05,408.74999999974915,1.06779e-05,408.74999999974915,8.59316e-06,408.74999999974915,3.348582e-06
408.76499999974914,1.214445e-05,408.76499999974914,1.058249e-05,408.76499999974914,8.461e-06,408.76499999974914,3.310505e-06
408.7799999997491,1.224379e-05,408.7799999997491,1.024431e-05,408.7799999997491,8.470984e-06,408.7799999997491,3.297714e-06
408.7949999997491,1.195977e-05,408.7949999997491,1.105004e-05,408.7949999997491,8.616079e-06,408.7949999997491,3.310505e-06
408.8099999997491,1.156699e-05,408.8099999997491,1.180805e-05,408.8099999997491,8.765202e-06,408.8099999997491,3.144655e-06
408.8249999997491,1.175664e-05,408.8249999997491,1.19527e-05,408.8249999997491,8.724932e-06,408.8249999997491,3.11314e-06
408.83999999974907,1.185805e-05,408.83999999974907,1.189126e-05,408.83999999974907,8.622616e-06,408.83999999974907,3.090432e-06
408.85499999974905,1.170982e-05,408.85499999974905,1.153162e-05,408.85499999974905,8.635676e-06,408.85499999974905,3.049133e-06
408.86999999974904,1.163015e-05,408.86999999974904,1.165556e-05,408.86999999974904,8.876988e-06,408.86999999974904,3.081303e-06
408.884999999749,1.168935e-05,408.884999999749,1.154993e-05,408.884999999749,8.309809e-06,408.884999999749,3.131187e-06
408.899999999749,1.129963e-05,408.899999999749,1.135931e-05,408.899999999749,7.474476e-06,408.899999999749,3.11314e-06
408.914999999749,1.147406e-05,408.914999999749,1.120323e-05,408.914999999749,8.802089e-06,408.914999999749,3.090432e-06
408.929999999749,1.122207e-05,408.929999999749,1.098227e-05,408.929999999749,1.359993e-05,408.929999999749,2.988471e-06
408.944999999749,1.148756e-05,408.944999999749,1.063428e-05,408.944999999749,1.39325e-05,408.944999999749,2.912075e-06
408.95999999974896,1.14014e-05,408.95999999974896,1.110218e-05,408.95999999974896,1.449152e-05,408.95999999974896,3.058359e-06
408.97499999974895,1.065545e-05,408.97499999974895,1.157065e-05,408.97499999974895,1.467697e-05,408.97499999974895,3.072146e-06
408.98999999974893,1.053312e-05,408.98999999974893,1.231034e-05,408.98999999974893,1.487432e-05,408.98999999974893,3.149131e-06
409.0049999997489,1.064222e-05,409.0049999997489,1.345728e-05,409.0049999997489,1.479265e-05,409.0049999997489,3.276286e-06
409.0199999997489,1.104621e-05,409.0199999997489,1.37288e-05,409.0199999997489,1.525213e-05,409.0199999997489,3.314757e-06
409.0349999997489,1.095273e-05,409.0349999997489,1.413227e-05,409.0349999997489,1.541291e-05,409.0349999997489,3.331712e-06
409.0499999997489,1.083376e-05,409.0499999997489,1.40503e-05,409.0499999997489,1.541565e-05,409.0499999997489,3.319004e-06
409.06499999974886,1.109203e-05,409.06499999974886,1.362477e-05,409.06499999974886,1.541383e-05,409.06499999974886,3.340158e-06
409.07999999974885,1.156699e-05,409.07999999974885,1.451484e-05,409.07999999974885,1.544304e-05,409.07999999974885,3.431686e-06
409.09499999974884,1.144333e-05,409.09499999974884,1.605309e-05,409.09499999974884,1.549131e-05,409.09499999974884,3.508812e-06
409.1099999997488,1.154993e-05,409.1099999997488,1.613624e-05,409.1099999997488,1.552129e-05,409.1099999997488,3.512824e-06
409.1249999997488,1.171944e-05,409.1249999997488,1.569009e-05,409.1249999997488,1.542022e-05,409.1249999997488,3.492716e-06
409.1399999997488,1.158038e-05,409.1399999997488,1.493481e-05,409.1399999997488,1.538822e-05,409.1399999997488,3.484641e-06
409.1549999997488,1.127342e-05,409.1549999997488,1.465873e-05,409.1549999997488,1.554306e-05,409.1549999997488,3.492716e-06
409.16999999974877,1.148756e-05,409.16999999974877,1.577068e-05,409.16999999974877,1.342479e-05,409.16999999974877,3.548731e-06
409.18499999974875,1.11288e-05,409.18499999974875,1.629521e-05,409.18499999974875,1.0306e-05,409.18499999974875,3.677393e-06
409.19999999974874,1.039582e-05,409.19999999974874,1.71814e-05,409.19999999974874,9.662636e-06,409.19999999974874,3.572469e-06
409.2149999997487,1.047412e-05,409.2149999997487,1.707448e-05,409.2149999997487,1.114145e-05,409.2149999997487,3.439886e-06
409.2299999997487,1.145563e-05,409.2299999997487,1.767445e-05,409.2299999997487,1.135187e-05,409.2299999997487,3.301983e-06
409.2449999997487,1.173385e-05,409.2449999997487,1.905662e-05,409.2449999997487,1.149001e-05,409.2449999997487,3.259043e-06
409.2599999997487,1.166643e-05,409.2599999997487,1.839769e-05,409.2599999997487,1.17746e-05,409.2599999997487,3.241707e-06
409.2749999997487,1.130836e-05,409.2749999997487,1.890224e-05,409.2749999997487,1.128841e-05,409.2749999997487,3.276286e-06
409.28999999974866,1.104366e-05,409.28999999974866,1.881859e-05,409.28999999974866,1.254722e-05,409.28999999974866,3.280583e-06
409.30499999974865,1.10933e-05,409.30499999974865,2.029866e-05,409.30499999974865,1.253037e-05,409.30499999974865,3.228645e-06
409.31999999974863,1.032784e-05,409.31999999974863,2.273598e-05,409.31999999974863,1.278081e-05,409.31999999974863,3.215529e-06
409.3349999997486,1.02498e-05,409.3349999997486,2.307424e-05,409.3349999997486,1.819597e-05,409.3349999997486,3.149131e-06
409.3499999997486,1.018086e-05,409.3499999997486,2.241777e-05,409.3499999997486,2.632773e-05,409.3499999997486,3.058359e-06
409.3649999997486,1.055717e-05,409.3649999997486,2.241212e-05,409.3649999997486,3.932833e-05,409.3649999997486,3.158065e-06
409.3799999997486,1.025667e-05,409.3799999997486,2.249869e-05,409.3799999997486,7.786324e-05,409.3799999997486,3.044509e-06
409.39499999974856,1.016147e-05,409.39499999974856,2.294874e-05,409.39499999974856,0.0002761653,409.39499999974856,3.314757e-06
409.40999999974855,1.012536e-05,409.40999999974855,2.501235e-05,409.40999999974855,0.0003027374,409.40999999974855,3.794284e-06
409.42499999974854,9.785769e-06,409.42499999974854,2.806397e-05,409.42499999974854,0.0003744434,409.42499999974854,4.070128e-06
409.4399999997485,1.024156e-05,409.4399999997485,3.235662e-05,409.4399999997485,0.0003792667,409.4399999997485,4.073587e-06
409.4549999997485,1.117679e-05,409.4549999997485,3.895441e-05,409.4549999997485,0.0003828292,409.4549999997485,4.513241e-06
409.4699999997485,1.070952e-05,409.4699999997485,4.556759e-05,409.4699999997485,0.0003849134,409.4699999997485,4.711753e-06
409.4849999997485,9.539391e-06,409.4849999997485,4.601121e-05,409.4849999997485,0.0003851649,409.4849999997485,4.916579e-06
409.49999999974847,9.387561e-06,409.49999999974847,4.557563e-05,409.49999999974847,0.0003854744,409.49999999974847,5.001795e-06
409.51499999974845,9.250001e-06,409.51499999974845,4.652029e-05,409.51499999974845,0.0003860645,409.51499999974845,5.007424e-06
409.52999999974844,9.024921e-06,409.52999999974844,4.682633e-05,409.52999999974844,0.0003867613,409.52999999974844,5.082812e-06
409.5449999997484,8.848378e-06,409.5449999997484,4.643725e-05,409.5449999997484,0.0003868539,409.5449999997484,5.043863e-06
409.5599999997484,8.509145e-06,409.5599999997484,4.581731e-05,409.5599999997484,0.0003868946,409.5599999997484,5.046655e-06
409.5749999997484,8.231461e-06,409.5749999997484,4.97273e-05,409.5749999997484,0.0003870522,409.5749999997484,5.032679e-06
409.5899999997484,8.188566e-06,409.5899999997484,5.474408e-05,409.5899999997484,0.0003867236,409.5899999997484,4.998978e-06
409.6049999997484,7.862084e-06,409.6049999997484,5.538516e-05,409.6049999997484,0.000386041,409.6049999997484,4.996159e-06
409.61999999974836,7.238955e-06,409.61999999974836,5.867117e-05,409.61999999974836,0.0003831771,409.61999999974836,4.956529e-06
409.63499999974835,7.125195e-06,409.63499999974835,6.245007e-05,409.63499999974835,0.0003505323,409.63499999974835,5.027078e-06
409.64999999974833,7.207752e-06,409.64999999974833,6.249471e-05,409.64999999974833,0.0002485525,409.64999999974833,4.945147e-06
409.6649999997483,6.867475e-06,409.6649999997483,6.191999e-05,409.6649999997483,0.0001930738,409.6649999997483,4.389827e-06
409.6799999997483,6.953093e-06,409.6799999997483,5.841371e-05,409.6799999997483,8.11417e-05,409.6799999997483,4.242968e-06
409.6949999997483,6.116717e-06,409.6949999997483,5.666248e-05,409.6949999997483,7.391372e-05,409.6949999997483,4.219664e-06
409.7099999997483,5.350154e-06,409.7099999997483,5.080816e-05,409.7099999997483,5.390418e-05,409.7099999997483,3.83123e-06
409.72499999974826,6.313899e-06,409.72499999974826,4.793352e-05,409.72499999974826,5.453008e-05,409.72499999974826,3.448066e-06
409.73999999974825,7.103415e-06,409.73999999974825,4.779343e-05,409.73999999974825,5.501283e-05,409.73999999974825,3.386231e-06
409.75499999974824,7.459384e-06,409.75499999974824,4.825688e-05,409.75499999974824,7.272213e-05,409.75499999974824,3.327482e-06
409.7699999997482,7.702799e-06,409.7699999997482,4.796525e-05,409.7699999997482,0.0001056947,409.7699999997482,3.24605e-06
409.7849999997482,7.85312e-06,409.7849999997482,4.807116e-05,409.7849999997482,0.0001380046,409.7849999997482,3.250386e-06
409.7999999997482,8.02523e-06,409.7999999997482,4.869046e-05,409.7999999997482,0.0001613739,409.7999999997482,3.335938e-06
409.8149999997482,8.204034e-06,409.8149999997482,4.790177e-05,409.8149999997482,0.0002533377,409.8149999997482,3.327482e-06
409.82999999974817,8.427637e-06,409.82999999974817,4.164962e-05,409.82999999974817,0.0003116777,409.82999999974817,3.352786e-06
409.84499999974815,9.175076e-06,409.84499999974815,3.534691e-05,409.84499999974815,0.0003165044,409.84499999974815,3.398688e-06
409.85999999974814,9.593873e-06,409.85999999974814,3.735202e-05,409.85999999974814,0.0003213441,409.85999999974814,3.377901e-06
409.8749999997481,9.76271e-06,409.8749999997481,3.40134e-05,409.8749999997481,0.0003310755,409.8749999997481,3.423466e-06
409.8899999997481,9.86034e-06,409.8899999997481,2.956959e-05,409.8899999997481,0.0003378912,409.8899999997481,3.228645e-06
409.9049999997481,1.017532e-05,409.9049999997481,3.088198e-05,409.9049999997481,0.0003402354,409.9049999997481,3.171418e-06
409.9199999997481,1.016285e-05,409.9199999997481,3.12389e-05,409.9199999997481,0.0003405085,409.9199999997481,3.180289e-06
409.9349999997481,1.023468e-05,409.9349999997481,3.440705e-05,409.9349999997481,0.0003404818,409.9349999997481,3.149131e-06
409.94999999974806,1.059978e-05,409.94999999974806,3.54305e-05,409.94999999974806,0.000340315,409.94999999974806,3.135683e-06
409.96499999974804,1.021952e-05,409.96499999974804,4.683746e-05,409.96499999974804,0.0003397554,409.96499999974804,3.202359e-06
409.97999999974803,1.016424e-05,409.97999999974803,8.317298e-05,409.97999999974803,0.0003393787,409.97999999974803,3.344373e-06
409.994999999748,9.94002e-06,409.994999999748,9.136813e-05,409.994999999748,0.0003383383,409.994999999748,3.228645e-06
410.009999999748,9.752604e-06,410.009999999748,0.0001060718,410.009999999748,0.0003332189,410.009999999748,3.162522e-06
410.024999999748,9.73815e-06,410.024999999748,0.0001139463,410.024999999748,0.0003219848,410.024999999748,3.496747e-06
410.039999999748,9.965496e-06,410.039999999748,0.0001148335,410.039999999748,0.0002963922,410.039999999748,3.512824e-06
410.05499999974796,9.921579e-06,410.05499999974796,0.0001147917,410.05499999974796,0.0002833507,410.05499999974796,3.456227e-06
410.06999999974795,1.017255e-05,410.06999999974795,0.0001153867,410.06999999974795,0.0001930838,410.06999999974795,3.642754e-06
410.08499999974794,9.873189e-06,410.08499999974794,0.0001156339,410.08499999974794,0.0001196899,410.08499999974794,3.760722e-06
410.0999999997479,9.47122e-06,410.0999999997479,0.000116006,410.0999999997479,0.0001134982,410.0999999997479,3.726858e-06
410.1149999997479,9.228656e-06,410.1149999997479,0.0001156258,410.1149999997479,0.0001005742,410.1149999997479,3.715501e-06
410.1299999997479,9.355996e-06,410.1299999997479,0.0001151113,410.1299999997479,7.247162e-05,410.1299999997479,3.607783e-06
410.1449999997479,8.948112e-06,410.1449999997479,0.0001150518,410.1449999997479,4.433127e-05,410.1449999997479,3.592131e-06
410.15999999974787,8.653601e-06,410.15999999974787,0.0001147075,410.15999999974787,2.886324e-05,410.15999999974787,3.627253e-06
410.17499999974785,8.617714e-06,410.17499999974785,0.0001146332,410.17499999974785,2.620492e-05,410.17499999974785,3.700305e-06
410.18999999974784,8.096878e-06,410.18999999974784,0.0001137186,410.18999999974784,2.600418e-05,410.18999999974784,3.67356e-06
410.2049999997478,7.945849e-06,410.2049999997478,0.0001135599,410.2049999997478,2.34929e-05,410.2049999997478,3.642754e-06
410.2199999997478,7.862084e-06,410.2199999997478,9.860453e-05,410.2199999997478,1.968493e-05,410.2199999997478,3.615583e-06
410.2349999997478,7.773794e-06,410.2349999997478,7.977591e-05,410.2349999997478,1.877962e-05,410.2349999997478,3.638885e-06
410.2499999997478,7.564397e-06,410.2499999997478,6.684764e-05,410.2499999997478,1.788205e-05,410.2499999997478,3.730636e-06
410.2649999997478,7.50457e-06,410.2649999997478,4.538297e-05,410.2649999997478,1.644237e-05,410.2649999997478,3.662038e-06
410.27999999974776,7.512074e-06,410.27999999974776,2.863294e-05,410.27999999974776,1.160226e-05,410.27999999974776,3.390388e-06
410.29499999974774,7.48201e-06,410.29499999974774,2.701278e-05,410.29499999974774,9.336401e-06,410.29499999974774,3.365367e-06
410.30999999974773,7.568121e-06,410.30999999974773,2.566941e-05,410.30999999974773,9.217965e-06,410.30999999974773,3.348582e-06
410.3249999997477,8.011176e-06,410.3249999997477,2.50163e-05,410.3249999997477,9.231709e-06,410.3249999997477,3.144655e-06
410.3399999997477,7.915653e-06,410.3399999997477,2.534801e-05,410.3399999997477,9.001478e-06,410.3399999997477,3.058359e-06
410.3549999997477,9.42201e-06,410.3549999997477,2.47798e-05,410.3549999997477,7.922768e-06,410.3549999997477,3.049133e-06
410.3699999997477,9.512773e-06,410.3699999997477,2.333225e-05,410.3699999997477,7.396802e-06,410.3699999997477,3.085871e-06
410.38499999974766,1.029506e-05,410.38499999974766,2.336001e-05,410.38499999974766,7.158726e-06,410.38499999974766,3.158065e-06
410.39999999974765,1.098355e-05,410.39999999974765,2.339496e-05,410.39999999974765,7.213613e-06,410.39999999974765,3.085871e-06
410.41499999974764,1.139027e-05,410.41499999974764,2.351388e-05,410.41499999974764,6.128222e-06,410.41499999974764,3.058359e-06
410.4299999997476,1.153529e-05,410.4299999997476,2.321483e-05,410.4299999997476,6.139704e-06,410.4299999997476,2.983753e-06
410.4449999997476,1.226793e-05,410.4449999997476,2.292049e-05,410.4449999997476,5.960421e-06,410.4449999997476,3.025945e-06
410.4599999997476,1.233435e-05,410.4599999997476,2.259864e-05,410.4599999997476,5.736418e-06,410.4599999997476,3.007266e-06
410.4749999997476,1.242198e-05,410.4749999997476,2.069521e-05,410.4749999997476,5.75603e-06,410.4749999997476,2.868209e-06
410.48999999974757,1.292112e-05,410.48999999974757,2.099458e-05,410.48999999974757,5.664756e-06,410.48999999974757,2.742679e-06
410.50499999974755,1.296792e-05,410.50499999974755,2.181717e-05,410.50499999974755,5.642331e-06,410.50499999974755,2.793568e-06
410.51999999974754,1.296574e-05,410.51999999974754,2.155474e-05,410.51999999974754,5.536481e-06,410.51999999974754,2.887788e-06
410.5349999997475,1.278192e-05,410.5349999997475,1.958521e-05,410.5349999997475,5.559333e-06,410.5349999997475,2.969556e-06
410.5499999997475,1.277199e-05,410.5499999997475,1.764175e-05,410.5499999997475,5.513535e-06,410.5499999997475,2.960054e-06
410.5649999997475,1.264229e-05,410.5649999997475,1.743048e-05,410.5649999997475,5.159829e-06,410.5649999997475,2.993181e-06
410.5799999997475,1.219884e-05,410.5799999997475,1.740055e-05,410.5799999997475,5.132455e-06,410.5799999997475,3.049133e-06
410.5949999997475,1.203024e-05,410.5949999997475,1.627965e-05,410.5949999997475,5.157098e-06,410.5949999997475,3.306247e-06
410.60999999974746,1.133448e-05,410.60999999974746,1.486485e-05,410.60999999974746,5.168013e-06,410.60999999974746,3.377901e-06
410.62499999974744,1.198331e-05,410.62499999974744,1.410733e-05,410.62499999974744,5.363302e-06,410.62499999974744,3.361178e-06
410.63999999974743,1.122082e-05,410.63999999974743,1.413027e-05,410.63999999974743,5.485359e-06,410.63999999974743,3.377901e-06
410.6549999997474,1.120323e-05,410.6549999997474,1.423951e-05,410.6549999997474,5.647323e-06,410.6549999997474,3.472492e-06
410.6699999997474,1.278522e-05,410.6699999997474,1.508217e-05,410.6699999997474,6.208153e-06,410.6699999997474,3.665883e-06
410.6849999997474,1.291676e-05,410.6849999997474,1.606625e-05,410.6849999997474,6.940926e-06,410.6849999997474,3.715501e-06
410.6999999997474,1.281823e-05,410.6999999997474,1.674543e-05,410.6999999997474,8.768416e-06,410.6999999997474,3.925663e-06
410.71499999974736,1.277751e-05,410.71499999974736,1.823232e-05,410.71499999974736,8.929201e-06,410.71499999974736,3.954266e-06
410.72999999974735,1.272337e-05,410.72999999974735,1.851218e-05,410.72999999974735,9.121181e-06,410.72999999974735,3.954266e-06
410.74499999974734,1.249885e-05,410.74499999974734,2.320573e-05,410.74499999974734,9.360511e-06,410.74499999974734,3.975583e-06
410.7599999997473,1.289384e-05,410.7599999997473,2.472802e-05,410.7599999997473,9.374045e-06,410.7599999997473,3.922073e-06
410.7749999997473,1.289493e-05,410.7749999997473,2.474225e-05,410.7749999997473,9.351477e-06,410.7749999997473,3.914884e-06
410.7899999997473,1.291131e-05,410.7899999997473,2.475193e-05,410.7899999997473,9.577708e-06,410.7899999997473,3.925663e-06
410.8049999997473,1.304589e-05,410.8049999997473,2.494411e-05,410.8049999997473,9.968323e-06,410.8049999997473,4.042345e-06
410.81999999974727,1.309869e-05,410.81999999974727,2.492604e-05,410.81999999974727,1.025942e-05,410.81999999974727,4.038859e-06
410.83499999974725,1.307932e-05,410.83499999974725,2.515668e-05,410.83499999974725,1.061041e-05,410.83499999974725,3.964939e-06
410.84999999974724,1.282702e-05,410.84999999974724,2.506411e-05,410.84999999974724,1.067262e-05,410.84999999974724,3.900464e-06
410.8649999997472,1.21189e-05,410.8649999997472,2.502305e-05,410.8649999997472,1.060377e-05,410.8649999997472,3.86418e-06
410.8799999997472,1.199036e-05,410.8799999997472,2.493564e-05,410.8799999997472,1.058515e-05,410.8799999997472,3.904074e-06
410.8949999997472,1.199388e-05,410.8949999997472,2.469381e-05,410.8949999997472,1.084545e-05,410.8949999997472,3.853228e-06
410.9099999997472,1.098483e-05,410.9099999997472,2.437053e-05,410.9099999997472,1.079598e-05,410.9099999997472,3.842245e-06
410.9249999997472,9.688843e-06,410.9249999997472,2.400772e-05,410.9249999997472,1.12296e-05,410.9249999997472,3.669723e-06
410.93999999974716,8.914992e-06,410.93999999974716,2.287927e-05,410.93999999974716,1.090504e-05,410.93999999974716,3.623367e-06
410.95499999974714,9.30012e-06,410.95499999974714,2.238633e-05,410.95499999974714,9.828859e-06,410.95499999974714,3.468433e-06
410.96999999974713,9.225602e-06,410.96999999974713,2.120289e-05,410.96999999974713,9.725122e-06,410.96999999974713,3.4111e-06
410.9849999997471,8.976404e-06,410.9849999997471,1.944445e-05,410.9849999997471,9.642205e-06,410.9849999997471,3.480596e-06
410.9999999997471,8.550433e-06,410.9999999997471,1.1705e-05,410.9999999997471,9.561515e-06,410.9999999997471,3.476546e-06
411.0149999997471,8.682853e-06,411.0149999997471,9.910215e-06,411.0149999997471,9.787209e-06,411.0149999997471,3.373728e-06
411.0299999997471,8.818078e-06,411.0299999997471,1.02498e-05,411.0299999997471,9.72657e-06,411.0299999997471,3.314757e-06
411.04499999974706,9.073179e-06,411.04499999974706,9.179681e-06,411.04499999974706,9.551197e-06,411.04499999974706,3.306247e-06
411.05999999974705,9.552672e-06,411.05999999974705,8.790878e-06,411.05999999974705,9.568879e-06,411.05999999974705,3.356985e-06
411.07499999974704,1.118939e-05,411.07499999974704,8.721702e-06,411.07499999974704,9.565934e-06,411.07499999974704,3.29344e-06
411.089999999747,1.147406e-05,411.089999999747,8.303025e-06,411.089999999747,9.190417e-06,411.089999999747,3.431686e-06
411.104999999747,1.259317e-05,411.104999999747,8.164447e-06,411.104999999747,9.239335e-06,411.104999999747,3.520835e-06
411.119999999747,1.41502e-05,411.119999999747,7.728359e-06,411.119999999747,9.306177e-06,411.119999999747,4.341427e-06
411.134999999747,1.482309e-05,411.134999999747,7.876405e-06,411.134999999747,9.380055e-06,411.134999999747,6.520246e-06
411.14999999974697,2.173956e-05,411.14999999974697,8.119463e-06,411.14999999974697,9.76848e-06,411.14999999974697,8.044515e-06
411.16499999974695,2.369173e-05,411.16499999974695,7.908532e-06,411.16499999974695,9.583589e-06,411.16499999974695,8.432649e-06
411.17999999974694,4.000239e-05,411.17999999974694,7.899621e-06,411.17999999974694,1.061704e-05,411.17999999974694,1.01684e-05
411.1949999997469,4.26109e-05,411.1949999997469,8.207468e-06,411.1949999997469,1.126092e-05,411.1949999997469,1.181878e-05
411.2099999997469,5.599024e-05,411.2099999997469,9.47122e-06,411.2099999997469,1.317055e-05,411.2099999997469,2.063658e-05
411.2249999997469,7.815775e-05,411.2249999997469,1.001344e-05,411.2249999997469,1.414323e-05,411.2249999997469,2.273908e-05
411.2399999997469,8.483978e-05,411.2399999997469,1.095273e-05,411.2399999997469,1.517249e-05,411.2399999997469,2.571328e-05
411.2549999997469,9.778468e-05,411.2549999997469,2.02375e-05,411.2549999997469,2.247238e-05,411.2549999997469,2.923325e-05
411.26999999974686,0.0001060369,411.26999999974686,3.954658e-05,411.26999999974686,2.401652e-05,411.26999999974686,4.901428e-05
411.28499999974684,0.0001127196,411.28499999974684,6.247623e-05,411.28499999974684,2.496274e-05,411.28499999974684,6.650983e-05
411.29999999974683,0.0001175743,411.29999999974683,7.093751e-05,411.29999999974683,2.906362e-05,411.29999999974683,7.243721e-05
411.3149999997468,0.0001178158,411.3149999997468,7.403902e-05,411.3149999997468,5.86863e-05,411.3149999997468,8.626504e-05
411.3299999997468,0.0001183441,411.3299999997468,7.609867e-05,411.3299999997468,6.426281e-05,411.3299999997468,9.396965e-05
411.3449999997468,0.0001186815,411.3449999997468,7.901707e-05,411.3449999997468,7.693173e-05,411.3449999997468,9.710017e-05
411.3599999997468,0.0001189413,411.3599999997468,7.911897e-05,411.3599999997468,8.26577e-05,411.3599999997468,9.819913e-05
411.37499999974676,0.0001189627,411.37499999974676,7.967324e-05,411.37499999974676,8.545158e-05,411.37499999974676,9.87403e-05
411.38999999974675,0.0001197456,411.38999999974675,8.106771e-05,411.38999999974675,8.728418e-05,411.38999999974675,9.961014e-05
411.40499999974674,0.0001198763,411.40499999974674,8.219953e-05,411.40499999974674,9.112807e-05,411.40499999974674,0.0001010791
411.4199999997467,0.0001199852,411.4199999997467,8.572661e-05,411.4199999997467,9.20541e-05,411.4199999997467,0.0001087811
411.4349999997467,0.0001170855,411.4349999997467,8.732695e-05,411.4349999997467,9.193267e-05,411.4349999997467,0.0001169611
411.4499999997467,0.0001165975,411.4499999997467,8.909222e-05,411.4499999997467,9.25061e-05,411.4499999997467,0.0001175385
411.4649999997467,0.0001050435,411.4649999997467,9.128036e-05,411.4649999997467,9.363972e-05,411.4649999997467,0.0001167859
411.47999999974667,9.933669e-05,411.47999999974667,9.121166e-05,411.47999999974667,0.0001022566,411.47999999974667,0.0001165763
411.49499999974665,9.427017e-05,411.49499999974665,9.287767e-05,411.49499999974665,0.0001645958,411.49499999974665,0.0001162072
411.50999999974664,7.828795e-05,411.50999999974664,9.436412e-05,411.50999999974664,0.0002872057,411.50999999974664,0.0001119889
411.5249999997466,6.434933e-05,411.5249999997466,8.595159e-05,411.5249999997466,0.0003092304,411.5249999997466,0.0001045655
411.5399999997466,5.368395e-05,411.5399999997466,7.276821e-05,411.5399999997466,0.0003830617,411.5399999997466,9.844784e-05
411.5549999997466,5.181379e-05,411.5549999997466,7.104486e-05,411.5549999997466,0.0003977576,411.5549999997466,9.65352e-05
411.5699999997466,5.175394e-05,411.5699999997466,6.818069e-05,411.5699999997466,0.0003985238,411.5699999997466,8.614673e-05
411.58499999974657,5.075323e-05,411.58499999974657,6.333902e-05,411.58499999974657,0.0004012302,411.58499999974657,7.704152e-05
411.59999999974656,5.079291e-05,411.59999999974656,6.437275e-05,411.59999999974656,0.0003994881,411.59999999974656,7.469537e-05
411.61499999974654,5.114612e-05,411.61499999974654,6.457551e-05,411.61499999974654,0.0004000801,411.61499999974654,7.573238e-05
411.62999999974653,5.159337e-05,411.62999999974653,6.654349e-05,411.62999999974653,0.0004059187,411.62999999974653,7.600809e-05
411.6449999997465,4.913971e-05,411.6449999997465,6.549799e-05,411.6449999997465,0.0004118056,411.6449999997465,7.602737e-05
411.6599999997465,4.628837e-05,411.6599999997465,6.561016e-05,411.6599999997465,0.0004116866,411.6599999997465,7.275504e-05
411.6749999997465,4.347425e-05,411.6749999997465,6.460909e-05,411.6749999997465,0.0004664498,411.6749999997465,5.219194e-05
411.6899999997465,4.229334e-05,411.6899999997465,6.510149e-05,411.6899999997465,0.0005493067,411.6899999997465,4.431156e-05
411.70499999974646,4.086914e-05,411.70499999974646,6.246135e-05,411.70499999974646,0.0006247928,411.70499999974646,4.301298e-05
411.71999999974645,3.69131e-05,411.71999999974645,6.03219e-05,411.71999999974645,0.0006395631,411.71999999974645,4.276237e-05
411.73499999974644,3.038813e-05,411.73499999974644,6.121851e-05,411.73499999974644,0.0007405064,411.73499999974644,4.216325e-05
411.7499999997464,3.061581e-05,411.7499999997464,5.602495e-05,411.7499999997464,0.0008291325,411.7499999997464,4.221934e-05
411.7649999997464,2.924626e-05,411.7649999997464,5.195741e-05,411.7649999997464,0.0008171028,411.7649999997464,4.180895e-05
411.7799999997464,2.895436e-05,411.7799999997464,5.056108e-05,411.7799999997464,0.0008132452,411.7799999997464,3.655185e-05
411.7949999997464,2.773121e-05,411.7949999997464,4.834553e-05,411.7949999997464,0.0008084495,411.7949999997464,3.487066e-05
411.80999999974637,2.719779e-05,411.80999999974637,4.871938e-05,411.80999999974637,0.0008156892,411.80999999974637,3.047284e-05
411.82499999974635,2.600851e-05,411.82499999974635,4.870116e-05,411.82499999974635,0.000815703,411.82499999974635,2.977089e-05
411.83999999974634,2.540186e-05,411.83999999974634,4.826651e-05,411.83999999974634,0.0008151766,411.83999999974634,2.952382e-05
411.8549999997463,2.028963e-05,411.8549999997463,4.653664e-05,411.8549999997463,0.0008151197,411.8549999997463,2.72185e-05
411.8699999997463,1.96039e-05,411.8699999997463,4.5104e-05,411.8699999997463,0.0008136238,411.8699999997463,2.319419e-05
411.8849999997463,1.80514e-05,411.8849999997463,4.113813e-05,411.8849999997463,0.0008092016,411.8849999997463,1.886793e-05
411.8999999997463,1.652356e-05,411.8999999997463,4.026493e-05,411.8999999997463,0.0008052971,411.8999999997463,1.362787e-05
411.91499999974627,1.462313e-05,411.91499999974627,3.596089e-05,411.91499999974627,0.0008031558,411.91499999974627,1.231149e-05
411.92999999974626,1.360304e-05,411.92999999974626,2.729551e-05,411.92999999974626,0.0007537539,411.92999999974626,8.818078e-06
411.94499999974624,1.34667e-05,411.94499999974624,2.620277e-05,411.94499999974624,0.0006879828,411.94499999974624,7.549485e-06
411.95999999974623,1.26278e-05,411.95999999974623,2.598521e-05,411.95999999974623,0.000615483,411.95999999974623,6.485587e-06
411.9749999997462,1.184735e-05,411.9749999997462,2.079841e-05,411.9749999997462,0.0005918313,411.9749999997462,5.979298e-06
411.9899999997462,1.095787e-05,411.9899999997462,1.792454e-05,411.9899999997462,0.0004468609,411.9899999997462,4.627284e-06
412.0049999997462,8.251971e-06,412.0049999997462,1.794653e-05,412.0049999997462,0.0002452365,412.0049999997462,4.463023e-06
412.0199999997462,7.844146e-06,412.0199999997462,1.850381e-05,412.0199999997462,0.0002027674,412.0199999997462,4.125132e-06
412.03499999974616,7.60896e-06,412.03499999974616,1.77079e-05,412.03499999974616,0.0001807163,412.03499999974616,3.794284e-06
412.04999999974615,7.360529e-06,412.04999999974615,1.665941e-05,412.04999999974615,0.000113061,412.04999999974615,3.885991e-06
412.06499999974614,7.410121e-06,412.06499999974614,1.416313e-05,412.06499999974614,5.542279e-05,412.06499999974614,3.83123e-06
412.0799999997461,7.117283e-06,412.0799999997461,1.443601e-05,412.0799999997461,2.779717e-05,412.0799999997461,3.856882e-06
412.0949999997461,6.890002e-06,412.0949999997461,1.384731e-05,412.0949999997461,2.237311e-05,412.0949999997461,3.745709e-06
412.1099999997461,6.797376e-06,412.1099999997461,1.370826e-05,412.1099999997461,2.173113e-05,412.1099999997461,3.707911e-06
412.1249999997461,6.132817e-06,412.1249999997461,1.174585e-05,412.1249999997461,1.735597e-05,412.1249999997461,3.84957e-06
412.13999999974607,6.237581e-06,412.13999999974607,1.139027e-05,412.13999999974607,1.3497e-05,412.13999999974607,4.196231e-06
412.15499999974605,6.255622e-06,412.15499999974605,1.131458e-05,412.15499999974605,1.326965e-05,412.15499999974605,4.138769e-06
412.16999999974604,6.380479e-06,412.16999999974604,1.108059e-05,412.16999999974604,1.39527e-05,412.16999999974604,4.199587e-06
412.184999999746,6.640129e-06,412.184999999746,1.073711e-05,412.184999999746,1.362373e-05,412.184999999746,4.510119e-06
412.199999999746,7.362442e-06,412.199999999746,1.061439e-05,412.199999999746,1.361132e-05,412.199999999746,4.565993e-06
412.214999999746,8.442667e-06,412.214999999746,1.115408e-05,412.214999999746,1.521607e-05,412.214999999746,4.494475e-06
412.229999999746,9.283444e-06,412.229999999746,1.691617e-05,412.229999999746,1.567841e-05,412.229999999746,4.572159e-06
412.24499999974597,1.489136e-05,412.24499999974597,2.020197e-05,412.24499999974597,1.564603e-05,412.24499999974597,4.844421e-06
412.25999999974596,1.703153e-05,412.25999999974596,2.006694e-05,412.25999999974596,1.5412e-05,412.25999999974596,4.930884e-06
412.27499999974594,1.977774e-05,412.27499999974594,1.991756e-05,412.27499999974594,1.572417e-05,412.27499999974594,4.902232e-06
412.28999999974593,2.132346e-05,412.28999999974593,2.270126e-05,412.28999999974593,1.599772e-05,412.28999999974593,4.916579e-06
412.3049999997459,2.211091e-05,412.3049999997459,2.5938e-05,412.3049999997459,1.616067e-05,412.3049999997459,4.956529e-06
412.3199999997459,2.444844e-05,412.3199999997459,2.632934e-05,412.3199999997459,1.697187e-05,412.3199999997459,4.998978e-06
412.3349999997459,2.490908e-05,412.3349999997459,2.622319e-05,412.3349999997459,1.715186e-05,412.3349999997459,5.154366e-06
412.3499999997459,2.577074e-05,412.3499999997459,2.630685e-05,412.3499999997459,1.782129e-05,412.3499999997459,5.118714e-06
412.36499999974586,2.694542e-05,412.36499999974586,2.631756e-05,412.36499999974586,2.188486e-05,412.36499999974586,5.091119e-06
412.37999999974585,3.066225e-05,412.37999999974585,2.644891e-05,412.37999999974585,2.460523e-05,412.37999999974585,5.018664e-06
412.39499999974583,3.125063e-05,412.39499999974583,2.731924e-05,412.39499999974583,2.830587e-05,412.39499999974583,4.95937e-06
412.4099999997458,3.190284e-05,412.4099999997458,2.846765e-05,412.4099999997458,3.528948e-05,412.4099999997458,5.029879e-06
412.4249999997458,3.259086e-05,412.4249999997458,2.857137e-05,412.4249999997458,4.465515e-05,412.4249999997458,4.882076e-06
412.4399999997458,3.256794e-05,412.4399999997458,3.094578e-05,412.4399999997458,0.0001019536,412.4399999997458,4.584466e-06
412.4549999997458,3.225764e-05,412.4549999997458,3.732938e-05,412.4549999997458,0.0001091055,412.4549999997458,4.627284e-06
412.46999999974577,3.204119e-05,412.46999999974577,4.05876e-05,412.46999999974577,0.0001158427,412.46999999974577,4.660651e-06
412.48499999974575,3.10058e-05,412.48499999974575,3.932189e-05,412.48499999974575,0.0001190091,412.48499999974575,4.642481e-06
412.49999999974574,2.883443e-05,412.49999999974574,4.03858e-05,412.49999999974574,0.0001195065,412.49999999974574,4.405843e-06
412.5149999997457,2.795383e-05,412.5149999997457,4.071616e-05,412.5149999997457,0.0001195135,412.5149999997457,4.559819e-06
412.5299999997457,2.647552e-05,412.5299999997457,4.331356e-05,412.5299999997457,0.000119483,412.5299999997457,4.648545e-06
412.5449999997457,2.533856e-05,412.5449999997457,4.684197e-05,412.5449999997457,0.0001193664,412.5449999997457,4.541245e-06
412.5599999997457,2.379437e-05,412.5599999997457,4.74601e-05,412.5599999997457,0.0001192587,412.5599999997457,4.599804e-06
412.57499999974567,2.22348e-05,412.57499999974567,4.757009e-05,412.57499999974567,0.0001190694,412.57499999974567,4.428167e-06
412.58999999974566,2.378489e-05,412.58999999974566,4.815197e-05,412.58999999974566,0.0001191419,412.58999999974566,4.321914e-06
412.60499999974564,2.22443e-05,412.60499999974564,4.987411e-05,412.60499999974564,0.0001189572,412.60499999974564,4.279333e-06
412.61999999974563,2.105689e-05,412.61999999974563,5.147857e-05,412.61999999974563,0.0001181175,412.61999999974563,4.162526e-06
412.6349999997456,1.559915e-05,412.6349999997456,5.21941e-05,412.6349999997456,0.0001172185,412.6349999997456,3.975583e-06
412.6499999997456,1.384426e-05,412.6499999997456,5.159228e-05,412.6499999997456,0.0001154421,412.6499999997456,3.914884e-06
412.6649999997456,1.235147e-05,412.6649999997456,5.097645e-05,412.6649999997456,0.0001124321,412.6649999997456,3.975583e-06
412.6799999997456,1.135187e-05,412.6799999997456,5.093913e-05,412.6799999997456,0.000101185,412.6799999997456,3.932833e-06
412.69499999974556,1.134194e-05,412.69499999974556,4.859025e-05,412.69499999974556,4.783468e-05,412.69499999974556,3.882364e-06
412.70999999974555,1.142978e-05,412.70999999974555,4.264362e-05,412.70999999974555,4.147133e-05,412.70999999974555,3.893234e-06
412.72499999974553,1.146301e-05,412.72499999974553,3.981248e-05,412.72499999974553,2.247864e-05,412.72499999974553,3.882364e-06
412.7399999997455,1.150104e-05,412.7399999997455,3.938274e-05,412.7399999997455,1.216415e-05,412.7399999997455,3.764466e-06
412.7549999997455,1.151573e-05,412.7549999997455,3.874228e-05,412.7549999997455,1.015315e-05,412.7549999997455,3.760722e-06
412.7699999997455,1.162167e-05,412.7699999997455,3.839347e-05,412.7699999997455,1.127717e-05,412.7699999997455,3.431686e-06
412.7849999997455,1.175304e-05,412.7849999997455,3.303945e-05,412.7849999997455,1.22507e-05,412.7849999997455,3.377901e-06
412.79999999974547,1.249547e-05,412.79999999974547,2.512081e-05,412.79999999974547,1.233321e-05,412.79999999974547,3.377901e-06
412.81499999974545,1.371648e-05,412.81499999974545,2.2329e-05,412.81499999974545,1.384527e-05,412.81499999974545,3.104077e-06
412.82999999974544,1.303617e-05,412.82999999974544,2.249743e-05,412.82999999974544,1.529272e-05,412.82999999974544,3.140172e-06
412.8449999997454,9.931514e-06,412.8449999997454,2.133997e-05,412.8449999997454,1.644837e-05,412.8449999997454,3.180289e-06
412.8599999997454,1.035237e-05,412.8599999997454,1.778885e-05,412.8599999997454,1.708438e-05,412.8599999997454,3.344373e-06
412.8749999997454,1.058116e-05,412.8749999997454,1.37175e-05,412.8749999997454,1.70398e-05,412.8749999997454,3.528828e-06
412.8899999997454,1.115535e-05,412.8899999997454,1.169898e-05,412.8899999997454,1.715515e-05,412.8899999997454,3.556662e-06
412.90499999974537,1.150104e-05,412.90499999974537,1.145194e-05,412.90499999974537,1.730557e-05,412.90499999974537,3.532818e-06
412.91999999974536,1.157916e-05,412.91999999974536,1.181401e-05,412.91999999974536,1.728277e-05,412.91999999974536,3.468433e-06
412.93499999974534,1.741026e-05,412.93499999974534,1.204311e-05,412.93499999974534,1.715843e-05,412.93499999974534,3.456227e-06
412.94999999974533,1.852815e-05,412.94999999974533,1.199741e-05,412.94999999974533,1.728766e-05,412.94999999974533,3.373728e-06
412.9649999997453,1.865393e-05,412.9649999997453,1.208981e-05,412.9649999997453,1.727543e-05,412.9649999997453,3.508812e-06
412.9799999997453,1.890447e-05,412.9799999997453,1.231721e-05,412.9799999997453,1.73803e-05,412.9799999997453,3.488681e-06
412.9949999997453,2.079096e-05,412.9949999997453,1.124089e-05,412.9949999997453,1.737138e-05,412.9949999997453,3.406967e-06
413.0099999997453,2.091189e-05,413.0099999997453,1.075546e-05,413.0099999997453,1.652697e-05,413.0099999997453,3.431686e-06
413.02499999974526,2.096839e-05,413.02499999974526,9.775687e-06,413.02499999974526,1.553671e-05,413.02499999974526,3.435788e-06
413.03999999974525,2.081263e-05,413.03999999974525,9.457824e-06,413.03999999974525,1.462313e-05,413.03999999974525,3.592131e-06
413.05499999974523,2.043836e-05,413.05499999974523,9.465269e-06,413.05499999974523,1.441062e-05,413.05499999974523,3.592131e-06
413.0699999997452,1.977703e-05,413.0699999997452,8.943388e-06,413.0699999997452,1.327071e-05,413.0699999997452,3.646619e-06
413.0849999997452,1.980692e-05,413.0849999997452,8.429308e-06,413.0849999997452,1.157916e-05,413.0849999997452,3.662038e-06
413.0999999997452,1.942343e-05,413.0999999997452,8.449338e-06,413.0999999997452,8.553727e-06,413.0999999997452,3.611685e-06
413.1149999997452,1.941472e-05,413.1149999997452,8.420948e-06,413.1149999997452,8.002378e-06,413.1149999997452,3.398688e-06
413.12999999974517,1.924419e-05,413.12999999974517,8.294538e-06,413.12999999974517,8.046266e-06,413.12999999974517,3.373728e-06
413.14499999974515,1.981901e-05,413.14499999974515,8.231461e-06,413.14499999974515,7.851327e-06,413.14499999974515,3.348582e-06
413.15999999974514,1.999239e-05,413.15999999974514,7.944076e-06,413.15999999974514,7.385367e-06,413.15999999974514,3.415227e-06
413.1749999997451,1.94951e-05,413.1749999997451,7.275834e-06,413.1749999997451,7.375824e-06,413.1749999997451,3.460301e-06
413.1899999997451,1.522625e-05,413.1899999997451,6.885912e-06,413.1899999997451,7.262268e-06,413.1899999997451,3.448066e-06
413.2049999997451,1.375033e-05,413.2049999997451,6.908378e-06,413.2049999997451,6.932803e-06,413.2049999997451,3.464369e-06
413.2199999997451,1.417705e-05,413.2199999997451,6.550423e-06,413.2199999997451,6.918566e-06,413.2199999997451,3.348582e-06
413.23499999974507,1.27001e-05,413.23499999974507,6.210422e-06,413.23499999974507,6.026232e-06,413.23499999974507,3.284874e-06
413.24999999974506,1.107296e-05,413.24999999974506,6.158032e-06,413.24999999974506,5.176183e-06,413.24999999974506,3.24605e-06
413.26499999974504,1.114398e-05,413.26499999974504,5.00461e-06,413.26499999974504,5.233022e-06,413.26499999974504,3.211145e-06
413.27999999974503,1.086232e-05,413.27999999974503,4.67875e-06,413.27999999974503,5.358047e-06,413.27999999974503,3.276286e-06
413.294999999745,1.113133e-05,413.294999999745,4.370531e-06,413.294999999745,5.423375e-06,413.294999999745,3.184716e-06
413.309999999745,1.123713e-05,413.309999999745,4.36408e-06,413.309999999745,5.554263e-06,413.309999999745,3.202359e-06
413.324999999745,1.154017e-05,413.324999999745,4.4218e-06,413.324999999745,5.222243e-06,413.324999999745,3.11314e-06
413.339999999745,1.173385e-05,413.339999999745,4.876302e-06,413.339999999745,5.159829e-06,413.339999999745,3.117661e-06
413.35499999974496,1.186399e-05,413.35499999974496,4.826943e-06,413.35499999974496,5.352786e-06,413.35499999974496,3.122176e-06
413.36999999974495,1.196213e-05,413.36999999974495,4.838602e-06,413.36999999974495,5.113207e-06,413.36999999974495,3.011947e-06
413.38499999974493,1.403324e-05,413.38499999974493,5.278585e-06,413.38499999974493,5.176183e-06,413.38499999974493,3.158065e-06
413.3999999997449,1.455457e-05,413.3999999997449,5.724127e-06,413.3999999997449,5.342249e-06,413.3999999997449,3.284874e-06
413.4149999997449,1.654231e-05,413.4149999997449,5.787757e-06,413.4149999997449,6.955118e-06,413.4149999997449,3.327482e-06
413.4299999997449,1.664333e-05,413.4299999997449,5.785323e-06,413.4299999997449,6.877724e-06,413.4299999997449,3.331712e-06
413.4449999997449,1.665941e-05,413.4449999997449,6.125922e-06,413.4449999997449,7.017624e-06,413.4449999997449,3.259043e-06
413.45999999974487,1.663233e-05,413.45999999974487,6.187698e-06,413.45999999974487,7.190141e-06,413.45999999974487,3.228645e-06
413.47499999974485,1.694612e-05,413.47499999974485,6.711871e-06,413.47499999974485,7.392992e-06,413.47499999974485,3.171418e-06
413.48999999974484,1.703897e-05,413.48999999974484,7.125195e-06,413.48999999974484,7.502692e-06,413.48999999974484,3.11314e-06
413.5049999997448,1.719533e-05,413.5049999997448,7.513949e-06,413.5049999997448,7.62006e-06,413.5049999997448,3.081303e-06
413.5199999997448,1.686864e-05,413.5199999997448,8.065501e-06,413.5199999997448,7.711938e-06,413.5199999997448,3.076727e-06
413.5349999997448,1.698017e-05,413.5349999997448,8.03926e-06,413.5349999997448,7.741108e-06,413.5349999997448,3.01662e-06
413.5499999997448,1.70555e-05,413.5499999997448,7.988284e-06,413.5499999997448,7.773794e-06,413.5499999997448,3.007266e-06
413.56499999974477,1.710169e-05,413.56499999974477,8.217759e-06,413.56499999974477,8.023475e-06,413.56499999974477,3.076727e-06
413.57999999974476,1.715761e-05,413.57999999974476,8.238303e-06,413.57999999974476,8.173069e-06,413.57999999974476,3.044509e-06
413.59499999974474,1.710087e-05,413.59499999974474,9.280408e-06,413.59499999974474,1.001907e-05,413.59499999974474,3.053749e-06
413.60999999974473,1.748696e-05,413.60999999974473,9.611476e-06,413.60999999974473,1.205714e-05,413.60999999974473,3.090432e-06
413.6249999997447,1.779202e-05,413.6249999997447,1.005696e-05,413.6249999997447,1.324095e-05,413.6249999997447,3.135683e-06
413.6399999997447,1.557565e-05,413.6399999997447,1.001485e-05,413.6399999997447,1.40533e-05,413.6399999997447,2.798606e-06
413.6549999997447,1.377285e-05,413.6549999997447,1.004294e-05,413.6549999997447,1.403826e-05,413.6549999997447,2.793568e-06
413.6699999997447,1.256966e-05,413.6699999997447,1.014482e-05,413.6699999997447,1.735759e-05,413.6699999997447,2.706488e-06
413.68499999974466,1.2465e-05,413.68499999974466,1.013231e-05,413.68499999974466,1.931944e-05,413.68499999974466,2.680338e-06
413.69999999974465,1.278742e-05,413.69999999974465,1.047815e-05,413.69999999974465,1.972996e-05,413.69999999974465,2.921734e-06
413.71499999974463,1.269122e-05,413.71499999974463,1.036732e-05,413.71499999974463,1.969423e-05,413.71499999974463,2.95052e-06
413.7299999997446,1.192793e-05,413.7299999997446,1.036053e-05,413.7299999997446,1.969638e-05,413.7299999997446,2.969556e-06
413.7449999997446,1.160347e-05,413.7449999997446,1.032239e-05,413.7449999997446,1.999098e-05,413.7449999997446,2.955291e-06
413.7599999997446,1.150472e-05,413.7599999997446,1.012953e-05,413.7599999997446,2.040939e-05,413.7599999997446,3.039879e-06
413.7749999997446,1.15194e-05,413.7749999997446,9.690296e-06,413.7749999997446,2.043078e-05,413.7749999997446,3.108612e-06
413.78999999974457,1.121831e-05,413.78999999974457,9.717876e-06,413.78999999974457,2.038937e-05,413.78999999974457,2.983753e-06
413.80499999974455,1.125216e-05,413.80499999974455,9.652426e-06,413.80499999974455,2.041974e-05,413.80499999974455,3.122176e-06
413.81999999974454,1.068318e-05,413.81999999974454,9.529049e-06,413.81999999974454,2.035964e-05,413.81999999974454,3.140172e-06
413.8349999997445,1.052911e-05,413.8349999997445,9.751159e-06,413.8349999997445,2.045558e-05,413.8349999997445,3.162522e-06
413.8499999997445,1.006816e-05,413.8499999997445,8.829253e-06,413.8499999997445,1.924126e-05,413.8499999997445,3.149131e-06
413.8649999997445,9.224075e-06,413.8649999997445,8.611173e-06,413.8649999997445,1.862673e-05,413.8649999997445,3.206755e-06
413.8799999997445,8.241723e-06,413.8799999997445,8.576751e-06,413.8799999997445,1.69561e-05,413.8799999997445,3.228645e-06
413.89499999974447,7.862084e-06,413.89499999974447,9.18275e-06,413.89499999974447,1.637971e-05,413.89499999974447,3.122176e-06
413.90999999974446,7.70097e-06,413.90999999974446,1.43979e-05,413.90999999974446,1.552946e-05,413.90999999974446,3.122176e-06
413.92499999974444,7.599698e-06,413.92499999974444,2.765135e-05,413.92499999974444,1.219769e-05,413.92499999974444,3.149131e-06
413.93999999974443,7.164627e-06,413.93999999974443,2.909559e-05,413.93999999974443,9.790087e-06,413.93999999974443,3.224279e-06
413.9549999997444,6.7391e-06,413.9549999997444,2.896214e-05,413.9549999997444,9.144318e-06,413.9549999997444,3.081303e-06
413.9699999997444,6.589018e-06,413.9699999997444,2.901899e-05,413.9699999997444,8.960697e-06,413.9699999997444,3.135683e-06
413.9849999997444,6.376062e-06,413.9849999997444,2.90704e-05,413.9849999997444,8.865873e-06,413.9849999997444,3.135683e-06
413.9999999997444,6.25337e-06,413.9999999997444,3.023197e-05,413.9999999997444,8.079462e-06,413.9999999997444,3.144655e-06
414.01499999974436,5.908198e-06,414.01499999974436,3.441032e-05,414.01499999974436,6.766219e-06,414.01499999974436,3.108612e-06
414.02999999974435,5.526294e-06,414.02999999974435,3.805479e-05,414.02999999974435,6.217223e-06,414.02999999974435,3.058359e-06
414.04499999974433,6.023894e-06,414.04499999974433,3.96998e-05,414.04499999974433,6.044903e-06,414.04499999974433,3.153601e-06
414.0599999997443,6.194524e-06,414.0599999997443,4.015353e-05,414.0599999997443,6.068162e-06,414.0599999997443,3.067557e-06
414.0749999997443,6.382687e-06,414.0749999997443,4.030095e-05,414.0749999997443,6.105191e-06,414.0749999997443,3.035241e-06
414.0899999997443,6.360578e-06,414.0899999997443,4.067393e-05,414.0899999997443,5.56693e-06,414.0899999997443,3.135683e-06
414.1049999997443,6.228541e-06,414.1049999997443,4.118502e-05,414.1049999997443,4.902232e-06,414.1049999997443,3.076727e-06
414.11999999974427,6.217223e-06,414.11999999974427,4.232231e-05,414.11999999974427,4.155752e-06,414.11999999974427,3.126685e-06
414.13499999974425,6.623136e-06,414.13499999974425,4.221233e-05,414.13499999974425,4.39624e-06,414.13499999974425,3.224279e-06
414.14999999974424,6.54612e-06,414.14999999974424,4.200258e-05,414.14999999974424,4.259536e-06,414.14999999974424,3.356985e-06
414.1649999997442,6.718165e-06,414.1649999997442,3.935519e-05,414.1649999997442,4.341427e-06,414.1649999997442,3.373728e-06
414.1799999997442,6.705572e-06,414.1799999997442,3.288003e-05,414.1799999997442,4.459865e-06,414.1799999997442,3.4111e-06
414.1949999997442,6.697164e-06,414.1949999997442,3.256621e-05,414.1949999997442,4.612038e-06,414.1949999997442,3.390388e-06
414.2099999997442,6.610363e-06,414.2099999997442,3.348161e-05,414.2099999997442,4.759348e-06,414.2099999997442,3.382069e-06
414.22499999974417,6.614623e-06,414.22499999974417,3.314162e-05,414.22499999974417,5.278585e-06,414.22499999974417,3.394541e-06
414.23999999974416,6.667651e-06,414.23999999974416,3.2354e-05,414.23999999974416,6.906339e-06,414.23999999974416,3.423466e-06
414.25499999974414,6.768301e-06,414.25499999974414,3.122492e-05,414.25499999974414,8.757163e-06,414.25499999974414,3.419349e-06
414.26999999974413,6.797376e-06,414.26999999974413,2.794627e-05,414.26999999974413,1.320047e-05,414.26999999974413,3.452149e-06
414.2849999997441,7.704628e-06,414.2849999997441,2.405989e-05,414.2849999997441,2.068023e-05,414.2849999997441,3.419349e-06
414.2999999997441,7.201887e-06,414.2999999997441,2.127187e-05,414.2999999997441,3.52803e-05,414.2999999997441,3.373728e-06
414.3149999997441,7.069622e-06,414.3149999997441,2.059901e-05,414.3149999997441,6.334925e-05,414.3149999997441,3.323245e-06
414.3299999997441,6.97938e-06,414.3299999997441,2.048517e-05,414.3299999997441,7.709837e-05,414.3299999997441,3.24605e-06
414.34499999974406,6.975343e-06,414.34499999974406,2.031392e-05,414.34499999974406,0.0001846252,414.34499999974406,3.224279e-06
414.35999999974405,6.989465e-06,414.35999999974405,1.938786e-05,414.35999999974405,0.0002835639,414.35999999974405,3.276286e-06
414.37499999974403,7.031661e-06,414.37499999974403,1.768959e-05,414.37499999974403,0.000297958,414.37499999974403,3.29344e-06
