X[s],a: EMG RMS 1-1,X[s].1,a: EMG RMS 1-2,X[s].2,a: EMG RMS 1-3,X[s].3,a: EMG RMS 1-4
430.0049999997298,7.178377e-06,430.0049999997298,5.360675e-06,430.0049999997298,4.450379e-06,430.0049999997298,2.887788e-06
430.0199999997298,7.287441e-06,430.0199999997298,5.088352e-06,430.0199999997298,4.282623e-06,430.0199999997298,2.843547e-06
430.0349999997298,7.254505e-06,430.0349999997298,4.418613e-06,430.0349999997298,4.29248e-06,430.0349999997298,2.892662e-06
430.0499999997298,7.599698e-06,430.0499999997298,3.989731e-06,430.0499999997298,4.39624e-06,430.0499999997298,2.969556e-06
430.06499999972976,7.711938e-06,430.06499999972976,3.83123e-06,430.06499999972976,4.494475e-06,430.06499999972976,3.025945e-06
430.07999999972975,7.713764e-06,430.07999999972975,3.775675e-06,430.07999999972975,4.478776e-06,430.07999999972975,3.01662e-06
430.09499999972974,7.625604e-06,430.09499999972974,3.950702e-06,430.09499999972974,4.312125e-06,430.09499999972974,3.058359e-06
430.1099999997297,7.1823e-06,430.1099999997297,5.273245e-06,430.1099999997297,4.338181e-06,430.1099999997297,3.153601e-06
430.1249999997297,7.455606e-06,430.1249999997297,5.943854e-06,430.1249999997297,4.354386e-06,430.1249999997297,3.180289e-06
430.1399999997297,7.168558e-06,430.1399999997297,7.27196e-06,430.1399999997297,4.418613e-06,430.1399999997297,3.348582e-06
430.1549999997297,6.900217e-06,430.1549999997297,7.318304e-06,430.1549999997297,4.318654e-06,430.1549999997297,3.306247e-06
430.16999999972967,6.916529e-06,430.16999999972967,7.266147e-06,430.16999999972967,4.318654e-06,430.16999999972967,3.206755e-06
430.18499999972965,6.69506e-06,430.18499999972965,7.322153e-06,430.18499999972965,3.947135e-06,430.18499999972965,3.117661e-06
430.19999999972964,6.774542e-06,430.19999999972964,7.16266e-06,430.19999999972964,3.775675e-06,430.19999999972964,3.122176e-06
430.2149999997296,6.603967e-06,430.2149999997296,7.10738e-06,430.2149999997296,3.520835e-06,430.2149999997296,3.162522e-06
430.2299999997296,6.614623e-06,430.2299999997296,7.075597e-06,430.2299999997296,3.528828e-06,430.2299999997296,3.099535e-06
430.2449999997296,6.644371e-06,430.2449999997296,7.043671e-06,430.2449999997296,3.56062e-06,430.2449999997296,3.090432e-06
430.2599999997296,6.595429e-06,430.2599999997296,7.105398e-06,430.2599999997296,3.468433e-06,430.2599999997296,3.140172e-06
430.2749999997296,6.373853e-06,430.2749999997296,7.085544e-06,430.2749999997296,3.488681e-06,430.2749999997296,3.11314e-06
430.28999999972956,6.203613e-06,430.28999999972956,7.156758e-06,430.28999999972956,3.356985e-06,430.28999999972956,3.104077e-06
430.30499999972955,5.392116e-06,430.30499999972955,7.172487e-06,430.30499999972955,3.263362e-06,430.30499999972955,2.997883e-06
430.31999999972953,5.350154e-06,430.31999999972953,7.802733e-06,430.31999999972953,3.149131e-06,430.31999999972953,3.007266e-06
430.3349999997295,5.381656e-06,430.3349999997295,8.077717e-06,430.3349999997295,3.327482e-06,430.3349999997295,3.058359e-06
430.3499999997295,5.475077e-06,430.3499999997295,8.255384e-06,430.3499999997295,3.588207e-06,430.3499999997295,2.993181e-06
430.3649999997295,5.664756e-06,430.3649999997295,7.256447e-06,430.3649999997295,3.611685e-06,430.3649999997295,3.021286e-06
430.3799999997295,5.358047e-06,430.3799999997295,6.851046e-06,430.3799999997295,3.688867e-06,430.3799999997295,2.916909e-06
430.39499999972946,5.993417e-06,430.39499999972946,5.508422e-06,430.39499999972946,4.090841e-06,430.39499999972946,2.902385e-06
430.40999999972945,5.960421e-06,430.40999999972945,5.541568e-06,430.40999999972945,4.135364e-06,430.40999999972945,2.833621e-06
430.42499999972944,5.910582e-06,430.42499999972944,5.544109e-06,430.42499999972944,4.179412e-06,430.42499999972944,2.803635e-06
430.4399999997294,5.998116e-06,430.4399999997294,5.425972e-06,430.4399999997294,4.318654e-06,430.4399999997294,2.773325e-06
430.4549999997294,5.760922e-06,430.4549999997294,5.384273e-06,430.4549999997294,4.331681e-06,430.4549999997294,2.988471e-06
430.4699999997294,5.845879e-06,430.4699999997294,5.368553e-06,430.4699999997294,4.389827e-06,430.4699999997294,2.988471e-06
430.4849999997294,7.025649e-06,430.4849999997294,5.371176e-06,430.4849999997294,4.841512e-06,430.4849999997294,3.140172e-06
430.49999999972937,7.285508e-06,430.49999999972937,5.444114e-06,430.49999999972937,4.887844e-06,430.49999999972937,3.053749e-06
430.51499999972935,7.219469e-06,430.51499999972935,5.368553e-06,430.51499999972935,4.853136e-06,430.51499999972935,3.044509e-06
430.52999999972934,7.22532e-06,430.52999999972934,5.389503e-06,430.52999999972934,5.029879e-06,430.52999999972934,3.153601e-06
430.5449999997293,7.242846e-06,430.5449999997293,5.281253e-06,430.5449999997293,5.029879e-06,430.5449999997293,3.144655e-06
430.5599999997293,7.312527e-06,430.5599999997293,5.099414e-06,430.5599999997293,5.018664e-06,430.5599999997293,3.122176e-06
430.5749999997293,7.575563e-06,430.5749999997293,3.936414e-06,430.5749999997293,5.055022e-06,430.5749999997293,3.085871e-06
430.5899999997293,7.673483e-06,430.5899999997293,3.361178e-06,430.5899999997293,5.038274e-06,430.5899999997293,3.030597e-06
430.6049999997293,7.573703e-06,430.6049999997293,2.921734e-06,430.6049999997293,4.884961e-06,430.6049999997293,2.974296e-06
430.61999999972926,7.381551e-06,430.61999999972926,2.907234e-06,430.61999999972926,4.936594e-06,430.61999999972926,2.916909e-06
430.63499999972925,7.354785e-06,430.63499999972925,2.964809e-06,430.63499999972925,4.838602e-06,430.63499999972925,2.926552e-06
430.64999999972923,7.197973e-06,430.64999999972923,3.237359e-06,430.64999999972923,4.841512e-06,430.64999999972923,2.878015e-06
430.6649999997292,7.025649e-06,430.6649999997292,4.618143e-06,430.6649999997292,4.81818e-06,430.6649999997292,2.868209e-06
430.6799999997292,7.324076e-06,430.6799999997292,5.257193e-06,430.6799999997292,4.890725e-06,430.6799999997292,3.002579e-06
430.6949999997292,7.498936e-06,430.6949999997292,5.768253e-06,430.6949999997292,4.841512e-06,430.6949999997292,2.916909e-06
430.7099999997292,7.478244e-06,430.7099999997292,6.194524e-06,430.7099999997292,4.913713e-06,430.7099999997292,2.793568e-06
430.72499999972916,7.829767e-06,430.72499999972916,6.928738e-06,430.72499999972916,4.990517e-06,430.72499999972916,2.897527e-06
430.73999999972915,6.74119e-06,430.73999999972915,8.666614e-06,430.73999999972915,4.578317e-06,430.73999999972915,3.126685e-06
430.75499999972914,6.861319e-06,430.75499999972914,1.070031e-05,430.75499999972914,4.602866e-06,430.75499999972914,3.189136e-06
430.7699999997291,7.781039e-06,430.7699999997291,1.142608e-05,430.7699999997291,4.68176e-06,430.7699999997291,3.276286e-06
430.7849999997291,7.833364e-06,430.7849999997291,1.193265e-05,430.7849999997291,4.762306e-06,430.7849999997291,3.361178e-06
430.7999999997291,7.876405e-06,430.7999999997291,1.208398e-05,430.7999999997291,5.154366e-06,430.7999999997291,3.480596e-06
430.8149999997291,7.790086e-06,430.8149999997291,1.241404e-05,430.8149999997291,5.412975e-06,430.8149999997291,3.504795e-06
430.82999999972907,7.699141e-06,430.82999999972907,1.258198e-05,430.82999999972907,5.48279e-06,430.82999999972907,3.508812e-06
430.84499999972905,7.968863e-06,430.84499999972905,1.27466e-05,430.84499999972905,5.609782e-06,430.84499999972905,3.658189e-06
430.85999999972904,8.350395e-06,430.85999999972904,1.310085e-05,430.85999999972904,6.926705e-06,430.85999999972904,3.646619e-06
430.874999999729,8.637307e-06,430.874999999729,1.335536e-05,430.874999999729,1.557203e-05,430.874999999729,3.692683e-06
430.889999999729,8.60299e-06,430.889999999729,1.368049e-05,430.889999999729,1.809194e-05,430.889999999729,3.73441e-06
430.904999999729,8.485937e-06,430.904999999729,1.367946e-05,430.904999999729,4.154294e-05,430.904999999729,3.856882e-06
430.919999999729,8.663363e-06,430.919999999729,1.365059e-05,430.919999999729,7.745692e-05,430.919999999729,3.8751e-06
430.934999999729,8.43766e-06,430.934999999729,1.605836e-05,430.934999999729,8.209681e-05,430.934999999729,4.05626e-06
430.94999999972896,8.903924e-06,430.94999999972896,1.61981e-05,430.94999999972896,0.0001003135,430.94999999972896,4.052786e-06
430.96499999972895,8.926046e-06,430.96499999972895,1.630213e-05,430.96499999972895,0.0001062897,430.96499999972895,3.972038e-06
430.97999999972893,8.729774e-06,430.97999999972893,1.632717e-05,430.97999999972893,0.0001065532,430.97999999972893,3.786851e-06
430.9949999997289,8.699061e-06,430.9949999997289,1.476501e-05,430.9949999997289,0.0001076372,430.9949999997289,3.812802e-06
431.0099999997289,8.40923e-06,431.0099999997289,1.429283e-05,431.0099999997289,0.0001082968,431.0099999997289,3.760722e-06
431.0249999997289,7.815361e-06,431.0249999997289,1.411831e-05,431.0249999997289,0.0001083756,431.0249999997289,3.696496e-06
431.0399999997289,7.93698e-06,431.0399999997289,1.416512e-05,431.0399999997289,0.0001083524,431.0399999997289,3.500774e-06
431.05499999972886,8.29284e-06,431.05499999972886,1.424248e-05,431.05499999972886,0.000108348,431.05499999972886,3.524834e-06
431.06999999972885,8.289442e-06,431.06999999972885,1.406633e-05,431.06999999972885,0.0001083703,431.06999999972885,3.552699e-06
431.08499999972884,8.658483e-06,431.08499999972884,1.479456e-05,431.08499999972884,0.00010842,431.08499999972884,3.665883e-06
431.0999999997288,1.016008e-05,431.0999999997288,1.534146e-05,431.0999999997288,0.0001084252,431.0999999997288,3.584279e-06
431.1149999997288,1.048353e-05,431.1149999997288,1.553943e-05,431.1149999997288,0.0001081017,431.1149999997288,3.665883e-06
431.1299999997288,1.059978e-05,431.1299999997288,1.519105e-05,431.1299999997288,0.0001067747,431.1299999997288,3.611685e-06
431.1449999997288,1.107296e-05,431.1449999997288,1.50887e-05,431.1449999997288,0.0001062238,431.1449999997288,3.532818e-06
431.15999999972877,1.128966e-05,431.15999999972877,1.490649e-05,431.15999999972877,9.186093e-05,431.15999999972877,3.460301e-06
431.17499999972875,1.313735e-05,431.17499999972875,1.455554e-05,431.17499999972875,6.972272e-05,431.17499999972875,3.314757e-06
431.18999999972874,1.326328e-05,431.18999999972874,1.147406e-05,431.18999999972874,6.163291e-05,431.18999999972874,3.241707e-06
431.2049999997287,1.37134e-05,431.2049999997287,1.119946e-05,431.2049999997287,3.170707e-05,431.2049999997287,3.24605e-06
431.2199999997287,1.406132e-05,431.2199999997287,1.080381e-05,431.2199999997287,1.96835e-05,431.2199999997287,3.28916e-06
431.2349999997287,1.427311e-05,431.2349999997287,1.066999e-05,431.2349999997287,1.78031e-05,431.2349999997287,3.241707e-06
431.2499999997287,1.503914e-05,431.2499999997287,1.040801e-05,431.2499999997287,1.140387e-05,431.2499999997287,3.104077e-06
431.2649999997287,1.565054e-05,431.2649999997287,1.012675e-05,431.2649999997287,7.033664e-06,431.2649999997287,3.162522e-06
431.27999999972866,1.621028e-05,431.27999999972866,9.468245e-06,431.27999999972866,6.435437e-06,431.27999999972866,3.153601e-06
431.29499999972865,1.658143e-05,431.29499999972865,9.172005e-06,431.29499999972865,6.589018e-06,431.29499999972865,3.267676e-06
431.30999999972863,1.723052e-05,431.30999999972863,8.976404e-06,431.30999999972863,6.262374e-06,431.30999999972863,3.301983e-06
431.3249999997286,1.842447e-05,431.3249999997286,8.294538e-06,431.3249999997286,5.594695e-06,431.3249999997286,3.386231e-06
431.3399999997286,1.928368e-05,431.3399999997286,6.920602e-06,431.3399999997286,4.982041e-06,431.3399999997286,3.452149e-06
431.3549999997286,1.921782e-05,431.3549999997286,4.590608e-06,431.3549999997286,5.024275e-06,431.3549999997286,3.568524e-06
431.3699999997286,2.070201e-05,431.3699999997286,4.905105e-06,431.3699999997286,5.579567e-06,431.3699999997286,3.520835e-06
431.38499999972856,2.325787e-05,431.38499999972856,5.410373e-06,431.38499999972856,5.701935e-06,431.38499999972856,3.584279e-06
431.39999999972855,2.586513e-05,431.39999999972855,6.000464e-06,431.39999999972855,5.692045e-06,431.39999999972855,3.715501e-06
431.41499999972854,2.726297e-05,431.41499999972854,5.976941e-06,431.41499999972854,5.802342e-06,431.41499999972854,3.775675e-06
431.4299999997285,2.986726e-05,431.4299999997285,6.459471e-06,431.4299999997285,5.874723e-06,431.4299999997285,3.954266e-06
431.4449999997285,3.024036e-05,431.4449999997285,6.944984e-06,431.4449999997285,5.986361e-06,431.4449999997285,4.282623e-06
431.4599999997285,3.160695e-05,431.4599999997285,8.454338e-06,431.4599999997285,6.304968e-06,431.4599999997285,4.621192e-06
431.4749999997285,3.293141e-05,431.4749999997285,8.703918e-06,431.4749999997285,6.932803e-06,431.4749999997285,4.782967e-06
431.48999999972847,3.574834e-05,431.48999999972847,8.862694e-06,431.48999999972847,7.345202e-06,431.48999999972847,4.847328e-06
431.50499999972845,3.720995e-05,431.50499999972845,1.047412e-05,431.50499999972845,8.43432e-06,431.50499999972845,4.976383e-06
431.51999999972844,3.924264e-05,431.51999999972844,1.058915e-05,431.51999999972844,1.068713e-05,431.51999999972844,5.148897e-06
431.5349999997284,4.193209e-05,431.5349999997284,1.067262e-05,431.5349999997284,1.631854e-05,431.5349999997284,5.281253e-06
431.5499999997284,4.669679e-05,431.5499999997284,1.227941e-05,431.5499999997284,2.073261e-05,431.5499999997284,5.331691e-06
431.5649999997284,4.831755e-05,431.5649999997284,1.299071e-05,431.5649999997284,3.093849e-05,431.5649999997284,5.614802e-06
431.5799999997284,4.854646e-05,431.5799999997284,3.605752e-05,431.5799999997284,3.910239e-05,431.5799999997284,7.671647e-06
431.5949999997284,5.076822e-05,431.5949999997284,5.860319e-05,431.5949999997284,4.42629e-05,431.5949999997284,1.204194e-05
431.60999999972836,5.317617e-05,431.60999999972836,6.065051e-05,431.60999999972836,5.094328e-05,431.60999999972836,1.471436e-05
431.62499999972835,5.404485e-05,431.62499999972835,6.075841e-05,431.62499999972835,5.491364e-05,431.62499999972835,1.499787e-05
431.63999999972833,5.383828e-05,431.63999999972833,6.141012e-05,431.63999999972833,5.846095e-05,431.63999999972833,1.503071e-05
431.6549999997283,5.295398e-05,431.6549999997283,6.15524e-05,431.6549999997283,6.402871e-05,431.6549999997283,1.546856e-05
431.6699999997283,5.195822e-05,431.6699999997283,6.159999e-05,431.6699999997283,6.535309e-05,431.6699999997283,1.580281e-05
431.6849999997283,5.158982e-05,431.6849999997283,6.286935e-05,431.6849999997283,6.572471e-05,431.6849999997283,1.605572e-05
431.6999999997283,5.181351e-05,431.6999999997283,6.345256e-05,431.6999999997283,6.650114e-05,431.6999999997283,1.655252e-05
431.71499999972826,5.114612e-05,431.71499999972826,6.347409e-05,431.71499999972826,6.662008e-05,431.71499999972826,1.822691e-05
431.72999999972825,5.039951e-05,431.72999999972825,6.367285e-05,431.72999999972825,6.735127e-05,431.72999999972825,2.062156e-05
431.74499999972824,4.923222e-05,431.74499999972824,6.367595e-05,431.74499999972824,6.751484e-05,431.74499999972824,2.076045e-05
431.7599999997282,4.814231e-05,431.7599999997282,6.372172e-05,431.7599999997282,6.823376e-05,431.7599999997282,2.100129e-05
431.7749999997282,4.619088e-05,431.7749999997282,6.386482e-05,431.7749999997282,6.827112e-05,431.7749999997282,2.103949e-05
431.7899999997282,4.34068e-05,431.7899999997282,6.378337e-05,431.7899999997282,6.734416e-05,431.7899999997282,2.10281e-05
431.8049999997282,3.984078e-05,431.8049999997282,6.351846e-05,431.8049999997282,6.537852e-05,431.8049999997282,2.109832e-05
431.81999999972817,3.837989e-05,431.81999999972817,6.300476e-05,431.81999999972817,5.843468e-05,431.81999999972817,2.121152e-05
431.83499999972815,3.860168e-05,431.83499999972815,4.903927e-05,431.83499999972815,5.727276e-05,431.83499999972815,1.998182e-05
431.84999999972814,3.538635e-05,431.84999999972814,2.631221e-05,431.84999999972814,5.348073e-05,431.84999999972814,1.88627e-05
431.8649999997281,3.177808e-05,431.8649999997281,2.375704e-05,431.8649999997281,4.810777e-05,431.8649999997281,1.673197e-05
431.8799999997281,2.964334e-05,431.8799999997281,2.341963e-05,431.8799999997281,4.084293e-05,431.8799999997281,1.663825e-05
431.8949999997281,2.896895e-05,431.8949999997281,2.150371e-05,431.8949999997281,3.949882e-05,431.8949999997281,1.675721e-05
431.9099999997281,2.926648e-05,431.9099999997281,2.130892e-05,431.9099999997281,3.173549e-05,431.9099999997281,1.655337e-05
431.9249999997281,2.869927e-05,431.9249999997281,2.092132e-05,431.9249999997281,3.419514e-05,431.9249999997281,1.615369e-05
431.93999999972806,2.789582e-05,431.93999999972806,1.404428e-05,431.93999999972806,9.466876e-05,431.93999999972806,1.610653e-05
431.95499999972805,2.937074e-05,431.95499999972805,1.382899e-05,431.95499999972805,0.0001732811,431.95499999972805,1.575281e-05
431.96999999972803,2.943877e-05,431.96999999972803,1.362373e-05,431.96999999972803,0.0001795573,431.96999999972803,1.065016e-05
431.984999999728,2.949327e-05,431.984999999728,1.365369e-05,431.984999999728,0.0002326717,431.984999999728,1.2397e-05
431.999999999728,2.867816e-05,431.999999999728,1.342164e-05,431.999999999728,0.0002793932,431.999999999728,1.235489e-05
432.014999999728,2.818818e-05,432.014999999728,1.268234e-05,432.014999999728,0.0002828689,432.014999999728,1.221154e-05
432.029999999728,2.787662e-05,432.029999999728,1.254385e-05,432.029999999728,0.0002863114,432.029999999728,1.214097e-05
432.04499999972796,2.693078e-05,432.04499999972796,1.288947e-05,432.04499999972796,0.000291982,432.04499999972796,1.208631e-05
432.05999999972795,2.649573e-05,432.05999999972795,1.262891e-05,432.05999999972795,0.000294603,432.05999999972795,1.17038e-05
432.07499999972794,2.405345e-05,432.07499999972794,1.173505e-05,432.07499999972794,0.0002949564,432.07499999972794,1.094887e-05
432.0899999997279,2.316319e-05,432.0899999997279,1.144702e-05,432.0899999997279,0.000294952,432.0899999997279,1.058116e-05
432.1049999997279,2.256683e-05,432.1049999997279,1.070162e-05,432.1049999997279,0.0002949805,432.1049999997279,1.059712e-05
432.1199999997279,2.23706e-05,432.1199999997279,1.050098e-05,432.1199999997279,0.0002950361,432.1199999997279,1.055984e-05
432.1349999997279,2.062019e-05,432.1349999997279,1.03809e-05,432.1349999997279,0.0002950144,432.1349999997279,1.033739e-05
432.14999999972787,2.029588e-05,432.14999999972787,1.026628e-05,432.14999999972787,0.0002947402,432.14999999972787,9.988088e-06
432.16499999972785,1.924858e-05,432.16499999972785,1.021539e-05,432.16499999972785,0.000294063,432.16499999972785,9.582119e-06
432.17999999972784,1.764973e-05,432.17999999972784,1.023743e-05,432.17999999972784,0.000293581,432.17999999972784,9.523133e-06
432.1949999997278,1.501758e-05,432.1949999997278,1.02388e-05,432.1949999997278,0.0002551622,432.1949999997278,9.265217e-06
432.2099999997278,1.011701e-05,432.2099999997278,1.004855e-05,432.2099999997278,0.0002335164,432.2099999997278,8.77805e-06
432.2249999997278,9.088692e-06,432.2249999997278,8.499207e-06,432.2249999997278,0.0002229387,432.2249999997278,6.640129e-06
432.2399999997278,8.40923e-06,432.2399999997278,7.984756e-06,432.2399999997278,0.0001475704,432.2399999997278,3.615583e-06
432.2549999997278,8.209184e-06,432.2549999997278,7.498936e-06,432.2549999997278,7.723382e-05,432.2549999997278,3.352786e-06
432.26999999972776,8.336888e-06,432.26999999972776,7.252564e-06,432.26999999972776,7.201417e-05,432.26999999972776,3.007266e-06
432.28499999972775,7.935205e-06,432.28499999972775,6.420096e-06,432.28499999972775,5.805934e-05,432.28499999972775,2.768241e-06
432.29999999972773,7.383459e-06,432.29999999972773,5.637336e-06,432.29999999972773,3.462458e-05,432.29999999972773,2.685588e-06
432.3149999997277,7.268085e-06,432.3149999997277,5.397339e-06,432.3149999997277,1.506441e-05,432.3149999997277,2.690828e-06
432.3299999997277,6.764137e-06,432.3299999997277,5.438937e-06,432.3299999997277,7.16266e-06,432.3299999997277,2.680338e-06
432.3449999997277,6.435437e-06,432.3449999997277,4.756387e-06,432.3449999997277,7.250621e-06,432.3449999997277,2.600309e-06
432.3599999997277,6.194524e-06,432.3599999997277,4.605925e-06,432.3599999997277,1.144579e-05,432.3599999997277,2.659232e-06
432.37499999972766,5.995767e-06,432.37499999972766,4.226336e-06,432.37499999972766,1.359579e-05,432.37499999972766,2.653929e-06
432.38999999972765,5.948592e-06,432.38999999972765,4.262842e-06,432.38999999972765,1.864336e-05,432.38999999972765,2.664524e-06
432.40499999972764,5.692045e-06,432.40499999972764,4.29248e-06,432.40499999972764,3.327524e-05,432.40499999972764,2.727227e-06
432.4199999997276,5.662269e-06,432.4199999997276,4.791795e-06,432.4199999997276,4.063858e-05,432.4199999997276,3.072146e-06
432.4349999997276,5.407768e-06,432.4349999997276,4.965048e-06,432.4349999997276,4.113642e-05,432.4349999997276,3.352786e-06
432.4499999997276,4.913713e-06,432.4499999997276,4.993339e-06,432.4499999997276,4.496073e-05,432.4499999997276,3.452149e-06
432.4649999997276,4.663672e-06,432.4649999997276,4.925167e-06,432.4649999997276,4.959427e-05,432.4649999997276,3.439886e-06
432.47999999972757,4.550541e-06,432.47999999972757,4.856038e-06,432.47999999972757,5.147611e-05,432.47999999972757,3.54476e-06
432.49499999972755,4.252917e-06,432.49499999972755,5.192486e-06,432.49499999972755,5.164713e-05,432.49499999972755,3.599965e-06
432.50999999972754,3.65048e-06,432.50999999972754,5.922486e-06,432.50999999972754,5.172998e-05,432.50999999972754,3.627253e-06
432.5249999997275,3.340158e-06,432.5249999997275,6.382687e-06,432.5249999997275,5.17553e-05,432.5249999997275,3.730636e-06
432.5399999997275,3.406967e-06,432.5399999997275,6.365006e-06,432.5399999997275,5.176347e-05,432.5399999997275,3.692683e-06
432.5549999997275,3.331712e-06,432.5549999997275,6.307202e-06,432.5549999997275,5.179638e-05,432.5549999997275,3.753223e-06
432.5699999997275,3.162522e-06,432.5699999997275,6.291548e-06,432.5699999997275,5.19292e-05,432.5699999997275,3.756974e-06
432.5849999997275,3.076727e-06,432.5849999997275,6.439814e-06,432.5849999997275,5.206277e-05,432.5849999997275,3.816494e-06
432.59999999972746,3.072146e-06,432.59999999972746,6.391509e-06,432.59999999972746,5.179285e-05,432.59999999972746,3.805405e-06
432.61499999972744,3.030597e-06,432.61499999972744,6.459471e-06,432.61499999972744,5.019001e-05,432.61499999972744,3.786851e-06
432.62999999972743,2.940956e-06,432.62999999972743,6.444187e-06,432.62999999972743,4.974883e-05,432.62999999972743,3.79057e-06
432.6449999997274,3.035241e-06,432.6449999997274,7.97593e-06,432.6449999997274,4.672575e-05,432.6449999997274,3.73818e-06
432.6599999997274,3.039879e-06,432.6599999997274,8.763595e-06,432.6599999997274,3.609305e-05,432.6599999997274,3.756974e-06
432.6749999997274,2.921734e-06,432.6749999997274,8.905506e-06,432.6749999997274,2.931265e-05,432.6749999997274,3.206755e-06
432.6899999997274,2.916909e-06,432.6899999997274,1.021677e-05,432.6899999997274,2.875028e-05,432.6899999997274,3.189136e-06
432.70499999972736,3.049133e-06,432.70499999972736,1.060643e-05,432.70499999972736,2.29002e-05,432.70499999972736,3.094987e-06
432.71999999972735,3.144655e-06,432.71999999972735,1.069504e-05,432.71999999972735,1.361546e-05,432.71999999972735,3.035241e-06
432.73499999972734,3.206755e-06,432.73499999972734,1.106787e-05,432.73499999972734,7.70097e-06,432.73499999972734,2.921734e-06
432.7499999997273,3.419349e-06,432.7499999997273,1.147529e-05,432.7499999997273,7.137048e-06,432.7499999997273,2.848496e-06
432.7649999997273,3.464369e-06,432.7649999997273,1.105004e-05,432.7649999997273,6.916529e-06,432.7649999997273,2.912075e-06
432.7799999997273,3.96849e-06,432.7799999997273,1.09643e-05,432.7799999997273,7.033664e-06,432.7799999997273,2.945742e-06
432.7949999997273,4.05626e-06,432.7949999997273,1.162167e-05,432.7949999997273,7.047669e-06,432.7949999997273,3.099535e-06
432.80999999972727,4.080498e-06,432.80999999972727,1.188771e-05,432.80999999972727,6.855157e-06,432.80999999972727,3.104077e-06
432.82499999972725,4.094283e-06,432.82499999972725,1.20021e-05,432.82499999972725,6.257873e-06,432.82499999972725,3.135683e-06
432.83999999972724,4.118297e-06,432.83999999972724,1.222191e-05,432.83999999972724,5.265225e-06,432.83999999972724,3.049133e-06
432.8549999997272,4.125132e-06,432.8549999997272,1.26211e-05,432.8549999997272,4.821102e-06,432.8549999997272,3.007266e-06
432.8699999997272,4.155752e-06,432.8699999997272,1.28993e-05,432.8699999997272,5.222243e-06,432.8699999997272,2.955291e-06
432.8849999997272,4.11145e-06,432.8849999997272,1.300696e-05,432.8849999997272,5.007424e-06,432.8849999997272,2.960054e-06
432.8999999997272,4.087396e-06,432.8999999997272,1.191138e-05,432.8999999997272,4.768218e-06,432.8999999997272,2.955291e-06
432.9149999997272,4.325173e-06,432.9149999997272,1.175424e-05,432.9149999997272,5.015856e-06,432.9149999997272,2.988471e-06
432.92999999972716,4.562907e-06,432.92999999972716,1.122835e-05,432.92999999972716,5.257193e-06,432.92999999972716,2.945742e-06
432.94499999972714,5.066156e-06,432.94499999972714,1.036053e-05,432.94499999972714,5.278585e-06,432.94499999972714,2.993181e-06
432.95999999972713,5.920107e-06,432.95999999972713,1.004294e-05,432.95999999972713,5.464775e-06,432.95999999972713,3.053749e-06
432.9749999997271,6.056544e-06,432.9749999997271,9.975386e-06,432.9749999997271,5.711809e-06,432.9749999997271,3.035241e-06
432.9899999997271,6.109804e-06,432.9899999997271,9.576237e-06,432.9899999997271,5.889093e-06,432.9899999997271,3.062961e-06
433.0049999997271,6.091332e-06,433.0049999997271,9.76271e-06,433.0049999997271,5.969867e-06,433.0049999997271,2.873116e-06
433.0199999997271,5.939112e-06,433.0199999997271,9.856052e-06,433.0199999997271,5.981653e-06,433.0199999997271,2.863294e-06
433.03499999972706,5.765811e-06,433.03499999972706,1.024843e-05,433.03499999972706,5.946224e-06,433.03499999972706,2.838588e-06
433.04999999972705,5.758477e-06,433.04999999972705,1.015037e-05,433.04999999972705,6.205884e-06,433.04999999972705,2.798606e-06
433.06499999972704,6.153455e-06,433.06499999972704,1.04647e-05,433.06499999972704,6.481242e-06,433.06499999972704,2.783465e-06
433.079999999727,8.372296e-06,433.079999999727,1.049024e-05,433.079999999727,6.826328e-06,433.079999999727,2.788521e-06
433.094999999727,9.931514e-06,433.094999999727,1.0625e-05,433.094999999727,7.316379e-06,433.094999999727,3.568524e-06
433.109999999727,1.011144e-05,433.109999999727,1.039175e-05,433.109999999727,7.385367e-06,433.109999999727,3.73441e-06
433.124999999727,1.05545e-05,433.124999999727,1.053446e-05,433.124999999727,7.1823e-06,433.124999999727,3.961384e-06
433.13999999972697,1.128591e-05,433.13999999972697,1.178058e-05,433.13999999972697,7.178377e-06,433.13999999972697,4.162526e-06
433.15499999972695,1.203375e-05,433.15499999972695,1.213516e-05,433.15499999972695,8.400851e-06,433.15499999972695,4.370531e-06
433.16999999972694,1.335641e-05,433.16999999972694,1.289056e-05,433.16999999972694,9.694656e-06,433.16999999972694,4.424985e-06
433.1849999997269,1.416313e-05,433.1849999997269,1.356882e-05,433.1849999997269,1.050366e-05,433.1849999997269,4.973552e-06
433.1999999997269,1.496214e-05,433.1999999997269,1.551766e-05,433.1999999997269,1.090633e-05,433.1999999997269,5.057808e-06
433.2149999997269,1.568021e-05,433.2149999997269,1.719861e-05,433.2149999997269,1.122458e-05,433.2149999997269,5.523745e-06
433.2299999997269,1.701415e-05,433.2299999997269,1.979767e-05,433.2299999997269,1.701001e-05,433.2299999997269,5.953326e-06
433.2449999997269,2.204072e-05,433.2449999997269,2.588854e-05,433.2449999997269,3.289245e-05,433.2449999997269,6.201342e-06
433.25999999972686,3.199499e-05,433.25999999972686,2.846814e-05,433.25999999972686,3.725686e-05,433.25999999972686,6.682424e-06
433.27499999972684,3.881711e-05,433.27499999972684,3.028737e-05,433.27499999972684,0.0001337109,433.27499999972684,6.782854e-06
433.28999999972683,3.956154e-05,433.28999999972683,3.313312e-05,433.28999999972683,0.0003891525,433.28999999972683,7.197973e-06
433.3049999997268,4.249637e-05,433.3049999997268,3.422067e-05,433.3049999997268,0.0005370634,433.3049999997268,8.185125e-06
433.3199999997268,4.497671e-05,433.3199999997268,3.694056e-05,433.3199999997268,0.0007049503,433.3199999997268,8.981111e-06
433.3349999997268,4.518762e-05,433.3349999997268,3.984184e-05,433.3349999997268,0.0007192355,433.3349999997268,9.562988e-06
433.3499999997268,4.492531e-05,433.3499999997268,4.291495e-05,433.3499999997268,0.0007376248,433.3499999997268,9.52757e-06
433.36499999972676,4.508744e-05,433.36499999972676,4.435891e-05,433.36499999972676,0.0007519346,433.36499999972676,9.565934e-06
433.37999999972675,4.556388e-05,433.37999999972675,4.573361e-05,433.37999999972675,0.0007548332,433.37999999972675,9.61001e-06
433.39499999972674,4.552615e-05,433.39499999972674,4.633642e-05,433.39499999972674,0.0007549472,433.39499999972674,9.864624e-06
433.4099999997267,4.544656e-05,433.4099999997267,4.681339e-05,433.4099999997267,0.0007551985,433.4099999997267,9.90026e-06
433.4249999997267,4.514708e-05,433.4249999997267,4.730342e-05,433.4249999997267,0.0007554871,433.4249999997267,9.914478e-06
433.4399999997267,4.482895e-05,433.4399999997267,5.032203e-05,433.4399999997267,0.0007555941,433.4399999997267,9.70337e-06
433.4549999997267,4.47182e-05,433.4549999997267,5.062067e-05,433.4549999997267,0.0007556353,433.4549999997267,9.586528e-06
433.46999999972667,4.427435e-05,433.46999999972667,5.911344e-05,433.46999999972667,0.0007556338,433.46999999972667,9.585059e-06
433.48499999972665,4.353415e-05,433.48499999972665,6.577335e-05,433.48499999972665,0.0007554088,433.48499999972665,9.523133e-06
433.49999999972664,4.0444e-05,433.49999999972664,7.438657e-05,433.49999999972664,0.0007546764,433.49999999972664,9.269777e-06
433.5149999997266,2.779312e-05,433.5149999997266,8.114812e-05,433.5149999997266,0.0007543784,433.5149999997266,9.062304e-06
433.5299999997266,2.448414e-05,433.5299999997266,8.081989e-05,433.5299999997266,0.0007428552,433.5299999997266,9.08249e-06
433.5449999997266,2.272917e-05,433.5449999997266,8.080158e-05,433.5449999997266,0.0005713917,433.5449999997266,7.993573e-06
433.5599999997266,1.881709e-05,433.5599999997266,8.126209e-05,433.5599999997266,0.0004766767,433.5599999997266,7.285508e-06
433.5749999997266,1.692783e-05,433.5749999997266,8.336246e-05,433.5749999997266,0.0002147816,433.5749999997266,7.279705e-06
433.58999999972656,1.579657e-05,433.58999999972656,8.420212e-05,433.58999999972656,0.0001981838,433.58999999972656,6.404719e-06
433.60499999972654,1.581706e-05,433.60499999972654,8.580511e-05,433.60499999972654,0.0001275524,433.60499999972654,6.311667e-06
433.61999999972653,1.49659e-05,433.61999999972653,8.525568e-05,433.61999999972653,5.568954e-05,433.61999999972653,6.217223e-06
433.6349999997265,1.444186e-05,433.6349999997265,8.538661e-05,433.6349999997265,2.79155e-05,433.6349999997265,6.176305e-06
433.6499999997265,1.438126e-05,433.6499999997265,8.631173e-05,433.6499999997265,2.669225e-05,433.6499999997265,5.884307e-06
433.6649999997265,1.670079e-05,433.6649999997265,8.664062e-05,433.6649999997265,2.154625e-05,433.6649999997265,5.704405e-06
433.6799999997265,1.817041e-05,433.6799999997265,8.761184e-05,433.6799999997265,1.459613e-05,433.6799999997265,5.647323e-06
433.69499999972646,1.840381e-05,433.69499999972646,8.682415e-05,433.69499999972646,1.01684e-05,433.69499999972646,5.664756e-06
433.70999999972645,1.833172e-05,433.70999999972645,8.630634e-05,433.70999999972645,8.311504e-06,433.70999999972645,5.724127e-06
433.72499999972644,1.827091e-05,433.72499999972644,8.310572e-05,433.72499999972644,7.773794e-06,433.72499999972644,5.559333e-06
433.7399999997264,1.832634e-05,433.7399999997264,7.623165e-05,433.7399999997264,7.750201e-06,433.7399999997264,5.446701e-06
433.7549999997264,1.876461e-05,433.7549999997264,6.421084e-05,433.7549999997264,7.431003e-06,433.7549999997264,5.444114e-06
433.7699999997264,1.934057e-05,433.7699999997264,6.160639e-05,433.7699999997264,7.434793e-06,433.7699999997264,5.446701e-06
433.7849999997264,1.95348e-05,433.7849999997264,6.605481e-05,433.7849999997264,7.495178e-06,433.7849999997264,5.629835e-06
433.79999999972637,1.944445e-05,433.79999999972637,6.504607e-05,433.79999999972637,7.205797e-06,433.79999999972637,5.619817e-06
433.81499999972635,1.752237e-05,433.81499999972635,6.467752e-05,433.81499999972635,6.79323e-06,433.81499999972635,5.477649e-06
433.82999999972634,1.743694e-05,433.82999999972634,6.215976e-05,433.82999999972634,6.811867e-06,433.82999999972634,5.259872e-06
433.8449999997263,1.801938e-05,433.8449999997263,5.921392e-05,433.8449999997263,6.834577e-06,433.8449999997263,5.219545e-06
433.8599999997263,1.811684e-05,433.8599999997263,5.649692e-05,433.8599999997263,6.942956e-06,433.8599999997263,5.14616e-06
433.8749999997263,1.918701e-05,433.8749999997263,5.597187e-05,433.8749999997263,6.983416e-06,433.8749999997263,4.950841e-06
433.8899999997263,1.921416e-05,433.8899999997263,5.66933e-05,433.8899999997263,6.877724e-06,433.8899999997263,4.838602e-06
433.9049999997263,1.862975e-05,433.9049999997263,5.626306e-05,433.9049999997263,6.848989e-06,433.9049999997263,4.762306e-06
433.91999999972626,1.816265e-05,433.91999999972626,5.534242e-05,433.91999999972626,7.067629e-06,433.91999999972626,4.762306e-06
433.93499999972624,1.667969e-05,433.93499999972624,5.465729e-05,433.93499999972624,6.824264e-06,433.93499999972624,4.79767e-06
433.94999999972623,1.630817e-05,433.94999999972623,5.44207e-05,433.94999999972623,6.80773e-06,433.94999999972623,4.79767e-06
433.9649999997262,1.637541e-05,433.9649999997262,5.332378e-05,433.9649999997262,6.906339e-06,433.9649999997262,4.605925e-06
433.9799999997262,1.683688e-05,433.9799999997262,5.489235e-05,433.9799999997262,7.069622e-06,433.9799999997262,4.525708e-06
433.9949999997262,1.693282e-05,433.9949999997262,5.682955e-05,433.9949999997262,6.892046e-06,433.9949999997262,4.630328e-06
434.0099999997262,1.672186e-05,434.0099999997262,5.64605e-05,434.0099999997262,6.896133e-06,434.0099999997262,4.621192e-06
434.02499999972616,1.589258e-05,434.02499999972616,5.190451e-05,434.02499999972616,6.863372e-06,434.02499999972616,4.440873e-06
434.03999999972615,1.565773e-05,434.03999999972615,4.894525e-05,434.03999999972615,6.778699e-06,434.03999999972615,4.216325e-06
434.05499999972614,1.563523e-05,434.05499999972614,4.835223e-05,434.05499999972614,6.759971e-06,434.05499999972614,4.259536e-06
434.0699999997261,1.627186e-05,434.0699999997261,4.814699e-05,434.0699999997261,6.718165e-06,434.0699999997261,4.15914e-06
434.0849999997261,1.619549e-05,434.0849999997261,4.667235e-05,434.0849999997261,6.686639e-06,434.0849999997261,4.108022e-06
434.0999999997261,1.583042e-05,434.0999999997261,4.631422e-05,434.0999999997261,6.552573e-06,434.0999999997261,4.148967e-06
434.1149999997261,1.582597e-05,434.1149999997261,4.624818e-05,434.1149999997261,6.311667e-06,434.1149999997261,4.114875e-06
434.12999999972607,1.444772e-05,434.12999999972607,4.760117e-05,434.12999999972607,6.380479e-06,434.12999999972607,4.226336e-06
434.14499999972605,1.466353e-05,434.14499999972605,4.455283e-05,434.14499999972605,7.071614e-06,434.14499999972605,4.262842e-06
434.15999999972604,1.465488e-05,434.15999999972604,4.636104e-05,434.15999999972604,7.059652e-06,434.15999999972604,4.35762e-06
434.174999999726,1.46952e-05,434.174999999726,4.558304e-05,434.174999999726,6.902258e-06,434.174999999726,4.440873e-06
434.189999999726,1.460481e-05,434.189999999726,4.469961e-05,434.189999999726,6.855157e-06,434.189999999726,4.472482e-06
434.204999999726,1.494047e-05,434.204999999726,4.418454e-05,434.204999999726,6.816002e-06,434.204999999726,4.383405e-06
434.219999999726,1.482309e-05,434.219999999726,4.302412e-05,434.219999999726,6.584741e-06,434.219999999726,4.550541e-06
434.23499999972597,1.602235e-05,434.23499999972597,3.683134e-05,434.23499999972597,7.047669e-06,434.23499999972597,4.500739e-06
434.24999999972596,1.692616e-05,434.24999999972596,3.474114e-05,434.24999999972596,7.205797e-06,434.24999999972596,4.431347e-06
434.26499999972594,1.721662e-05,434.26499999972594,3.440254e-05,434.26499999972594,6.900217e-06,434.26499999972594,4.402644e-06
434.27999999972593,1.809972e-05,434.27999999972593,3.299849e-05,434.27999999972593,7.023643e-06,434.27999999972593,4.279333e-06
434.2949999997259,1.920756e-05,434.2949999997259,3.238229e-05,434.2949999997259,7.892485e-06,434.2949999997259,4.299038e-06
434.3099999997259,2.34695e-05,434.3099999997259,3.206799e-05,434.3099999997259,9.90026e-06,434.3099999997259,4.444044e-06
434.3249999997259,2.352286e-05,434.3249999997259,3.319513e-05,434.3249999997259,1.003171e-05,434.3249999997259,4.513241e-06
434.3399999997259,2.376356e-05,434.3399999997259,3.191123e-05,434.3399999997259,1.008493e-05,434.3399999997259,4.35115e-06
434.35499999972586,2.362325e-05,434.35499999972586,3.362268e-05,434.35499999972586,1.011144e-05,434.35499999972586,4.34467e-06
434.36999999972585,2.405872e-05,434.36999999972585,3.506121e-05,434.36999999972585,1.03442e-05,434.36999999972585,4.472482e-06
434.38499999972584,2.411778e-05,434.38499999972584,3.384067e-05,434.38499999972584,1.045392e-05,434.38499999972584,4.431347e-06
434.3999999997258,2.43254e-05,434.3999999997258,3.352198e-05,434.3999999997258,9.945687e-06,434.3999999997258,4.444044e-06
434.4149999997258,2.445593e-05,434.4149999997258,3.458957e-05,434.4149999997258,1.000359e-05,434.4149999997258,4.463023e-06
434.4299999997258,2.416679e-05,434.4299999997258,3.815904e-05,434.4299999997258,9.830293e-06,434.4299999997258,4.785911e-06
434.4449999997258,2.42064e-05,434.4449999997258,3.889325e-05,434.4449999997258,9.971149e-06,434.4449999997258,4.753424e-06
434.45999999972577,2.43971e-05,434.45999999972577,3.866403e-05,434.45999999972577,1.020987e-05,434.45999999972577,4.873412e-06
434.47499999972575,2.45892e-05,434.47499999972575,3.813541e-05,434.47499999972575,1.017809e-05,434.47499999972575,4.654602e-06
434.48999999972574,2.358386e-05,434.48999999972574,3.869826e-05,434.48999999972574,9.847473e-06,434.48999999972574,4.714741e-06
434.5049999997257,2.446514e-05,434.5049999997257,3.977319e-05,434.5049999997257,1.04983e-05,434.5049999997257,4.996159e-06
434.5199999997257,2.542293e-05,434.5199999997257,3.968703e-05,434.5199999997257,1.14667e-05,434.5199999997257,5.018664e-06
434.5349999997257,2.528514e-05,434.5349999997257,4.074728e-05,434.5349999997257,1.166643e-05,434.5349999997257,5.038274e-06
434.5499999997257,2.215674e-05,434.5499999997257,4.16716e-05,434.5499999997257,9.932932e-06,434.5499999997257,5.068936e-06
434.56499999972567,2.082481e-05,434.56499999972567,3.9548e-05,434.56499999972567,9.655344e-06,434.56499999972567,5.08004e-06
434.57999999972566,2.147027e-05,434.57999999972566,3.965116e-05,434.57999999972566,9.656803e-06,434.57999999972566,5.102175e-06
434.59499999972564,2.142232e-05,434.59499999972564,4.298284e-05,434.59499999972564,9.653885e-06,434.59499999972564,5.140683e-06
434.60999999972563,2.097713e-05,434.60999999972563,4.282919e-05,434.60999999972563,9.469733e-06,434.60999999972563,5.113207e-06
434.6249999997256,2.058259e-05,434.6249999997256,4.265749e-05,434.6249999997256,9.20267e-06,434.6249999997256,5.085583e-06
434.6399999997256,2.003181e-05,434.6399999997256,4.216492e-05,434.6399999997256,9.105725e-06,434.6399999997256,5.049445e-06
434.6549999997256,1.949365e-05,434.6549999997256,3.954444e-05,434.6549999997256,8.818078e-06,434.6549999997256,4.95937e-06
434.6699999997256,1.921416e-05,434.6699999997256,3.795769e-05,434.6699999997256,8.848378e-06,434.6699999997256,5.102175e-06
434.68499999972556,1.940892e-05,434.68499999972556,3.766037e-05,434.68499999972556,8.913411e-06,434.68499999972556,4.824024e-06
434.69999999972555,1.928076e-05,434.69999999972555,3.827441e-05,434.69999999972555,8.655229e-06,434.69999999972555,4.947995e-06
434.71499999972553,1.897884e-05,434.71499999972553,3.91848e-05,434.71499999972553,8.547137e-06,434.71499999972553,4.928026e-06
434.7299999997255,1.903813e-05,434.7299999997255,4.060391e-05,434.7299999997255,8.694202e-06,434.7299999997255,5.032679e-06
434.7449999997255,1.884402e-05,434.7449999997255,4.0507e-05,434.7449999997255,8.596438e-06,434.7449999997255,4.788854e-06
434.7599999997255,1.696523e-05,434.7599999997255,4.110011e-05,434.7599999997255,7.325999e-06,434.7599999997255,4.645514e-06
434.7749999997255,1.632458e-05,434.7749999997255,4.116244e-05,434.7749999997255,6.023894e-06,434.7749999997255,4.642481e-06
434.78999999972547,1.658738e-05,434.78999999972547,3.972783e-05,434.78999999972547,5.541568e-06,434.78999999972547,4.648545e-06
434.80499999972545,1.880885e-05,434.80499999972545,3.959001e-05,434.80499999972545,5.490492e-06,434.80499999972545,4.463023e-06
434.81999999972544,1.759457e-05,434.81999999972544,4.055218e-05,434.81999999972544,5.173461e-06,434.81999999972544,4.418613e-06
434.8349999997254,1.818978e-05,434.8349999997254,3.988919e-05,434.8349999997254,5.208738e-06,434.8349999997254,4.497608e-06
434.8499999997254,1.778885e-05,434.8499999997254,3.760123e-05,434.8499999997254,5.143422e-06,434.8499999997254,4.459865e-06
434.8649999997254,1.847104e-05,434.8649999997254,3.794915e-05,434.8649999997254,5.238403e-06,434.8649999997254,4.672725e-06
434.8799999997254,1.876086e-05,434.8799999997254,3.72232e-05,434.8799999997254,5.181623e-06,434.8799999997254,4.593675e-06
434.89499999972537,2.004587e-05,434.89499999972537,3.758211e-05,434.89499999972537,5.219545e-06,434.89499999972537,4.651575e-06
434.90999999972536,2.002759e-05,434.90999999972536,3.828582e-05,434.90999999972536,5.487926e-06,434.90999999972536,4.815255e-06
434.92499999972534,1.978913e-05,434.92499999972534,3.837769e-05,434.92499999972534,5.592176e-06,434.92499999972534,4.587538e-06
434.93999999972533,1.976563e-05,434.93999999972533,3.602351e-05,434.93999999972533,5.500745e-06,434.93999999972533,4.663672e-06
434.9549999997253,2.025419e-05,434.9549999997253,3.703729e-05,434.9549999997253,6.576178e-06,434.9549999997253,4.782967e-06
434.9699999997253,2.038315e-05,434.9699999997253,3.707759e-05,434.9699999997253,6.483414e-06,434.9699999997253,4.711753e-06
434.9849999997253,2.037347e-05,434.9849999997253,3.656264e-05,434.9849999997253,7.571843e-06,434.9849999997253,4.654602e-06
434.9999999997253,1.9979e-05,434.9999999997253,3.670683e-05,434.9999999997253,7.677153e-06,434.9999999997253,4.651575e-06
435.01499999972526,2.006553e-05,435.01499999972526,3.623095e-05,435.01499999972526,7.809951e-06,435.01499999972526,4.762306e-06
435.02999999972525,1.945821e-05,435.02999999972525,3.64345e-05,435.02999999972525,7.762914e-06,435.02999999972525,4.841512e-06
435.04499999972523,1.939222e-05,435.04499999972523,3.740365e-05,435.04499999972523,7.915653e-06,435.04499999972523,4.936594e-06
435.0599999997252,1.743614e-05,435.0599999997252,3.839201e-05,435.0599999997252,8.02874e-06,435.0599999997252,4.984868e-06
435.0749999997252,1.839462e-05,435.0749999997252,3.796845e-05,435.0749999997252,8.853152e-06,435.0749999997252,4.913713e-06
435.0899999997252,1.87135e-05,435.0899999997252,3.690279e-05,435.0899999997252,1.020849e-05,435.0899999997252,4.821102e-06
435.1049999997252,1.923907e-05,435.1049999997252,3.475857e-05,435.1049999997252,1.0306e-05,435.1049999997252,4.584466e-06
435.11999999972517,1.905292e-05,435.11999999972517,3.475574e-05,435.11999999972517,1.078684e-05,435.11999999972517,4.466178e-06
435.13499999972515,1.908985e-05,435.13499999972515,3.618621e-05,435.13499999972515,1.081423e-05,435.13499999972515,4.608983e-06
435.14999999972514,1.815412e-05,435.14999999972514,3.724173e-05,435.14999999972514,1.085843e-05,435.14999999972514,4.788854e-06
435.1649999997251,1.962114e-05,435.1649999997251,3.68344e-05,435.1649999997251,1.08934e-05,435.1649999997251,4.83569e-06
435.1799999997251,1.962329e-05,435.1799999997251,4.028137e-05,435.1799999997251,1.110726e-05,435.1799999997251,5.394728e-06
435.1949999997251,1.922222e-05,435.1949999997251,4.688675e-05,435.1949999997251,1.118813e-05,435.1949999997251,5.634837e-06
435.2099999997251,1.913408e-05,435.2099999997251,5.552741e-05,435.2099999997251,1.0762e-05,435.2099999997251,5.687093e-06
435.22499999972507,1.914291e-05,435.22499999972507,5.632136e-05,435.22499999972507,1.100533e-05,435.22499999972507,5.753582e-06
435.23999999972506,1.885299e-05,435.23999999972506,5.722453e-05,435.23999999972506,1.088435e-05,435.23999999972506,6.816002e-06
435.25499999972504,1.92771e-05,435.25499999972504,5.802221e-05,435.25499999972504,1.103473e-05,435.25499999972504,7.00959e-06
435.26999999972503,1.868864e-05,435.26999999972503,5.843806e-05,435.26999999972503,1.141251e-05,435.26999999972503,7.1921e-06
435.284999999725,1.854183e-05,435.284999999725,5.85279e-05,435.284999999725,1.163378e-05,435.284999999725,7.172487e-06
435.299999999725,1.826089e-05,435.299999999725,5.883062e-05,435.299999999725,1.1705e-05,435.299999999725,7.205797e-06
435.314999999725,1.977774e-05,435.314999999725,5.872325e-05,435.314999999725,1.286102e-05,435.314999999725,7.291306e-06
435.329999999725,1.995571e-05,435.329999999725,5.901256e-05,435.329999999725,1.182116e-05,435.329999999725,7.396802e-06
435.34499999972496,1.980265e-05,435.34499999972496,5.996142e-05,435.34499999972496,1.572148e-05,435.34499999972496,7.777418e-06
435.35999999972495,1.956074e-05,435.35999999972495,6.126797e-05,435.35999999972495,1.55865e-05,435.35999999972495,7.956479e-06
435.37499999972493,1.966274e-05,435.37499999972493,6.088024e-05,435.37499999972493,1.553036e-05,435.37499999972493,8.11252e-06
435.3899999997249,2.047623e-05,435.3899999997249,6.096394e-05,435.3899999997249,1.566493e-05,435.3899999997249,8.195444e-06
435.4049999997249,2.097444e-05,435.4049999997249,6.116326e-05,435.4049999997249,1.588017e-05,435.4049999997249,8.169621e-06
435.4199999997249,2.039558e-05,435.4199999997249,6.076166e-05,435.4199999997249,1.618679e-05,435.4199999997249,8.02874e-06
435.4349999997249,2.069452e-05,435.4349999997249,5.744859e-05,435.4349999997249,1.621114e-05,435.4349999997249,7.928101e-06
435.44999999972487,2.043422e-05,435.44999999972487,5.794714e-05,435.44999999972487,1.611965e-05,435.44999999972487,7.919212e-06
435.46499999972485,2.02528e-05,435.46499999972485,4.964934e-05,435.46499999972485,1.617809e-05,435.46499999972485,8.08469e-06
435.47999999972484,2.064273e-05,435.47999999972484,4.786117e-05,435.47999999972484,1.608378e-05,435.47999999972484,8.067247e-06
435.4949999997248,2.057095e-05,435.4949999997248,4.714054e-05,435.4949999997248,1.62528e-05,435.4949999997248,7.201887e-06
435.5099999997248,2.023471e-05,435.5099999997248,4.671851e-05,435.5099999997248,1.649028e-05,435.5099999997248,7.15085e-06
435.5249999997248,2.07957e-05,435.5249999997248,4.701817e-05,435.5249999997248,1.644751e-05,435.5249999997248,7.142966e-06
435.5399999997248,2.130363e-05,435.5399999997248,4.641995e-05,435.5399999997248,1.640893e-05,435.5399999997248,7.287441e-06
435.55499999972477,2.13881e-05,435.55499999972477,4.553079e-05,435.55499999972477,1.638401e-05,435.55499999972477,7.256447e-06
435.56999999972476,2.092468e-05,435.56999999972476,4.567689e-05,435.56999999972476,1.551948e-05,435.56999999972476,7.440475e-06
435.58499999972474,1.947847e-05,435.58499999972474,4.559108e-05,435.58499999972474,1.382797e-05,435.58499999972474,7.495178e-06
435.59999999972473,1.953335e-05,435.59999999972473,4.584804e-05,435.59999999972473,1.279073e-05,435.59999999972473,7.322153e-06
435.6149999997247,1.941327e-05,435.6149999997247,4.533142e-05,435.6149999997247,1.28391e-05,435.6149999997247,7.285508e-06
435.6299999997247,1.830634e-05,435.6299999997247,4.784704e-05,435.6299999997247,1.279513e-05,435.6299999997247,7.101431e-06
435.6449999997247,1.850229e-05,435.6449999997247,4.632396e-05,435.6449999997247,1.309869e-05,435.6449999997247,6.922637e-06
435.6599999997247,1.813316e-05,435.6599999997247,4.552769e-05,435.6599999997247,1.26144e-05,435.6599999997247,6.782854e-06
435.67499999972466,1.810672e-05,435.67499999972466,4.68543e-05,435.67499999972466,1.246047e-05,435.67499999972466,6.690851e-06
435.68999999972465,1.903517e-05,435.68999999972465,4.501678e-05,435.68999999972465,1.269788e-05,435.68999999972465,6.621009e-06
435.70499999972463,1.929682e-05,435.70499999972463,4.212046e-05,435.70499999972463,1.340904e-05,435.70499999972463,6.214957e-06
435.7199999997246,1.979127e-05,435.7199999997246,4.214387e-05,435.7199999997246,1.345205e-05,435.7199999997246,6.185421e-06
435.7349999997246,1.974138e-05,435.7349999997246,4.198446e-05,435.7349999997246,1.349074e-05,435.7349999997246,6.098266e-06
435.7499999997246,1.984458e-05,435.7499999997246,4.058968e-05,435.7499999997246,1.389301e-05,435.7499999997246,6.023894e-06
435.7649999997246,2.001351e-05,435.7649999997246,4.4646e-05,435.7649999997246,1.35522e-05,435.7649999997246,5.927241e-06
435.77999999972457,1.951893e-05,435.77999999972457,4.575701e-05,435.77999999972457,1.375135e-05,435.77999999972457,5.958057e-06
435.79499999972455,1.916718e-05,435.79499999972455,4.564388e-05,435.79499999972455,1.364956e-05,435.79499999972455,5.679657e-06
435.80999999972454,1.909649e-05,435.80999999972454,4.588858e-05,435.80999999972454,1.35875e-05,435.80999999972454,5.998116e-06
435.8249999997245,1.832019e-05,435.8249999997245,4.573638e-05,435.8249999997245,1.392441e-05,435.8249999997245,5.778013e-06
435.8399999997245,1.797006e-05,435.8399999997245,4.869856e-05,435.8399999997245,1.38137e-05,435.8399999997245,5.554263e-06
435.8549999997245,1.830557e-05,435.8549999997245,4.774802e-05,435.8549999997245,1.322286e-05,435.8549999997245,5.647323e-06
435.8699999997245,1.814325e-05,435.8699999997245,4.675709e-05,435.8699999997245,1.318979e-05,435.8699999997245,5.539025e-06
435.88499999972447,1.82215e-05,435.88499999972447,4.517889e-05,435.88499999972447,1.460578e-05,435.88499999972447,5.692045e-06
435.89999999972446,1.757775e-05,435.89999999972446,4.616617e-05,435.89999999972446,1.454489e-05,435.89999999972446,5.809621e-06
435.91499999972444,1.737544e-05,435.91499999972444,4.892798e-05,435.91499999972444,1.453617e-05,435.91499999972444,5.855509e-06
435.92999999972443,1.633579e-05,435.92999999972443,4.753009e-05,435.92999999972443,1.448861e-05,435.92999999972443,6.051891e-06
435.9449999997244,1.548404e-05,435.9449999997244,4.883346e-05,435.9449999997244,1.436362e-05,435.9449999997244,6.437625e-06
435.9599999997244,1.583131e-05,435.9599999997244,4.820489e-05,435.9599999997244,1.372469e-05,435.9599999997244,6.345057e-06
435.9749999997244,1.571341e-05,435.9749999997244,4.824461e-05,435.9749999997244,1.358024e-05,435.9749999997244,6.284828e-06
435.9899999997244,1.560456e-05,435.9899999997244,4.851104e-05,435.9899999997244,1.292766e-05,435.9899999997244,6.371642e-06
436.00499999972436,1.548495e-05,436.00499999972436,4.881701e-05,436.00499999972436,1.273665e-05,436.00499999972436,6.472542e-06
436.01999999972435,1.50588e-05,436.01999999972435,4.337076e-05,436.01999999972435,1.256966e-05,436.01999999972435,6.431058e-06
436.03499999972433,1.484968e-05,436.03499999972433,4.289886e-05,436.03499999972433,1.249322e-05,436.03499999972433,6.400318e-06
436.0499999997243,1.569547e-05,436.0499999997243,4.325661e-05,436.0499999997243,1.29983e-05,436.0499999997243,6.226279e-06
436.0649999997243,1.525583e-05,436.0649999997243,4.204045e-05,436.0649999997243,1.305669e-05,436.0649999997243,6.037908e-06
436.0799999997243,1.565953e-05,436.0799999997243,4.168275e-05,436.0799999997243,1.212355e-05,436.0799999997243,5.922486e-06
436.0949999997243,1.57376e-05,436.0949999997243,3.920816e-05,436.0949999997243,1.219307e-05,436.0949999997243,5.948592e-06
436.10999999972427,1.584998e-05,436.10999999972427,3.842831e-05,436.10999999972427,1.180327e-05,436.10999999972427,5.809621e-06
436.12499999972425,1.533778e-05,436.12499999972425,3.816421e-05,436.12499999972425,1.162288e-05,436.12499999972425,5.716739e-06
436.13999999972424,1.506535e-05,436.13999999972424,3.758399e-05,436.13999999972424,9.21185e-06,436.13999999972424,5.642331e-06
436.1549999997242,1.534238e-05,436.1549999997242,3.681642e-05,436.1549999997242,8.952834e-06,436.1549999997242,5.704405e-06
436.1699999997242,1.541748e-05,436.1699999997242,3.276716e-05,436.1699999997242,8.846786e-06,436.1699999997242,5.662269e-06
436.1849999997242,1.557746e-05,436.1849999997242,3.135548e-05,436.1849999997242,8.770023e-06,436.1849999997242,5.121465e-06
436.1999999997242,1.55666e-05,436.1999999997242,3.316201e-05,436.1999999997242,8.889673e-06,436.1999999997242,5.018664e-06
436.21499999972417,1.510177e-05,436.21499999972417,3.461074e-05,436.21499999972417,8.99365e-06,436.21499999972417,4.993339e-06
436.22999999972416,1.546036e-05,436.22999999972416,3.623017e-05,436.22999999972416,9.108818e-06,436.22999999972416,5.041069e-06
436.24499999972414,1.610653e-05,436.24499999972414,3.59793e-05,436.24499999972414,8.949686e-06,436.24499999972414,5.00461e-06
436.25999999972413,1.614235e-05,436.25999999972413,3.550081e-05,436.25999999972413,8.25709e-06,436.25999999972413,5.049445e-06
436.2749999997241,1.623372e-05,436.2749999997241,3.5321e-05,436.2749999997241,8.309809e-06,436.2749999997241,4.905105e-06
436.2899999997241,1.700504e-05,436.2899999997241,3.505438e-05,436.2899999997241,7.813558e-06,436.2899999997241,5.074491e-06
436.3049999997241,1.831481e-05,436.3049999997241,3.418607e-05,436.3049999997241,7.398706e-06,436.3049999997241,5.08004e-06
436.3199999997241,1.808571e-05,436.3199999997241,3.342097e-05,436.3199999997241,7.21166e-06,436.3199999997241,5.082812e-06
436.33499999972406,1.877212e-05,436.33499999972406,3.267633e-05,436.33499999972406,7.29903e-06,436.33499999972406,4.873412e-06
436.34999999972405,1.835246e-05,436.34999999972405,3.456513e-05,436.34999999972405,7.40822e-06,436.34999999972405,4.81818e-06
436.36499999972403,1.82948e-05,436.36499999972403,3.544482e-05,436.36499999972403,7.417721e-06,436.36499999972403,4.838602e-06
436.379999999724,1.857675e-05,436.379999999724,3.483509e-05,436.379999999724,7.579281e-06,436.379999999724,4.75046e-06
436.394999999724,1.845884e-05,436.394999999724,3.510016e-05,436.394999999724,7.730182e-06,436.394999999724,4.506994e-06
436.409999999724,1.836473e-05,436.409999999724,3.630009e-05,436.409999999724,7.686323e-06,436.409999999724,4.321914e-06
436.424999999724,1.831481e-05,436.424999999724,3.716828e-05,436.424999999724,7.761099e-06,436.424999999724,4.29248e-06
436.43999999972397,1.822769e-05,436.43999999972397,3.519635e-05,436.43999999972397,8.037508e-06,436.43999999972397,4.282623e-06
436.45499999972395,1.796065e-05,436.45499999972395,3.115582e-05,436.45499999972395,8.661737e-06,436.45499999972395,4.373753e-06
436.46999999972394,1.72632e-05,436.46999999972394,2.908978e-05,436.46999999972394,8.465993e-06,436.46999999972394,4.409039e-06
436.4849999997239,1.685277e-05,436.4849999997239,2.791853e-05,436.4849999997239,8.248557e-06,436.4849999997239,4.209638e-06
436.4999999997239,1.720598e-05,436.4999999997239,2.920529e-05,436.4999999997239,8.517419e-06,436.4999999997239,4.212983e-06
436.5149999997239,1.713214e-05,436.5149999997239,2.961909e-05,436.5149999997239,9.366529e-06,436.5149999997239,4.312125e-06
436.5299999997239,1.696523e-05,436.5299999997239,2.965521e-05,436.5299999997239,9.68448e-06,436.5299999997239,4.285911e-06
436.54499999972387,1.520032e-05,436.54499999972387,2.959768e-05,436.54499999972387,9.592404e-06,436.54499999972387,4.142171e-06
436.55999999972386,1.501665e-05,436.55999999972386,2.981959e-05,436.55999999972386,9.658262e-06,436.55999999972386,4.282623e-06
436.57499999972384,1.472297e-05,436.57499999972384,3.018348e-05,436.57499999972384,1.002047e-05,436.57499999972384,4.249604e-06
436.58999999972383,1.338275e-05,436.58999999972383,2.947272e-05,436.58999999972383,9.993728e-06,436.58999999972383,4.4218e-06
436.6049999997238,1.31073e-05,436.6049999997238,2.616188e-05,436.6049999997238,1.05251e-05,436.6049999997238,4.654602e-06
436.6199999997238,1.314271e-05,436.6199999997238,2.528012e-05,436.6199999997238,1.065413e-05,436.6199999997238,4.599804e-06
436.6349999997238,1.37062e-05,436.6349999997238,2.558311e-05,436.6349999997238,1.126467e-05,436.6349999997238,4.639445e-06
436.6499999997238,1.412329e-05,436.6499999997238,2.418427e-05,436.6499999997238,1.12909e-05,436.6499999997238,4.768218e-06
436.66499999972376,1.43744e-05,436.66499999972376,2.272855e-05,436.66499999972376,1.149982e-05,436.66499999972376,4.967884e-06
436.67999999972375,1.461445e-05,436.67999999972375,2.279477e-05,436.67999999972375,1.139398e-05,436.67999999972375,5.148897e-06
436.69499999972373,1.460674e-05,436.69499999972373,2.36322e-05,436.69499999972373,1.17746e-05,436.69499999972373,5.159829e-06
436.7099999997237,1.460964e-05,436.7099999997237,2.405403e-05,436.7099999997237,1.148511e-05,436.7099999997237,5.493057e-06
436.7249999997237,1.460192e-05,436.7249999997237,2.395721e-05,436.7249999997237,1.168573e-05,436.7249999997237,5.376418e-06
436.7399999997237,1.394968e-05,436.7399999997237,2.333768e-05,436.7399999997237,1.172064e-05,436.7399999997237,5.329048e-06
436.7549999997237,1.392744e-05,436.7549999997237,2.191574e-05,436.7549999997237,1.186755e-05,436.7549999997237,5.211442e-06
436.76999999972367,1.398497e-05,436.76999999972367,2.190481e-05,436.76999999972367,1.109965e-05,436.76999999972367,5.178904e-06
436.78499999972365,1.351473e-05,436.78499999972365,2.264037e-05,436.78499999972365,1.163015e-05,436.78499999972365,5.259872e-06
436.79999999972364,1.292439e-05,436.79999999972364,2.336423e-05,436.79999999972364,1.159861e-05,436.79999999972364,5.195198e-06
436.8149999997236,1.383306e-05,436.8149999997236,2.389008e-05,436.8149999997236,1.17985e-05,436.8149999997236,5.148897e-06
436.8299999997236,1.404327e-05,436.8299999997236,2.297451e-05,436.8299999997236,1.150349e-05,436.8299999997236,5.197909e-06
436.8449999997236,1.434399e-05,436.8449999997236,2.441961e-05,436.8449999997236,1.383408e-05,436.8449999997236,4.993339e-06
436.8599999997236,1.447986e-05,436.8599999997236,2.485586e-05,436.8599999997236,1.37134e-05,436.8599999997236,4.973552e-06
436.87499999972357,1.444674e-05,436.87499999972357,2.54401e-05,436.87499999972357,1.353972e-05,436.87499999972357,4.979213e-06
436.88999999972356,1.3988e-05,436.88999999972356,2.647818e-05,436.88999999972356,1.377591e-05,436.88999999972356,4.867628e-06
436.90499999972354,1.370209e-05,436.90499999972354,2.590431e-05,436.90499999972354,1.373598e-05,436.90499999972354,4.791795e-06
436.91999999972353,1.339748e-05,436.91999999972353,2.451346e-05,436.91999999972353,1.462024e-05,436.91999999972353,4.657627e-06
436.9349999997235,1.292766e-05,436.9349999997235,2.45439e-05,436.9349999997235,1.707943e-05,436.9349999997235,4.497608e-06
436.9499999997235,1.281054e-05,436.9499999997235,2.794627e-05,436.9499999997235,1.668138e-05,436.9499999997235,4.266145e-06
436.9649999997235,1.297986e-05,436.9649999997235,2.886909e-05,436.9649999997235,1.670585e-05,436.9649999997235,4.223002e-06
436.9799999997235,1.335958e-05,436.9799999997235,2.875812e-05,436.9799999997235,1.684441e-05,436.9799999997235,4.331681e-06
436.99499999972346,1.335325e-05,436.99499999972346,3.145416e-05,436.99499999972346,1.688533e-05,436.99499999972346,4.242968e-06
437.00999999972345,1.330146e-05,437.00999999972345,3.392631e-05,437.00999999972345,1.737625e-05,437.00999999972345,4.29576e-06
437.02499999972343,1.342059e-05,437.02499999972343,3.476222e-05,437.02499999972343,1.731046e-05,437.02499999972343,4.418613e-06
437.0399999997234,1.351265e-05,437.0399999997234,3.532339e-05,437.0399999997234,1.715679e-05,437.0399999997234,4.249604e-06
437.0549999997234,1.358024e-05,437.0549999997234,3.5525e-05,437.0549999997234,1.81075e-05,437.0549999997234,4.444044e-06
437.0699999997234,1.392036e-05,437.0699999997234,3.528708e-05,437.0699999997234,1.784262e-05,437.0699999997234,4.970719e-06
437.0849999997234,1.422764e-05,437.0849999997234,3.59883e-05,437.0849999997234,1.781813e-05,437.0849999997234,5.184341e-06
437.09999999972337,1.433515e-05,437.09999999972337,4.0084e-05,437.09999999972337,1.594303e-05,437.09999999972337,5.386888e-06
437.11499999972335,1.55657e-05,437.11499999972335,4.040951e-05,437.11499999972335,1.580994e-05,437.11499999972335,5.425972e-06
437.12999999972334,1.554396e-05,437.12999999972334,3.967354e-05,437.12999999972334,1.563162e-05,437.12999999972334,5.399948e-06
437.1449999997233,1.532124e-05,437.1449999997233,3.944671e-05,437.1449999997233,1.552946e-05,437.1449999997233,5.371176e-06
437.1599999997233,1.559192e-05,437.1599999997233,3.963055e-05,437.1599999997233,1.554668e-05,437.1599999997233,5.799914e-06
437.1749999997233,1.601444e-05,437.1749999997233,3.978452e-05,437.1749999997233,1.382287e-05,437.1749999997233,6.03324e-06
437.1899999997233,1.804594e-05,437.1899999997233,3.93158e-05,437.1899999997233,1.189008e-05,437.1899999997233,6.114414e-06
437.20499999972327,1.831558e-05,437.20499999972327,3.679001e-05,437.20499999972327,1.187111e-05,437.20499999972327,6.091332e-06
437.21999999972326,1.803188e-05,437.21999999972326,3.793133e-05,437.21999999972326,1.201618e-05,437.21999999972326,6.005157e-06
437.23499999972324,1.794653e-05,437.23499999972324,3.923366e-05,437.23499999972324,1.197155e-05,437.23499999972324,5.965146e-06
437.24999999972323,1.779994e-05,437.24999999972323,3.969555e-05,437.24999999972323,1.084805e-05,437.24999999972323,6.01219e-06
437.2649999997232,1.768561e-05,437.2649999997232,3.840778e-05,437.2649999997232,1.096301e-05,437.2649999997232,6.019215e-06
437.2799999997232,1.747487e-05,437.2799999997232,3.773399e-05,437.2799999997232,1.114271e-05,437.2799999997232,6.047233e-06
437.2949999997232,1.749179e-05,437.2949999997232,3.782944e-05,437.2949999997232,1.088435e-05,437.2949999997232,6.061194e-06
437.3099999997232,1.645265e-05,437.3099999997232,3.815313e-05,437.3099999997232,9.857482e-06,437.3099999997232,5.891484e-06
437.32499999972316,1.622938e-05,437.32499999972316,3.90346e-05,437.32499999972316,1.03333e-05,437.32499999972316,5.503306e-06
437.33999999972315,1.565054e-05,437.33999999972315,3.699048e-05,437.33999999972315,1.0505e-05,437.33999999972315,5.216845e-06
437.35499999972313,1.58322e-05,437.35499999972313,3.370135e-05,437.35499999972313,1.057317e-05,437.35499999972313,5.184341e-06
437.3699999997231,1.502602e-05,437.3699999997231,3.32333e-05,437.3699999997231,1.082465e-05,437.3699999997231,5.151632e-06
437.3849999997231,1.527981e-05,437.3849999997231,3.327905e-05,437.3849999997231,1.084415e-05,437.3849999997231,5.178904e-06
437.3999999997231,1.521422e-05,437.3999999997231,3.401505e-05,437.3999999997231,1.018362e-05,437.3999999997231,5.159829e-06
437.4149999997231,1.521792e-05,437.4149999997231,3.691463e-05,437.4149999997231,1.026079e-05,437.4149999997231,4.624239e-06
437.42999999972307,1.370106e-05,437.42999999972307,3.681527e-05,437.42999999972307,1.00975e-05,437.42999999972307,4.285911e-06
437.44499999972305,1.317055e-05,437.44499999972305,3.863851e-05,437.44499999972305,1.005275e-05,437.44499999972305,4.226336e-06
437.45999999972304,1.41213e-05,437.45999999972304,3.933836e-05,437.45999999972304,1.003733e-05,437.45999999972304,4.142171e-06
437.474999999723,1.541383e-05,437.474999999723,3.82258e-05,437.474999999723,1.054515e-05,437.474999999723,4.021382e-06
437.489999999723,1.602147e-05,437.489999999723,3.358999e-05,437.489999999723,1.061439e-05,437.489999999723,4.155752e-06
437.504999999723,1.588549e-05,437.504999999723,3.332304e-05,437.504999999723,1.09874e-05,437.504999999723,4.179412e-06
437.519999999723,1.594744e-05,437.519999999723,3.25861e-05,437.519999999723,1.076724e-05,437.519999999723,4.182782e-06
437.53499999972297,1.609078e-05,437.53499999972297,3.282343e-05,437.53499999972297,1.056651e-05,437.53499999972297,4.131956e-06
437.54999999972296,1.610828e-05,437.54999999972296,3.195226e-05,437.54999999972296,1.05745e-05,437.54999999972296,4.20294e-06
437.56499999972294,1.61807e-05,437.56499999972294,3.259259e-05,437.56499999972294,1.076985e-05,437.56499999972294,4.246287e-06
437.57999999972293,1.606011e-05,437.57999999972293,3.162745e-05,437.57999999972293,1.033057e-05,437.57999999972293,4.094283e-06
437.5949999997229,1.579032e-05,437.5949999997229,3.197385e-05,437.5949999997229,1.036053e-05,437.5949999997229,4.142171e-06
437.6099999997229,1.55104e-05,437.6099999997229,3.477762e-05,437.6099999997229,1.022366e-05,437.6099999997229,4.172666e-06
437.6249999997229,1.520032e-05,437.6249999997229,3.688447e-05,437.6249999997229,9.847473e-06,437.6249999997229,4.087396e-06
437.6399999997229,1.529732e-05,437.6399999997229,3.983548e-05,437.6399999997229,9.815953e-06,437.6399999997229,4.216325e-06
437.65499999972286,1.554578e-05,437.65499999972286,3.856188e-05,437.65499999972286,9.732362e-06,437.65499999972286,4.334932e-06
437.66999999972285,1.521144e-05,437.66999999972285,3.774705e-05,437.66999999972285,1.004995e-05,437.66999999972285,4.29576e-06
437.68499999972283,1.547767e-05,437.68499999972283,4.053064e-05,437.68499999972283,1.033603e-05,437.68499999972283,4.35762e-06
437.6999999997228,1.554668e-05,437.6999999997228,4.069089e-05,437.6999999997228,1.093342e-05,437.6999999997228,4.386617e-06
437.7149999997228,1.470574e-05,437.7149999997228,4.020541e-05,437.7149999997228,1.105386e-05,437.7149999997228,4.497608e-06
437.7299999997228,1.306208e-05,437.7299999997228,4.023728e-05,437.7299999997228,1.016701e-05,437.7299999997228,4.491339e-06
437.7449999997228,1.350639e-05,437.7449999997228,4.186585e-05,437.7449999997228,1.008214e-05,437.7449999997228,4.615091e-06
437.75999999972277,1.376466e-05,437.75999999972277,4.202169e-05,437.75999999972277,9.788648e-06,437.75999999972277,4.4377e-06
437.77499999972275,1.389301e-05,437.77499999972275,4.334867e-05,437.77499999972275,9.74827e-06,437.77499999972275,4.494475e-06
437.78999999972274,1.434497e-05,437.78999999972274,4.515394e-05,437.78999999972274,9.807338e-06,437.78999999972274,4.503868e-06
437.8049999997227,1.61659e-05,437.8049999997227,4.533173e-05,437.8049999997227,9.797278e-06,437.8049999997227,4.478776e-06
437.8199999997227,1.640463e-05,437.8199999997227,4.497013e-05,437.8199999997227,9.558568e-06,437.8199999997227,4.535037e-06
437.8349999997227,1.6753e-05,437.8349999997227,4.463117e-05,437.8349999997227,9.381556e-06,437.8349999997227,4.459865e-06
437.8499999997227,1.879762e-05,437.8499999997227,4.389731e-05,437.8499999997227,1.025942e-05,437.8499999997227,4.491339e-06
437.86499999972267,1.870672e-05,437.86499999972267,4.191529e-05,437.86499999972267,1.041207e-05,437.86499999972267,4.47563e-06
437.87999999972266,1.857826e-05,437.87999999972266,4.145672e-05,437.87999999972266,1.023055e-05,437.87999999972266,4.488202e-06
437.89499999972264,1.869618e-05,437.89499999972264,4.0981e-05,437.89499999972264,1.02553e-05,437.89499999972264,4.469331e-06
437.90999999972263,1.872704e-05,437.90999999972263,4.227136e-05,437.90999999972263,1.077639e-05,437.90999999972263,4.541245e-06
437.9249999997226,1.889926e-05,437.9249999997226,3.970371e-05,437.9249999997226,1.054515e-05,437.9249999997226,4.660651e-06
437.9399999997226,1.894541e-05,437.9399999997226,3.808958e-05,437.9399999997226,1.082335e-05,437.9399999997226,4.657627e-06
437.9549999997226,1.921416e-05,437.9549999997226,3.784879e-05,437.9549999997226,1.358853e-05,437.9549999997226,4.559819e-06
437.9699999997226,1.914512e-05,437.9699999997226,4.018228e-05,437.9699999997226,1.467313e-05,437.9699999997226,4.538142e-06
437.98499999972256,1.965557e-05,437.98499999972256,3.931042e-05,437.98499999972256,1.502602e-05,437.98499999972256,4.741556e-06
437.99999999972255,1.956434e-05,437.99999999972255,4.143497e-05,437.99999999972255,1.486674e-05,437.99999999972255,4.494475e-06
438.01499999972253,1.949437e-05,438.01499999972253,4.347619e-05,438.01499999972253,1.498002e-05,438.01499999972253,4.48192e-06
438.0299999997225,1.904331e-05,438.0299999997225,4.524183e-05,438.0299999997225,1.497814e-05,438.0299999997225,5.412975e-06
438.0449999997225,2.166101e-05,438.0449999997225,5.143532e-05,438.0449999997225,1.517992e-05,438.0449999997225,5.714275e-06
438.0599999997225,2.059285e-05,438.0599999997225,5.229198e-05,438.0599999997225,1.54056e-05,438.0599999997225,5.711809e-06
438.0749999997225,2.061951e-05,438.0749999997225,5.687316e-05,438.0749999997225,1.541383e-05,438.0749999997225,5.908198e-06
438.08999999972247,2.020685e-05,438.08999999972247,5.937737e-05,438.08999999972247,1.525213e-05,438.08999999972247,6.100575e-06
438.10499999972245,1.946762e-05,438.10499999972245,6.152997e-05,438.10499999972245,1.533595e-05,438.10499999972245,6.11902e-06
438.11999999972244,2.013981e-05,438.11999999972244,6.254271e-05,438.11999999972244,1.530192e-05,438.11999999972244,6.144291e-06
438.1349999997224,2.066251e-05,438.1349999997224,6.206315e-05,438.1349999997224,1.544213e-05,438.1349999997224,6.109804e-06
438.1499999997224,2.067818e-05,438.1499999997224,6.114229e-05,438.1499999997224,1.555393e-05,438.1499999997224,6.091332e-06
438.1649999997224,2.151877e-05,438.1649999997224,6.053799e-05,438.1649999997224,1.670079e-05,438.1649999997224,6.000464e-06
438.1799999997224,2.236997e-05,438.1799999997224,5.967483e-05,438.1799999997224,1.66264e-05,438.1799999997224,5.988714e-06
438.19499999972237,2.367091e-05,438.19499999972237,5.872637e-05,438.19499999972237,1.618244e-05,438.19499999972237,6.132817e-06
438.20999999972236,2.461096e-05,438.20999999972236,5.827318e-05,438.20999999972236,1.494707e-05,438.20999999972236,6.325044e-06
438.22499999972234,2.476957e-05,438.22499999972234,5.671789e-05,438.22499999972234,1.453229e-05,438.22499999972234,6.42229e-06
438.23999999972233,2.414872e-05,438.23999999972233,5.808287e-05,438.23999999972233,1.433613e-05,438.23999999972233,6.398117e-06
438.2549999997223,2.460695e-05,438.2549999997223,5.791042e-05,438.2549999997223,1.443894e-05,438.2549999997223,6.543968e-06
438.2699999997223,2.54639e-05,438.2699999997223,5.532002e-05,438.2699999997223,1.41691e-05,438.2699999997223,6.548272e-06
438.2849999997223,2.78564e-05,438.2849999997223,5.41927e-05,438.2849999997223,1.424248e-05,438.2849999997223,5.696992e-06
438.2999999997223,2.586567e-05,438.2999999997223,4.989275e-05,438.2999999997223,1.363407e-05,438.2999999997223,5.634837e-06
438.31499999972226,2.59722e-05,438.31499999972226,5.014537e-05,438.31499999972226,1.375135e-05,438.31499999972226,5.667242e-06
438.32999999972225,2.620438e-05,438.32999999972225,4.80606e-05,438.32999999972225,1.351577e-05,438.32999999972225,5.614802e-06
438.34499999972223,2.627632e-05,438.34499999972223,4.462518e-05,438.34499999972223,1.339012e-05,438.34499999972223,5.56946e-06
438.3599999997222,2.567545e-05,438.3599999997222,4.004673e-05,438.3599999997222,1.328556e-05,438.3599999997222,5.719203e-06
438.3749999997222,2.542071e-05,438.3749999997222,4.159039e-05,438.3749999997222,1.342374e-05,438.3749999997222,5.898653e-06
438.3899999997222,2.526173e-05,438.3899999997222,4.165706e-05,438.3899999997222,1.301671e-05,438.3899999997222,6.178585e-06
438.4049999997222,2.51992e-05,438.4049999997222,4.222968e-05,438.4049999997222,1.165193e-05,438.4049999997222,6.141998e-06
438.41999999972217,2.451576e-05,438.41999999972217,4.271062e-05,438.41999999972217,1.080902e-05,438.41999999972217,6.21269e-06
438.43499999972215,2.287927e-05,438.43499999972215,4.3424e-05,438.43499999972215,1.05505e-05,438.43499999972215,6.077441e-06
438.44999999972214,2.182427e-05,438.44999999972214,4.40066e-05,438.44999999972214,1.223689e-05,438.44999999972214,5.946224e-06
438.4649999997221,2.059627e-05,438.4649999997221,4.420876e-05,438.4649999997221,1.064222e-05,438.4649999997221,5.726587e-06
438.4799999997221,2.063317e-05,438.4799999997221,4.357975e-05,438.4799999997221,1.059447e-05,438.4799999997221,5.508422e-06
438.4949999997221,2.302045e-05,438.4949999997221,4.019315e-05,438.4949999997221,1.058648e-05,438.4949999997221,5.523745e-06
438.5099999997221,2.227657e-05,438.5099999997221,3.987223e-05,438.5099999997221,1.091794e-05,438.5099999997221,5.485359e-06
438.52499999972207,2.166816e-05,438.52499999972207,4.178401e-05,438.52499999972207,1.324734e-05,438.52499999972207,5.487926e-06
438.53999999972206,2.005781e-05,438.53999999972206,3.894356e-05,438.53999999972206,1.393452e-05,438.53999999972206,5.358047e-06
438.55499999972204,1.974352e-05,438.55499999972204,3.865383e-05,438.55499999972204,1.418699e-05,438.55499999972204,5.257193e-06
438.56999999972203,1.973425e-05,438.56999999972203,3.548652e-05,438.56999999972203,1.40513e-05,438.56999999972203,5.08004e-06
438.584999999722,2.003602e-05,438.584999999722,3.469205e-05,438.584999999722,1.396582e-05,438.584999999722,5.074491e-06
438.599999999722,1.991049e-05,438.599999999722,3.705821e-05,438.599999999722,1.385443e-05,438.599999999722,4.947995e-06
438.614999999722,2.012722e-05,438.614999999722,3.742248e-05,438.614999999722,1.387272e-05,438.614999999722,4.867628e-06
438.629999999722,2.024654e-05,438.629999999722,3.586086e-05,438.629999999722,1.402119e-05,438.629999999722,4.494475e-06
438.64499999972196,2.053462e-05,438.64499999972196,3.669647e-05,438.64499999972196,1.418897e-05,438.64499999972196,4.354386e-06
438.65999999972195,2.084306e-05,438.65999999972195,3.714591e-05,438.65999999972195,1.451775e-05,438.65999999972195,4.431347e-06
438.67499999972193,2.135581e-05,438.67499999972193,3.763156e-05,438.67499999972193,1.474974e-05,438.67499999972193,4.450379e-06
438.6899999997219,2.158935e-05,438.6899999997219,3.825932e-05,438.6899999997219,1.455264e-05,438.6899999997219,4.654602e-06
438.7049999997219,2.1575e-05,438.7049999997219,3.882691e-05,438.7049999997219,1.295596e-05,438.7049999997219,4.696781e-06
438.7199999997219,2.172205e-05,438.7199999997219,4.056538e-05,438.7199999997219,1.306531e-05,438.7199999997219,4.684768e-06
438.7349999997219,2.177969e-05,438.7349999997219,4.084017e-05,438.7349999997219,1.339222e-05,438.7349999997219,4.70577e-06
438.74999999972187,1.960965e-05,438.74999999972187,4.489583e-05,438.74999999972187,1.350848e-05,438.74999999972187,4.876302e-06
438.76499999972185,2.073261e-05,438.76499999972185,4.542424e-05,438.76499999972185,1.179133e-05,438.76499999972185,4.882076e-06
438.77999999972184,2.049411e-05,438.77999999972184,4.573422e-05,438.77999999972184,1.083636e-05,438.77999999972184,4.922306e-06
438.7949999997218,2.038176e-05,438.7949999997218,4.515831e-05,438.7949999997218,1.050768e-05,438.7949999997218,4.939447e-06
438.8099999997218,2.030421e-05,438.8099999997218,4.468038e-05,438.8099999997218,1.168453e-05,438.8099999997218,5.007424e-06
438.8249999997218,2.370659e-05,438.8249999997218,4.454587e-05,438.8249999997218,1.243784e-05,438.8249999997218,5.254512e-06
438.8399999997218,2.661985e-05,438.8399999997218,4.402836e-05,438.8399999997218,1.304481e-05,438.8399999997218,5.206033e-06
438.85499999972177,2.838787e-05,438.85499999972177,4.231133e-05,438.85499999972177,1.661792e-05,438.85499999972177,5.294573e-06
438.86999999972176,2.861177e-05,438.86999999972176,4.218563e-05,438.86999999972176,1.71814e-05,438.86999999972176,5.222243e-06
438.88499999972174,2.903452e-05,438.88499999972174,4.165063e-05,438.88499999972174,1.771346e-05,438.88499999972174,5.259872e-06
438.89999999972173,3.043862e-05,438.89999999972173,4.139211e-05,438.89999999972173,1.750387e-05,438.89999999972173,5.208738e-06
438.9149999997217,3.016574e-05,438.9149999997217,4.083362e-05,438.9149999997217,1.764813e-05,438.9149999997217,5.246463e-06
438.9299999997217,3.128982e-05,438.9299999997217,3.9053e-05,438.9299999997217,1.773175e-05,438.9299999997217,5.235713e-06
438.9449999997217,3.143624e-05,438.9449999997217,4.109359e-05,438.9449999997217,1.821609e-05,438.9449999997217,5.14616e-06
438.9599999997217,3.279209e-05,438.9599999997217,4.083879e-05,438.9599999997217,1.825086e-05,438.9599999997217,5.135199e-06
438.97499999972166,3.293397e-05,438.97499999972166,3.99386e-05,438.97499999972166,1.82578e-05,438.97499999972166,5.113207e-06
438.98999999972165,3.330697e-05,438.98999999972165,4.046977e-05,438.98999999972165,1.851979e-05,438.98999999972165,5.197909e-06
439.00499999972163,3.369759e-05,439.00499999972163,3.601491e-05,439.00499999972163,1.920609e-05,439.00499999972163,5.035477e-06
439.0199999997216,3.270176e-05,439.0199999997216,3.525713e-05,439.0199999997216,1.935732e-05,439.0199999997216,4.979213e-06
439.0349999997216,3.28496e-05,439.0349999997216,3.313949e-05,439.0349999997216,1.981048e-05,439.0349999997216,5.032679e-06
439.0499999997216,3.293568e-05,439.0499999997216,3.313822e-05,439.0499999997216,2.021521e-05,439.0499999997216,5.027078e-06
439.0649999997216,3.209916e-05,439.0649999997216,3.362519e-05,439.0649999997216,1.956218e-05,439.0649999997216,4.771172e-06
439.07999999972157,2.987999e-05,439.07999999972157,3.459853e-05,439.07999999972157,1.967992e-05,439.07999999972157,4.642481e-06
439.09499999972155,2.815017e-05,439.09499999972155,3.566589e-05,439.09499999972155,1.885299e-05,439.09499999972155,4.711753e-06
439.10999999972154,2.668222e-05,439.10999999972154,3.579481e-05,439.10999999972154,1.769835e-05,439.10999999972154,4.48192e-06
439.1249999997215,2.74196e-05,439.1249999997215,3.475776e-05,439.1249999997215,1.817041e-05,439.1249999997215,4.478776e-06
439.1399999997215,2.769106e-05,439.1399999997215,3.326253e-05,439.1399999997215,1.754165e-05,439.1399999997215,4.488202e-06
439.1549999997215,2.696685e-05,439.1549999997215,3.778957e-05,439.1549999997215,1.761138e-05,439.1549999997215,4.729657e-06
439.1699999997215,2.721333e-05,439.1699999997215,4.015212e-05,439.1699999997215,1.754005e-05,439.1699999997215,4.826943e-06
439.18499999972147,2.545172e-05,439.18499999972147,3.912508e-05,439.18499999972147,1.720762e-05,439.18499999972147,4.82986e-06
439.19999999972146,2.704145e-05,439.19999999972146,3.733504e-05,439.19999999972146,1.733404e-05,439.19999999972146,4.785911e-06
439.21499999972144,2.668328e-05,439.21499999972144,3.741721e-05,439.21499999972144,1.733485e-05,439.21499999972144,4.780021e-06
439.22999999972143,2.672284e-05,439.22999999972143,4.323837e-05,439.22999999972143,1.764175e-05,439.22999999972143,4.947995e-06
439.2449999997214,2.633362e-05,439.2449999997214,4.305947e-05,439.2449999997214,1.731127e-05,439.2449999997214,4.993339e-06
439.2599999997214,2.613494e-05,439.2599999997214,4.27515e-05,439.2599999997214,1.687281e-05,439.2599999997214,4.982041e-06
439.2749999997214,2.640893e-05,439.2749999997214,4.191327e-05,439.2749999997214,1.671175e-05,439.2749999997214,5.115961e-06
439.2899999997214,2.686742e-05,439.2899999997214,4.147269e-05,439.2899999997214,1.608203e-05,439.2899999997214,5.007424e-06
439.30499999972136,2.722109e-05,439.30499999972136,4.161477e-05,439.30499999972136,1.641064e-05,439.30499999972136,5.126963e-06
439.31999999972135,2.716462e-05,439.31999999972135,4.090669e-05,439.31999999972135,1.605046e-05,439.31999999972135,5.2679e-06
439.33499999972133,2.746426e-05,439.33499999972133,4.007029e-05,439.33499999972133,1.670585e-05,439.33499999972133,5.286585e-06
439.3499999997213,2.727795e-05,439.3499999997213,3.892257e-05,439.3499999997213,1.597304e-05,439.3499999997213,5.647323e-06
439.3649999997213,2.880461e-05,439.3649999997213,3.868661e-05,439.3649999997213,1.518734e-05,439.3649999997213,5.867525e-06
439.3799999997213,2.741857e-05,439.3799999997213,3.794284e-05,439.3799999997213,1.520959e-05,439.3799999997213,5.770695e-06
439.3949999997213,2.943494e-05,439.3949999997213,3.792687e-05,439.3949999997213,1.637197e-05,439.3949999997213,5.709342e-06
439.40999999972126,2.924818e-05,439.40999999972126,3.711784e-05,439.40999999972126,1.656443e-05,439.40999999972126,5.510979e-06
439.42499999972125,3.078238e-05,439.42499999972125,3.524075e-05,439.42499999972125,1.677569e-05,439.42499999972125,5.410373e-06
439.43999999972124,3.069852e-05,439.43999999972124,3.48553e-05,439.43999999972124,1.642866e-05,439.43999999972124,5.485359e-06
439.4549999997212,3.055133e-05,439.4549999997212,3.450802e-05,439.4549999997212,1.677905e-05,439.4549999997212,5.622323e-06
439.4699999997212,3.000279e-05,439.4699999997212,3.332811e-05,439.4699999997212,1.637541e-05,439.4699999997212,5.549188e-06
439.4849999997212,2.944116e-05,439.4849999997212,2.689362e-05,439.4849999997212,1.606713e-05,439.4849999997212,5.464775e-06
439.4999999997212,2.957721e-05,439.4999999997212,2.56491e-05,439.4999999997212,1.62606e-05,439.4999999997212,5.423375e-06
439.51499999972117,2.899617e-05,439.51499999972117,2.672179e-05,439.51499999972117,1.628657e-05,439.51499999972117,5.331691e-06
439.52999999972116,2.93645e-05,439.52999999972116,2.7474e-05,439.52999999972116,1.656953e-05,439.52999999972116,5.235713e-06
439.54499999972114,3.012368e-05,439.54499999972114,2.832329e-05,439.54499999972114,1.702988e-05,439.54499999972114,5.577042e-06
439.55999999972113,3.060016e-05,439.55999999972113,2.926937e-05,439.55999999972113,1.597745e-05,439.55999999972113,5.694519e-06
439.5749999997211,3.062915e-05,439.5749999997211,3.08765e-05,439.5749999997211,1.540285e-05,439.5749999997211,5.862722e-06
439.5899999997211,2.972496e-05,439.5899999997211,3.100944e-05,439.5899999997211,1.490932e-05,439.5899999997211,5.853103e-06
439.6049999997211,2.861325e-05,439.6049999997211,3.235749e-05,439.6049999997211,1.629175e-05,439.6049999997211,5.495621e-06
439.6199999997211,2.807903e-05,439.6199999997211,3.312461e-05,439.6199999997211,1.640034e-05,439.6199999997211,5.48022e-06
439.63499999972106,2.823162e-05,439.63499999972106,3.470747e-05,439.63499999972106,1.537814e-05,439.63499999972106,5.561867e-06
439.64999999972105,2.561063e-05,439.64999999972105,3.070311e-05,439.64999999972105,1.460481e-05,439.64999999972105,5.526294e-06
439.66499999972103,2.540574e-05,439.66499999972103,3.002016e-05,439.66499999972103,1.426916e-05,439.66499999972103,5.556798e-06
439.679999999721,2.330507e-05,439.679999999721,2.984603e-05,439.679999999721,1.457488e-05,439.679999999721,5.425972e-06
439.694999999721,2.204647e-05,439.694999999721,2.997789e-05,439.694999999721,1.446331e-05,439.694999999721,5.523745e-06
439.709999999721,2.13261e-05,439.709999999721,2.92183e-05,439.709999999721,1.42662e-05,439.709999999721,5.56946e-06
439.724999999721,2.175704e-05,439.724999999721,2.872332e-05,439.724999999721,1.393452e-05,439.724999999721,5.758477e-06
439.73999999972096,2.171946e-05,439.73999999972096,2.799009e-05,439.73999999972096,1.366606e-05,439.73999999972096,5.694519e-06
439.75499999972095,2.157565e-05,439.75499999972095,2.737024e-05,439.75499999972095,1.328662e-05,439.75499999972095,5.649817e-06
439.76999999972094,2.121484e-05,439.76999999972094,2.654354e-05,439.76999999972094,1.287963e-05,439.76999999972094,5.571988e-06
439.7849999997209,1.989562e-05,439.7849999997209,2.495315e-05,439.7849999997209,1.237995e-05,439.7849999997209,5.415577e-06
439.7999999997209,1.912229e-05,439.7999999997209,2.441673e-05,439.7999999997209,1.21896e-05,439.7999999997209,5.124215e-06
439.8149999997209,1.89781e-05,439.8149999997209,2.199081e-05,439.8149999997209,1.223113e-05,439.8149999997209,4.654602e-06
439.8299999997209,1.921929e-05,439.8299999997209,2.23372e-05,439.8299999997209,1.22173e-05,439.8299999997209,4.708762e-06
439.84499999972087,1.961252e-05,439.84499999972087,2.3084e-05,439.84499999972087,1.234919e-05,439.84499999972087,4.553636e-06
439.85999999972086,1.963406e-05,439.85999999972086,2.122015e-05,439.85999999972086,1.101301e-05,439.85999999972086,4.584466e-06
439.87499999972084,1.924126e-05,439.87499999972084,2.398835e-05,439.87499999972084,1.054916e-05,439.87499999972084,4.624239e-06
439.8899999997208,1.876612e-05,439.8899999997208,2.137493e-05,439.8899999997208,1.033466e-05,439.8899999997208,4.469331e-06
439.9049999997208,1.869618e-05,439.9049999997208,2.18049e-05,439.9049999997208,9.979622e-06,439.9049999997208,4.415424e-06
439.9199999997208,1.857144e-05,439.9199999997208,2.175316e-05,439.9199999997208,1.060908e-05,439.9199999997208,4.519479e-06
439.9349999997208,1.83678e-05,439.9349999997208,2.232647e-05,439.9349999997208,1.022504e-05,439.9349999997208,4.633369e-06
439.9499999997208,1.812306e-05,439.9499999997208,2.389775e-05,439.9499999997208,1.033603e-05,439.9499999997208,4.503868e-06
439.96499999972076,1.841223e-05,439.96499999972076,2.49571e-05,439.96499999972076,1.008493e-05,439.96499999972076,4.256228e-06
439.97999999972075,1.756172e-05,439.97999999972075,2.641107e-05,439.97999999972075,1.038362e-05,439.97999999972075,4.279333e-06
439.99499999972073,1.700421e-05,439.99499999972073,2.716722e-05,439.99499999972073,1.031829e-05,439.99499999972073,4.325173e-06
440.0099999997207,1.756893e-05,440.0099999997207,2.758708e-05,440.0099999997207,1.050768e-05,440.0099999997207,4.305587e-06
440.0249999997207,1.741673e-05,440.0249999997207,2.788117e-05,440.0249999997207,1.049427e-05,440.0249999997207,4.370531e-06
440.0399999997207,1.721826e-05,440.0399999997207,2.798606e-05,440.0399999997207,1.029643e-05,440.0399999997207,4.338181e-06
440.0549999997207,1.672018e-05,440.0549999997207,2.826304e-05,440.0549999997207,1.029095e-05,440.0549999997207,4.440873e-06
440.06999999972066,1.750306e-05,440.06999999972066,2.938033e-05,440.06999999972066,1.022228e-05,440.06999999972066,4.39624e-06
440.08499999972065,1.709839e-05,440.08499999972065,2.841217e-05,440.08499999972065,1.029506e-05,440.08499999972065,4.27604e-06
440.09999999972064,1.658908e-05,440.09999999972064,2.791399e-05,440.09999999972064,9.924419e-06,440.09999999972064,4.179412e-06
440.1149999997206,1.660266e-05,440.1149999997206,2.747759e-05,440.1149999997206,9.560042e-06,440.1149999997206,4.269446e-06
440.1299999997206,1.659502e-05,440.1299999997206,2.643079e-05,440.1299999997206,1.020021e-05,440.1299999997206,4.341427e-06
440.1449999997206,1.704393e-05,440.1449999997206,2.617318e-05,440.1449999997206,1.013926e-05,440.1449999997206,4.386617e-06
440.1599999997206,1.709263e-05,440.1599999997206,2.63737e-05,440.1599999997206,1.080902e-05,440.1599999997206,4.331681e-06
440.17499999972057,1.697934e-05,440.17499999972057,2.934147e-05,440.17499999972057,9.671379e-06,440.17499999972057,4.39624e-06
440.18999999972056,1.732835e-05,440.18999999972056,2.900345e-05,440.18999999972056,9.642205e-06,440.18999999972056,4.399444e-06
440.20499999972054,1.788126e-05,440.20499999972054,2.921879e-05,440.20499999972054,9.788648e-06,440.20499999972054,4.621192e-06
440.2199999997205,1.758416e-05,440.2199999997205,2.863736e-05,440.2199999997205,1.043504e-05,440.2199999997205,4.738583e-06
440.2349999997205,1.774763e-05,440.2349999997205,2.702946e-05,440.2349999997205,1.035781e-05,440.2349999997205,4.702775e-06
440.2499999997205,1.762737e-05,440.2499999997205,2.781541e-05,440.2499999997205,1.048621e-05,440.2499999997205,4.861837e-06
440.2649999997205,1.740703e-05,440.2649999997205,2.795584e-05,440.2649999997205,1.021815e-05,440.2649999997205,5.126963e-06
440.2799999997205,1.733079e-05,440.2799999997205,2.900443e-05,440.2799999997205,1.030736e-05,440.2799999997205,5.102175e-06
440.29499999972046,1.747487e-05,440.29499999972046,2.960006e-05,440.29499999972046,1.039988e-05,440.29499999972046,5.099414e-06
440.30999999972045,1.710745e-05,440.30999999972045,2.905004e-05,440.30999999972045,1.093986e-05,440.30999999972045,5.102175e-06
440.32499999972043,1.608553e-05,440.32499999972043,2.915943e-05,440.32499999972043,1.096301e-05,440.32499999972043,5.206033e-06
440.3399999997204,1.631767e-05,440.3399999997204,2.975291e-05,440.3399999997204,1.129589e-05,440.3399999997204,5.321112e-06
440.3549999997204,1.625453e-05,440.3549999997204,2.964143e-05,440.3549999997204,1.159011e-05,440.3549999997204,5.302549e-06
440.3699999997204,1.680002e-05,440.3699999997204,2.887495e-05,440.3699999997204,1.092697e-05,440.3699999997204,5.192486e-06
440.3849999997204,1.758015e-05,440.3849999997204,2.773375e-05,440.3849999997204,1.206064e-05,440.3849999997204,5.184341e-06
440.39999999972036,1.701995e-05,440.39999999972036,2.740059e-05,440.39999999972036,1.211192e-05,440.39999999972036,5.135199e-06
440.41499999972035,1.765452e-05,440.41499999972035,2.594506e-05,440.41499999972035,1.178058e-05,440.41499999972035,5.099414e-06
440.42999999972034,1.782208e-05,440.42999999972034,2.329177e-05,440.42999999972034,1.187704e-05,440.42999999972034,5.055022e-06
440.4449999997203,1.829326e-05,440.4449999997203,2.257245e-05,440.4449999997203,1.225414e-05,440.4449999997203,4.714741e-06
440.4599999997203,1.744098e-05,440.4599999997203,2.237689e-05,440.4599999997203,1.131956e-05,440.4599999997203,4.648545e-06
440.4749999997203,1.731859e-05,440.4749999997203,2.245544e-05,440.4749999997203,1.12484e-05,440.4749999997203,4.70577e-06
440.4899999997203,1.814714e-05,440.4899999997203,2.194079e-05,440.4899999997203,1.124715e-05,440.4899999997203,4.553636e-06
440.50499999972027,1.827014e-05,440.50499999972027,2.082819e-05,440.50499999972027,1.107169e-05,440.50499999972027,4.440873e-06
440.51999999972026,1.858736e-05,440.51999999972026,2.069997e-05,440.51999999972026,1.176981e-05,440.51999999972026,4.308857e-06
440.53499999972024,2.031392e-05,440.53499999972024,2.121683e-05,440.53499999972024,1.241517e-05,440.53499999972024,4.440873e-06
440.5499999997202,2.051678e-05,440.5499999997202,1.949799e-05,440.5499999997202,1.240496e-05,440.5499999997202,4.428167e-06
440.5649999997202,2.018871e-05,440.5649999997202,2.104953e-05,440.5649999997202,1.203024e-05,440.5649999997202,4.29576e-06
440.5799999997202,2.003813e-05,440.5799999997202,2.101336e-05,440.5799999997202,1.202555e-05,440.5799999997202,4.328428e-06
440.5949999997202,2.0095e-05,440.5949999997202,2.0864e-05,440.5949999997202,1.182116e-05,440.5949999997202,4.354386e-06
440.6099999997202,1.9846e-05,440.6099999997202,2.190223e-05,440.6099999997202,1.172064e-05,440.6099999997202,4.434525e-06
440.62499999972016,1.902777e-05,440.62499999972016,2.508995e-05,440.62499999972016,1.127842e-05,440.62499999972016,4.338181e-06
440.63999999972015,1.921929e-05,440.63999999972015,2.975291e-05,440.63999999972015,1.043234e-05,440.63999999972015,4.35115e-06
440.65499999972013,1.918114e-05,440.65499999972013,3.18971e-05,440.65499999972013,1.024018e-05,440.65499999972013,4.4377e-06
440.6699999997201,1.940674e-05,440.6699999997201,3.253635e-05,440.6699999997201,1.037004e-05,440.6699999997201,4.525708e-06
440.6849999997201,1.898849e-05,440.6849999997201,3.257486e-05,440.6849999997201,1.039582e-05,440.6849999997201,4.409039e-06
440.6999999997201,1.869994e-05,440.6999999997201,3.204426e-05,440.6999999997201,1.040124e-05,440.6999999997201,4.409039e-06
440.7149999997201,1.872403e-05,440.7149999997201,3.184627e-05,440.7149999997201,1.037547e-05,440.7149999997201,4.302314e-06
440.72999999972006,1.894839e-05,440.72999999972006,3.16973e-05,440.72999999972006,1.028821e-05,440.72999999972006,4.418613e-06
440.74499999972005,1.782208e-05,440.74499999972005,3.284831e-05,440.74499999972005,1.019745e-05,440.74499999972005,4.535037e-06
440.75999999972004,1.825626e-05,440.75999999972004,3.305522e-05,440.75999999972004,9.932932e-06,440.75999999972004,4.52882e-06
440.77499999972,1.74321e-05,440.77499999972,3.234268e-05,440.77499999972,1.016147e-05,440.77499999972,4.503868e-06
440.78999999972,1.619723e-05,440.78999999972,3.217281e-05,440.78999999972,9.677204e-06,440.78999999972,4.506994e-06
440.80499999972,1.584554e-05,440.80499999972,3.197341e-05,440.80499999972,9.714977e-06,440.80499999972,4.456705e-06
440.81999999972,1.591207e-05,440.81999999972,3.020494e-05,440.81999999972,1.070689e-05,440.81999999972,4.402644e-06
440.83499999971997,1.624326e-05,440.83499999971997,3.309909e-05,440.83499999971997,1.091407e-05,440.83499999971997,4.249604e-06
440.84999999971996,1.602323e-05,440.84999999971996,3.319216e-05,440.84999999971996,1.093213e-05,440.84999999971996,4.128545e-06
440.86499999971994,1.594568e-05,440.86499999971994,3.128261e-05,440.86499999971994,1.091536e-05,440.86499999971994,4.152361e-06
440.8799999997199,1.584198e-05,440.8799999997199,3.038442e-05,440.8799999997199,1.070426e-05,440.8799999997199,4.618143e-06
440.8949999997199,1.493858e-05,440.8949999997199,2.892661e-05,440.8949999997199,1.107169e-05,440.8949999997199,4.824024e-06
440.9099999997199,1.392238e-05,440.9099999997199,2.763708e-05,440.9099999997199,1.178536e-05,440.9099999997199,4.79767e-06
440.9249999997199,1.478503e-05,440.9249999997199,2.746221e-05,440.9249999997199,1.400812e-05,440.9249999997199,4.627284e-06
440.9399999997199,1.515298e-05,440.9399999997199,2.934915e-05,440.9399999997199,1.392036e-05,440.9399999997199,4.70577e-06
440.95499999971986,1.639433e-05,440.95499999971986,2.994404e-05,440.95499999971986,1.393856e-05,440.95499999971986,4.70577e-06
440.96999999971985,1.7992e-05,440.96999999971985,3.173372e-05,440.96999999971985,1.401013e-05,440.96999999971985,4.666692e-06
440.98499999971983,1.923541e-05,440.98499999971983,3.220607e-05,440.98499999971983,1.423457e-05,440.98499999971983,4.415424e-06
440.9999999997198,1.938277e-05,440.9999999997198,3.187236e-05,440.9999999997198,1.436656e-05,440.9999999997198,4.386617e-06
441.0149999997198,1.874884e-05,441.0149999997198,3.169463e-05,441.0149999997198,1.446331e-05,441.0149999997198,4.541245e-06
441.0299999997198,1.858585e-05,441.0299999997198,3.205217e-05,441.0299999997198,1.378511e-05,441.0299999997198,4.535037e-06
441.0449999997198,1.911787e-05,441.0449999997198,3.479301e-05,441.0449999997198,1.3737e-05,441.0449999997198,4.525708e-06
441.05999999971976,1.922662e-05,441.05999999971976,3.710949e-05,441.05999999971976,1.376466e-05,441.05999999971976,4.690778e-06
441.07499999971975,1.898775e-05,441.07499999971975,3.784619e-05,441.07499999971975,1.316948e-05,441.07499999971975,4.726678e-06
441.08999999971974,1.880661e-05,441.08999999971974,3.608095e-05,441.08999999971974,1.332685e-05,441.08999999971974,4.720713e-06
441.1049999997197,1.870747e-05,441.1049999997197,3.676512e-05,441.1049999997197,1.321859e-05,441.1049999997197,4.83569e-06
441.1199999997197,1.902925e-05,441.1199999997197,3.678886e-05,441.1199999997197,1.343213e-05,441.1199999997197,4.708762e-06
441.1349999997197,1.906401e-05,441.1349999997197,3.663192e-05,441.1349999997197,1.398195e-05,441.1349999997197,4.11145e-06
441.1499999997197,1.903665e-05,441.1499999997197,3.695543e-05,441.1499999997197,1.402722e-05,441.1499999997197,4.031877e-06
441.16499999971967,1.912524e-05,441.16499999971967,3.708823e-05,441.16499999971967,1.345833e-05,441.16499999971967,4.052786e-06
441.17999999971966,1.887987e-05,441.17999999971966,3.732825e-05,441.17999999971966,1.156821e-05,441.17999999971966,4.0632e-06
441.19499999971964,1.998393e-05,441.19499999971964,3.653681e-05,441.19499999971964,1.159375e-05,441.19499999971964,4.028382e-06
441.2099999997196,1.879762e-05,441.2099999997196,3.612582e-05,441.2099999997196,1.183664e-05,441.2099999997196,4.024883e-06
441.2249999997196,1.668982e-05,441.2249999997196,3.742812e-05,441.2249999997196,1.161197e-05,441.2249999997196,4.094283e-06
441.2399999997196,1.642952e-05,441.2399999997196,4.266542e-05,441.2399999997196,1.163741e-05,441.2399999997196,3.975583e-06
441.2549999997196,1.671512e-05,441.2549999997196,4.283445e-05,441.2549999997196,1.181759e-05,441.2549999997196,3.834905e-06
441.2699999997196,1.75577e-05,441.2699999997196,4.336102e-05,441.2699999997196,1.195035e-05,441.2699999997196,3.78313e-06
441.28499999971956,1.783946e-05,441.28499999971956,4.472545e-05,441.28499999971956,1.203609e-05,441.28499999971956,3.989731e-06
441.29999999971955,1.765053e-05,441.29999999971955,4.268258e-05,441.29999999971955,1.211076e-05,441.29999999971955,3.812802e-06
441.31499999971953,1.811684e-05,441.31499999971953,4.382087e-05,441.31499999971953,1.199623e-05,441.31499999971953,4.285911e-06
441.3299999997195,1.907361e-05,441.3299999997195,4.381765e-05,441.3299999997195,1.187941e-05,441.3299999997195,4.29248e-06
441.3449999997195,1.968207e-05,441.3449999997195,4.428676e-05,441.3449999997195,1.179969e-05,441.3449999997195,4.34467e-06
441.3599999997195,2.143876e-05,441.3599999997195,4.537614e-05,441.3599999997195,1.183307e-05,441.3599999997195,4.285911e-06
441.3749999997195,2.358984e-05,441.3749999997195,4.525491e-05,441.3749999997195,1.168935e-05,441.3749999997195,4.370531e-06
441.38999999971946,2.452955e-05,441.38999999971946,4.454556e-05,441.38999999971946,1.121956e-05,441.38999999971946,4.269446e-06
441.40499999971945,2.550977e-05,441.40499999971945,4.430203e-05,441.40499999971945,1.05545e-05,441.40499999971945,4.360851e-06
441.41999999971944,2.62865e-05,441.41999999971944,4.494882e-05,441.41999999971944,1.056784e-05,441.41999999971944,4.714741e-06
441.4349999997194,2.646754e-05,441.4349999997194,4.451076e-05,441.4349999997194,1.047412e-05,441.4349999997194,5.154366e-06
441.4499999997194,2.601122e-05,441.4499999997194,4.522657e-05,441.4499999997194,1.09347e-05,441.4499999997194,5.214144e-06
441.4649999997194,2.732027e-05,441.4649999997194,4.58505e-05,441.4649999997194,1.132578e-05,441.4649999997194,5.249148e-06
441.4799999997194,2.880266e-05,441.4799999997194,4.030794e-05,441.4799999997194,1.144825e-05,441.4799999997194,5.278585e-06
441.49499999971937,2.976994e-05,441.49499999971937,4.154023e-05,441.49499999971937,1.219191e-05,441.49499999971937,5.305204e-06
441.50999999971935,2.996379e-05,441.50999999971935,4.143531e-05,441.50999999971935,1.213749e-05,441.50999999971935,5.418178e-06
441.52499999971934,3.040064e-05,441.52499999971934,4.161341e-05,441.52499999971934,1.176981e-05,441.52499999971934,5.75603e-06
441.5399999997193,3.276458e-05,441.5399999997193,3.82814e-05,441.5399999997193,1.197037e-05,441.5399999997193,5.711809e-06
441.5549999997193,3.301173e-05,441.5549999997193,3.650557e-05,441.5549999997193,1.337644e-05,441.5549999997193,5.647323e-06
441.5699999997193,3.258048e-05,441.5699999997193,3.509294e-05,441.5699999997193,1.465873e-05,441.5699999997193,5.297233e-06
441.5849999997193,3.225152e-05,441.5849999997193,3.450721e-05,441.5849999997193,1.542205e-05,441.5849999997193,5.418178e-06
441.5999999997193,3.167596e-05,441.5999999997193,3.307013e-05,441.5999999997193,1.681008e-05,441.5999999997193,5.634837e-06
441.61499999971926,3.085734e-05,441.61499999971926,3.390471e-05,441.61499999971926,1.691701e-05,441.61499999971926,5.652309e-06
441.62999999971925,2.967278e-05,441.62999999971925,3.300618e-05,441.62999999971925,1.707778e-05,441.62999999971925,5.629835e-06
441.64499999971923,2.925348e-05,441.64499999971923,3.332558e-05,441.64499999971923,1.682097e-05,441.64499999971923,5.662269e-06
441.6599999997192,2.831732e-05,441.6599999997192,3.401961e-05,441.6599999997192,1.697934e-05,441.6599999997192,5.869926e-06
441.6749999997192,2.776979e-05,441.6749999997192,3.305693e-05,441.6749999997192,1.742401e-05,441.6749999997192,5.544109e-06
441.6899999997192,2.79503e-05,441.6899999997192,3.599182e-05,441.6899999997192,1.723298e-05,441.6899999997192,5.2679e-06
441.7049999997192,2.719417e-05,441.7049999997192,3.577434e-05,441.7049999997192,1.680086e-05,441.7049999997192,5.371176e-06
441.71999999971916,2.59646e-05,441.71999999971916,3.595462e-05,441.71999999971916,1.795124e-05,441.71999999971916,5.299891e-06
441.73499999971915,2.555722e-05,441.73499999971915,3.40705e-05,441.73499999971915,1.822305e-05,441.73499999971915,5.281253e-06
441.74999999971914,2.431266e-05,441.74999999971914,3.425564e-05,441.74999999971914,1.774207e-05,441.74999999971914,5.34752e-06
441.7649999997191,2.416388e-05,441.7649999997191,3.456472e-05,441.7649999997191,1.798025e-05,441.7649999997191,5.379038e-06
441.7799999997191,2.398894e-05,441.7799999997191,3.564969e-05,441.7799999997191,1.84084e-05,441.7799999997191,5.302549e-06
441.7949999997191,2.064136e-05,441.7949999997191,3.594757e-05,441.7949999997191,1.834017e-05,441.7949999997191,5.315815e-06
441.8099999997191,2.099257e-05,441.8099999997191,3.702665e-05,441.8099999997191,1.784025e-05,441.8099999997191,5.405162e-06
441.82499999971907,2.176222e-05,441.82499999971907,4.047255e-05,441.82499999971907,1.68017e-05,441.82499999971907,5.495621e-06
441.83999999971905,2.158217e-05,441.83999999971905,4.370209e-05,441.83999999971905,1.63194e-05,441.83999999971905,5.584614e-06
441.85499999971904,2.202602e-05,441.85499999971904,4.429153e-05,441.85499999971904,1.539279e-05,441.85499999971904,5.879517e-06
441.869999999719,2.198697e-05,441.869999999719,4.317642e-05,441.869999999719,1.537356e-05,441.869999999719,5.862722e-06
441.884999999719,2.167856e-05,441.884999999719,4.286503e-05,441.884999999719,1.520773e-05,441.884999999719,5.833818e-06
441.899999999719,2.184363e-05,441.899999999719,4.261883e-05,441.899999999719,1.554396e-05,441.899999999719,5.865124e-06
441.914999999719,2.174215e-05,441.914999999719,4.172295e-05,441.914999999719,1.552583e-05,441.914999999719,5.594695e-06
441.929999999719,2.181653e-05,441.929999999719,4.042485e-05,441.929999999719,1.565414e-05,441.929999999719,5.667242e-06
441.94499999971896,2.270871e-05,441.94499999971896,3.769327e-05,441.94499999971896,1.632199e-05,441.94499999971896,5.627332e-06
441.95999999971895,2.290635e-05,441.95999999971895,3.72406e-05,441.95999999971895,1.643895e-05,441.95999999971895,5.485359e-06
441.97499999971893,2.252622e-05,441.97499999971893,3.637839e-05,441.97499999971893,1.539645e-05,441.97499999971893,5.505864e-06
441.9899999997189,2.245607e-05,441.9899999997189,3.597343e-05,441.9899999997189,1.609866e-05,441.9899999997189,5.475077e-06
442.0049999997189,2.293401e-05,442.0049999997189,3.236445e-05,442.0049999997189,1.715679e-05,442.0049999997189,5.446701e-06
442.0199999997189,2.238633e-05,442.0199999997189,3.209873e-05,442.0199999997189,1.69893e-05,442.0199999997189,5.118714e-06
442.0349999997189,2.263663e-05,442.0349999997189,3.223886e-05,442.0349999997189,1.718878e-05,442.0349999997189,5.057808e-06
442.04999999971886,2.244666e-05,442.04999999971886,3.330824e-05,442.04999999971886,1.712227e-05,442.04999999971886,5.027078e-06
442.06499999971885,2.253185e-05,442.06499999971885,3.381444e-05,442.06499999971885,1.696689e-05,442.06499999971885,4.990517e-06
442.07999999971884,2.260799e-05,442.07999999971884,2.993228e-05,442.07999999971884,1.690701e-05,442.07999999971884,4.777073e-06
442.0949999997188,2.429991e-05,442.0949999997188,2.683699e-05,442.0949999997188,1.703401e-05,442.0949999997188,4.66971e-06
442.1099999997188,2.416854e-05,442.1099999997188,2.479344e-05,442.1099999997188,1.697685e-05,442.1099999997188,4.246287e-06
442.1249999997188,2.466927e-05,442.1249999997188,2.581988e-05,442.1249999997188,1.727298e-05,442.1249999997188,4.29248e-06
442.1399999997188,2.469495e-05,442.1399999997188,3.060293e-05,442.1399999997188,1.72738e-05,442.1399999997188,4.262842e-06
442.15499999971877,2.415397e-05,442.15499999971877,3.075491e-05,442.15499999971877,1.790567e-05,442.15499999971877,4.108022e-06
442.16999999971875,2.415455e-05,442.16999999971875,3.153244e-05,442.16999999971875,1.821764e-05,442.16999999971875,4.097722e-06
442.18499999971874,2.426278e-05,442.18499999971874,3.178074e-05,442.18499999971874,1.765452e-05,442.18499999971874,4.497608e-06
442.1999999997187,2.43971e-05,442.1999999997187,3.271597e-05,442.1999999997187,1.73965e-05,442.1999999997187,4.513241e-06
442.2149999997187,2.481332e-05,442.2149999997187,3.558839e-05,442.2149999997187,1.726891e-05,442.2149999997187,4.569077e-06
442.2299999997187,2.473371e-05,442.2299999997187,3.60196e-05,442.2299999997187,1.666617e-05,442.2299999997187,4.590608e-06
442.2449999997187,2.510904e-05,442.2449999997187,3.632918e-05,442.2449999997187,1.539462e-05,442.2449999997187,4.624239e-06
442.2599999997187,2.515108e-05,442.2599999997187,3.677891e-05,442.2599999997187,1.497249e-05,442.2599999997187,4.838602e-06
442.27499999971866,2.810209e-05,442.27499999971866,3.628961e-05,442.27499999971866,1.537539e-05,442.27499999971866,4.950841e-06
442.28999999971865,2.719209e-05,442.28999999971865,3.524395e-05,442.28999999971865,1.48942e-05,442.28999999971865,4.993339e-06
442.30499999971863,3.006564e-05,442.30499999971863,3.390015e-05,442.30499999971863,1.493481e-05,442.30499999971863,5.018664e-06
442.3199999997186,3.113592e-05,442.3199999997186,3.179448e-05,442.3199999997186,1.46395e-05,442.3199999997186,4.864733e-06
442.3349999997186,3.170841e-05,442.3349999997186,3.106708e-05,442.3349999997186,1.507936e-05,442.3349999997186,4.729657e-06
442.3499999997186,3.092027e-05,442.3499999997186,3.178694e-05,442.3499999997186,1.510177e-05,442.3499999997186,4.596741e-06
442.3649999997186,3.225764e-05,442.3649999997186,3.221569e-05,442.3649999997186,1.496684e-05,442.3649999997186,4.780021e-06
442.37999999971856,3.313057e-05,442.37999999971856,3.117797e-05,442.37999999971856,1.72485e-05,442.37999999971856,4.838602e-06
442.39499999971855,3.948669e-05,442.39499999971855,3.293867e-05,442.39499999971855,1.641236e-05,442.39499999971855,5.273245e-06
442.40999999971854,4.332007e-05,442.40999999971854,3.357908e-05,442.40999999971854,1.635561e-05,442.40999999971854,5.589657e-06
442.4249999997185,4.534602e-05,442.4249999997185,3.33353e-05,442.4249999997185,1.687448e-05,442.4249999997185,5.477649e-06
442.4399999997185,4.523467e-05,442.4399999997185,3.466646e-05,442.4399999997185,1.726727e-05,442.4399999997185,5.233022e-06
442.4549999997185,4.509869e-05,442.4549999997185,3.683172e-05,442.4549999997185,1.706128e-05,442.4549999997185,5.192486e-06
442.4699999997185,4.508151e-05,442.4699999997185,3.455208e-05,442.4699999997185,1.702408e-05,442.4699999997185,5.310512e-06
442.48499999971847,4.477424e-05,442.48499999971847,3.441524e-05,442.48499999971847,1.699013e-05,442.48499999971847,5.687093e-06
442.49999999971845,4.457496e-05,442.49999999971845,3.505961e-05,442.49999999971845,1.683269e-05,442.49999999971845,5.556798e-06
442.51499999971844,4.405139e-05,442.51499999971844,3.502946e-05,442.51499999971844,1.661453e-05,442.51499999971844,5.358047e-06
442.5299999997184,4.285484e-05,442.5299999997184,3.63063e-05,442.5299999997184,1.657718e-05,442.5299999997184,5.313164e-06
442.5449999997184,4.228502e-05,442.5449999997184,3.74443e-05,442.5449999997184,1.65065e-05,442.5449999997184,5.305204e-06
442.5599999997184,4.068328e-05,442.5599999997184,3.750294e-05,442.5599999997184,1.712967e-05,442.5599999997184,5.444114e-06
442.5749999997184,4.048161e-05,442.5749999997184,3.74507e-05,442.5749999997184,1.664926e-05,442.5749999997184,5.53139e-06
442.5899999997184,4.050143e-05,442.5899999997184,3.777615e-05,442.5899999997184,1.666194e-05,442.5899999997184,5.634837e-06
442.60499999971836,3.990225e-05,442.60499999971836,3.870117e-05,442.60499999971836,1.709345e-05,442.60499999971836,5.662269e-06
442.61999999971835,3.909374e-05,442.61999999971835,3.841218e-05,442.61999999971835,1.698515e-05,442.61999999971835,5.495621e-06
442.63499999971833,3.687263e-05,442.63499999971833,3.434476e-05,442.63499999971833,1.451289e-05,442.63499999971833,5.56693e-06
442.6499999997183,3.226375e-05,442.6499999997183,3.43964e-05,442.6499999997183,1.46952e-05,442.6499999997183,5.412975e-06
442.6649999997183,2.595158e-05,442.6649999997183,3.353836e-05,442.6649999997183,1.396885e-05,442.6649999997183,5.360675e-06
442.6799999997183,2.428425e-05,442.6799999997183,3.303348e-05,442.6799999997183,1.368872e-05,442.6799999997183,5.352786e-06
442.6949999997183,2.517347e-05,442.6949999997183,2.969936e-05,442.6949999997183,1.315129e-05,442.6949999997183,5.297233e-06
442.70999999971826,2.568258e-05,442.70999999971826,3.187987e-05,442.70999999971826,1.353868e-05,442.70999999971826,5.399948e-06
442.72499999971825,2.607612e-05,442.72499999971825,3.185865e-05,442.72499999971825,1.34782e-05,442.72499999971825,5.254512e-06
442.73999999971824,2.653876e-05,442.73999999971824,3.123755e-05,442.73999999971824,1.329722e-05,442.73999999971824,5.211442e-06
442.7549999997182,2.788471e-05,442.7549999997182,3.073108e-05,442.7549999997182,1.348447e-05,442.7549999997182,5.305204e-06
442.7699999997182,2.897867e-05,442.7699999997182,2.912946e-05,442.7699999997182,1.330887e-05,442.7699999997182,5.454455e-06
442.7849999997182,2.956006e-05,442.7849999997182,2.788976e-05,442.7849999997182,1.303617e-05,442.7849999997182,5.682137e-06
442.7999999997182,3.158466e-05,442.7999999997182,2.73414e-05,442.7999999997182,1.313628e-05,442.7999999997182,5.696992e-06
442.81499999971817,3.875537e-05,442.81499999971817,2.735531e-05,442.81499999971817,1.237198e-05,442.81499999971817,5.729046e-06
442.82999999971815,3.886607e-05,442.82999999971815,2.768088e-05,442.82999999971815,1.239814e-05,442.82999999971815,5.706874e-06
442.84499999971814,4.01984e-05,442.84499999971814,2.798254e-05,442.84499999971814,1.221615e-05,442.84499999971814,5.706874e-06
442.8599999997181,4.011948e-05,442.8599999997181,2.789531e-05,442.8599999997181,1.172064e-05,442.8599999997181,5.920107e-06
442.8749999997181,4.024148e-05,442.8749999997181,3.201215e-05,442.8749999997181,1.166884e-05,442.8749999997181,5.955692e-06
442.8899999997181,3.972676e-05,442.8899999997181,3.370177e-05,442.8899999997181,1.182712e-05,442.8899999997181,5.619817e-06
442.9049999997181,4.000485e-05,442.9049999997181,3.489044e-05,442.9049999997181,1.174825e-05,442.9049999997181,5.505864e-06
442.9199999997181,4.061084e-05,442.9199999997181,3.485732e-05,442.9199999997181,1.194445e-05,442.9199999997181,5.564399e-06
442.93499999971806,4.109085e-05,442.93499999971806,3.586754e-05,442.93499999971806,1.180208e-05,442.93499999971806,5.644828e-06
442.94999999971805,4.018964e-05,442.94999999971805,3.693751e-05,442.94999999971805,1.157186e-05,442.94999999971805,6.680315e-06
442.96499999971803,4.087569e-05,442.96499999971803,3.555354e-05,442.96499999971803,1.194327e-05,442.96499999971803,6.713969e-06
442.979999999718,4.099853e-05,442.979999999718,3.66323e-05,442.979999999718,1.231263e-05,442.979999999718,6.69506e-06
442.994999999718,4.048995e-05,442.994999999718,3.661076e-05,442.994999999718,1.251237e-05,442.994999999718,6.676097e-06
443.009999999718,3.992907e-05,443.009999999718,3.684167e-05,443.009999999718,1.246387e-05,443.009999999718,6.791156e-06
443.024999999718,3.986446e-05,443.024999999718,3.722811e-05,443.024999999718,1.348865e-05,443.024999999718,6.764137e-06
443.03999999971796,3.997139e-05,443.03999999971796,3.736333e-05,443.03999999971796,1.350535e-05,443.03999999971796,6.576178e-06
443.05499999971795,3.726593e-05,443.05499999971795,3.82129e-05,443.05499999971795,1.352203e-05,443.05499999971795,6.678206e-06
443.06999999971794,3.174259e-05,443.06999999971794,3.848033e-05,443.06999999971794,1.347297e-05,443.06999999971794,6.932803e-06
443.0849999997179,3.160606e-05,443.0849999997179,3.826226e-05,443.0849999997179,1.313628e-05,443.0849999997179,6.902258e-06
443.0999999997179,2.916522e-05,443.0999999997179,3.694971e-05,443.0999999997179,1.341534e-05,443.0999999997179,6.745368e-06
443.1149999997179,2.959673e-05,443.1149999997179,3.66838e-05,443.1149999997179,1.366194e-05,443.1149999997179,6.718165e-06
443.1299999997179,2.921782e-05,443.1299999997179,3.51142e-05,443.1299999997179,1.378409e-05,443.1299999997179,6.79323e-06
443.14499999971787,2.856447e-05,443.14499999971787,3.318155e-05,443.14499999971787,1.374315e-05,443.14499999971787,6.936866e-06
443.15999999971785,2.796894e-05,443.15999999971785,3.375189e-05,443.15999999971785,1.360615e-05,443.15999999971785,6.999535e-06
443.17499999971784,2.748579e-05,443.17499999971784,3.398066e-05,443.17499999971784,1.384019e-05,443.17499999971784,6.94904e-06
443.1899999997178,2.722833e-05,443.1899999997178,3.393462e-05,443.1899999997178,1.410333e-05,443.1899999997178,6.944984e-06
443.2049999997178,2.689571e-05,443.2049999997178,3.502584e-05,443.2049999997178,1.43204e-05,443.2049999997178,6.007502e-06
443.2199999997178,2.555942e-05,443.2199999997178,3.29938e-05,443.2199999997178,1.404628e-05,443.2199999997178,6.021555e-06
443.2349999997178,2.549872e-05,443.2349999997178,3.276931e-05,443.2349999997178,1.400108e-05,443.2349999997178,6.023894e-06
443.2499999997178,2.489437e-05,443.2499999997178,3.323203e-05,443.2499999997178,1.353348e-05,443.2499999997178,5.845879e-06
443.26499999971776,2.499771e-05,443.26499999971776,3.588482e-05,443.26499999971776,1.390517e-05,443.26499999971776,5.960421e-06
443.27999999971775,2.570615e-05,443.27999999971775,3.747138e-05,443.27999999971775,1.332896e-05,443.27999999971775,6.463831e-06
443.29499999971773,2.674813e-05,443.29499999971773,3.706695e-05,443.29499999971773,1.342269e-05,443.29499999971773,6.79323e-06
443.3099999997177,2.682701e-05,443.3099999997177,3.681795e-05,443.3099999997177,1.353348e-05,443.3099999997177,7.146909e-06
443.3249999997177,2.636997e-05,443.3249999997177,3.660422e-05,443.3249999997177,1.347193e-05,443.3249999997177,7.075597e-06
443.3399999997177,2.679496e-05,443.3399999997177,3.645885e-05,443.3399999997177,1.421476e-05,443.3399999997177,7.194059e-06
443.3549999997177,2.574503e-05,443.3549999997177,3.627758e-05,443.3549999997177,1.367534e-05,443.3549999997177,7.231167e-06
443.36999999971766,2.594452e-05,443.36999999971766,3.523475e-05,443.36999999971766,1.377182e-05,443.36999999971766,7.289374e-06
443.38499999971765,2.608044e-05,443.38499999971765,3.39902e-05,443.38499999971765,1.373495e-05,443.38499999971765,7.254505e-06
443.39999999971764,2.610312e-05,443.39999999971764,3.367208e-05,443.39999999971764,1.362787e-05,443.39999999971764,7.27196e-06
443.4149999997176,2.767935e-05,443.4149999997176,3.318834e-05,443.4149999997176,1.352827e-05,443.4149999997176,7.318304e-06
443.4299999997176,2.795836e-05,443.4299999997176,3.276974e-05,443.4299999997176,1.331416e-05,443.4299999997176,7.30096e-06
443.4449999997176,2.771953e-05,443.4449999997176,3.083405e-05,443.4449999997176,1.26779e-05,443.4449999997176,7.287441e-06
443.4599999997176,2.819717e-05,443.4599999997176,2.921059e-05,443.4599999997176,1.31652e-05,443.4599999997176,7.067629e-06
443.47499999971757,2.794476e-05,443.47499999971757,2.90675e-05,443.47499999971757,1.322392e-05,443.47499999971757,7.061647e-06
443.48999999971755,2.748579e-05,443.48999999971755,2.970742e-05,443.48999999971755,1.345309e-05,443.48999999971755,7.201887e-06
443.50499999971754,2.781845e-05,443.50499999971754,2.992239e-05,443.50499999971754,1.299288e-05,443.50499999971754,7.166593e-06
443.5199999997175,2.768241e-05,443.5199999997175,2.429643e-05,443.5199999997175,1.338907e-05,443.5199999997175,6.896133e-06
443.5349999997175,2.438555e-05,443.5349999997175,2.393544e-05,443.5349999997175,1.379635e-05,443.5349999997175,6.537507e-06
443.5499999997175,2.485416e-05,443.5499999997175,2.475136e-05,443.5499999997175,1.386459e-05,443.5499999997175,5.696992e-06
443.5649999997175,2.471833e-05,443.5649999997175,2.587003e-05,443.5649999997175,1.370209e-05,443.5649999997175,5.632336e-06
443.5799999997175,2.36322e-05,443.5799999997175,2.836156e-05,443.5799999997175,1.324202e-05,443.5799999997175,6.155743e-06
443.59499999971746,2.398542e-05,443.59499999971746,2.841961e-05,443.59499999971746,1.355324e-05,443.59499999971746,6.014533e-06
443.60999999971745,2.481502e-05,443.60999999971745,2.838787e-05,443.60999999971745,1.399907e-05,443.60999999971745,5.845879e-06
443.62499999971743,2.469952e-05,443.62499999971743,3.050472e-05,443.62499999971743,1.378511e-05,443.62499999971743,5.799914e-06
443.6399999997174,2.49283e-05,443.6399999997174,3.11739e-05,443.6399999997174,1.446136e-05,443.6399999997174,5.884307e-06
443.6549999997174,2.548325e-05,443.6549999997174,3.13357e-05,443.6549999997174,1.453229e-05,443.6549999997174,5.799914e-06
443.6699999997174,2.403704e-05,443.6699999997174,3.201171e-05,443.6699999997174,1.460095e-05,443.6699999997174,5.731505e-06
443.6849999997174,2.350848e-05,443.6849999997174,3.21382e-05,443.6849999997174,1.464431e-05,443.6849999997174,5.736418e-06
443.69999999971736,2.319844e-05,443.69999999971736,3.182813e-05,443.69999999971736,1.501195e-05,443.69999999971736,5.799914e-06
443.71499999971735,2.291434e-05,443.71499999971735,3.167685e-05,443.71499999971735,1.458841e-05,443.71499999971735,5.821732e-06
443.72999999971734,2.312302e-05,443.72999999971734,3.284531e-05,443.72999999971734,1.443894e-05,443.72999999971734,5.657291e-06
443.7449999997173,2.26845e-05,443.7449999997173,3.267805e-05,443.7449999997173,1.456908e-05,443.7449999997173,5.627332e-06
443.7599999997173,2.262481e-05,443.7599999997173,3.25004e-05,443.7599999997173,1.459999e-05,443.7599999997173,5.599728e-06
443.7749999997173,2.299657e-05,443.7749999997173,3.271984e-05,443.7749999997173,1.391834e-05,443.7749999997173,5.672212e-06
443.7899999997173,2.204136e-05,443.7899999997173,3.473709e-05,443.7899999997173,1.347297e-05,443.7899999997173,5.500745e-06
443.80499999971727,2.150305e-05,443.80499999971727,3.387936e-05,443.80499999971727,1.342269e-05,443.80499999971727,5.305204e-06
443.81999999971725,2.138217e-05,443.81999999971725,3.188119e-05,443.81999999971725,1.332579e-05,443.81999999971725,5.510979e-06
443.83499999971724,2.209944e-05,443.83499999971724,3.215222e-05,443.83499999971724,1.345414e-05,443.83499999971724,5.032679e-06
443.8499999997172,2.156324e-05,443.8499999997172,3.175147e-05,443.8499999997172,1.312877e-05,443.8499999997172,4.990517e-06
443.8649999997172,2.13881e-05,443.8649999997172,3.101489e-05,443.8649999997172,1.22484e-05,443.8649999997172,4.853136e-06
443.8799999997172,2.134525e-05,443.8799999997172,2.854918e-05,443.8799999997172,1.18628e-05,443.8799999997172,4.967884e-06
443.8949999997172,2.137229e-05,443.8949999997172,2.964476e-05,443.8949999997172,1.124465e-05,443.8949999997172,4.753424e-06
443.9099999997172,1.918407e-05,443.9099999997172,2.929823e-05,443.9099999997172,1.161682e-05,443.9099999997172,4.809401e-06
443.92499999971716,1.944662e-05,443.92499999971716,2.881097e-05,443.92499999971716,1.204662e-05,443.92499999971716,4.812329e-06
443.93999999971714,1.919582e-05,443.93999999971714,2.967278e-05,443.93999999971714,1.155603e-05,443.93999999971714,4.907976e-06
443.95499999971713,1.950087e-05,443.95499999971713,3.003704e-05,443.95499999971713,1.135311e-05,443.95499999971713,4.928026e-06
443.9699999997171,1.932965e-05,443.9699999997171,2.979076e-05,443.9699999997171,1.125717e-05,443.9699999997171,5.14616e-06
443.9849999997171,1.922515e-05,443.9849999997171,2.974912e-05,443.9849999997171,1.100789e-05,443.9849999997171,5.178904e-06
443.9999999997171,2.022496e-05,443.9999999997171,2.936978e-05,443.9999999997171,1.08701e-05,443.9999999997171,5.187057e-06
444.0149999997171,1.951459e-05,444.0149999997171,2.945073e-05,444.0149999997171,1.118813e-05,444.0149999997171,5.085583e-06
444.02999999971706,1.89417e-05,444.02999999971706,3.072283e-05,444.02999999971706,1.164588e-05,444.02999999971706,5.132455e-06
444.04499999971705,1.907066e-05,444.04499999971705,2.870615e-05,444.04499999971705,1.195506e-05,444.04499999971705,5.238403e-06
444.05999999971704,1.928222e-05,444.05999999971704,2.952286e-05,444.05999999971704,1.201266e-05,444.05999999971704,5.251831e-06
444.074999999717,1.896845e-05,444.074999999717,2.94947e-05,444.074999999717,1.281603e-05,444.074999999717,5.154366e-06
444.089999999717,1.906549e-05,444.089999999717,2.981581e-05,444.089999999717,1.286321e-05,444.089999999717,4.942298e-06
444.104999999717,2.072921e-05,444.104999999717,2.976237e-05,444.104999999717,1.315557e-05,444.104999999717,4.916579e-06
444.119999999717,2.106558e-05,444.119999999717,2.975527e-05,444.119999999717,1.354596e-05,444.119999999717,4.907976e-06
444.13499999971697,2.104484e-05,444.13499999971697,3.011245e-05,444.13499999971697,1.383408e-05,444.13499999971697,4.864733e-06
444.14999999971695,2.168636e-05,444.14999999971695,2.837248e-05,444.14999999971695,1.359268e-05,444.14999999971695,5.627332e-06
444.16499999971694,2.367626e-05,444.16499999971694,2.907283e-05,444.16499999971694,1.318872e-05,444.16499999971694,5.622323e-06
444.1799999997169,2.409908e-05,444.1799999997169,2.960101e-05,444.1799999997169,1.295813e-05,444.1799999997169,5.704405e-06
444.1949999997169,2.540907e-05,444.1949999997169,2.947559e-05,444.1949999997169,1.426126e-05,444.1949999997169,5.592176e-06
444.2099999997169,2.658437e-05,444.2099999997169,2.968702e-05,444.2099999997169,1.461253e-05,444.2099999997169,5.428567e-06
444.2249999997169,2.78068e-05,444.2249999997169,2.94579e-05,444.2249999997169,1.488947e-05,444.2249999997169,5.539025e-06
444.2399999997169,2.720919e-05,444.2399999997169,2.77916e-05,444.2399999997169,1.480217e-05,444.2399999997169,5.584614e-06
444.25499999971686,2.70133e-05,444.25499999971686,2.756154e-05,444.25499999971686,1.437244e-05,444.25499999971686,5.733962e-06
444.26999999971684,2.7362e-05,444.26999999971684,2.563152e-05,444.26999999971684,1.439008e-05,444.26999999971684,5.647323e-06
444.28499999971683,2.79261e-05,444.28499999971683,2.427845e-05,444.28499999971683,1.384629e-05,444.28499999971683,5.672212e-06
444.2999999997168,2.780984e-05,444.2999999997168,2.467156e-05,444.2999999997168,1.385544e-05,444.2999999997168,5.551726e-06
444.3149999997168,2.879581e-05,444.3149999997168,2.319723e-05,444.3149999997168,1.394665e-05,444.3149999997168,5.464775e-06
444.3299999997168,2.907331e-05,444.3299999997168,2.209434e-05,444.3299999997168,1.341639e-05,444.3299999997168,5.358047e-06
444.3449999997168,2.941387e-05,444.3449999997168,2.285587e-05,444.3449999997168,1.307932e-05,444.3449999997168,5.318464e-06
444.35999999971676,2.732027e-05,444.35999999971676,2.485529e-05,444.35999999971676,1.306208e-05,444.35999999971676,5.415577e-06
