X[s],a: EMG RMS 1-1,X[s].1,a: EMG RMS 1-2,X[s].2,a: EMG RMS 1-3,X[s].3,a: EMG RMS 1-4
404.00999999975346,9.932095e-05,404.00999999975346,0.004497043,404.00999999975346,0.0002190528,404.00999999975346,0.001592229
404.02499999975345,9.946353e-05,404.02499999975345,0.004264397,404.02499999975345,0.0002254178,404.02499999975345,0.001590082
404.03999999975343,9.48954e-05,404.03999999975343,0.00407737,404.03999999975343,0.0002260879,404.03999999975343,0.001590443
404.0549999997534,9.414383e-05,404.0549999997534,0.004000546,404.0549999997534,0.0002211523,404.0549999997534,0.001581745
404.0699999997534,9.264199e-05,404.0699999997534,0.003955294,404.0699999997534,0.0002208856,404.0699999997534,0.001527857
404.0849999997534,8.989091e-05,404.0849999997534,0.003951634,404.0849999997534,0.0002222877,404.0849999997534,0.001536718
404.0999999997534,8.513482e-05,404.0999999997534,0.004109266,404.0999999997534,0.0002225968,404.0999999997534,0.00150772
404.11499999975337,8.423005e-05,404.11499999975337,0.004042284,404.11499999975337,0.0002230262,404.11499999975337,0.001494698
404.12999999975335,8.343391e-05,404.12999999975335,0.004058511,404.12999999975335,0.000221268,404.12999999975335,0.001439266
404.14499999975334,8.16455e-05,404.14499999975334,0.003928013,404.14499999975334,0.0002093083,404.14499999975334,0.001373961
404.1599999997533,7.85599e-05,404.1599999997533,0.003741448,404.1599999997533,0.0001986349,404.1599999997533,0.001183054
404.1749999997533,7.786106e-05,404.1749999997533,0.003611799,404.1749999997533,0.0001972359,404.1749999997533,0.00115884
404.1899999997533,7.178377e-05,404.1899999997533,0.003477136,404.1899999997533,0.0001917923,404.1899999997533,0.001131107
404.2049999997533,7.054782e-05,404.2049999997533,0.003400144,404.2049999997533,0.0001817299,404.2049999997533,0.000979928
404.21999999975327,6.472912e-05,404.21999999975327,0.003250077,404.21999999975327,0.0001702485,404.21999999975327,0.0008825831
404.23499999975326,6.49698e-05,404.23499999975326,0.003188403,404.23499999975326,0.0001652875,404.23499999975326,0.0009010974
404.24999999975324,6.356923e-05,404.24999999975324,0.003181749,404.24999999975324,0.0001659588,404.24999999975324,0.0008922283
404.26499999975323,6.520851e-05,404.26499999975323,0.003119934,404.26499999975323,0.000161715,404.26499999975323,0.0009096628
404.2799999997532,6.516011e-05,404.2799999997532,0.003117304,404.2799999997532,0.0001505727,404.2799999997532,0.0009065368
404.2949999997532,6.37162e-05,404.2949999997532,0.003116949,404.2949999997532,0.0001499217,404.2949999997532,0.0008808384
404.3099999997532,6.261789e-05,404.3099999997532,0.003047218,404.3099999997532,0.0001497624,404.3099999997532,0.0008765872
404.3249999997532,6.281487e-05,404.3249999997532,0.002944864,404.3249999997532,0.0001398204,404.3249999997532,0.0008413183
404.33999999975316,6.281487e-05,404.33999999975316,0.002951622,404.33999999975316,0.0001296718,404.33999999975316,0.0008026983
404.35499999975315,6.288234e-05,404.35499999975315,0.002707813,404.35499999975315,0.0001220666,404.35499999975315,0.0007940509
404.36999999975313,5.76278e-05,404.36999999975313,0.002649852,404.36999999975313,0.0001173576,404.36999999975313,0.0007796678
404.3849999997531,5.785859e-05,404.3849999997531,0.002511283,404.3849999997531,0.0001233207,404.3849999997531,0.0007664599
404.3999999997531,5.759382e-05,404.3999999997531,0.002485828,404.3999999997531,0.0001231014,404.3999999997531,0.0007640708
404.4149999997531,5.865412e-05,404.4149999997531,0.00251692,404.4149999997531,0.00012146,404.4149999997531,0.0007344342
404.4299999997531,5.962571e-05,404.4299999997531,0.00276304,404.4299999997531,0.0001191157,404.4299999997531,0.000711048
404.44499999975307,5.907697e-05,404.44499999975307,0.002912242,404.44499999975307,0.0001176979,404.44499999975307,0.0006910497
404.45999999975305,5.776185e-05,404.45999999975305,0.003036317,404.45999999975305,0.0001079008,404.45999999975305,0.0006276286
404.47499999975304,5.694494e-05,404.47499999975304,0.00331758,404.47499999975304,0.0001123711,404.47499999975304,0.0006177643
404.489999999753,5.190234e-05,404.489999999753,0.003403151,404.489999999753,0.0001067873,404.489999999753,0.0004757162
404.504999999753,5.437357e-05,404.504999999753,0.003440706,404.504999999753,0.0001119791,404.504999999753,0.0003963533
404.519999999753,5.08381e-05,404.519999999753,0.00356318,404.519999999753,0.0001140217,404.519999999753,0.0003352166
404.534999999753,5.042187e-05,404.534999999753,0.003688695,404.534999999753,0.0001180937,404.534999999753,0.0002933988
404.54999999975297,5.11001e-05,404.54999999975297,0.003840949,404.54999999975297,0.0001262101,404.54999999975297,0.0002965138
404.56499999975296,5.043081e-05,404.56499999975296,0.003867823,404.56499999975296,0.0001273614,404.56499999975296,0.0002738058
404.57999999975294,5.009309e-05,404.57999999975294,0.003871368,404.57999999975294,0.0001286873,404.57999999975294,0.0002809208
404.59499999975293,4.843142e-05,404.59499999975293,0.003821016,404.59499999975293,0.0001274185,404.59499999975293,0.0002865232
404.6099999997529,4.659442e-05,404.6099999997529,0.003950174,404.6099999997529,0.0001263576,404.6099999997529,0.0002964444
404.6249999997529,4.626706e-05,404.6249999997529,0.004022195,404.6249999997529,0.0001272894,404.6249999997529,0.000348537
404.6399999997529,4.811802e-05,404.6399999997529,0.004022046,404.6399999997529,0.0001220658,404.6399999997529,0.0003621733
404.6549999997529,4.944321e-05,404.6549999997529,0.004028663,404.6549999997529,0.0001231548,404.6549999997529,0.0003798967
404.66999999975286,4.861112e-05,404.66999999975286,0.003937006,404.66999999975286,0.0001236463,404.66999999975286,0.0004066033
404.68499999975285,4.901198e-05,404.68499999975285,0.003712408,404.68499999975285,0.0001248961,404.68499999975285,0.0003914504
404.69999999975283,4.97001e-05,404.69999999975283,0.003439522,404.69999999975283,0.0001280646,404.69999999975283,0.0003918498
404.7149999997528,5.105929e-05,404.7149999997528,0.003252183,404.7149999997528,0.0001285076,404.7149999997528,0.0004006716
404.7299999997528,5.21209e-05,404.7299999997528,0.003012732,404.7299999997528,0.0001261037,404.7299999997528,0.0004020811
404.7449999997528,5.202487e-05,404.7449999997528,0.002723925,404.7449999997528,0.000125563,404.7449999997528,0.000401532
404.7599999997528,5.042382e-05,404.7599999997528,0.002370881,404.7599999997528,0.0001186698,404.7599999997528,0.0003845849
404.77499999975277,4.886662e-05,404.77499999975277,0.002256377,404.77499999975277,0.000116465,404.77499999975277,0.0003800976
404.78999999975275,4.962919e-05,404.78999999975275,0.002018102,404.78999999975275,0.0001154202,404.78999999975275,0.0003681452
404.80499999975274,4.903123e-05,404.80499999975274,0.001830179,404.80499999975274,0.000105672,404.80499999975274,0.000362769
404.8199999997527,5.032931e-05,404.8199999997527,0.002132947,404.8199999997527,0.0001663792,404.8199999997527,0.0003649301
404.8349999997527,4.869219e-05,404.8349999997527,0.002194763,404.8349999997527,0.0001838214,404.8349999997527,0.0003834528
404.8499999997527,4.898237e-05,404.8499999997527,0.002327908,404.8499999997527,0.0002185412,404.8499999997527,0.0003916347
404.8649999997527,4.838223e-05,404.8649999997527,0.002139177,404.8649999997527,0.0002310784,404.8649999997527,0.0003903922
404.87999999975267,4.859402e-05,404.87999999975267,0.001953358,404.87999999975267,0.0002305629,404.87999999975267,0.0003729458
404.89499999975266,4.706488e-05,404.89499999975266,0.001992017,404.89499999975266,0.0002317204,404.89499999975266,0.0003701361
404.90999999975264,4.726677e-05,404.90999999975264,0.001997204,404.90999999975264,0.0002318083,404.90999999975264,0.0003425978
404.92499999975263,4.646818e-05,404.92499999975263,0.001989246,404.92499999975263,0.0002324512,404.92499999975263,0.0003402563
404.9399999997526,4.420558e-05,404.9399999997526,0.00193397,404.9399999997526,0.0002322078,404.9399999997526,0.0003522095
404.9549999997526,4.507807e-05,404.9549999997526,0.001902216,404.9549999997526,0.0002305498,404.9549999997526,0.0003526204
404.9699999997526,4.27093e-05,404.9699999997526,0.001892207,404.9699999997526,0.0002301069,404.9699999997526,0.0003707089
404.9849999997526,4.321491e-05,404.9849999997526,0.001885554,404.9849999997526,0.0002289753,404.9849999997526,0.000379561
404.99999999975256,4.28236e-05,404.99999999975256,0.001872269,404.99999999975256,0.0002283122,404.99999999975256,0.0003787544
405.01499999975255,4.3049e-05,405.01499999975255,0.001870778,405.01499999975255,0.0002278623,405.01499999975255,0.0003777897
405.02999999975253,4.331746e-05,405.02999999975253,0.001862602,405.02999999975253,0.0002290209,405.02999999975253,0.0003796399
405.0449999997525,4.240644e-05,405.0449999997525,0.001796652,405.0449999997525,0.0002287772,405.0449999997525,0.0003794678
405.0599999997525,4.298579e-05,405.0599999997525,0.001616295,405.0599999997525,0.0002261068,405.0599999997525,0.0003810419
405.0749999997525,4.24257e-05,405.0749999997525,0.001205693,405.0749999997525,0.0001760488,405.0749999997525,0.0003943403
405.0899999997525,4.225936e-05,405.0899999997525,0.000942776,405.0899999997525,0.0001552879,405.0899999997525,0.0003549517
405.10499999975247,4.170404e-05,405.10499999975247,0.0005762621,405.10499999975247,0.0001048901,405.10499999975247,0.0003527679
405.11999999975245,4.118912e-05,405.11999999975245,0.0005459262,405.11999999975245,8.871257e-05,405.11999999975245,0.0003285386
405.13499999975244,4.106273e-05,405.13499999975244,0.0005019172,405.13499999975244,8.621506e-05,405.13499999975244,0.0003003722
405.1499999997524,4.258379e-05,405.1499999997524,0.0004551341,405.1499999997524,8.449088e-05,405.1499999997524,0.0002973876
405.1649999997524,4.004181e-05,405.1649999997524,0.0004211902,405.1649999997524,8.301787e-05,405.1649999997524,0.0002889592
405.1799999997524,4.016545e-05,405.1799999997524,0.0007213463,405.1799999997524,7.661412e-05,405.1799999997524,0.0002687808
405.1949999997524,4.012299e-05,405.1949999997524,0.001186748,405.1949999997524,7.739051e-05,405.1949999997524,0.0002581958
405.20999999975237,4.002914e-05,405.20999999975237,0.00118055,405.20999999975237,7.695315e-05,405.20999999975237,0.0002430791
405.22499999975236,4.098857e-05,405.22499999975236,0.001359142,405.22499999975236,0.0001960193,405.22499999975236,0.0002039511
405.23999999975234,3.946599e-05,405.23999999975234,0.001413979,405.23999999975234,0.0002220391,405.23999999975234,0.0002093908
405.25499999975233,3.830017e-05,405.25499999975233,0.001517873,405.25499999975233,0.0002530038,405.25499999975233,0.0002112285
405.2699999997523,4.052265e-05,405.2699999997523,0.001909454,405.2699999997523,0.0002789167,405.2699999997523,0.000209519
405.2849999997523,3.926955e-05,405.2849999997523,0.00193554,405.2849999997523,0.0002844186,405.2849999997523,0.0002048914
405.2999999997523,3.946242e-05,405.2999999997523,0.001946603,405.2999999997523,0.0002881835,405.2999999997523,0.0002080025
405.3149999997523,3.81952e-05,405.3149999997523,0.001992884,405.3149999997523,0.0002981355,405.3149999997523,0.0001899436
405.32999999975226,3.859474e-05,405.32999999975226,0.00218805,405.32999999975226,0.0003025543,405.32999999975226,0.0001679011
405.34499999975225,4.01949e-05,405.34499999975225,0.002527419,405.34499999975225,0.0003030244,405.34499999975225,0.0001700966
405.35999999975223,3.987506e-05,405.35999999975223,0.002866508,405.35999999975223,0.0003036065,405.35999999975223,0.0001610679
405.3749999997522,4.058274e-05,405.3749999997522,0.002926532,405.3749999997522,0.0003049081,405.3749999997522,0.000170532
405.3899999997522,4.148084e-05,405.3899999997522,0.002930279,405.3899999997522,0.0003519574,405.3899999997522,0.000203397
405.4049999997522,4.126088e-05,405.4049999997522,0.003004875,405.4049999997522,0.000366662,405.4049999997522,0.0002157032
405.4199999997522,4.310459e-05,405.4199999997522,0.003029126,405.4199999997522,0.000450913,405.4199999997522,0.0002497419
405.43499999975216,4.421545e-05,405.43499999975216,0.002916392,405.43499999975216,0.0004656354,405.43499999975216,0.0002735662
405.44999999975215,4.379643e-05,405.44999999975215,0.002801219,405.44999999975215,0.0004672629,405.44999999975215,0.0002789676
405.46499999975214,4.183556e-05,405.46499999975214,0.002797148,405.46499999975214,0.0004638637,405.46499999975214,0.0002868079
405.4799999997521,4.17216e-05,405.4799999997521,0.002757291,405.4799999997521,0.0004402596,405.4799999997521,0.0002897629
405.4949999997521,4.195493e-05,405.4949999997521,0.002759615,405.4949999997521,0.0004294347,405.4949999997521,0.0002874398
405.5099999997521,4.323707e-05,405.5099999997521,0.002669372,405.5099999997521,0.0004142517,405.5099999997521,0.0004284762
405.5249999997521,4.62107e-05,405.5249999997521,0.002552546,405.5249999997521,0.0004044827,405.5249999997521,0.0005224497
405.53999999975207,5.42405e-05,405.53999999975207,0.002829304,405.53999999975207,0.0004275395,405.53999999975207,0.0009421697
405.55499999975206,5.563361e-05,405.55499999975206,0.002898478,405.55499999975206,0.0004679889,405.55499999975206,0.001003399
405.56999999975204,6.075331e-05,405.56999999975204,0.0030355,405.56999999975204,0.0005671291,405.56999999975204,0.001211243
405.58499999975203,6.118099e-05,405.58499999975203,0.002848178,405.58499999975203,0.000566923,405.58499999975203,0.001477493
405.599999999752,6.101453e-05,405.599999999752,0.002631112,405.599999999752,0.0007170828,405.599999999752,0.001553045
405.614999999752,6.615432e-05,405.614999999752,0.00241794,405.614999999752,0.0008357393,405.614999999752,0.001660639
405.629999999752,6.876208e-05,405.629999999752,0.002644639,405.629999999752,0.001091735,405.629999999752,0.001801927
405.644999999752,6.994623e-05,405.644999999752,0.002743042,405.644999999752,0.001101257,405.644999999752,0.001864846
405.65999999975196,7.907873e-05,405.65999999975196,0.002973797,405.65999999975196,0.001102549,405.65999999975196,0.002093032
405.67499999975195,8.733759e-05,405.67499999975195,0.003163018,405.67499999975195,0.001097622,405.67499999975195,0.002149707
405.68999999975193,8.822901e-05,405.68999999975193,0.003223188,405.68999999975193,0.001118538,405.68999999975193,0.002152617
405.7049999997519,8.963794e-05,405.7049999997519,0.003237788,405.7049999997519,0.001121347,405.7049999997519,0.002158558
405.7199999997519,8.975463e-05,405.7199999997519,0.003266809,405.7199999997519,0.00113547,405.7199999997519,0.002159498
405.7349999997519,9.038319e-05,405.7349999997519,0.003293052,405.7349999997519,0.001138108,405.7349999997519,0.002180535
405.7499999997519,9.003137e-05,405.7499999997519,0.003319089,405.7499999997519,0.00114225,405.7499999997519,0.002180943
405.76499999975186,9.060564e-05,405.76499999975186,0.003496929,405.76499999975186,0.001148617,405.76499999975186,0.002156381
405.77999999975185,8.713203e-05,405.77999999975185,0.003496883,405.77999999975185,0.001147899,405.77999999975185,0.002099359
405.79499999975184,8.645116e-05,405.79499999975184,0.003278379,405.79499999975184,0.001139378,405.79499999975184,0.00197105
405.8099999997518,8.435138e-05,405.8099999997518,0.0032756,405.8099999997518,0.00109157,405.8099999997518,0.001958692
405.8249999997518,8.233292e-05,405.8249999997518,0.003386937,405.8249999997518,0.001077681,405.8249999997518,0.00178098
405.8399999997518,8.270336e-05,405.8399999997518,0.003409986,405.8399999997518,0.001081948,405.8399999997518,0.00166015
405.8549999997518,8.429826e-05,405.8549999997518,0.003332217,405.8549999997518,0.0009236335,405.8549999997518,0.001541662
405.86999999975177,7.911987e-05,405.86999999975177,0.003228845,405.86999999975177,0.0008561186,405.86999999975177,0.001470721
405.88499999975176,7.662865e-05,405.88499999975176,0.00311137,405.88499999975176,0.0005225832,405.88499999975176,0.00122719
405.89999999975174,7.270915e-05,405.89999999975174,0.002973382,405.89999999975174,0.0005107059,405.89999999975174,0.001129028
405.9149999997517,6.214118e-05,405.9149999997517,0.002662145,405.9149999997517,0.000473369,405.9149999997517,0.0005950643
405.9299999997517,5.050505e-05,405.9299999997517,0.002456612,405.9299999997517,0.0004319362,405.9299999997517,0.0005400165
405.9449999997517,5.014199e-05,405.9449999997517,0.002464117,405.9449999997517,0.0003726272,405.9449999997517,0.0005333298
405.9599999997517,4.804301e-05,405.9599999997517,0.002453065,405.9599999997517,0.0003572743,405.9599999997517,0.0005332825
405.9749999997517,4.855777e-05,405.9749999997517,0.002394076,405.9749999997517,0.0003124829,405.9749999997517,0.0005089793
405.98999999975166,4.646363e-05,405.98999999975166,0.002346535,405.98999999975166,0.0003026371,405.98999999975166,0.0004254353
406.00499999975165,4.437414e-05,406.00499999975165,0.002239625,406.00499999975165,0.0002851235,406.00499999975165,0.0004145576
406.01999999975163,4.145468e-05,406.01999999975163,0.001936221,406.01999999975163,0.0002613578,406.01999999975163,0.0004239819
406.0349999997516,3.822064e-05,406.0349999997516,0.001733439,406.0349999997516,0.0002510521,406.0349999997516,0.000384637
406.0499999997516,3.628845e-05,406.0499999997516,0.001658741,406.0499999997516,0.0002445378,406.0499999997516,0.0003107995
406.0649999997516,3.570142e-05,406.0649999997516,0.001448679,406.0649999997516,0.0002339056,406.0649999997516,0.0002996554
406.0799999997516,3.476506e-05,406.0799999997516,0.001074125,406.0799999997516,0.000230696,406.0799999997516,0.0002859493
406.09499999975156,2.735273e-05,406.09499999975156,0.001032634,406.09499999975156,0.0001841069,406.09499999975156,0.0002562322
406.10999999975155,2.587547e-05,406.10999999975155,0.0009978624,406.10999999975155,0.0001631539,406.10999999975155,0.0002610483
406.12499999975154,2.49729e-05,406.12499999975154,0.0009663375,406.12499999975154,0.0001579227,406.12499999975154,0.0002613839
406.1399999997515,2.377245e-05,406.1399999997515,0.000891722,406.1399999997515,0.0001392352,406.1399999997515,0.0002704512
406.1549999997515,2.418544e-05,406.1549999997515,0.0008469921,406.1549999997515,0.0001344763,406.1549999997515,0.0002737659
406.1699999997515,2.357251e-05,406.1699999997515,0.0007731604,406.1699999997515,0.0001287432,406.1699999997515,0.0002648943
406.1849999997515,2.144336e-05,406.1849999997515,0.0007674128,406.1849999997515,0.000127036,406.1849999997515,0.0002587014
406.19999999975147,2.078893e-05,406.19999999975147,0.0006786435,406.19999999975147,0.0001223379,406.19999999975147,0.0002591461
406.21499999975146,2.069316e-05,406.21499999975146,0.0006257915,406.21499999975146,0.0001090042,406.21499999975146,0.0002410133
406.22999999975144,1.864789e-05,406.22999999975144,0.0005794906,406.22999999975144,0.0001101925,406.22999999975144,0.0002257849
406.2449999997514,1.93515e-05,406.2449999997514,0.0006139894,406.2449999997514,0.0001042757,406.2449999997514,0.0002302037
406.2599999997514,1.865016e-05,406.2599999997514,0.0006149339,406.2599999997514,0.0001104479,406.2599999997514,0.0002304761
406.2749999997514,2.227657e-05,406.2749999997514,0.0007132795,406.2749999997514,0.0001209363,406.2749999997514,0.0002195348
406.2899999997514,2.376831e-05,406.2899999997514,0.0008053689,406.2899999997514,0.0001212707,406.2899999997514,0.0002212909
406.3049999997514,2.423432e-05,406.3049999997514,0.000868462,406.3049999997514,0.0001277012,406.3049999997514,0.0002099128
406.31999999975136,2.526061e-05,406.31999999975136,0.0009558834,406.31999999975136,0.0001393749,406.31999999975136,0.000196821
406.33499999975135,2.64521e-05,406.33499999975135,0.001075653,406.33499999975135,0.0001410226,406.33499999975135,0.0002073404
406.34999999975133,2.664048e-05,406.34999999975133,0.001110146,406.34999999975133,0.0001414526,406.34999999975133,0.0001993884
406.3649999997513,2.887056e-05,406.3649999997513,0.001182664,406.3649999997513,0.0001335495,406.3649999997513,0.0002022476
406.3799999997513,2.909704e-05,406.3799999997513,0.001276224,406.3799999997513,0.0001341986,406.3799999997513,0.0002051509
406.3949999997513,3.133525e-05,406.3949999997513,0.001324246,406.3949999997513,0.0001348616,406.3949999997513,0.0001927591
406.4099999997513,3.11065e-05,406.4099999997513,0.001353607,406.4099999997513,0.0001345642,406.4099999997513,0.0001905028
406.42499999975126,3.166795e-05,406.42499999975126,0.001355553,406.42499999975126,0.0001333823,406.42499999975126,0.0001903094
406.43999999975125,3.319046e-05,406.43999999975125,0.001415147,406.43999999975125,0.0001390882,406.43999999975125,0.0001922434
406.45499999975124,3.454964e-05,406.45499999975124,0.001657151,406.45499999975124,0.0001408268,406.45499999975124,0.0001850102
406.4699999997512,3.840484e-05,406.4699999997512,0.001744835,406.4699999997512,0.0001453922,406.4699999997512,0.0001871218
406.4849999997512,3.895766e-05,406.4849999997512,0.0018009,406.4849999997512,0.0001473408,406.4849999997512,0.0001934561
406.4999999997512,3.90977e-05,406.4999999997512,0.001797006,406.4999999997512,0.0001464334,406.4999999997512,0.0001939972
406.5149999997512,3.963766e-05,406.5149999997512,0.00180738,406.5149999997512,0.0001415219,406.5149999997512,0.0002001705
406.52999999975117,3.736672e-05,406.52999999975117,0.001749841,406.52999999975117,0.00013344,406.52999999975117,0.0001915425
406.54499999975116,3.680609e-05,406.54499999975116,0.001721587,406.54499999975116,0.000137524,406.54499999975116,0.0001860305
406.55999999975114,3.621073e-05,406.55999999975114,0.001710639,406.55999999975114,0.0001308974,406.55999999975114,0.0001912191
406.5749999997511,3.489973e-05,406.5749999997511,0.001639546,406.5749999997511,0.0001147523,406.5749999997511,0.0001846316
406.5899999997511,3.518914e-05,406.5899999997511,0.001592873,406.5899999997511,0.0001195741,406.5899999997511,0.0001713144
406.6049999997511,3.60415e-05,406.6049999997511,0.001644374,406.6049999997511,0.0001219826,406.6049999997511,0.0001845441
406.6199999997511,3.482781e-05,406.6199999997511,0.001586609,406.6199999997511,0.0001223425,406.6199999997511,0.0001814098
406.6349999997511,3.426674e-05,406.6349999997511,0.001579751,406.6349999997511,0.0001215763,406.6349999997511,0.0002206017
406.64999999975106,3.314629e-05,406.64999999975106,0.001517015,406.64999999975106,0.0001221741,406.64999999975106,0.000227927
406.66499999975105,3.399558e-05,406.66499999975105,0.00149738,406.66499999975105,0.0001253394,406.66499999975105,0.0002523977
406.67999999975103,3.297543e-05,406.67999999975103,0.001527514,406.67999999975103,0.0001282571,406.67999999975103,0.0002720683
406.694999999751,3.091981e-05,406.694999999751,0.001613221,406.694999999751,0.0001220277,406.694999999751,0.0002752033
406.709999999751,3.081348e-05,406.709999999751,0.001386574,406.709999999751,0.0001253136,406.709999999751,0.0003051365
406.724999999751,2.682912e-05,406.724999999751,0.001467336,406.724999999751,0.0001215669,406.724999999751,0.0003014551
406.739999999751,2.718381e-05,406.739999999751,0.001514126,406.739999999751,0.0001179572,406.739999999751,0.0003111881
406.75499999975096,2.639186e-05,406.75499999975096,0.001599437,406.75499999975096,0.0001181133,406.75499999975096,0.0003145194
406.76999999975095,2.686532e-05,406.76999999975095,0.001589326,406.76999999975095,0.0001208495,406.76999999975095,0.0003112236
406.78499999975094,3.258221e-05,406.78499999975094,0.001565683,406.78499999975094,0.0001173523,406.78499999975094,0.0003112771
406.7999999997509,3.397569e-05,406.7999999997509,0.0015748,406.7999999997509,0.0001170693,406.7999999997509,0.0003076413
406.8149999997509,3.471437e-05,406.8149999997509,0.001584382,406.8149999997509,0.0001178501,406.8149999997509,0.0003104709
406.8299999997509,3.711556e-05,406.8299999997509,0.001569679,406.8299999997509,0.0001215166,406.8299999997509,0.0003163139
406.8449999997509,3.799404e-05,406.8449999997509,0.001567671,406.8449999997509,0.0001165441,406.8449999997509,0.0003115671
406.85999999975087,3.837512e-05,406.85999999975087,0.001675778,406.85999999975087,0.0001317237,406.85999999975087,0.0002987326
406.87499999975086,3.920708e-05,406.87499999975086,0.001717986,406.87499999975086,0.0001447764,406.87499999975086,0.0002928413
406.88999999975084,3.928569e-05,406.88999999975084,0.001717108,406.88999999975084,0.0001475601,406.88999999975084,0.0002728727
406.9049999997508,3.931902e-05,406.9049999997508,0.002026086,406.9049999997508,0.0001587563,406.9049999997508,0.0002772885
406.9199999997508,3.946956e-05,406.9199999997508,0.002347221,406.9199999997508,0.000166108,406.9199999997508,0.0002718027
406.9349999997508,3.963553e-05,406.9349999997508,0.002701876,406.9349999997508,0.0001653054,406.9349999997508,0.0002860533
406.9499999997508,3.987047e-05,406.9499999997508,0.002893918,406.9499999997508,0.0001673367,406.9499999997508,0.0002846144
406.9649999997508,3.933442e-05,406.9649999997508,0.003102858,406.9649999997508,0.000167756,406.9649999997508,0.0002914371
406.97999999975076,3.815535e-05,406.97999999975076,0.003275824,406.97999999975076,0.0001823357,406.97999999975076,0.0002951327
406.99499999975075,3.788414e-05,406.99499999975075,0.003479935,406.99499999975075,0.0001917006,406.99499999975075,0.0002901103
407.00999999975073,3.818487e-05,407.00999999975073,0.00370066,407.00999999975073,0.0002024683,407.00999999975073,0.0002863415
407.0249999997507,3.819705e-05,407.0249999997507,0.00382405,407.0249999997507,0.000206323,407.0249999997507,0.000290208
407.0399999997507,3.319258e-05,407.0399999997507,0.003986165,407.0399999997507,0.0002037773,407.0399999997507,0.0003029342
407.0549999997507,3.464654e-05,407.0549999997507,0.003995325,407.0549999997507,0.0002067969,407.0549999997507,0.0003143236
407.0699999997507,3.394126e-05,407.0699999997507,0.004021608,407.0699999997507,0.0002066211,407.0699999997507,0.0003929707
407.08499999975066,3.119604e-05,407.08499999975066,0.00404105,407.08499999975066,0.0002071821,407.08499999975066,0.0005215175
407.09999999975065,3.082582e-05,407.09999999975065,0.004078727,407.09999999975065,0.0002076976,407.09999999975065,0.0005531072
407.11499999975064,2.964428e-05,407.11499999975064,0.004057063,407.11499999975064,0.0001935697,407.11499999975064,0.0006567091
407.1299999997506,3.026178e-05,407.1299999997506,0.004090774,407.1299999997506,0.0001876027,407.1299999997506,0.0008038139
407.1449999997506,3.538037e-05,407.1449999997506,0.004079198,407.1449999997506,0.0002103868,407.1449999997506,0.0008174454
407.1599999997506,3.66765e-05,407.1599999997506,0.003822375,407.1599999997506,0.0005559157,407.1599999997506,0.0008744483
407.1749999997506,3.871828e-05,407.1749999997506,0.003647882,407.1749999997506,0.0006657814,407.1749999997506,0.0008743762
407.18999999975057,4.044784e-05,407.18999999975057,0.003443797,407.18999999975057,0.001063617,407.18999999975057,0.000898011
407.20499999975056,4.463307e-05,407.20499999975056,0.003209912,407.20499999975056,0.00107574,407.20499999975056,0.0009289209
407.21999999975054,4.479059e-05,407.21999999975054,0.003033884,407.21999999975054,0.001108734,407.21999999975054,0.0009858193
407.2349999997505,4.630175e-05,407.2349999997505,0.002775959,407.2349999997505,0.00111385,407.2349999997505,0.00117872
407.2499999997505,4.764997e-05,407.2499999997505,0.002397122,407.2499999997505,0.001114981,407.2499999997505,0.001323415
407.2649999997505,4.66639e-05,407.2649999997505,0.001878943,407.2649999997505,0.0011141,407.2649999997505,0.001349932
407.2799999997505,4.695131e-05,407.2799999997505,0.001748062,407.2799999997505,0.001113743,407.2799999997505,0.001451464
407.2949999997505,4.756327e-05,407.2949999997505,0.001497112,407.2949999997505,0.001113571,407.2949999997505,0.001493701
407.30999999975046,4.859025e-05,407.30999999975046,0.001424476,407.30999999975046,0.001112615,407.30999999975046,0.001493205
407.32499999975045,4.974288e-05,407.32499999975045,0.00132298,407.32499999975045,0.001112394,407.32499999975045,0.001467517
407.33999999975043,5.063486e-05,407.33999999975043,0.001120465,407.33999999975043,0.001112158,407.33999999975043,0.001445491
407.3549999997504,5.116181e-05,407.3549999997504,0.0009902758,407.3549999997504,0.001112296,407.3549999997504,0.001431956
407.3699999997504,5.11103e-05,407.3699999997504,0.0007163979,407.3699999997504,0.001112242,407.3699999997504,0.001380877
407.3849999997504,5.003878e-05,407.3849999997504,0.0006907968,407.3849999997504,0.001111901,407.3849999997504,0.00133926
407.3999999997504,4.556141e-05,407.3999999997504,0.0006762786,407.3999999997504,0.00105971,407.3999999997504,0.001315197
407.41499999975036,4.618752e-05,407.41499999975036,0.000589899,407.41499999975036,0.0009476928,407.41499999975036,0.001263785
407.42999999975035,4.532831e-05,407.42999999975035,0.0005582617,407.42999999975035,0.0007168825,407.42999999975035,0.001255633
407.44499999975034,4.279398e-05,407.44499999975034,0.0005487699,407.44499999975034,0.0002908386,407.44499999975034,0.001227416
407.4599999997503,4.276073e-05,407.4599999997503,0.0005115997,407.4599999997503,0.0002581564,407.4599999997503,0.00119799
407.4749999997503,4.312713e-05,407.4749999997503,0.0004352791,407.4749999997503,0.0001616549,407.4749999997503,0.001135177
407.4899999997503,4.216358e-05,407.4899999997503,0.0003884168,407.4899999997503,0.00020359,407.4899999997503,0.0009348955
407.5049999997503,4.251261e-05,407.5049999997503,0.0003198292,407.5049999997503,0.0002597286,407.5049999997503,0.0007349852
407.51999999975027,4.405971e-05,407.51999999975027,0.0003135733,407.51999999975027,0.0002760457,407.51999999975027,0.0007022718
407.53499999975026,4.509463e-05,407.53499999975026,0.0003074763,407.53499999975026,0.0002948402,407.53499999975026,0.0004477488
407.54999999975024,4.351732e-05,407.54999999975024,0.000303005,407.54999999975024,0.00031079,407.54999999975024,0.0003839093
407.5649999997502,4.302805e-05,407.5649999997502,0.0002925281,407.5649999997502,0.0003139226,407.5649999997502,0.0003739322
407.5799999997502,4.161511e-05,407.5799999997502,0.000276039,407.5799999997502,0.00031419,407.5799999997502,0.000304058
407.5949999997502,4.293267e-05,407.5949999997502,0.0002718785,407.5949999997502,0.0003134824,407.5949999997502,0.0002777028
407.6099999997502,4.262644e-05,407.6099999997502,0.0002603397,407.6099999997502,0.0003128996,407.6099999997502,0.0002388953
407.6249999997502,4.275216e-05,407.6249999997502,0.0002493445,407.6249999997502,0.0003136694,407.6249999997502,0.0001781622
407.63999999975016,4.292283e-05,407.63999999975016,0.0001828611,407.63999999975016,0.0003138916,407.63999999975016,0.0001339991
407.65499999975015,4.276764e-05,407.65499999975015,0.000116168,407.65499999975015,0.0003138039,407.65499999975015,0.000114939
407.66999999975013,4.145842e-05,407.66999999975013,0.0001114462,407.66999999975013,0.000314185,407.66999999975013,0.0001136086
407.6849999997501,4.121613e-05,407.6849999997501,0.0001125058,407.6849999997501,0.0003174382,407.6849999997501,0.0001199409
407.6999999997501,4.186047e-05,407.6999999997501,9.302801e-05,407.6999999997501,0.0003178491,407.6999999997501,0.0001140974
407.7149999997501,4.065834e-05,407.7149999997501,9.842007e-05,407.7149999997501,0.0003174105,407.7149999997501,0.0001212186
407.7299999997501,4.048404e-05,407.7299999997501,9.842408e-05,407.7299999997501,0.0002796398,407.7299999997501,0.0001352821
407.74499999975006,4.093354e-05,407.74499999975006,9.652061e-05,407.74499999975006,0.0002602683,407.74499999975006,0.0001625381
407.75999999975005,3.925879e-05,407.75999999975005,9.171237e-05,407.75999999975005,0.0001885139,407.75999999975005,0.0001882778
407.77499999975004,3.815092e-05,407.77499999975004,9.170362e-05,407.77499999975004,0.0001785983,407.77499999975004,0.0002086839
407.78999999975,3.777466e-05,407.78999999975,9.465685e-05,407.78999999975,0.0001258616,407.78999999975,0.0002325636
407.80499999975,3.696382e-05,407.80499999975,0.0001012654,407.80499999975,0.0001114237,407.80499999975,0.0002380866
407.81999999975,3.71296e-05,407.81999999975,0.0001085594,407.81999999975,0.000108816,407.81999999975,0.0002416213
407.83499999975,3.531183e-05,407.83499999975,0.0001075897,407.83499999975,0.0001074841,407.83499999975,0.0002564848
407.84999999974997,3.563151e-05,407.84999999974997,0.0001099345,407.84999999974997,0.0001080014,407.84999999974997,0.0002706816
407.86499999974995,3.696382e-05,407.86499999974995,0.0001095481,407.86499999974995,0.0001137249,407.86499999974995,0.0002744164
407.87999999974994,3.661769e-05,407.87999999974994,0.0001107086,407.87999999974994,0.0001154637,407.87999999974994,0.0002737166
407.8949999997499,3.654298e-05,407.8949999997499,0.0001107041,407.8949999997499,0.0001176566,407.8949999997499,0.000274099
407.9099999997499,3.54313e-05,407.9099999997499,0.0001121513,407.9099999997499,0.0001224626,407.9099999997499,0.0002733399
407.9249999997499,3.449128e-05,407.9249999997499,0.0001082483,407.9249999997499,0.0001165037,407.9249999997499,0.0002731755
407.9399999997499,3.396532e-05,407.9399999997499,0.0001074693,407.9399999997499,0.0001082257,407.9399999997499,0.000286559
407.9549999997499,3.214653e-05,407.9549999997499,0.0001057896,407.9549999997499,0.0001075433,407.9549999997499,0.0002958619
407.96999999974986,3.16319e-05,407.96999999974986,0.0001028371,407.96999999974986,0.0001059263,407.96999999974986,0.000306222
407.98499999974985,3.013677e-05,407.98499999974985,0.0001026646,407.98499999974985,9.583854e-05,407.98499999974985,0.000308009
407.99999999974983,3.014238e-05,407.99999999974983,0.0001040729,407.99999999974983,8.81747e-05,407.99999999974983,0.0002848381
408.0149999997498,3.068154e-05,408.0149999997498,0.0001035117,408.0149999997498,8.751145e-05,408.0149999997498,0.0002814766
408.0299999997498,2.995674e-05,408.0299999997498,0.0001020008,408.0299999997498,8.409029e-05,408.0299999997498,0.0002637354
408.0449999997498,3.028737e-05,408.0449999997498,9.881076e-05,408.0449999997498,8.259086e-05,408.0449999997498,0.0002499209
408.0599999997498,2.992051e-05,408.0599999997498,8.795445e-05,408.0599999997498,8.297696e-05,408.0599999997498,0.0002463778
408.07499999974976,3.010824e-05,408.07499999974976,8.235943e-05,408.07499999974976,8.338544e-05,408.07499999974976,0.0002571098
408.08999999974975,2.998494e-05,408.08999999974975,7.800892e-05,408.08999999974975,8.544054e-05,408.08999999974975,0.0002633844
408.10499999974974,2.75641e-05,408.10499999974974,7.443711e-05,408.10499999974974,9.006453e-05,408.10499999974974,0.0002594687
408.1199999997497,2.722833e-05,408.1199999997497,7.574465e-05,408.1199999997497,8.081274e-05,408.1199999997497,0.0002641908
408.1349999997497,2.875322e-05,408.1349999997497,8.207141e-05,408.1349999997497,0.0001076615,408.1349999997497,0.0002719715
408.1499999997497,2.925829e-05,408.1499999997497,8.208446e-05,408.1499999997497,0.0001118259,408.1499999997497,0.0002756459
408.1649999997497,3.067419e-05,408.1649999997497,8.187086e-05,408.1649999997497,0.0001096843,408.1649999997497,0.0002783347
408.17999999974967,3.072604e-05,408.17999999974967,8.321819e-05,408.17999999974967,0.000115318,408.17999999974967,0.0002805367
408.19499999974965,3.108475e-05,408.19499999974965,8.755345e-05,408.19499999974965,0.0001149771,408.19499999974965,0.0002746713
408.20999999974964,3.190946e-05,408.20999999974964,9.513736e-05,408.20999999974964,0.0001154477,408.20999999974964,0.000265411
408.2249999997496,3.319683e-05,408.2249999997496,9.94002e-05,408.2249999997496,0.0001152419,408.2249999997496,0.0002665543
408.2399999997496,3.305309e-05,408.2399999997496,9.902536e-05,408.2399999997496,0.0001147146,408.2399999997496,0.0002737568
408.2549999997496,3.378985e-05,408.2549999997496,9.711453e-05,408.2549999997496,0.0001155152,408.2549999997496,0.000271363
408.2699999997496,3.338512e-05,408.2699999997496,0.0001049185,408.2699999997496,0.0001149196,408.2699999997496,0.0002676127
408.2849999997496,3.281571e-05,408.2849999997496,0.0001055898,408.2849999997496,0.0001152598,408.2849999997496,0.0002673559
408.29999999974956,3.186042e-05,408.29999999974956,0.0001032982,408.29999999974956,0.0001154386,408.29999999974956,0.0002677294
408.31499999974955,3.427126e-05,408.31499999974955,0.0001034017,408.31499999974955,0.0001155086,408.31499999974955,0.0002813064
408.32999999974953,3.583532e-05,408.32999999974953,0.0001035847,408.32999999974953,0.0001145738,408.32999999974953,0.0002727718
408.3449999997495,3.584986e-05,408.3449999997495,0.0001052649,408.3449999997495,0.0001136681,408.3449999997495,0.0002661117
408.3599999997495,3.779702e-05,408.3599999997495,0.0001170603,408.3599999997495,0.0001091117,408.3599999997495,0.0002555854
408.3749999997495,3.746988e-05,408.3749999997495,0.000114554,408.3749999997495,0.0001060542,408.3749999997495,0.0002522506
408.3899999997495,3.711404e-05,408.3899999997495,0.0001072936,408.3899999997495,7.09093e-05,408.3899999997495,0.0002414861
408.40499999974946,3.738519e-05,408.40499999974946,0.000106433,408.40499999974946,6.322794e-05,408.40499999974946,0.0002380956
408.41999999974945,3.741081e-05,408.41999999974945,0.000106776,408.41999999974945,5.732046e-05,408.41999999974945,0.0002387624
408.43499999974944,3.80881e-05,408.43499999974944,0.0001064356,408.43499999974944,4.768662e-05,408.43499999974944,0.0002511706
408.4499999997494,3.80881e-05,408.4499999997494,9.953418e-05,408.4499999997494,4.782408e-05,408.4499999997494,0.0002577459
408.4649999997494,3.763081e-05,408.4649999997494,9.040657e-05,408.4649999997494,4.720415e-05,408.4649999997494,0.0002738721
408.4799999997494,3.924802e-05,408.4799999997494,0.0001140362,408.4799999997494,5.328757e-05,408.4799999997494,0.0004024984
408.4949999997494,4.457938e-05,408.4949999997494,0.0001208614,408.4949999997494,7.538468e-05,408.4949999997494,0.0004083634
408.50999999974937,4.45522e-05,408.50999999974937,0.0001158307,408.50999999974937,7.945441e-05,408.50999999974937,0.0004158606
408.52499999974935,4.858301e-05,408.52499999974935,0.0001127277,408.52499999974935,8.108317e-05,408.52499999974935,0.0004304221
408.53999999974934,4.890264e-05,408.53999999974934,0.0001135506,408.53999999974934,8.062234e-05,408.53999999974934,0.000513507
408.5549999997493,4.930941e-05,408.5549999997493,0.0001163199,408.5549999997493,8.048734e-05,408.5549999997493,0.0005584804
408.5699999997493,4.726379e-05,408.5699999997493,0.0001162522,408.5699999997493,7.958586e-05,408.5699999997493,0.0005765818
408.5849999997493,4.738524e-05,408.5849999997493,0.0001153212,408.5849999997493,7.958603e-05,408.5849999997493,0.0006870775
408.5999999997493,4.756416e-05,408.5999999997493,0.0001093137,408.5999999997493,7.899924e-05,408.5999999997493,0.0007322441
408.6149999997493,4.710975e-05,408.6149999997493,0.0001033379,408.6149999997493,7.835468e-05,408.6149999997493,0.0007382822
408.62999999974926,4.657113e-05,408.62999999974926,0.0001062282,408.62999999974926,7.703567e-05,408.62999999974926,0.0007803639
408.64499999974925,4.606996e-05,408.64499999974925,0.0001082194,408.64499999974925,7.732605e-05,408.64499999974925,0.0008185891
408.65999999974923,4.618173e-05,408.65999999974923,0.0001074432,408.65999999974923,0.0001332896,408.65999999974923,0.0008275476
408.6749999997492,4.543168e-05,408.6749999997492,0.0001067418,408.6749999997492,0.0001906898,408.6749999997492,0.0008269215
408.6899999997492,4.53426e-05,408.6899999997492,0.0001067649,408.6899999997492,0.0002517459,408.6899999997492,0.0008155126
408.7049999997492,4.502053e-05,408.7049999997492,0.000109354,408.7049999997492,0.0002847384,408.7049999997492,0.0008125964
408.7199999997492,4.558737e-05,408.7199999997492,0.0001105012,408.7199999997492,0.0002855494,408.7199999997492,0.0007936028
408.73499999974916,4.165232e-05,408.73499999974916,8.641335e-05,408.73499999974916,0.0002855215,408.73499999974916,0.0007466672
408.74999999974915,3.912976e-05,408.74999999974915,7.937317e-05,408.74999999974915,0.0002881219,408.74999999974915,0.0007487058
408.76499999974914,3.744769e-05,408.76499999974914,8.512406e-05,408.76499999974914,0.000288332,408.76499999974914,0.0007430071
408.7799999997491,3.442055e-05,408.7799999997491,8.846483e-05,408.7799999997491,0.0002884933,408.7799999997491,0.0007253247
408.7949999997491,3.382485e-05,408.7949999997491,8.748553e-05,408.7949999997491,0.0002885281,408.7949999997491,0.0007097127
408.8099999997491,3.277705e-05,408.8099999997491,8.777488e-05,408.8099999997491,0.000288624,408.8099999997491,0.0006958398
408.8249999997491,3.272587e-05,408.8249999997491,9.276067e-05,408.8249999997491,0.0002884988,408.8249999997491,0.0006764701
408.83999999974907,3.286804e-05,408.83999999974907,9.465522e-05,408.83999999974907,0.0002884082,408.83999999974907,0.000605987
408.85499999974905,3.297031e-05,408.85499999974905,9.797566e-05,408.85499999974905,0.0002883005,408.85499999974905,0.0005564853
408.86999999974904,3.229953e-05,408.86999999974904,0.0001046363,408.86999999974904,0.0002882495,408.86999999974904,0.0005640084
408.884999999749,3.483266e-05,408.884999999749,0.0001049314,408.884999999749,0.0002883956,408.884999999749,0.000541339
408.899999999749,3.400967e-05,408.899999999749,0.0001033777,408.899999999749,0.000288077,408.899999999749,0.0004997161
408.914999999749,3.426633e-05,408.914999999749,0.0001038569,408.914999999749,0.0002347838,408.914999999749,0.0005179977
408.929999999749,3.444715e-05,408.929999999749,0.0001048797,408.929999999749,0.0002091965,408.929999999749,0.0005287926
408.944999999749,3.445369e-05,408.944999999749,0.000115249,408.944999999749,0.0001263885,408.944999999749,0.0005294274
408.95999999974896,3.462824e-05,408.95999999974896,0.0001146083,408.95999999974896,7.605645e-05,408.95999999974896,0.0005294398
408.97499999974895,3.491789e-05,408.97499999974895,0.0001147651,408.97499999974895,7.282607e-05,408.97499999974895,0.0005370688
408.98999999974893,3.577946e-05,408.98999999974893,0.0001185553,408.98999999974893,5.748022e-05,408.98999999974893,0.0005397369
409.0049999997489,3.478045e-05,409.0049999997489,0.0001222599,409.0049999997489,3.949026e-05,409.0049999997489,0.0005334333
409.0199999997489,3.484439e-05,409.0199999997489,0.0001433052,409.0199999997489,3.319301e-05,409.0199999997489,0.0005546624
409.0349999997489,3.458224e-05,409.0349999997489,0.000161454,409.0349999997489,3.318197e-05,409.0349999997489,0.0005467358
409.0499999997489,3.482983e-05,409.0499999997489,0.0001718922,409.0499999997489,3.642328e-05,409.0499999997489,0.0005124126
409.06499999974886,3.476141e-05,409.06499999974886,0.0001773166,409.06499999974886,4.986563e-05,409.06499999974886,0.0005101693
409.07999999974885,3.454026e-05,409.07999999974885,0.0001751755,409.07999999974885,5.33317e-05,409.07999999974885,0.0005131511
409.09499999974884,3.316796e-05,409.09499999974884,0.0001820763,409.09499999974884,6.271657e-05,409.09499999974884,0.0005038221
409.1099999997488,3.378318e-05,409.1099999997488,0.0001856054,409.1099999997488,6.37151e-05,409.1099999997488,0.0006219326
409.1249999997488,3.204822e-05,409.1249999997488,0.0001843728,409.1249999997488,6.616646e-05,409.1249999997488,0.000631275
409.1399999997488,3.108475e-05,409.1399999997488,0.0001842362,409.1399999997488,6.636544e-05,409.1399999997488,0.0006214058
409.1549999997488,3.119378e-05,409.1549999997488,0.0001844552,409.1549999997488,7.208886e-05,409.1549999997488,0.0006366425
409.16999999974877,3.162077e-05,409.16999999974877,0.0001851452,409.16999999974877,7.273549e-05,409.16999999974877,0.0006197574
409.18499999974875,3.086053e-05,409.18499999974875,0.0001851525,409.18499999974875,7.352142e-05,409.18499999974875,0.0006130877
409.19999999974874,2.901608e-05,409.19999999974874,0.0001794513,409.19999999974874,7.577106e-05,409.19999999974874,0.0006141681
409.2149999997487,2.849485e-05,409.2149999997487,0.0001769955,409.2149999997487,7.664317e-05,409.2149999997487,0.0006121365
409.2299999997487,2.767477e-05,409.2299999997487,0.0001770416,409.2299999997487,7.735647e-05,409.2299999997487,0.0006092006
409.2449999997487,2.75595e-05,409.2449999997487,0.0001749961,409.2449999997487,7.74562e-05,409.2449999997487,0.0006054715
409.2599999997487,2.765237e-05,409.2599999997487,0.0001730588,409.2599999997487,7.717525e-05,409.2599999997487,0.0005987076
409.2749999997487,2.853042e-05,409.2749999997487,0.0001376822,409.2749999997487,7.738159e-05,409.2749999997487,0.0005657446
409.28999999974866,2.778754e-05,409.28999999974866,0.0001275789,409.28999999974866,7.745456e-05,409.28999999974866,0.0005598376
409.30499999974865,2.771038e-05,409.30499999974865,0.0001094363,409.30499999974865,7.222044e-05,409.30499999974865,0.0005406325
409.31999999974863,2.823412e-05,409.31999999974863,0.0001081481,409.31999999974863,6.559513e-05,409.31999999974863,0.0005229629
409.3349999997486,2.823362e-05,409.3349999997486,0.0001071892,409.3349999997486,6.061078e-05,409.3349999997486,0.0004823045
409.3499999997486,2.806247e-05,409.3499999997486,8.379023e-05,409.3499999997486,5.582823e-05,409.3499999997486,0.0004351627
409.3649999997486,2.79044e-05,409.3649999997486,7.673887e-05,409.3649999997486,5.622774e-05,409.3649999997486,0.000270471
409.3799999997486,2.823462e-05,409.3799999997486,7.85599e-05,409.3799999997486,5.237757e-05,409.3799999997486,0.0002425982
409.39499999974856,2.816968e-05,409.39499999974856,8.004051e-05,409.39499999974856,5.01698e-05,409.39499999974856,0.0002094421
409.40999999974855,2.793669e-05,409.40999999974855,7.972733e-05,409.40999999974855,4.347263e-05,409.40999999974855,0.0001741088
409.42499999974854,2.854819e-05,409.42499999974854,7.553981e-05,409.42499999974854,4.254175e-05,409.42499999974854,0.000177443
409.4399999997485,2.89777e-05,409.4399999997485,7.313432e-05,409.4399999997485,4.35403e-05,409.4399999997485,0.0001707667
409.4549999997485,2.925637e-05,409.4549999997485,7.212773e-05,409.4549999997485,3.833436e-05,409.4549999997485,0.0001715488
409.4699999997485,2.965806e-05,409.4699999997485,7.243681e-05,409.4699999997485,3.734447e-05,409.4699999997485,0.0001667247
409.4849999997485,2.933042e-05,409.4849999997485,7.191022e-05,409.4849999997485,3.806109e-05,409.4849999997485,0.0001668823
409.49999999974847,3.075766e-05,409.49999999974847,7.090791e-05,409.49999999974847,3.795249e-05,409.49999999974847,0.0001671976
409.51499999974845,3.067557e-05,409.51499999974845,7.140205e-05,409.51499999974845,3.830642e-05,409.51499999974845,0.0001684424
409.52999999974844,2.984981e-05,409.52999999974844,7.271941e-05,409.52999999974844,3.721298e-05,409.52999999974844,0.0001674503
409.5449999997484,3.092164e-05,409.5449999997484,6.907358e-05,409.5449999997484,3.85743e-05,409.5449999997484,0.0001663615
409.5599999997484,3.083176e-05,409.5599999997484,7.139554e-05,409.5599999997484,3.857576e-05,409.5599999997484,0.0001654478
409.5749999997484,3.098944e-05,409.5749999997484,6.749251e-05,409.5749999997484,3.78793e-05,409.5749999997484,0.0001488434
409.5899999997484,3.048763e-05,409.5899999997484,6.706349e-05,409.5899999997484,3.758699e-05,409.5899999997484,0.0001461905
409.6049999997484,3.052873e-05,409.6049999997484,6.530263e-05,409.6049999997484,3.595619e-05,409.6049999997484,0.0001453485
409.61999999974836,3.028318e-05,409.61999999974836,6.491883e-05,409.61999999974836,3.534133e-05,409.61999999974836,0.0001368955
409.63499999974835,3.01662e-05,409.63499999974835,6.291974e-05,409.63499999974835,3.58133e-05,409.63499999974835,0.0001229576
409.64999999974833,3.045111e-05,409.64999999974833,6.28801e-05,409.64999999974833,3.553135e-05,409.64999999974833,0.0001231721
409.6649999997483,2.946937e-05,409.6649999997483,6.476219e-05,409.6649999997483,3.506001e-05,409.6649999997483,0.0001172797
409.6799999997483,2.975859e-05,409.6799999997483,6.466881e-05,409.6799999997483,3.446309e-05,409.6799999997483,0.0001134795
409.6949999997483,3.038118e-05,409.6949999997483,6.301325e-05,409.6949999997483,3.516231e-05,409.6949999997483,0.0001224706
409.7099999997483,3.116577e-05,409.7099999997483,7.03094e-05,409.7099999997483,3.567971e-05,409.7099999997483,0.0001110803
409.72499999974826,3.031201e-05,409.72499999974826,6.987913e-05,409.72499999974826,3.539669e-05,409.72499999974826,0.0001049521
409.73999999974825,3.066638e-05,409.73999999974825,7.497189e-05,409.73999999974825,3.435747e-05,409.73999999974825,0.0001071557
409.75499999974824,2.989225e-05,409.75499999974824,7.441819e-05,409.75499999974824,3.469326e-05,409.75499999974824,9.920657e-05
409.7699999997482,3.021146e-05,409.7699999997482,7.385595e-05,409.7699999997482,3.408332e-05,409.7699999997482,9.746681e-05
409.7849999997482,3.016714e-05,409.7849999997482,7.823017e-05,409.7849999997482,3.346141e-05,409.7849999997482,9.785165e-05
409.7999999997482,3.039694e-05,409.7999999997482,7.807335e-05,409.7999999997482,3.23862e-05,409.7999999997482,9.897685e-05
409.8149999997482,3.067235e-05,409.8149999997482,7.660843e-05,409.8149999997482,3.304627e-05,409.8149999997482,9.921424e-05
409.82999999974817,3.067649e-05,409.82999999974817,7.558883e-05,409.82999999974817,3.47764e-05,409.82999999974817,0.0001019553
409.84499999974815,3.176877e-05,409.84499999974815,7.674345e-05,409.84499999974815,3.501779e-05,409.84499999974815,0.0001005308
409.85999999974814,3.117526e-05,409.85999999974814,7.859504e-05,409.85999999974814,3.520876e-05,409.85999999974814,0.0001006821
409.8749999997481,3.088243e-05,409.8749999997481,7.744037e-05,409.8749999997481,3.467824e-05,409.8749999997481,0.0001030071
409.8899999997481,3.110469e-05,409.8899999997481,8.639558e-05,409.8899999997481,3.359292e-05,409.8899999997481,9.921793e-05
409.9049999997481,3.109382e-05,409.9049999997481,9.246239e-05,409.9049999997481,3.329386e-05,409.9049999997481,9.552465e-05
409.9199999997481,3.13402e-05,409.9199999997481,9.121522e-05,409.9199999997481,3.387354e-05,409.9199999997481,9.436845e-05
409.9349999997481,3.167374e-05,409.9349999997481,9.096965e-05,409.9349999997481,3.341549e-05,409.9349999997481,8.632217e-05
409.94999999974806,3.116215e-05,409.94999999974806,9.284855e-05,409.94999999974806,3.204602e-05,409.94999999974806,7.913945e-05
409.96499999974804,2.952382e-05,409.96499999974804,8.798951e-05,409.96499999974804,3.191741e-05,409.96499999974804,7.961063e-05
409.97999999974803,3.075583e-05,409.97999999974803,8.706523e-05,409.97999999974803,3.124251e-05,409.97999999974803,7.701317e-05
409.994999999748,2.973775e-05,409.994999999748,8.393687e-05,409.994999999748,3.069255e-05,409.994999999748,7.708484e-05
410.009999999748,2.923421e-05,410.009999999748,8.474226e-05,410.009999999748,3.005579e-05,410.009999999748,7.770441e-05
410.024999999748,3.109563e-05,410.024999999748,8.67066e-05,410.024999999748,3.014471e-05,410.024999999748,8.352874e-05
410.039999999748,3.030736e-05,410.039999999748,9.591802e-05,410.039999999748,3.039555e-05,410.039999999748,8.968852e-05
410.05499999974796,3.027155e-05,410.05499999974796,0.0001751495,410.05499999974796,3.0665e-05,410.05499999974796,8.822326e-05
410.06999999974795,3.122673e-05,410.06999999974795,0.0002449505,410.06999999974795,3.003657e-05,410.06999999974795,8.558863e-05
410.08499999974794,3.056884e-05,410.08499999974794,0.0003187055,410.08499999974794,2.861571e-05,410.08499999974794,8.713979e-05
410.0999999997479,3.0918e-05,410.0999999997479,0.0003213184,410.0999999997479,2.785337e-05,410.0999999997479,9.105229e-05
410.1149999997479,3.048301e-05,410.1149999997479,0.0003370141,410.1149999997479,2.776827e-05,410.1149999997479,8.869494e-05
410.1299999997479,3.202228e-05,410.1299999997479,0.0003381236,410.1299999997479,2.884859e-05,410.1299999997479,9.102027e-05
410.1449999997479,3.149131e-05,410.1449999997479,0.0003370969,410.1449999997479,2.938608e-05,410.1449999997479,9.457869e-05
410.15999999974787,3.167729e-05,410.15999999974787,0.0003361365,410.15999999974787,2.919515e-05,410.15999999974787,0.0001125366
410.17499999974785,3.078101e-05,410.17499999974785,0.0003365714,410.17499999974785,2.781997e-05,410.17499999974785,0.0001191433
410.18999999974784,2.933186e-05,410.18999999974784,0.0003388683,410.18999999974784,2.668328e-05,410.18999999974784,0.0001195565
410.2049999997478,3.031991e-05,410.2049999997478,0.0003393169,410.2049999997478,2.748426e-05,410.2049999997478,0.0001264387
410.2199999997478,2.949088e-05,410.2199999997478,0.0003429975,410.2199999997478,2.779869e-05,410.2199999997478,0.0001311625
410.2349999997478,3.009982e-05,410.2349999997478,0.0003432944,410.2349999997478,2.837447e-05,410.2349999997478,0.0001342525
410.2499999997478,3.038628e-05,410.2499999997478,0.0003432532,410.2499999997478,2.845329e-05,410.2499999997478,0.0001342677
410.2649999997478,2.99511e-05,410.2649999997478,0.0003433985,410.2649999997478,2.861374e-05,410.2649999997478,0.0001332587
410.27999999974776,2.828496e-05,410.27999999974776,0.0003426499,410.27999999974776,2.854375e-05,410.27999999974776,0.0001281065
410.29499999974774,2.83968e-05,410.29499999974774,0.0003391218,410.29499999974774,2.785134e-05,410.29499999974774,0.0001229415
410.30999999974773,2.754825e-05,410.30999999974773,0.0003017646,410.30999999974773,2.74232e-05,410.30999999974773,0.000123343
410.3249999997477,2.733264e-05,410.3249999997477,0.0002088675,410.3249999997477,2.688943e-05,410.3249999997477,0.000124854
410.3399999997477,2.620438e-05,410.3399999997477,0.0001614834,410.3399999997477,2.737898e-05,410.3399999997477,0.000124556
410.3549999997477,2.587928e-05,410.3549999997477,0.0001574978,410.3549999997477,2.739596e-05,410.3549999997477,0.0001303893
410.3699999997477,2.559412e-05,410.3699999997477,0.0001452691,410.3699999997477,2.784932e-05,410.3699999997477,0.0001349014
410.38499999974766,2.567984e-05,410.38499999974766,0.0001425121,410.38499999974766,2.621781e-05,410.38499999974766,0.0001736662
410.39999999974765,2.603666e-05,410.39999999974765,0.000141468,410.39999999974765,2.595809e-05,410.39999999974765,0.0001874183
410.41499999974764,2.577565e-05,410.41499999974764,0.0001443213,410.41499999974764,2.596189e-05,410.41499999974764,0.000202507
410.4299999997476,2.570834e-05,410.4299999997476,0.0001455142,410.4299999997476,2.605451e-05,410.4299999997476,0.0002614108
410.4449999997476,2.519584e-05,410.4449999997476,0.0001429196,410.4449999997476,2.613656e-05,410.4449999997476,0.0002783245
410.4599999997476,2.434103e-05,410.4599999997476,0.0002025171,410.4599999997476,2.633843e-05,410.4599999997476,0.00028234
410.4749999997476,2.437342e-05,410.4749999997476,0.0002252053,410.4749999997476,2.608801e-05,410.4749999997476,0.0002874458
410.48999999974757,2.438902e-05,410.48999999974757,0.0002330704,410.48999999974757,2.565843e-05,410.48999999974757,0.0002881848
410.50499999974755,2.385881e-05,410.50499999974755,0.0002335329,410.50499999974755,2.598521e-05,410.50499999974755,0.0002897216
410.51999999974754,2.561063e-05,410.51999999974754,0.0002367299,410.51999999974754,2.585532e-05,410.51999999974754,0.00030558
410.5349999997475,2.571492e-05,410.5349999997475,0.0002349445,410.5349999997475,2.701591e-05,410.5349999997475,0.000313167
410.5499999997475,2.518466e-05,410.5499999997475,0.0002292461,410.5499999997475,2.632934e-05,410.5499999997475,0.0003212765
410.5649999997475,2.505456e-05,410.5649999997475,0.0002303629,410.5649999997475,2.616242e-05,410.5649999997475,0.0003220541
410.5799999997475,2.430339e-05,410.5799999997475,0.0002292275,410.5799999997475,2.63288e-05,410.5799999997475,0.0003212719
410.5949999997475,2.442134e-05,410.5949999997475,0.0002263794,410.5949999997475,2.582916e-05,410.5949999997475,0.0003338452
410.60999999974746,2.460638e-05,410.60999999974746,0.0002212656,410.60999999974746,2.56513e-05,410.60999999974746,0.0003385568
410.62499999974744,2.354321e-05,410.62499999974744,0.0002187817,410.62499999974744,2.586458e-05,410.62499999974744,0.0003375248
410.63999999974743,2.255372e-05,410.63999999974743,0.000218966,410.63999999974743,2.57516e-05,410.63999999974743,0.0003073068
410.6549999997474,2.287435e-05,410.6549999997474,0.000217102,410.6549999997474,2.76936e-05,410.6549999997474,0.0003034764
410.6699999997474,2.34863e-05,410.6699999997474,0.000215122,410.6699999997474,2.708517e-05,410.6699999997474,0.0002831364
410.6849999997474,2.362206e-05,410.6849999997474,0.0002159586,410.6849999997474,2.64212e-05,410.6849999997474,0.0002251216
410.6999999997474,2.411194e-05,410.6999999997474,0.0002175238,410.6999999997474,2.603233e-05,410.6999999997474,0.0002229231
410.71499999974736,2.40089e-05,410.71499999974736,0.0001544413,410.71499999974736,2.516563e-05,410.71499999974736,0.0002252553
410.72999999974735,2.396544e-05,410.72999999974735,0.0001522297,410.72999999974735,2.467955e-05,410.72999999974735,0.0002306431
410.74499999974734,2.274589e-05,410.74499999974734,0.0001606089,410.74499999974734,2.563152e-05,410.74499999974734,0.0002361655
410.7599999997473,2.179456e-05,410.7599999997473,0.0001579359,410.7599999997473,2.512922e-05,410.7599999997473,0.0002434442
410.7749999997473,2.007746e-05,410.7749999997473,0.0001605094,410.7749999997473,2.540852e-05,410.7749999997473,0.0002221379
410.7899999997473,2.124072e-05,410.7899999997473,0.0001617738,410.7899999997473,2.419708e-05,410.7899999997473,0.0002223365
410.8049999997473,2.135581e-05,410.8049999997473,0.0001641832,410.8049999997473,2.411836e-05,410.8049999997473,0.0002353824
410.81999999974727,2.164409e-05,410.81999999974727,0.0001600335,410.81999999974727,2.427845e-05,410.81999999974727,0.0002439622
410.83499999974725,2.125597e-05,410.83499999974725,0.0001587082,410.83499999974725,2.476047e-05,410.83499999974725,0.0002462898
410.84999999974724,2.132412e-05,410.84999999974724,0.0001606645,410.84999999974724,3.169907e-05,410.84999999974724,0.0002322569
410.8649999997472,2.088897e-05,410.8649999997472,0.0001640237,410.8649999997472,3.604345e-05,410.8649999997472,0.0003331927
410.8799999997472,2.127055e-05,410.8799999997472,0.0001658835,410.8799999997472,4.773858e-05,410.8799999997472,0.0003807577
410.8949999997472,2.101135e-05,410.8949999997472,0.0001706361,410.8949999997472,5.272871e-05,410.8949999997472,0.000382241
410.9099999997472,2.153971e-05,410.9099999997472,0.0001749307,410.9099999997472,7.515486e-05,410.9099999997472,0.0003891777
410.9249999997472,2.102207e-05,410.9249999997472,0.000176104,410.9249999997472,8.372178e-05,410.9249999997472,0.0003885765
410.93999999974716,2.14118e-05,410.93999999974716,0.0001820515,410.93999999974716,9.657124e-05,410.93999999974716,0.0004050896
410.95499999974714,2.183718e-05,410.95499999974714,0.0001838594,410.95499999974714,9.773007e-05,410.95499999974714,0.0004579906
410.96999999974713,2.184814e-05,410.96999999974713,0.0001725069,410.96999999974713,9.933329e-05,410.96999999974713,0.0004787744
410.9849999997471,2.247551e-05,410.9849999997471,0.0001458755,410.9849999997471,0.0001019631,410.9849999997471,0.0004787247
410.9999999997471,2.248491e-05,410.9999999997471,0.0001425705,410.9999999997471,0.0001020202,410.9999999997471,0.0004753032
411.0149999997471,2.28571e-05,411.0149999997471,0.0001401799,411.0149999997471,0.0001023852,411.0149999997471,0.0004794132
411.0299999997471,2.3084e-05,411.0299999997471,0.0001386757,411.0299999997471,0.0001025259,411.0299999997471,0.0004932225
411.04499999974706,2.273784e-05,411.04499999974706,0.0001382431,411.04499999974706,0.0001024239,411.04499999974706,0.0004903479
411.05999999974705,2.253747e-05,411.05999999974705,0.0001374328,411.05999999974705,0.0001024894,411.05999999974705,0.0004871722
411.07499999974704,2.225759e-05,411.07499999974704,0.0001375111,411.07499999974704,0.0001024415,411.07499999974704,0.0004859369
411.089999999747,2.22949e-05,411.089999999747,0.0001448926,411.089999999747,0.0001018723,411.089999999747,0.0004823051
411.104999999747,2.244415e-05,411.104999999747,0.0001418684,411.104999999747,9.859297e-05,411.104999999747,0.0004638037
411.119999999747,2.315164e-05,411.119999999747,0.0001395254,411.119999999747,9.735502e-05,411.119999999747,0.0003851143
411.134999999747,2.314373e-05,411.134999999747,0.000135821,411.134999999747,9.165813e-05,411.134999999747,0.0003442585
411.14999999974697,2.344728e-05,411.14999999974697,0.0001354691,411.14999999974697,8.932497e-05,411.14999999974697,0.0003448131
411.16499999974695,2.352825e-05,411.16499999974695,0.0001365584,411.16499999974695,7.162306e-05,411.16499999974695,0.0003436202
411.17999999974694,2.25868e-05,411.17999999974694,0.000133919,411.17999999974694,5.427867e-05,411.17999999974694,0.0003423388
411.1949999997469,2.276694e-05,411.1949999997469,0.0001319246,411.1949999997469,3.646851e-05,411.1949999997469,0.0003052801
411.2099999997469,2.337869e-05,411.2099999997469,0.0001351844,411.2099999997469,3.536245e-05,411.2099999997469,0.0002214178
411.2249999997469,2.333225e-05,411.2249999997469,0.0001391788,411.2249999997469,3.066822e-05,411.2249999997469,0.0001786373
411.2399999997469,2.292356e-05,411.2399999997469,0.0001376615,411.2399999997469,2.490285e-05,411.2399999997469,0.0001794145
411.2549999997469,2.223987e-05,411.2549999997469,0.0001361518,411.2549999997469,2.656158e-05,411.2549999997469,0.0001795242
411.26999999974686,2.238759e-05,411.26999999974686,0.000143432,411.26999999974686,2.531298e-05,411.26999999974686,0.0001682533
411.28499999974684,2.276385e-05,411.28499999974684,0.0001446583,411.28499999974684,2.641907e-05,411.28499999974684,0.0001343277
411.29999999974683,2.263228e-05,411.29999999974683,0.0001436185,411.29999999974683,2.643559e-05,411.29999999974683,0.0001186762
411.3149999997468,2.244352e-05,411.3149999997468,0.0001461768,411.3149999997468,2.722523e-05,411.3149999997468,0.0001191653
411.3299999997468,2.372381e-05,411.3299999997468,0.0001461746,411.3299999997468,2.779768e-05,411.3299999997468,0.0001104999
411.3449999997468,2.369113e-05,411.3449999997468,0.0001422561,411.3449999997468,2.766001e-05,411.3449999997468,0.0001117857
411.3599999997468,2.322029e-05,411.3599999997468,0.0001512459,411.3599999997468,2.727744e-05,411.3599999997468,0.0001125516
411.37499999974676,2.277189e-05,411.37499999974676,0.0001591322,411.37499999974676,2.84726e-05,411.37499999974676,0.0001265989
411.38999999974675,2.206116e-05,411.38999999974675,0.0001576038,411.38999999974675,2.802479e-05,411.38999999974675,0.0001313509
411.40499999974674,2.223797e-05,411.40499999974674,0.0001553934,411.40499999974674,2.777791e-05,411.40499999974674,0.000131385
411.4199999997467,2.138679e-05,411.4199999997467,0.0001522339,411.4199999997467,2.832428e-05,411.4199999997467,0.0001379429
411.4349999997467,2.100263e-05,411.4349999997467,0.0001541771,411.4349999997467,2.946316e-05,411.4349999997467,0.0001399333
411.4499999997467,2.048586e-05,411.4499999997467,0.0001558468,411.4499999997467,2.877525e-05,411.4499999997467,0.0001407595
411.4649999997467,1.930631e-05,411.4649999997467,0.0001483701,411.4649999997467,2.903258e-05,411.4649999997467,0.0001431589
411.47999999974667,2.106892e-05,411.47999999974667,0.0001492692,411.47999999974667,3.840558e-05,411.47999999974667,0.0001453696
411.49499999974665,2.165971e-05,411.49499999974665,0.0001901198,411.49499999974665,0.0001388388,411.49499999974665,0.0001430959
411.50999999974664,2.185717e-05,411.50999999974664,0.000202899,411.50999999974664,0.0002060925,411.50999999974664,0.0001449002
411.5249999997466,2.27428e-05,411.5249999997466,0.0002137955,411.5249999997466,0.0002954839,411.5249999997466,0.0001242343
411.5399999997466,2.239262e-05,411.5399999997466,0.0002225646,411.5399999997466,0.000415107,411.5399999997466,0.0001746711
411.5549999997466,2.299841e-05,411.5549999997466,0.0002248423,411.5549999997466,0.0004282846,411.5549999997466,0.0002008021
411.5699999997466,2.316259e-05,411.5699999997466,0.0002455498,411.5699999997466,0.0004503704,411.5699999997466,0.0002933516
411.58499999974657,2.262854e-05,411.58499999974657,0.0002624666,411.58499999974657,0.0004822692,411.58499999974657,0.000301763
411.59999999974656,2.341662e-05,411.59999999974656,0.0002625796,411.59999999974656,0.0007673081,411.59999999974656,0.0003255493
411.61499999974654,2.341362e-05,411.61499999974654,0.0002767964,411.61499999974654,0.0009303072,411.61499999974654,0.0003466963
411.62999999974653,2.453299e-05,411.62999999974653,0.0002838268,411.62999999974653,0.001014259,411.62999999974653,0.0003483221
411.6449999997465,2.489041e-05,411.6449999997465,0.0002875644,411.6449999997465,0.001020375,411.6449999997465,0.0003484997
411.6599999997465,2.55324e-05,411.6599999997465,0.0002855805,411.6599999997465,0.001054692,411.6599999997465,0.0003488496
411.6749999997465,2.595863e-05,411.6749999997465,0.0002871688,411.6749999997465,0.001076692,411.6749999997465,0.0003470337
411.6899999997465,2.7633e-05,411.6899999997465,0.0002929158,411.6899999997465,0.001081296,411.6899999997465,0.000346953
411.70499999974646,2.764269e-05,411.70499999974646,0.0002925569,411.70499999974646,0.001081727,411.70499999974646,0.0003555283
411.71999999974645,2.788167e-05,411.71999999974645,0.0002929367,411.71999999974645,0.001082741,411.71999999974645,0.0003934513
411.73499999974644,2.691247e-05,411.73499999974644,0.0002911939,411.73499999974644,0.001085038,411.73499999974644,0.0003991789
411.7499999997464,2.775305e-05,411.7499999997464,0.0002608524,411.7499999997464,0.001076845,411.7499999997464,0.0004501496
411.7649999997464,2.77302e-05,411.7649999997464,0.0002521159,411.7649999997464,0.001067128,411.7649999997464,0.000455666
411.7799999997464,2.688471e-05,411.7799999997464,0.0002765883,411.7799999997464,0.001038425,411.7799999997464,0.0004793938
411.7949999997464,2.778957e-05,411.7949999997464,0.0002989718,411.7949999997464,0.001007229,411.7949999997464,0.0004731506
411.80999999974637,2.726194e-05,411.80999999974637,0.0003534794,411.80999999974637,0.001005038,411.80999999974637,0.0004696044
411.82499999974635,2.719365e-05,411.82499999974635,0.0005499876,411.82499999974635,0.001003797,411.82499999974635,0.0004952466
411.83999999974634,2.750014e-05,411.83999999974634,0.0007824763,411.83999999974634,0.0009205505,411.83999999974634,0.0005288775
411.8549999997463,2.694438e-05,411.8549999997463,0.0009479513,411.8549999997463,0.0007573483,411.8549999997463,0.0005153061
411.8699999997463,2.820866e-05,411.8699999997463,0.0009896159,411.8699999997463,0.0005370335,411.8699999997463,0.0005649708
411.8849999997463,2.691194e-05,411.8849999997463,0.001199926,411.8849999997463,0.000420833,411.8849999997463,0.000577702
411.8999999997463,2.747554e-05,411.8999999997463,0.001260829,411.8999999997463,0.000407375,411.8999999997463,0.0005830385
411.91499999974627,2.714284e-05,411.91499999974627,0.001318751,411.91499999974627,0.0003223701,411.91499999974627,0.0005984058
411.92999999974626,2.691299e-05,411.92999999974626,0.001392139,411.92999999974626,0.0002961097,411.92999999974626,0.0006026862
411.94499999974624,2.735994e-05,411.94499999974624,0.001422583,411.94499999974624,0.0002990121,411.94499999974624,0.0006131537
411.95999999974623,2.729912e-05,411.95999999974623,0.001434292,411.95999999974623,0.0003060755,411.95999999974623,0.0006027426
411.9749999997462,2.695013e-05,411.9749999997462,0.001440433,411.9749999997462,0.0003073479,411.9749999997462,0.0005840377
411.9899999997462,2.579532e-05,411.9899999997462,0.001447927,411.9899999997462,0.0002900352,411.9899999997462,0.0005729368
412.0049999997462,2.630846e-05,412.0049999997462,0.001451527,412.0049999997462,0.0002833684,412.0049999997462,0.0005408045
412.0199999997462,2.558366e-05,412.0199999997462,0.001446677,412.0199999997462,0.0002861509,412.0199999997462,0.0005395955
412.03499999974616,2.580351e-05,412.03499999974616,0.001444707,412.03499999974616,0.0002762887,412.03499999974616,0.0005057219
412.04999999974615,2.459607e-05,412.04999999974615,0.0014327,412.04999999974615,0.0002618186,412.04999999974615,0.0005028782
412.06499999974614,2.48031e-05,412.06499999974614,0.00141414,412.06499999974614,0.0002578826,412.06499999974614,0.0004627336
412.0799999997461,2.441154e-05,412.0799999997461,0.001343533,412.0799999997461,0.0002435646,412.0799999997461,0.0003978366
412.0949999997461,2.485869e-05,412.0949999997461,0.00120474,412.0949999997461,0.0002056606,412.0949999997461,0.0003471166
412.1099999997461,2.329056e-05,412.1099999997461,0.001078623,412.1099999997461,0.000203741,412.1099999997461,0.000326617
412.1249999997461,2.250056e-05,412.1249999997461,0.001037084,412.1249999997461,0.0002018185,412.1249999997461,0.0002396338
412.13999999974607,2.246736e-05,412.13999999974607,0.0007373569,412.13999999974607,0.0002076158,412.13999999974607,0.0002337308
412.15499999974605,2.230059e-05,412.15499999974605,0.0007123474,412.15499999974605,0.0002065418,412.15499999974605,0.0001983737
412.16999999974604,2.245733e-05,412.16999999974604,0.000562441,412.16999999974604,0.0001981519,412.16999999974604,0.0001688809
412.184999999746,2.260425e-05,412.184999999746,0.0004395391,412.184999999746,0.0001696054,412.184999999746,0.0001531862
412.199999999746,2.171167e-05,412.199999999746,0.0003063598,412.199999999746,0.0001548102,412.199999999746,9.86618e-05
412.214999999746,2.14519e-05,412.214999999746,0.0002664608,412.214999999746,0.0001412417,412.214999999746,9.670593e-05
412.229999999746,2.164735e-05,412.229999999746,0.0002364199,412.229999999746,0.000147104,412.229999999746,0.0001124207
412.24499999974597,2.329479e-05,412.24499999974597,0.0001865796,412.24499999974597,0.000153966,412.24499999974597,0.0001142383
412.25999999974596,2.331836e-05,412.25999999974596,0.0001621333,412.25999999974596,0.0001597201,412.25999999974596,0.0001137775
412.27499999974594,2.397132e-05,412.27499999974594,0.0001697099,412.27499999974594,0.0001602152,412.27499999974594,0.0001189955
412.28999999974593,2.422327e-05,412.28999999974593,0.0001627676,412.28999999974593,0.0001815416,412.28999999974593,0.0001252167
412.3049999997459,2.423722e-05,412.3049999997459,0.0001515499,412.3049999997459,0.0001869295,412.3049999997459,0.0001252421
412.3199999997459,2.473998e-05,412.3199999997459,0.0001497662,412.3199999997459,0.0001899015,412.3199999997459,0.0001281766
412.3349999997459,2.600959e-05,412.3349999997459,0.0001342702,412.3349999997459,0.0001905006,412.3349999997459,0.0001351973
412.3499999997459,2.565953e-05,412.3499999997459,0.0001478518,412.3499999997459,0.0001966599,412.3499999997459,0.0001394614
412.36499999974586,2.625808e-05,412.36499999974586,0.0001499558,412.36499999974586,0.0001998754,412.36499999974586,0.0001367413
412.37999999974585,2.703936e-05,412.37999999974585,0.0001443065,412.37999999974585,0.0002015196,412.37999999974585,0.0001295711
412.39499999974583,2.728002e-05,412.39499999974583,0.0001431374,412.39499999974583,0.000198906,412.39499999974583,0.0001481768
412.4099999997458,2.680443e-05,412.4099999997458,0.0001629459,412.4099999997458,0.0002005856,412.4099999997458,0.0001614905
412.4249999997458,2.636195e-05,412.4249999997458,0.0001709642,412.4249999997458,0.000198841,412.4249999997458,0.000162348
412.4399999997458,2.611877e-05,412.4399999997458,0.0001706838,412.4399999997458,0.0002020383,412.4399999997458,0.0001872193
412.4549999997458,2.594072e-05,412.4549999997458,0.0001700554,412.4549999997458,0.0002267859,412.4549999997458,0.0001877258
412.46999999974577,2.63737e-05,412.46999999974577,0.0001742844,412.46999999974577,0.0002289102,412.46999999974577,0.0002043897
412.48499999974575,2.665423e-05,412.48499999974575,0.0001763973,412.48499999974575,0.0002261101,412.48499999974575,0.0001943127
412.49999999974574,2.550701e-05,412.49999999974574,0.0002039113,412.49999999974574,0.0002138354,412.49999999974574,0.0002094623
412.5149999997457,2.449679e-05,412.5149999997457,0.0002029667,412.5149999997457,0.0002327023,412.5149999997457,0.0002219093
412.5299999997457,2.445593e-05,412.5299999997457,0.0001901725,412.5299999997457,0.0002262199,412.5299999997457,0.0002201599
412.5449999997457,2.498531e-05,412.5449999997457,0.0001904666,412.5449999997457,0.0002120518,412.5449999997457,0.0002648077
412.5599999997457,2.417379e-05,412.5599999997457,0.0001908461,412.5599999997457,0.0002130102,412.5599999997457,0.0002763129
412.57499999974567,2.390246e-05,412.57499999974567,0.0001941439,412.57499999974567,0.0002129652,412.57499999974567,0.0002818198
412.58999999974566,2.274837e-05,412.58999999974566,0.0001954147,412.58999999974566,0.0002138253,412.58999999974566,0.0002875505
412.60499999974564,2.303452e-05,412.60499999974564,0.0001870773,412.60499999974564,0.0002153078,412.60499999974564,0.0003019469
412.61999999974563,2.31218e-05,412.61999999974563,0.0001852466,412.61999999974563,0.0002149875,412.61999999974563,0.0003102194
412.6349999997456,2.245293e-05,412.6349999997456,0.000183633,412.6349999997456,0.0002097907,412.6349999997456,0.0003175005
412.6499999997456,2.227974e-05,412.6499999997456,0.0001822608,412.6499999997456,0.0002222058,412.6499999997456,0.0003141465
412.6649999997456,2.254809e-05,412.6649999997456,0.0001532125,412.6649999997456,0.0002318033,412.6649999997456,0.0003147299
412.6799999997456,2.268947e-05,412.6799999997456,0.0001531081,412.6799999997456,0.0002502993,412.6799999997456,0.0003151048
412.69499999974556,2.316015e-05,412.69499999974556,0.0001485231,412.69499999974556,0.0002636552,412.69499999974556,0.0003084883
412.70999999974555,2.228037e-05,412.70999999974555,0.0001501314,412.70999999974555,0.0002545102,412.70999999974555,0.0003085386
412.72499999974553,2.176934e-05,412.72499999974553,0.0001549328,412.72499999974553,0.0002619174,412.72499999974553,0.0003016536
412.7399999997455,2.112635e-05,412.7399999997455,0.0001493228,412.7399999997455,0.0002883528,412.7399999997455,0.0003053045
412.7549999997455,2.059559e-05,412.7549999997455,0.0001104431,412.7549999997455,0.0002913493,412.7549999997455,0.0003061109
412.7699999997455,2.044249e-05,412.7699999997455,0.0001281368,412.7699999997455,0.0002813656,412.7699999997455,0.0003115615
412.7849999997455,2.009009e-05,412.7849999997455,0.0001289879,412.7849999997455,0.0003090475,412.7849999997455,0.0003616493
412.79999999974547,1.942343e-05,412.79999999974547,0.0001272867,412.79999999974547,0.0003566433,412.79999999974547,0.0003452297
412.81499999974545,2.118494e-05,412.81499999974545,0.0001318111,412.81499999974545,0.0003692895,412.81499999974545,0.0003469205
412.82999999974544,2.112435e-05,412.82999999974544,0.0001245984,412.82999999974544,0.0004082813,412.82999999974544,0.0003559665
412.8449999997454,2.140127e-05,412.8449999997454,0.0001256145,412.8449999997454,0.0004716714,412.8449999997454,0.0003654315
412.8599999997454,2.050579e-05,412.8599999997454,0.0001255253,412.8599999997454,0.0004773012,412.8599999997454,0.0003599885
412.8749999997454,2.0151e-05,412.8749999997454,0.0001268113,412.8749999997454,0.0005401837,412.8749999997454,0.0003811949
412.8899999997454,1.998464e-05,412.8899999997454,0.00013119,412.8899999997454,0.0006341743,412.8899999997454,0.0003953984
412.90499999974537,1.985026e-05,412.90499999974537,0.0001328986,412.90499999974537,0.0006450641,412.90499999974537,0.0004141732
412.91999999974536,2.124537e-05,412.91999999974536,0.0001399707,412.91999999974536,0.0007371134,412.91999999974536,0.000433358
412.93499999974534,2.148667e-05,412.93499999974534,0.0001446526,412.93499999974534,0.0007379182,412.93499999974534,0.0004363717
412.94999999974533,2.146437e-05,412.94999999974533,0.0001437093,412.94999999974533,0.0007695938,412.94999999974533,0.0004419005
412.9649999997453,2.177775e-05,412.9649999997453,0.0001421144,412.9649999997453,0.0007758758,412.9649999997453,0.0004402914
412.9799999997453,2.322878e-05,412.9799999997453,0.0001342186,412.9799999997453,0.0007787811,412.9799999997453,0.0004466406
412.9949999997453,2.375052e-05,412.9949999997453,0.0001322937,412.9949999997453,0.0007986437,412.9949999997453,0.0004594903
413.0099999997453,2.593312e-05,413.0099999997453,0.0001270526,413.0099999997453,0.0008187891,413.0099999997453,0.0004521841
413.02499999974526,2.622426e-05,413.02499999974526,0.0001187049,413.02499999974526,0.0008428761,413.02499999974526,0.0004595559
413.03999999974525,2.690043e-05,413.03999999974525,0.0001182406,413.03999999974525,0.0008619687,413.03999999974525,0.0004635416
413.05499999974523,2.705499e-05,413.05499999974523,0.0001185676,413.05499999974523,0.000858416,413.05499999974523,0.00046698
413.0699999997452,2.607612e-05,413.0699999997452,0.0001220087,413.0699999997452,0.0008559538,413.0699999997452,0.0004605633
413.0849999997452,2.738824e-05,413.0849999997452,0.0001214731,413.0849999997452,0.0008298235,413.0849999997452,0.0004566466
413.0999999997452,2.72516e-05,413.0999999997452,0.0001224272,413.0999999997452,0.0008110684,413.0999999997452,0.0004462335
413.1149999997452,2.714699e-05,413.1149999997452,0.0001260401,413.1149999997452,0.0008013891,413.1149999997452,0.0004378567
413.12999999974517,2.732852e-05,413.12999999974517,0.0001242648,413.12999999974517,0.000747252,413.12999999974517,0.0004091393
413.14499999974515,2.748784e-05,413.14499999974515,0.0001162041,413.14499999974515,0.0006910284,413.14499999974515,0.0003947934
413.15999999974514,2.752011e-05,413.15999999974514,0.0001094645,413.15999999974514,0.0006501829,413.15999999974514,0.0003700152
413.1749999997451,2.686165e-05,413.1749999997451,0.0001002902,413.1749999997451,0.0005777758,413.1749999997451,0.0003566641
413.1899999997451,2.6678e-05,413.1899999997451,0.0001021477,413.1899999997451,0.0005719739,413.1899999997451,0.0003423413
413.2049999997451,2.667641e-05,413.2049999997451,0.0001061034,413.2049999997451,0.0005312571,413.2049999997451,0.0003401235
413.2199999997451,2.524165e-05,413.2199999997451,0.0001044509,413.2199999997451,0.0005223647,413.2199999997451,0.0003484497
413.23499999974507,2.554785e-05,413.23499999974507,0.0001030439,413.23499999974507,0.0005147048,413.23499999974507,0.0003578427
413.24999999974506,2.535968e-05,413.24999999974506,0.0001026664,413.24999999974506,0.0004455691,413.24999999974506,0.0003565566
413.26499999974504,2.484566e-05,413.26499999974504,0.000116093,413.26499999974504,0.0004180956,413.26499999974504,0.0003524316
413.27999999974503,2.407862e-05,413.27999999974503,0.0001135062,413.27999999974503,0.0003583936,413.27999999974503,0.000304273
413.294999999745,2.509613e-05,413.294999999745,0.0001125772,413.294999999745,0.0002725616,413.294999999745,0.0002518323
413.309999999745,2.477923e-05,413.309999999745,0.0001030608,413.309999999745,0.0002985222,413.309999999745,0.0002654427
413.324999999745,2.439364e-05,413.324999999745,9.897001e-05,413.324999999745,0.0002709161,413.324999999745,0.0002572958
413.339999999745,2.25381e-05,413.339999999745,9.988779e-05,413.339999999745,0.0002718364,413.339999999745,0.0002601657
413.35499999974496,2.244289e-05,413.35499999974496,0.0001050288,413.35499999974496,0.0002686761,413.35499999974496,0.0002840775
413.36999999974495,2.305958e-05,413.36999999974495,0.0001029793,413.36999999974495,0.0002640182,413.36999999974495,0.0003080958
413.38499999974493,2.337628e-05,413.38499999974493,0.0001037686,413.38499999974493,0.0002568534,413.38499999974493,0.0003081766
413.3999999997449,2.294874e-05,413.3999999997449,0.0001108007,413.3999999997449,0.0002552948,413.3999999997449,0.0003169079
413.4149999997449,2.259989e-05,413.4149999997449,0.000119218,413.4149999997449,0.0002562918,413.4149999997449,0.0003448278
413.4299999997449,2.261858e-05,413.4299999997449,0.0001260803,413.4299999997449,0.0002533264,413.4299999997449,0.0003518112
413.4449999997449,2.256059e-05,413.4449999997449,0.0001359974,413.4449999997449,0.0002721937,413.4449999997449,0.0003853127
413.45999999974487,2.254122e-05,413.45999999974487,0.0001310114,413.45999999974487,0.0002734651,413.45999999974487,0.0003868304
413.47499999974485,2.556438e-05,413.47499999974485,0.0001333421,413.47499999974485,0.0002770807,413.47499999974485,0.0003727824
413.48999999974484,2.520032e-05,413.48999999974484,0.0001356126,413.48999999974484,0.0003277136,413.48999999974484,0.0004292493
413.5049999997448,2.457831e-05,413.5049999997448,0.0001353574,413.5049999997448,0.0003260645,413.5049999997448,0.0004387167
413.5199999997448,2.287065e-05,413.5199999997448,0.0001228373,413.5199999997448,0.0003413955,413.5199999997448,0.0004590128
413.5349999997448,2.277127e-05,413.5349999997448,0.0001245349,413.5349999997448,0.0003671073,413.5349999997448,0.0005342627
413.5499999997448,2.420582e-05,413.5499999997448,0.0001391474,413.5499999997448,0.0003601762,413.5499999997448,0.0005520282
413.56499999974477,2.494129e-05,413.56499999974477,0.0001380293,413.56499999974477,0.0003462127,413.56499999974477,0.0005549296
413.57999999974476,2.697207e-05,413.57999999974476,0.0001380276,413.57999999974476,0.0003659542,413.57999999974476,0.0005795303
413.59499999974474,2.700026e-05,413.59499999974474,0.0001374955,413.59499999974474,0.0003856621,413.59499999974474,0.0005919253
413.60999999974473,2.706488e-05,413.60999999974473,0.0001376984,413.60999999974473,0.0003879286,413.60999999974473,0.0005776693
413.6249999997447,2.708829e-05,413.6249999997447,0.0001397365,413.6249999997447,0.0004062645,413.6249999997447,0.0005810194
413.6399999997447,2.783212e-05,413.6399999997447,0.000142771,413.6399999997447,0.0004123484,413.6399999997447,0.000585274
413.6549999997447,2.800619e-05,413.6549999997447,0.0001468242,413.6549999997447,0.0004271782,413.6549999997447,0.000580951
413.6699999997447,2.774188e-05,413.6699999997447,0.0001469421,413.6699999997447,0.0004612829,413.6699999997447,0.000575259
413.68499999974466,2.776827e-05,413.68499999974466,0.0001326904,413.68499999974466,0.0005009676,413.68499999974466,0.0006133491
413.69999999974465,2.816968e-05,413.69999999974465,0.0001302319,413.69999999974465,0.000497275,413.69999999974465,0.0006034462
413.71499999974463,2.521764e-05,413.71499999974463,0.0001314569,413.71499999974463,0.0006846421,413.71499999974463,0.0006900231
413.7299999997446,2.520758e-05,413.7299999997446,0.0001278627,413.7299999997446,0.0008530538,413.7299999997446,0.0008496509
413.7449999997446,2.608369e-05,413.7449999997446,0.0001346521,413.7449999997446,0.0008489033,413.7449999997446,0.0008505601
413.7599999997446,2.647712e-05,413.7599999997446,0.0001353348,413.7599999997446,0.0009533834,413.7599999997446,0.0009827097
413.7749999997446,2.728518e-05,413.7749999997446,0.0001345576,413.7749999997446,0.0009631848,413.7749999997446,0.001057808
413.78999999974457,2.722057e-05,413.78999999974457,0.0001314112,413.78999999974457,0.0009518778,413.78999999974457,0.001034376
413.80499999974455,2.6355e-05,413.80499999974455,0.0001187306,413.80499999974455,0.0009521568,413.80499999974455,0.001113943
413.81999999974454,2.503037e-05,413.81999999974454,0.0001199681,413.81999999974454,0.0009503238,413.81999999974454,0.001147522
413.8349999997445,2.555777e-05,413.8349999997445,0.0001214638,413.8349999997445,0.0009390868,413.8349999997445,0.001177181
413.8499999997445,2.549486e-05,413.8499999997445,0.0001482902,413.8499999997445,0.0009349851,413.8499999997445,0.001329379
413.8649999997445,2.59684e-05,413.8649999997445,0.0001412284,413.8649999997445,0.0009348617,413.8649999997445,0.001351297
413.8799999997445,2.430802e-05,413.8799999997445,0.0001438541,413.8799999997445,0.0009426351,413.8799999997445,0.001438091
413.89499999974447,2.428831e-05,413.89499999974447,0.0001609988,413.89499999974447,0.0009589082,413.89499999974447,0.001491969
413.90999999974446,2.516171e-05,413.90999999974446,0.0001614439,413.90999999974446,0.0009707138,413.90999999974446,0.001493418
413.92499999974444,2.545781e-05,413.92499999974444,0.0001607346,413.92499999974444,0.0009450223,413.92499999974444,0.001495727
413.93999999974443,2.487286e-05,413.93999999974443,0.0001609002,413.93999999974443,0.0009292475,413.93999999974443,0.001481445
413.9549999997444,2.450312e-05,413.9549999997444,0.0001621897,413.9549999997444,0.0009392354,413.9549999997444,0.001481204
413.9699999997444,2.482807e-05,413.9699999997444,0.0001645798,413.9699999997444,0.000732997,413.9699999997444,0.00141395
413.9849999997444,2.429237e-05,413.9849999997444,0.0001657761,413.9849999997444,0.0006552371,413.9849999997444,0.001330231
413.9999999997444,2.419941e-05,413.9999999997444,0.0001610581,413.9999999997444,0.0006267574,413.9999999997444,0.001304712
414.01499999974436,2.416971e-05,414.01499999974436,0.0001589359,414.01499999974436,0.0004812894,414.01499999974436,0.001216076
414.02999999974435,2.364054e-05,414.02999999974435,0.0001587465,414.02999999974435,0.0004767595,414.02999999974435,0.001164109
414.04499999974433,2.236556e-05,414.04499999974433,0.0001585451,414.04499999974433,0.0004774523,414.04499999974433,0.001142828
414.0599999997443,2.142956e-05,414.0599999997443,0.0001581922,414.0599999997443,0.0004969983,414.0599999997443,0.001050361
414.0749999997443,2.145846e-05,414.0749999997443,0.0001574761,414.0749999997443,0.000504267,414.0749999997443,0.001029959
414.0899999997443,1.961755e-05,414.0899999997443,0.0001512198,414.0899999997443,0.0005103561,414.0899999997443,0.0009390032
414.1049999997443,2.061815e-05,414.1049999997443,0.0001278245,414.1049999997443,0.0005105768,414.1049999997443,0.0007292496
414.11999999974427,2.013421e-05,414.11999999974427,0.0001265594,414.11999999974427,0.0005350765,414.11999999974427,0.0006902138
414.13499999974425,2.101537e-05,414.13499999974425,0.000119344,414.13499999974425,0.00051604,414.13499999974425,0.0005004409
414.14999999974424,2.069316e-05,414.14999999974424,9.131986e-05,414.14999999974424,0.0004608318,414.14999999974424,0.0003863347
414.1649999997442,2.090111e-05,414.1649999997442,7.981139e-05,414.1649999997442,0.0004771772,414.1649999997442,0.0003941541
414.1799999997442,2.051266e-05,414.1799999997442,7.624477e-05,414.1799999997442,0.0004874131,414.1799999997442,0.0003662587
414.1949999997442,2.053119e-05,414.1949999997442,7.460705e-05,414.1949999997442,0.0004839434,414.1949999997442,0.0003515173
414.2099999997442,2.069248e-05,414.2099999997442,7.45209e-05,414.2099999997442,0.0004179233,414.2099999997442,0.0003917912
414.22499999974417,2.080721e-05,414.22499999974417,7.370818e-05,414.22499999974417,0.0004092733,414.22499999974417,0.0004115337
414.23999999974416,2.131751e-05,414.23999999974416,9.168149e-05,414.23999999974416,0.0003875389,414.23999999974416,0.0003983765
414.25499999974414,2.123276e-05,414.25499999974414,0.0001000541,414.25499999974414,0.0003861319,414.25499999974414,0.0004343404
414.26999999974413,2.150764e-05,414.26999999974413,0.0001047717,414.26999999974413,0.0003862983,414.26999999974413,0.0004791374
414.2849999997441,2.128577e-05,414.2849999997441,0.0001055449,414.2849999997441,0.0003871491,414.2849999997441,0.0004917883
414.2999999997441,2.165385e-05,414.2999999997441,0.0001060478,414.2999999997441,0.0003648403,414.2999999997441,0.0005016756
414.3149999997441,2.206053e-05,414.3149999997441,0.0001100131,414.3149999997441,0.0003519392,414.3149999997441,0.0005340771
414.3299999997441,2.229238e-05,414.3299999997441,0.0001112406,414.3299999997441,0.0003406989,414.3299999997441,0.000546038
414.34499999974406,2.211856e-05,414.34499999974406,0.0001080119,414.34499999974406,0.0003377038,414.34499999974406,0.0005259617
414.35999999974405,2.167596e-05,414.35999999974405,0.0001080954,414.35999999974405,0.0003234735,414.35999999974405,0.0005286332
414.37499999974403,2.161218e-05,414.37499999974403,0.000109987,414.37499999974403,0.0002688751,414.37499999974403,0.0005185878
414.389999999744,2.155082e-05,414.389999999744,0.0001086109,414.389999999744,0.0002648146,414.389999999744,0.0005232414
414.404999999744,2.184427e-05,414.404999999744,0.0001059013,414.404999999744,0.0002456061,414.404999999744,0.0005200422
414.419999999744,2.18475e-05,414.419999999744,0.0001066877,414.419999999744,0.0001531402,414.419999999744,0.0005079859
414.434999999744,2.3906e-05,414.434999999744,0.0001107435,414.434999999744,0.0001406524,414.434999999744,0.0005113744
414.44999999974397,2.382573e-05,414.44999999974397,0.0001122742,414.44999999974397,0.0001298639,414.44999999974397,0.0005119008
414.46499999974395,2.486436e-05,414.46499999974395,0.0001089173,414.46499999974395,0.0001124387,414.46499999974395,0.0004761407
414.47999999974394,2.47132e-05,414.47999999974394,0.0001027947,414.47999999974394,8.927387e-05,414.47999999974394,0.0004578705
414.4949999997439,2.550867e-05,414.4949999997439,8.057428e-05,414.4949999997439,8.441098e-05,414.4949999997439,0.0004554557
414.5099999997439,2.588745e-05,414.5099999997439,7.743346e-05,414.5099999997439,8.160166e-05,414.5099999997439,0.0004130891
414.5249999997439,2.571985e-05,414.5249999997439,7.525732e-05,414.5249999997439,7.262967e-05,414.5249999997439,0.0003547102
414.5399999997439,2.564031e-05,414.5399999997439,7.408239e-05,414.5399999997439,6.637477e-05,414.5399999997439,0.0003496008
414.55499999974387,2.671177e-05,414.55499999974387,6.865813e-05,414.55499999974387,6.43154e-05,414.55499999974387,0.0003223491
414.56999999974386,2.643399e-05,414.56999999974386,6.827277e-05,414.56999999974386,6.279715e-05,414.56999999974386,0.0002792534
414.58499999974384,2.656529e-05,414.58499999974384,6.863884e-05,414.58499999974384,5.222809e-05,414.58499999974384,0.000271965
414.59999999974383,2.656688e-05,414.59999999974383,7.489482e-05,414.59999999974383,4.237553e-05,414.59999999974383,0.0002618576
414.6149999997438,2.626398e-05,414.6149999997438,7.274091e-05,414.6149999997438,3.972996e-05,414.6149999997438,0.0002472459
414.6299999997438,2.64553e-05,414.6299999997438,6.964226e-05,414.6299999997438,3.939311e-05,414.6299999997438,0.0002414963
414.6449999997438,2.757023e-05,414.6449999997438,6.918871e-05,414.6449999997438,3.934875e-05,414.6449999997438,0.0002282085
414.6599999997438,2.64553e-05,414.6599999997438,7.063562e-05,414.6599999997438,3.813171e-05,414.6599999997438,0.0002157478
414.67499999974376,2.643399e-05,414.67499999974376,6.54371e-05,414.67499999974376,3.465182e-05,414.67499999974376,0.0002172459
414.68999999974375,2.493508e-05,414.68999999974375,6.217109e-05,414.68999999974375,3.362561e-05,414.68999999974375,0.0002016774
414.70499999974373,2.565789e-05,414.70499999974373,6.275519e-05,414.70499999974373,3.300575e-05,414.70499999974373,0.000193599
414.7199999997437,2.443634e-05,414.7199999997437,6.439639e-05,414.7199999997437,3.284017e-05,414.7199999997437,0.0001888736
414.7349999997437,2.428019e-05,414.7349999997437,6.549885e-05,414.7349999997437,3.173993e-05,414.7349999997437,0.000179927
414.7499999997437,2.276261e-05,414.7499999997437,6.500968e-05,414.7499999997437,3.137434e-05,414.7499999997437,0.0001715625
414.7649999997437,2.281947e-05,414.7649999997437,6.502615e-05,414.7649999997437,3.139185e-05,414.7649999997437,0.0001413215
414.77999999974367,2.332138e-05,414.77999999974367,6.40927e-05,414.77999999974367,3.153601e-05,414.77999999974367,0.0001377441
414.79499999974365,2.323485e-05,414.79499999974365,6.472411e-05,414.79499999974365,3.090569e-05,414.79499999974365,0.0001329987
414.80999999974364,2.336483e-05,414.80999999974364,6.590706e-05,414.80999999974364,3.016714e-05,414.80999999974364,0.0001332739
414.8249999997436,2.327543e-05,414.8249999997436,6.817614e-05,414.8249999997436,3.056746e-05,414.8249999997436,0.0001261707
414.8399999997436,2.350129e-05,414.8399999997436,6.326158e-05,414.8399999997436,3.028877e-05,414.8399999997436,0.0001184297
414.8549999997436,2.307912e-05,414.8549999997436,6.224582e-05,414.8549999997436,3.045018e-05,414.8549999997436,0.0001186353
414.8699999997436,2.326877e-05,414.8699999997436,6.254361e-05,414.8699999997436,3.027202e-05,414.8699999997436,0.0001189168
414.88499999974357,2.255247e-05,414.88499999974357,6.351802e-05,414.88499999974357,3.028458e-05,414.88499999974357,0.0001190251
414.89999999974356,2.155344e-05,414.89999999974356,6.424067e-05,414.89999999974356,3.061857e-05,414.89999999974356,0.0001045284
414.91499999974354,2.221325e-05,414.91499999974354,6.413642e-05,414.91499999974354,3.033942e-05,414.91499999974354,9.95196e-05
414.92999999974353,2.247363e-05,414.92999999974353,6.170714e-05,414.92999999974353,3.067695e-05,414.92999999974353,0.0001024607
414.9449999997435,2.230059e-05,414.9449999997435,6.063308e-05,414.9449999997435,2.971643e-05,414.9449999997435,0.0001024917
414.9599999997435,2.222212e-05,414.9599999997435,6.299715e-05,414.9599999997435,2.896312e-05,414.9599999997435,9.261492e-05
414.9749999997435,2.254872e-05,414.9749999997435,7.23878e-05,414.9749999997435,2.92838e-05,414.9749999997435,9.341666e-05
414.9899999997435,2.265529e-05,414.9899999997435,7.664059e-05,414.9899999997435,2.858517e-05,414.9899999997435,9.412856e-05
415.00499999974346,2.256808e-05,415.00499999974346,7.662809e-05,415.00499999974346,2.866637e-05,415.00499999974346,9.359443e-05
415.01999999974345,2.182686e-05,415.01999999974345,7.683811e-05,415.01999999974345,2.931073e-05,415.01999999974345,9.20899e-05
415.03499999974343,2.160305e-05,415.03499999974343,7.67741e-05,415.03499999974343,3.006704e-05,415.03499999974343,9.183685e-05
415.0499999997434,2.173243e-05,415.0499999997434,7.991475e-05,415.0499999997434,3.110333e-05,415.0499999997434,9.244959e-05
415.0649999997434,2.148208e-05,415.0649999997434,7.934033e-05,415.0649999997434,3.224978e-05,415.0649999997434,9.057609e-05
415.0799999997434,2.141443e-05,415.0799999997434,7.741126e-05,415.0799999997434,3.165282e-05,415.0799999997434,9.009737e-05
415.0949999997434,2.179004e-05,415.0949999997434,7.74631e-05,415.0949999997434,3.30066e-05,415.0949999997434,9.050358e-05
415.10999999974337,2.313947e-05,415.10999999974337,8.455438e-05,415.10999999974337,3.303561e-05,415.10999999974337,9.179665e-05
415.12499999974335,2.331836e-05,415.12499999974335,8.664988e-05,415.12499999974335,3.222093e-05,415.12499999974335,9.0272e-05
415.13999999974334,2.3407e-05,415.13999999974334,8.975729e-05,415.13999999974334,3.255323e-05,415.13999999974334,9.381661e-05
415.1549999997433,2.237437e-05,415.1549999997433,9.096763e-05,415.1549999997433,3.258048e-05,415.1549999997433,9.430051e-05
415.1699999997433,2.203241e-05,415.1699999997433,9.238633e-05,415.1699999997433,3.274867e-05,415.1699999997433,9.665362e-05
415.1849999997433,2.183073e-05,415.1849999997433,9.484641e-05,415.1849999997433,3.256621e-05,415.1849999997433,9.458062e-05
415.1999999997433,2.200042e-05,415.1999999997433,9.499882e-05,415.1999999997433,3.422273e-05,415.1999999997433,8.935367e-05
415.21499999974327,2.159979e-05,415.21499999974327,8.861995e-05,415.21499999974327,3.484519e-05,415.21499999974327,8.631581e-05
415.22999999974326,2.138086e-05,415.22999999974326,8.569637e-05,415.22999999974326,3.435788e-05,415.22999999974326,8.224784e-05
415.24499999974324,2.197928e-05,415.24499999974324,8.551091e-05,415.24499999974324,3.448597e-05,415.24499999974324,8.313877e-05
415.25999999974323,2.206946e-05,415.25999999974323,8.575618e-05,415.25999999974323,3.38619e-05,415.25999999974323,8.181407e-05
415.2749999997432,2.276694e-05,415.2749999997432,8.497384e-05,415.2749999997432,3.221394e-05,415.2749999997432,7.900174e-05
415.2899999997432,2.362862e-05,415.2899999997432,8.428623e-05,415.2899999997432,3.190681e-05,415.2899999997432,7.922271e-05
415.3049999997432,2.377364e-05,415.3049999997432,8.361588e-05,415.3049999997432,3.120823e-05,415.3049999997432,7.879212e-05
415.3199999997432,2.416971e-05,415.3199999997432,8.576341e-05,415.3199999997432,2.951475e-05,415.3199999997432,7.936696e-05
415.33499999974316,2.422559e-05,415.33499999974316,8.635692e-05,415.33499999974316,2.944068e-05,415.33499999974316,7.89393e-05
415.34999999974315,2.436937e-05,415.34999999974315,8.894062e-05,415.34999999974315,2.820816e-05,415.34999999974315,8.085648e-05
415.36499999974313,2.332984e-05,415.36499999974313,8.430177e-05,415.36499999974313,2.888958e-05,415.36499999974313,8.230092e-05
415.3799999997431,2.309132e-05,415.3799999997431,8.117468e-05,415.3799999997431,2.896068e-05,415.3799999997431,8.250606e-05
415.3949999997431,2.308034e-05,415.3949999997431,8.099226e-05,415.3949999997431,2.838142e-05,415.3949999997431,7.539533e-05
415.4099999997431,2.368638e-05,415.4099999997431,7.98779e-05,415.4099999997431,2.88525e-05,415.4099999997431,7.514961e-05
415.4249999997431,2.356295e-05,415.4249999997431,7.8309e-05,415.4249999997431,2.908833e-05,415.4249999997431,7.669168e-05
415.43999999974307,2.358625e-05,415.43999999974307,7.754363e-05,415.43999999974307,2.835212e-05,415.43999999974307,7.281078e-05
415.45499999974305,2.364828e-05,415.45499999974305,7.958036e-05,415.45499999974305,2.75068e-05,415.45499999974305,7.85954e-05
415.46999999974304,2.388242e-05,415.46999999974304,8.016414e-05,415.46999999974304,2.729396e-05,415.46999999974304,8.901519e-05
415.484999999743,2.329177e-05,415.484999999743,7.729271e-05,415.484999999743,2.921879e-05,415.484999999743,8.617142e-05
415.499999999743,2.271181e-05,415.499999999743,0.0002107348,415.499999999743,2.99431e-05,415.499999999743,9.175659e-05
415.514999999743,2.276199e-05,415.514999999743,0.0002360255,415.514999999743,3.005533e-05,415.514999999743,0.0001001284
415.529999999743,2.210454e-05,415.529999999743,0.0003049149,415.529999999743,2.962908e-05,415.529999999743,0.0001011167
415.54499999974297,2.157565e-05,415.54499999974297,0.0003494206,415.54499999974297,2.937553e-05,415.54499999974297,0.0001010349
415.55999999974296,2.131024e-05,415.55999999974296,0.000359183,415.55999999974296,2.815017e-05,415.55999999974296,0.0001014902
415.57499999974294,2.207457e-05,415.57499999974294,0.0003822337,415.57499999974294,2.792307e-05,415.57499999974294,0.0001023518
415.58999999974293,2.178874e-05,415.58999999974293,0.0004001047,415.58999999974293,2.741138e-05,415.58999999974293,0.0001028326
415.6049999997429,2.120621e-05,415.6049999997429,0.0004167114,415.6049999997429,2.606802e-05,415.6049999997429,0.0001045421
415.6199999997429,2.155017e-05,415.6199999997429,0.0004204746,415.6199999997429,2.566941e-05,415.6199999997429,0.0001043193
415.6349999997429,2.210709e-05,415.6349999997429,0.000422759,415.6349999997429,2.588092e-05,415.6349999997429,0.0001051589
415.6499999997429,2.264783e-05,415.6499999997429,0.0004235558,415.6499999997429,2.578003e-05,415.6499999997429,0.0001097273
415.66499999974286,2.195363e-05,415.66499999974286,0.0004251597,415.66499999974286,2.551584e-05,415.66499999974286,0.0001088253
415.67999999974285,2.296654e-05,415.67999999974285,0.0004254922,415.67999999974285,2.521317e-05,415.67999999974285,0.0001057058
415.69499999974283,2.286141e-05,415.69499999974283,0.0004264683,415.69499999974283,2.634271e-05,415.69499999974283,0.0001085968
415.7099999997428,2.29383e-05,415.7099999997428,0.0004285098,415.7099999997428,2.630418e-05,415.7099999997428,0.0001114687
415.7249999997428,2.295979e-05,415.7249999997428,0.0004285789,415.7249999997428,2.571382e-05,415.7249999997428,0.0001060734
415.7399999997428,2.298616e-05,415.7399999997428,0.0004292724,415.7399999997428,2.296715e-05,415.7399999997428,0.0001062902
415.7549999997428,2.381863e-05,415.7549999997428,0.0004075021,415.7549999997428,2.27589e-05,415.7549999997428,9.685251e-05
415.76999999974277,2.371253e-05,415.76999999974277,0.0003941935,415.76999999974277,2.279353e-05,415.76999999974277,8.978067e-05
415.78499999974275,2.339857e-05,415.78499999974275,0.0003595624,415.78499999974275,2.292602e-05,415.78499999974275,8.918388e-05
415.79999999974274,2.307607e-05,415.79999999974274,0.0003559395,415.79999999974274,2.268823e-05,415.79999999974274,8.969811e-05
415.8149999997427,2.285155e-05,415.8149999997427,0.0003513284,415.8149999997427,2.40429e-05,415.8149999997427,8.911688e-05
415.8299999997427,2.229174e-05,415.8299999997427,0.000333026,415.8299999997427,2.433872e-05,415.8299999997427,8.913538e-05
415.8449999997427,2.24341e-05,415.8449999997427,0.000315788,415.8449999997427,2.466641e-05,415.8449999997427,8.82421e-05
415.8599999997427,2.321422e-05,415.8599999997427,0.0002943934,415.8599999997427,2.474055e-05,415.8599999997427,8.891939e-05
415.87499999974267,2.28312e-05,415.87499999974267,0.0002905587,415.87499999974267,2.424477e-05,415.87499999974267,8.997659e-05
415.88999999974266,2.217199e-05,415.88999999974266,0.0002914226,415.88999999974266,2.324576e-05,415.88999999974266,9.328357e-05
415.90499999974264,2.156324e-05,415.90499999974264,0.0002907976,415.90499999974264,2.34773e-05,415.90499999974264,9.714701e-05
415.91999999974263,2.234602e-05,415.91999999974263,0.0002906851,415.91999999974263,2.377068e-05,415.91999999974263,9.632295e-05
415.9349999997426,2.133271e-05,415.9349999997426,0.0002889905,415.9349999997426,2.402239e-05,415.9349999997426,9.931059e-05
415.9499999997426,2.142364e-05,415.9499999997426,0.000286455,415.9499999997426,2.467841e-05,415.9499999997426,9.474596e-05
415.9649999997426,2.094487e-05,415.9649999997426,0.0002871465,415.9649999997426,2.499376e-05,415.9649999997426,8.770938e-05
415.9799999997426,2.07618e-05,415.9799999997426,0.0002897761,415.9799999997426,2.472972e-05,415.9799999997426,8.911498e-05
415.99499999974256,1.981901e-05,415.99499999974256,0.0002666428,415.99499999974256,2.445535e-05,415.99499999974256,8.864824e-05
416.00999999974255,1.995501e-05,416.00999999974255,0.0002252103,416.00999999974255,2.417379e-05,416.00999999974255,9.011582e-05
416.02499999974253,2.218152e-05,416.02499999974253,0.0002168684,416.02499999974253,2.423955e-05,416.02499999974253,9.125829e-05
416.0399999997425,2.179262e-05,416.0399999997425,0.0001679732,416.0399999997425,2.435723e-05,416.0399999997425,9.160694e-05
416.0549999997425,2.235044e-05,416.0549999997425,0.0001260972,416.0549999997425,2.460523e-05,416.0549999997425,9.169655e-05
416.0699999997425,2.229996e-05,416.0699999997425,0.0001189202,416.0699999997425,2.40675e-05,416.0699999997425,9.143178e-05
416.0849999997425,2.184234e-05,416.0849999997425,9.765667e-05,416.0849999997425,2.449564e-05,416.0849999997425,8.955744e-05
416.09999999974247,2.183911e-05,416.09999999974247,9.735473e-05,416.09999999974247,2.49153e-05,416.09999999974247,8.796806e-05
416.11499999974245,2.228479e-05,416.11499999974245,9.537796e-05,416.11499999974245,2.467841e-05,416.11499999974245,8.008449e-05
416.12999999974244,2.218088e-05,416.12999999974244,9.985224e-05,416.12999999974244,2.495371e-05,416.12999999974244,7.899728e-05
416.1449999997424,2.201706e-05,416.1449999997424,9.660537e-05,416.1449999997424,2.65796e-05,416.1449999997424,7.035667e-05
416.1599999997424,2.207265e-05,416.1599999997424,9.350709e-05,416.1599999997424,2.694072e-05,416.1599999997424,5.838766e-05
416.1749999997424,2.170583e-05,416.1749999997424,9.081869e-05,416.1749999997424,2.600472e-05,416.1749999997424,5.714201e-05
416.1899999997424,2.288605e-05,416.1899999997424,9.316586e-05,416.1899999997424,2.561943e-05,416.1899999997424,5.016643e-05
416.20499999974237,2.252247e-05,416.20499999974237,8.949261e-05,416.20499999974237,2.39907e-05,416.20499999974237,5.603752e-05
416.21999999974236,2.225949e-05,416.21999999974236,8.073897e-05,416.21999999974236,2.344668e-05,416.21999999974236,5.333804e-05
416.23499999974234,2.244038e-05,416.23499999974234,7.454491e-05,416.23499999974234,2.403118e-05,416.23499999974234,5.252582e-05
416.24999999974233,2.25949e-05,416.24999999974233,7.60733e-05,416.24999999974233,2.487116e-05,416.24999999974233,5.4698e-05
416.2649999997423,2.052296e-05,416.2649999997423,7.624624e-05,416.2649999997423,2.473257e-05,416.2649999997423,5.499311e-05
416.2799999997423,2.074144e-05,416.2799999997423,7.959824e-05,416.2799999997423,2.453414e-05,416.2799999997423,6.108167e-05
416.2949999997423,2.072853e-05,416.2949999997423,8.332443e-05,416.2949999997423,2.385468e-05,416.2949999997423,6.682508e-05
416.3099999997423,2.079909e-05,416.3099999997423,8.27209e-05,416.3099999997423,2.334372e-05,416.3099999997423,8.384754e-05
416.32499999974226,2.052364e-05,416.32499999974226,8.306553e-05,416.32499999974226,2.3659e-05,416.32499999974226,8.794067e-05
416.33999999974225,2.062908e-05,416.33999999974225,8.241535e-05,416.33999999974225,2.345209e-05,416.33999999974225,0.0001017622
416.35499999974223,2.09778e-05,416.35499999974223,9.511263e-05,416.35499999974223,2.360237e-05,416.35499999974223,0.0001119826
416.3699999997422,2.016009e-05,416.3699999997422,9.523503e-05,416.3699999997422,2.638599e-05,416.3699999997422,0.0001123294
416.3849999997422,2.024585e-05,416.3849999997422,8.791872e-05,416.3849999997422,2.811212e-05,416.3849999997422,0.0001177552
416.3999999997422,2.029796e-05,416.3999999997422,9.270537e-05,416.3999999997422,2.729241e-05,416.3999999997422,0.0001228206
416.4149999997422,2.055314e-05,416.4149999997422,0.0001034503,416.4149999997422,2.671968e-05,416.4149999997422,0.0001224738
416.42999999974217,2.092737e-05,416.42999999974217,0.0001032034,416.42999999974217,2.695326e-05,416.42999999974217,0.0001242037
416.44499999974215,2.032432e-05,416.44499999974215,9.863253e-05,416.44499999974215,2.704561e-05,416.44499999974215,0.000123947
416.45999999974214,2.065228e-05,416.45999999974214,0.0001030326,416.45999999974214,2.802379e-05,416.45999999974214,0.0001225621
416.4749999997421,2.079502e-05,416.4749999997421,0.0001065143,416.4749999997421,2.791298e-05,416.4749999997421,0.0001244757
416.4899999997421,2.076927e-05,416.4899999997421,0.0001050109,416.4899999997421,2.748784e-05,416.4899999997421,0.0001276027
416.5049999997421,2.179844e-05,416.5049999997421,0.0001027845,416.5049999997421,2.788319e-05,416.5049999997421,0.000127944
416.5199999997421,2.142167e-05,416.5199999997421,0.000101503,416.5199999997421,2.913043e-05,416.5199999997421,0.0001298597
416.53499999974207,2.108897e-05,416.53499999974207,9.684523e-05,416.53499999974207,3.073521e-05,416.53499999974207,0.0001350196
416.54999999974206,2.105354e-05,416.54999999974206,9.492791e-05,416.54999999974206,3.075079e-05,416.54999999974206,0.0001292177
416.56499999974204,2.130231e-05,416.56499999974204,9.57169e-05,416.56499999974204,3.129792e-05,416.56499999974204,0.0001215295
416.57999999974203,2.173372e-05,416.57999999974203,9.59606e-05,416.57999999974203,3.105665e-05,416.57999999974203,0.0001195091
416.594999999742,2.117829e-05,416.594999999742,9.352065e-05,416.594999999742,3.226375e-05,416.594999999742,0.0001090532
416.609999999742,2.113635e-05,416.609999999742,8.381629e-05,416.609999999742,3.194432e-05,416.609999999742,0.0001036855
416.624999999742,2.136702e-05,416.624999999742,8.396506e-05,416.624999999742,3.054533e-05,416.624999999742,0.0001020937
416.639999999742,2.148864e-05,416.639999999742,8.904762e-05,416.639999999742,2.935731e-05,416.639999999742,9.812952e-05
416.65499999974196,2.129107e-05,416.65499999974196,7.33215e-05,416.65499999974196,2.886226e-05,416.65499999974196,9.315013e-05
416.66999999974195,2.07163e-05,416.66999999974195,7.252874e-05,416.66999999974195,3.057069e-05,416.66999999974195,9.577458e-05
416.68499999974193,1.99938e-05,416.68499999974193,7.256427e-05,416.68499999974193,3.170352e-05,416.68499999974193,9.476513e-05
416.6999999997419,1.97478e-05,416.6999999997419,7.298818e-05,416.6999999997419,3.23052e-05,416.6999999997419,9.409488e-05
416.7149999997419,1.979412e-05,416.7149999997419,6.927396e-05,416.7149999997419,3.181175e-05,416.7149999997419,9.437308e-05
416.7299999997419,1.950015e-05,416.7299999997419,6.433007e-05,416.7299999997419,3.197253e-05,416.7299999997419,8.89935e-05
416.7449999997419,1.804906e-05,416.7449999997419,6.792525e-05,416.7449999997419,3.222006e-05,416.7449999997419,8.473494e-05
416.75999999974186,1.779281e-05,416.75999999974186,7.014773e-05,416.75999999974186,3.092665e-05,416.75999999974186,8.236525e-05
416.77499999974185,1.82578e-05,416.77499999974185,7.092539e-05,416.77499999974185,3.123169e-05,416.77499999974185,7.449406e-05
416.78999999974184,1.887912e-05,416.78999999974184,7.10036e-05,416.78999999974184,2.980305e-05,416.78999999974184,6.836617e-05
416.8049999997418,1.870295e-05,416.8049999997418,7.095934e-05,416.8049999997418,2.955434e-05,416.8049999997418,6.715522e-05
416.8199999997418,1.847562e-05,416.8199999997418,7.50211e-05,416.8199999997418,2.954814e-05,416.8199999997418,6.771859e-05
416.8349999997418,1.81921e-05,416.8349999997418,7.50836e-05,416.8349999997418,2.800468e-05,416.8349999997418,6.409072e-05
416.8499999997418,1.830019e-05,416.8499999997418,7.59189e-05,416.8499999997418,2.973728e-05,416.8499999997418,6.280882e-05
416.86499999974177,1.923321e-05,416.86499999974177,8.226188e-05,416.86499999974177,2.90287e-05,416.86499999974177,6.43791e-05
416.87999999974176,1.881634e-05,416.87999999974176,8.1735e-05,416.87999999974176,2.889299e-05,416.87999999974176,6.71355e-05
416.89499999974174,1.886121e-05,416.89499999974174,8.596159e-05,416.89499999974174,2.901123e-05,416.89499999974174,7.415594e-05
416.90999999974173,1.879087e-05,416.90999999974173,9.172573e-05,416.90999999974173,2.944594e-05,416.90999999974173,7.834731e-05
416.9249999997417,1.920609e-05,416.9249999997417,9.303603e-05,416.9249999997417,2.821915e-05,416.9249999997417,7.947959e-05
416.9399999997417,1.909576e-05,416.9399999997417,9.316223e-05,416.9399999997417,2.718225e-05,416.9399999997417,8.511595e-05
416.9549999997417,1.981474e-05,416.9549999997417,9.16277e-05,416.9549999997417,2.67065e-05,416.9549999997417,8.542388e-05
416.9699999997417,2.09038e-05,416.9699999997417,9.265293e-05,416.9699999997417,2.789632e-05,416.9699999997417,9.503025e-05
416.98499999974166,2.165971e-05,416.98499999974166,0.000100971,416.98499999974166,2.762637e-05,416.98499999974166,9.51609e-05
416.99999999974165,2.224113e-05,416.99999999974165,9.945603e-05,416.99999999974165,2.713713e-05,416.99999999974165,0.0001045049
417.01499999974163,2.2205e-05,417.01499999974163,9.934846e-05,417.01499999974163,2.74422e-05,417.01499999974163,0.0001134704
417.0299999997416,2.199786e-05,417.0299999997416,0.0001013107,417.0299999997416,2.676077e-05,417.0299999997416,0.0001138927
417.0449999997416,2.34899e-05,417.0449999997416,0.0001016517,417.0449999997416,2.719727e-05,417.0449999997416,0.0001141472
417.0599999997416,2.36715e-05,417.0599999997416,9.938957e-05,417.0599999997416,2.718691e-05,417.0599999997416,0.0001134011
417.0749999997416,2.371015e-05,417.0749999997416,0.0001040818,417.0749999997416,2.744168e-05,417.0749999997416,0.0001248443
417.08999999974156,2.429527e-05,417.08999999974156,0.000105849,417.08999999974156,2.774899e-05,417.08999999974156,0.0001251279
417.10499999974155,2.463327e-05,417.10499999974155,0.0001027765,417.10499999974155,2.608152e-05,417.10499999974155,0.0001267295
417.11999999974154,2.433177e-05,417.11999999974154,0.0001063501,417.11999999974154,2.700495e-05,417.11999999974154,0.0001282792
417.1349999997415,2.467955e-05,417.1349999997415,0.0001054135,417.1349999997415,2.732439e-05,417.1349999997415,0.00012662
417.1499999997415,2.52154e-05,417.1499999997415,0.0001113654,417.1499999997415,2.635928e-05,417.1499999997415,0.0001229494
417.1649999997415,2.561667e-05,417.1649999997415,0.0001081785,417.1649999997415,2.615918e-05,417.1649999997415,0.0001231511
417.1799999997415,2.549099e-05,417.1799999997415,0.0001086978,417.1799999997415,2.578057e-05,417.1799999997415,0.0001180128
417.19499999974147,2.547109e-05,417.19499999974147,0.0001105216,417.19499999974147,2.613225e-05,417.19499999974147,0.0001226017
417.20999999974146,2.549762e-05,417.20999999974146,0.0001101688,417.20999999974146,2.608962e-05,417.20999999974146,0.0001254291
417.22499999974144,2.434277e-05,417.22499999974144,0.0001079866,417.22499999974144,2.587057e-05,417.22499999974144,0.000117765
417.2399999997414,2.380147e-05,417.2399999997414,9.929371e-05,417.2399999997414,2.621996e-05,417.2399999997414,0.0001204472
417.2549999997414,2.341301e-05,417.2549999997414,0.0001011719,417.2549999997414,2.598521e-05,417.2549999997414,0.0001127638
417.2699999997414,2.375645e-05,417.2699999997414,0.0001017225,417.2699999997414,2.592605e-05,417.2699999997414,0.0001057364
417.2849999997414,2.294199e-05,417.2849999997414,0.0001008247,417.2849999997414,2.609125e-05,417.2849999997414,0.0001051527
417.2999999997414,2.218977e-05,417.2999999997414,0.0001022658,417.2999999997414,2.585696e-05,417.2999999997414,0.0001045171
417.31499999974136,2.168506e-05,417.31499999974136,9.959826e-05,417.31499999974136,2.584115e-05,417.31499999974136,0.0001080917
417.32999999974135,2.168116e-05,417.32999999974135,9.465909e-05,417.32999999974135,2.558256e-05,417.32999999974135,9.921438e-05
417.34499999974133,2.027435e-05,417.34499999974133,9.517052e-05,417.34499999974133,2.532244e-05,417.34499999974133,0.0001011144
417.3599999997413,2.013701e-05,417.3599999997413,9.845199e-05,417.3599999997413,2.472118e-05,417.3599999997413,9.843081e-05
417.3749999997413,1.968636e-05,417.3749999997413,9.474328e-05,417.3749999997413,2.374577e-05,417.3749999997413,9.487641e-05
417.3899999997413,1.968207e-05,417.3899999997413,9.132695e-05,417.3899999997413,2.36322e-05,417.3899999997413,9.527599e-05
417.4049999997413,1.862143e-05,417.4049999997413,8.050957e-05,417.4049999997413,2.313399e-05,417.4049999997413,9.375954e-05
417.41999999974126,1.863202e-05,417.41999999974126,9.57606e-05,417.41999999974126,2.323606e-05,417.41999999974126,9.436397e-05
417.43499999974125,1.845578e-05,417.43499999974125,9.715383e-05,417.43499999974125,2.296592e-05,417.43499999974125,9.187259e-05
417.44999999974124,1.952181e-05,417.44999999974124,0.0001041037,417.44999999974124,2.389185e-05,417.44999999974124,8.471798e-05
417.4649999997412,1.914144e-05,417.4649999997412,0.0001150419,417.4649999997412,2.331413e-05,417.4649999997412,8.117572e-05
417.4799999997412,1.973139e-05,417.4799999997412,0.0001163681,417.4799999997412,2.425117e-05,417.4799999997412,8.18089e-05
417.4949999997412,1.961037e-05,417.4949999997412,0.0001174296,417.4949999997412,2.372322e-05,417.4949999997412,8.776493e-05
417.5099999997412,2.052982e-05,417.5099999997412,0.0001164107,417.5099999997412,2.43526e-05,417.5099999997412,8.6043e-05
417.52499999974117,2.1107e-05,417.52499999974117,0.0001169031,417.52499999974117,2.446802e-05,417.52499999974117,9.233203e-05
417.53999999974116,2.115367e-05,417.53999999974116,0.0001176368,417.53999999974116,2.391425e-05,417.53999999974116,0.0001106525
417.55499999974114,2.138613e-05,417.55499999974114,0.0001291476,417.55499999974114,2.472688e-05,417.55499999974114,0.000111294
417.5699999997411,2.123873e-05,417.5699999997411,0.0001369175,417.5699999997411,2.417146e-05,417.5699999997411,0.0001086481
417.5849999997411,2.215165e-05,417.5849999997411,0.0001361367,417.5849999997411,2.627524e-05,417.5849999997411,0.0001153958
417.5999999997411,2.259241e-05,417.5999999997411,0.0001295242,417.5999999997411,2.672495e-05,417.5999999997411,0.0001307553
417.6149999997411,2.257681e-05,417.6149999997411,0.0001310645,417.6149999997411,2.685483e-05,417.6149999997411,0.000136266
417.6299999997411,2.217898e-05,417.6299999997411,0.0001329281,417.6299999997411,2.91343e-05,417.6299999997411,0.0001382223
417.64499999974106,2.241589e-05,417.64499999974106,0.0001335109,417.64499999974106,2.901705e-05,417.64499999974106,0.0001489998
417.65999999974105,2.29929e-05,417.65999999974105,0.0001313839,417.65999999974105,3.000654e-05,417.65999999974105,0.0001681007
417.67499999974103,2.291926e-05,417.67499999974103,0.0001191568,417.67499999974103,3.056331e-05,417.67499999974103,0.0001718371
417.689999999741,2.281577e-05,417.689999999741,0.0001216623,417.689999999741,3.030783e-05,417.689999999741,0.0001997807
417.704999999741,2.203177e-05,417.704999999741,0.0001143996,417.704999999741,2.950568e-05,417.704999999741,0.000232543
417.719999999741,2.300514e-05,417.719999999741,0.0001111528,417.719999999741,2.946412e-05,417.719999999741,0.0002350936
417.734999999741,2.236241e-05,417.734999999741,0.0001141591,417.734999999741,2.850671e-05,417.734999999741,0.0002428365
417.74999999974096,2.106424e-05,417.74999999974096,0.0001145648,417.74999999974096,2.906216e-05,417.74999999974096,0.000247825
417.76499999974095,2.116032e-05,417.76499999974095,0.0001154899,417.76499999974095,2.842853e-05,417.76499999974095,0.0002498938
417.77999999974094,2.035548e-05,417.77999999974094,0.0001156845,417.77999999974094,2.811913e-05,417.77999999974094,0.0002498117
417.7949999997409,2.012302e-05,417.7949999997409,0.0001079747,417.7949999997409,2.97387e-05,417.7949999997409,0.0002461954
417.8099999997409,2.05819e-05,417.8099999997409,9.989201e-05,417.8099999997409,3.032363e-05,417.8099999997409,0.0002449967
417.8249999997409,2.008378e-05,417.8249999997409,9.230075e-05,417.8249999997409,2.967658e-05,417.8249999997409,0.000246255
417.8399999997409,2.000507e-05,417.8399999997409,9.935995e-05,417.8399999997409,2.934627e-05,417.8399999997409,0.0002400813
417.85499999974087,2.087076e-05,417.85499999974087,9.90292e-05,417.85499999974087,2.907428e-05,417.85499999974087,0.0002353183
417.86999999974086,2.066387e-05,417.86999999974086,0.0001023774,417.86999999974086,2.906556e-05,417.86999999974086,0.0002337454
417.88499999974084,2.078486e-05,417.88499999974084,0.0001012543,417.88499999974084,2.737847e-05,417.88499999974084,0.0002357365
417.8999999997408,2.029519e-05,417.8999999997408,9.996913e-05,417.8999999997408,2.678918e-05,417.8999999997408,0.0002301963
417.9149999997408,1.957658e-05,417.9149999997408,0.0001005278,417.9149999997408,2.64521e-05,417.9149999997408,0.000218838
417.9299999997408,2.100062e-05,417.9299999997408,0.0001003458,417.9299999997408,2.536801e-05,417.9299999997408,0.000218096
417.9449999997408,2.060516e-05,417.9449999997408,9.56723e-05,417.9449999997408,2.57193e-05,417.9449999997408,0.000180413
417.9599999997408,1.986303e-05,417.9599999997408,9.044941e-05,417.9599999997408,2.627417e-05,417.9599999997408,0.0001545598
417.97499999974076,2.009359e-05,417.97499999974076,9.254934e-05,417.97499999974076,2.634057e-05,417.97499999974076,0.000153343
417.98999999974075,2.070337e-05,417.98999999974075,8.922857e-05,417.98999999974075,2.636836e-05,417.98999999974075,0.0001372445
418.00499999974073,2.315346e-05,418.00499999974073,8.60317e-05,418.00499999974073,2.653133e-05,418.00499999974073,0.0001295654
418.0199999997407,2.291311e-05,418.0199999997407,8.547615e-05,418.0199999997407,2.694699e-05,418.0199999997407,0.0001280497
418.0349999997407,2.301004e-05,418.0349999997407,8.548356e-05,418.0349999997407,2.587112e-05,418.0349999997407,0.000123713
418.0499999997407,2.319176e-05,418.0499999997407,8.30289e-05,418.0499999997407,2.42349e-05,418.0499999997407,0.0001200367
418.0649999997407,2.244791e-05,418.0649999997407,8.277521e-05,418.0649999997407,2.267456e-05,418.0649999997407,0.0001158728
418.07999999974066,2.274404e-05,418.07999999974066,8.60759e-05,418.07999999974066,2.29383e-05,418.07999999974066,0.0001149121
418.09499999974065,2.256558e-05,418.09499999974065,8.021877e-05,418.09499999974065,2.307729e-05,418.09499999974065,0.0001119855
418.10999999974064,2.173567e-05,418.10999999974064,7.268492e-05,418.10999999974064,2.314434e-05,418.10999999974064,0.0001090965
418.1249999997406,2.171038e-05,418.1249999997406,7.431382e-05,418.1249999997406,2.336905e-05,418.1249999997406,0.000104843
418.1399999997406,2.203241e-05,418.1399999997406,7.634539e-05,418.1399999997406,2.260238e-05,418.1399999997406,9.717355e-05
418.1549999997406,2.241023e-05,418.1549999997406,9.649755e-05,418.1549999997406,2.299351e-05,418.1549999997406,9.555444e-05
418.1699999997406,2.200298e-05,418.1699999997406,9.944271e-05,418.1699999997406,2.338652e-05,418.1699999997406,7.853335e-05
418.18499999974057,2.153775e-05,418.18499999974057,9.890038e-05,418.18499999974057,2.372678e-05,418.18499999974057,8.468422e-05
418.19999999974056,2.144927e-05,418.19999999974056,0.0001017993,418.19999999974056,2.29045e-05,418.19999999974056,8.334285e-05
418.21499999974054,2.154232e-05,418.21499999974054,0.0001109276,418.21499999974054,2.231259e-05,418.21499999974054,9.228748e-05
418.2299999997405,2.058396e-05,418.2299999997405,0.0001090668,418.2299999997405,2.280465e-05,418.2299999997405,9.261613e-05
418.2449999997405,2.081263e-05,418.2449999997405,0.0001084922,418.2449999997405,2.153644e-05,418.2449999997405,9.165306e-05
418.2599999997405,2.002337e-05,418.2599999997405,0.0001080859,418.2599999997405,2.130033e-05,418.2599999997405,9.061807e-05
418.2749999997405,2.008658e-05,418.2749999997405,0.0001077238,418.2749999997405,2.109498e-05,418.2749999997405,8.352671e-05
418.2899999997405,2.006904e-05,418.2899999997405,0.000106724,418.2899999997405,2.109565e-05,418.2899999997405,8.222506e-05
418.30499999974046,2.0055e-05,418.30499999974046,0.000106612,418.30499999974046,2.23353e-05,418.30499999974046,8.396506e-05
418.31999999974045,2.125001e-05,418.31999999974045,0.0001097631,418.31999999974045,2.214211e-05,418.31999999974045,8.387509e-05
418.33499999974043,2.082954e-05,418.33499999974043,0.000112281,418.33499999974043,2.196325e-05,418.33499999974043,8.222437e-05
418.3499999997404,2.133271e-05,418.3499999997404,0.0001107443,418.3499999997404,2.120621e-05,418.3499999997404,8.199895e-05
418.3649999997404,2.234539e-05,418.3649999997404,0.0001120447,418.3649999997404,2.119558e-05,418.3649999997404,8.198916e-05
418.3799999997404,2.251559e-05,418.3799999997404,0.0001102446,418.3799999997404,2.091189e-05,418.3799999997404,8.167828e-05
418.3949999997404,2.219358e-05,418.3949999997404,0.0001088458,418.3949999997404,2.12818e-05,418.3949999997404,8.373406e-05
418.40999999974036,2.207776e-05,418.40999999974036,9.216987e-05,418.40999999974036,2.050442e-05,418.40999999974036,9.196055e-05
