X[s],a: EMG RMS 1-1,X[s].1,a: EMG RMS 1-2,X[s].2,a: EMG RMS 1-3,X[s].3,a: EMG RMS 1-4
259.00499999988534,5.335019e-05,259.00499999988534,0.002759123,259.00499999988534,0.0006782294,259.00499999988534,7.657808e-05
259.01999999988533,5.542533e-05,259.01999999988533,0.002841292,259.01999999988533,0.000690852,259.01999999988533,7.916543e-05
259.0349999998853,5.585422e-05,259.0349999998853,0.002916064,259.0349999998853,0.0007076047,259.0349999998853,8.71587e-05
259.0499999998853,5.521373e-05,259.0499999998853,0.003131332,259.0499999998853,0.000700149,259.0499999998853,8.856413e-05
259.0649999998853,5.632436e-05,259.0649999998853,0.003320813,259.0649999998853,0.0006907148,259.0649999998853,8.946365e-05
259.0799999998853,5.68516e-05,259.0799999998853,0.003420756,259.0799999998853,0.000692216,259.0799999998853,9.128237e-05
259.09499999988526,5.693059e-05,259.09499999988526,0.003688252,259.09499999988526,0.000691635,259.09499999988526,9.155295e-05
259.10999999988525,5.853705e-05,259.10999999988525,0.004007831,259.10999999988525,0.0006951359,259.10999999988525,9.192547e-05
259.12499999988523,5.874364e-05,259.12499999988523,0.004266783,259.12499999988523,0.000696497,259.12499999988523,9.572161e-05
259.1399999998852,5.798967e-05,259.1399999998852,0.004374981,259.1399999998852,0.0007058511,259.1399999998852,9.692345e-05
259.1549999998852,5.746159e-05,259.1549999998852,0.004463293,259.1549999998852,0.000701753,259.1549999998852,9.723703e-05
259.1699999998852,5.734232e-05,259.1699999998852,0.004624185,259.1699999998852,0.0006951899,259.1699999998852,9.705649e-05
259.1849999998852,5.640409e-05,259.1849999998852,0.004636975,259.1849999998852,0.0006935158,259.1849999998852,9.740463e-05
259.19999999988516,5.512947e-05,259.19999999988516,0.004637855,259.19999999988516,0.0006987222,259.19999999988516,9.643432e-05
259.21499999988515,5.388118e-05,259.21499999988515,0.004543167,259.21499999988515,0.0006811017,259.21499999988515,9.348118e-05
259.22999999988514,3.68103e-05,259.22999999988514,0.004421087,259.22999999988514,0.0005777645,259.22999999988514,7.217147e-05
259.2449999998851,3.175812e-05,259.2449999998851,0.004304977,259.2449999998851,0.0005347292,259.2449999998851,6.661543e-05
259.2599999998851,3.1434e-05,259.2599999998851,0.004063789,259.2599999998851,0.000440362,259.2599999998851,6.623816e-05
259.2749999998851,2.842803e-05,259.2749999998851,0.003889585,259.2749999998851,0.000429421,259.2749999998851,6.145071e-05
259.2899999998851,2.826852e-05,259.2899999998851,0.003991357,259.2899999998851,0.0003811193,259.2899999998851,5.402895e-05
259.30499999988507,2.755745e-05,259.30499999988507,0.003801749,259.30499999988507,0.0003658608,259.30499999988507,5.470675e-05
259.31999999988506,2.525894e-05,259.31999999988506,0.003548171,259.31999999988506,0.0003653534,259.31999999988506,4.841571e-05
259.33499999988504,2.507816e-05,259.33499999988504,0.003399065,259.33499999988504,0.0003661025,259.33499999988504,5.29694e-05
259.34999999988503,2.588527e-05,259.34999999988503,0.003302471,259.34999999988503,0.0003685947,259.34999999988503,5.994568e-05
259.364999999885,2.251559e-05,259.364999999885,0.003233603,259.364999999885,0.0003610242,259.364999999885,6.24742e-05
259.379999999885,2.251559e-05,259.379999999885,0.002886651,259.379999999885,0.0003444972,259.379999999885,5.570041e-05
259.394999999885,2.318872e-05,259.394999999885,0.002786958,259.394999999885,0.0003116656,259.394999999885,5.880643e-05
259.409999999885,2.368995e-05,259.409999999885,0.00261899,259.409999999885,0.0003070375,259.409999999885,6.013174e-05
259.42499999988496,2.249618e-05,259.42499999988496,0.002459427,259.42499999988496,0.0002986025,259.42499999988496,6.028569e-05
259.43999999988495,2.28275e-05,259.43999999988495,0.002431785,259.43999999988495,0.0002705428,259.43999999988495,5.978591e-05
259.45499999988493,2.278055e-05,259.45499999988493,0.002548629,259.45499999988493,0.0002473957,259.45499999988493,5.991536e-05
259.4699999998849,2.194208e-05,259.4699999998849,0.002654945,259.4699999998849,0.0002436808,259.4699999998849,5.964225e-05
259.4849999998849,2.368102e-05,259.4849999998849,0.00266339,259.4849999998849,0.0002350719,259.4849999998849,6.156384e-05
259.4999999998849,2.526006e-05,259.4999999998849,0.002688907,259.4999999998849,0.0002146198,259.4999999998849,6.628515e-05
259.5149999998849,2.515724e-05,259.5149999998849,0.002724573,259.5149999998849,0.0002038111,259.5149999998849,6.715208e-05
259.52999999988486,2.508265e-05,259.52999999988486,0.002623997,259.52999999988486,0.0002041882,259.52999999988486,6.78059e-05
259.54499999988485,2.313581e-05,259.54499999988485,0.002494047,259.54499999988485,0.0001996291,259.54499999988485,6.583415e-05
259.55999999988484,2.300331e-05,259.55999999988484,0.002677252,259.55999999988484,0.0001890535,259.55999999988484,6.318984e-05
259.5749999998848,2.296899e-05,259.5749999998848,0.002790694,259.5749999998848,0.0001955836,259.5749999998848,6.228157e-05
259.5899999998848,2.335579e-05,259.5899999998848,0.002746425,259.5899999998848,0.0002190395,259.5899999998848,5.754341e-05
259.6049999998848,2.251621e-05,259.6049999998848,0.002612258,259.6049999998848,0.0002186727,259.6049999998848,5.228847e-05
259.6199999998848,2.210836e-05,259.6199999998848,0.002376696,259.6199999998848,0.0002257149,259.6199999998848,5.032175e-05
259.63499999988477,2.373153e-05,259.63499999988477,0.002324255,259.63499999988477,0.0002552585,259.63499999988477,5.089847e-05
259.64999999988476,2.36602e-05,259.64999999988476,0.002334447,259.64999999988476,0.0002616056,259.64999999988476,4.712111e-05
259.66499999988474,2.518242e-05,259.66499999988474,0.002355606,259.66499999988474,0.0002866579,259.66499999988474,4.710288e-05
259.6799999998847,2.565679e-05,259.6799999998847,0.00235688,259.6799999998847,0.0002886276,259.6799999998847,4.66186e-05
259.6949999998847,2.772461e-05,259.6949999998847,0.002368217,259.6949999998847,0.0003029067,259.6949999998847,4.747404e-05
259.7099999998847,3.362603e-05,259.7099999998847,0.002396664,259.7099999998847,0.0003695831,259.7099999998847,5.182113e-05
259.7249999998847,3.445451e-05,259.7249999998847,0.002502851,259.7249999998847,0.0003805801,259.7249999998847,5.216305e-05
259.7399999998847,4.013668e-05,259.7399999998847,0.002599003,259.7399999998847,0.0004447123,259.7399999998847,4.950585e-05
259.75499999988466,5.185781e-05,259.75499999988466,0.002904457,259.75499999988466,0.0005648118,259.75499999988466,5.022284e-05
259.76999999988465,5.362619e-05,259.76999999988465,0.003154812,259.76999999988465,0.0005909527,259.76999999988465,5.938804e-05
259.78499999988463,5.4194e-05,259.78499999988463,0.00323939,259.78499999988463,0.0005959244,259.78499999988463,6.212395e-05
259.7999999998846,5.714348e-05,259.7999999998846,0.003166689,259.7999999998846,0.0006202183,259.7999999998846,6.324978e-05
259.8149999998846,5.73062e-05,259.8149999998846,0.003021748,259.8149999998846,0.000620489,259.8149999998846,6.545711e-05
259.8299999998846,5.710699e-05,259.8299999998846,0.002980949,259.8299999998846,0.0006129842,259.8299999998846,6.843475e-05
259.8449999998846,5.644628e-05,259.8449999998846,0.002993664,259.8449999998846,0.0006055758,259.8449999998846,6.857725e-05
259.85999999988456,5.652235e-05,259.85999999988456,0.003070819,259.85999999988456,0.0006076793,259.85999999988456,6.978714e-05
259.87499999988455,5.68682e-05,259.87499999988455,0.003302754,259.87499999988455,0.0006100939,259.87499999988455,7.415005e-05
259.88999999988454,5.619917e-05,259.88999999988454,0.003521609,259.88999999988454,0.0006235149,259.88999999988454,7.572475e-05
259.9049999998845,5.712327e-05,259.9049999998845,0.003636045,259.9049999998845,0.0007141327,259.9049999998845,8.139788e-05
259.9199999998845,5.758354e-05,259.9199999998845,0.003825551,259.9199999998845,0.0007685872,259.9199999998845,8.139166e-05
259.9349999998845,5.755492e-05,259.9349999998845,0.00409931,259.9349999998845,0.0007726495,259.9349999998845,8.243773e-05
259.9499999998845,5.507272e-05,259.9499999998845,0.00426492,259.9499999998845,0.0007919443,259.9499999998845,7.963451e-05
259.96499999988447,5.201296e-05,259.96499999988447,0.004322128,259.96499999988447,0.0008002676,259.96499999988447,7.870769e-05
259.97999999988446,5.486899e-05,259.97999999988446,0.004351515,259.97999999988446,0.0008623,259.97999999988446,8.105016e-05
259.99499999988444,5.106204e-05,259.99499999988444,0.004429121,259.99499999988444,0.0008748682,259.99499999988444,8.389709e-05
260.0099999998844,4.704422e-05,260.0099999998844,0.004369309,260.0099999998844,0.0008371821,260.0099999998844,8.068993e-05
260.0249999998844,5.101264e-05,260.0249999998844,0.004405791,260.0249999998844,0.0008360615,260.0249999998844,7.515186e-05
260.0399999998844,5.107418e-05,260.0399999998844,0.004511162,260.0399999998844,0.0008231734,260.0399999998844,7.503762e-05
260.0549999998844,5.082479e-05,260.0549999998844,0.004528369,260.0549999998844,0.001075778,260.0549999998844,8.174965e-05
260.0699999998844,5.259175e-05,260.0699999998844,0.004664083,260.0699999998844,0.001515783,260.0699999998844,8.334471e-05
260.08499999988436,5.773794e-05,260.08499999988436,0.004839402,260.08499999988436,0.00164793,260.08499999988436,8.931031e-05
260.09999999988435,6.290519e-05,260.09999999988435,0.004949116,260.09999999988435,0.00185873,260.09999999988435,9.903361e-05
260.11499999988433,6.259696e-05,260.11499999988433,0.004998219,260.11499999988433,0.001861313,260.11499999988433,9.841192e-05
260.1299999998843,6.367861e-05,260.1299999998843,0.004895899,260.1299999998843,0.001892293,260.1299999998843,9.676898e-05
260.1449999998843,6.414169e-05,260.1449999998843,0.004662849,260.1449999998843,0.00188702,260.1449999998843,9.710423e-05
260.1599999998843,6.350693e-05,260.1599999998843,0.004689448,260.1599999998843,0.001879982,260.1599999998843,9.509797e-05
260.1749999998843,6.397237e-05,260.1749999998843,0.004898573,260.1749999998843,0.001898521,260.1749999998843,9.584353e-05
260.18999999988426,6.458031e-05,260.18999999988426,0.005008436,260.18999999988426,0.001928827,260.18999999988426,9.857939e-05
260.20499999988425,6.506015e-05,260.20499999988425,0.005030383,260.20499999988425,0.001944763,260.20499999988425,9.904015e-05
260.21999999988424,6.503178e-05,260.21999999988424,0.004898638,260.21999999988424,0.001938654,260.21999999988424,9.798974e-05
260.2349999998842,6.073777e-05,260.2349999998842,0.004912941,260.2349999998842,0.001939272,260.2349999998842,9.520012e-05
260.2499999998842,6.016476e-05,260.2499999998842,0.004897977,260.2499999998842,0.001943639,260.2499999998842,9.550931e-05
260.2649999998842,5.896814e-05,260.2649999998842,0.004959618,260.2649999998842,0.002026844,260.2649999998842,9.847002e-05
260.2799999998842,6.979098e-05,260.2799999998842,0.004958417,260.2799999998842,0.002388703,260.2799999998842,0.0001158897
260.29499999988417,7.115857e-05,260.29499999988417,0.004936199,260.29499999988417,0.002485094,260.29499999988417,0.0001166469
260.30999999988416,8.082896e-05,260.30999999988416,0.005083088,260.30999999988416,0.002501951,260.30999999988416,0.0001150792
260.32499999988414,8.940347e-05,260.32499999988414,0.005099126,260.32499999988414,0.002433135,260.32499999988414,0.0001208102
260.3399999998841,9.315603e-05,260.3399999998841,0.005063986,260.3399999998841,0.002320624,260.3399999998841,0.0001258535
260.3549999998841,0.0001118154,260.3549999998841,0.00506112,260.3549999998841,0.002553333,260.3549999998841,0.0001322281
260.3699999998841,0.0001144401,260.3699999998841,0.00506112,260.3699999998841,0.002676404,260.3699999998841,0.0001344779
260.3849999998841,0.0001180114,260.3849999998841,0.005014875,260.3849999998841,0.002943557,260.3849999998841,0.0001347624
260.3999999998841,0.0001179132,260.3999999998841,0.004905889,260.3999999998841,0.003030299,260.3999999998841,0.000136572
260.41499999988406,0.0001181026,260.41499999988406,0.004741902,260.41499999988406,0.003123166,260.41499999988406,0.0001496882
260.42999999988405,0.0001198116,260.42999999988405,0.004506292,260.42999999988405,0.003191806,260.42999999988405,0.0001494169
260.44499999988403,0.0001199705,260.44499999988403,0.004251877,260.44499999988403,0.003183681,260.44499999988403,0.0001487989
260.459999999884,0.0001213909,260.459999999884,0.004025864,260.459999999884,0.003317725,260.459999999884,0.0001886796
260.474999999884,0.000126932,260.474999999884,0.003964693,260.474999999884,0.003565821,260.474999999884,0.0002231811
260.489999999884,0.0001331174,260.489999999884,0.003965948,260.489999999884,0.003742423,260.489999999884,0.0002257886
260.504999999884,0.0001329958,260.504999999884,0.003909785,260.504999999884,0.003823126,260.504999999884,0.0002334225
260.51999999988396,0.0001418751,260.51999999988396,0.003924082,260.51999999988396,0.003793249,260.51999999988396,0.0003029128
260.53499999988395,0.0001488079,260.53499999988395,0.003973411,260.53499999988395,0.003841018,260.53499999988395,0.0003390972
260.54999999988394,0.0001488634,260.54999999988394,0.004010176,260.54999999988394,0.00400728,260.54999999988394,0.0003421246
260.5649999998839,0.0001438176,260.5649999998839,0.003854946,260.5649999998839,0.003957907,260.5649999998839,0.0003543867
260.5799999998839,0.0001430199,260.5799999998839,0.003576624,260.5799999998839,0.003954096,260.5799999998839,0.0003685759
260.5949999998839,0.0001378502,260.5949999998839,0.003749817,260.5949999998839,0.003906072,260.5949999998839,0.0003685366
260.6099999998839,0.0001267039,260.6099999998839,0.003900272,260.6099999998839,0.003681879,260.6099999998839,0.0003671821
260.62499999988387,0.0001257149,260.62499999988387,0.00393301,260.62499999988387,0.003570104,260.62499999988387,0.0003678617
260.63999999988386,0.0001249761,260.63999999988386,0.003963038,260.63999999988386,0.003397468,260.63999999988386,0.0003698558
260.65499999988384,0.0001256122,260.65499999988384,0.00396769,260.65499999988384,0.003407956,260.65499999988384,0.0003679671
260.6699999998838,0.0001245732,260.6699999998838,0.00402085,260.6699999998838,0.003317473,260.6699999998838,0.0003651695
260.6849999998838,0.0001226794,260.6849999998838,0.00409789,260.6849999998838,0.003259134,260.6849999998838,0.0003663015
260.6999999998838,0.0001219086,260.6999999998838,0.004142427,260.6999999998838,0.003237098,260.6999999998838,0.0003632805
260.7149999998838,0.0001198605,260.7149999998838,0.004134933,260.7149999998838,0.003063678,260.7149999998838,0.0003381469
260.7299999998838,0.000111146,260.7299999998838,0.004129993,260.7299999998838,0.00277434,260.7299999998838,0.0003180824
260.74499999988376,0.0001040675,260.74499999988376,0.003959679,260.74499999988376,0.002491088,260.74499999988376,0.0003169796
260.75999999988375,0.0001023322,260.75999999988375,0.003796352,260.75999999988375,0.002318299,260.75999999988375,0.0003034475
260.77499999988373,8.100478e-05,260.77499999988373,0.003816248,260.77499999988373,0.002158337,260.77499999988373,0.0002286118
260.7899999998837,6.009308e-05,260.7899999998837,0.003897574,260.7899999998837,0.001721792,260.7899999998837,0.0001784331
260.8049999998837,5.788244e-05,260.8049999998837,0.003902522,260.8049999998837,0.001164447,260.8049999998837,0.0001758805
260.8199999998837,5.392586e-05,260.8199999998837,0.004002435,260.8199999998837,0.001045656,260.8199999998837,0.0001509534
260.8349999998837,4.206692e-05,260.8349999998837,0.003932629,260.8349999998837,0.001046582,260.8349999998837,0.0001199156
260.84999999988366,3.563428e-05,260.84999999988366,0.003639085,260.84999999988366,0.00106031,260.84999999988366,0.0001143138
260.86499999988365,3.634081e-05,260.86499999988365,0.003342479,260.86499999988365,0.001031402,260.86499999988365,0.0001131014
260.87999999988364,3.469529e-05,260.87999999988364,0.003012455,260.87999999988364,0.001025503,260.87999999988364,0.000106272
260.8949999998836,2.798304e-05,260.8949999998836,0.002875245,260.8949999998836,0.001011184,260.8949999998836,9.605275e-05
260.9099999998836,2.554564e-05,260.9099999998836,0.00296858,260.9099999998836,0.0008048594,260.9099999998836,9.541709e-05
260.9249999998836,2.431092e-05,260.9249999998836,0.003114562,260.9249999998836,0.0005237549,260.9249999998836,8.716436e-05
260.9399999998836,2.373984e-05,260.9399999998836,0.003273313,260.9399999998836,0.0003401465,260.9399999998836,8.150961e-05
260.95499999988357,2.389303e-05,260.95499999988357,0.003333153,260.95499999988357,0.0003153097,260.95499999988357,7.941469e-05
260.96999999988356,2.34779e-05,260.96999999988356,0.003326289,260.96999999988356,0.0003109855,260.96999999988356,7.945193e-05
260.98499999988354,2.373865e-05,260.98499999988354,0.003402984,260.98499999988354,0.0003331522,260.98499999988354,7.991669e-05
260.9999999998835,2.260737e-05,260.9999999998835,0.003463333,260.9999999998835,0.0003164336,260.9999999998835,7.292909e-05
261.0149999998835,2.302718e-05,261.0149999998835,0.003503761,261.0149999998835,0.0002961197,261.0149999998835,6.663213e-05
261.0299999998835,2.392897e-05,261.0299999998835,0.003380431,261.0299999998835,0.0002973363,261.0299999998835,7.005349e-05
261.0449999998835,2.622319e-05,261.0449999998835,0.003300625,261.0449999998835,0.0003108284,261.0449999998835,6.964105e-05
261.0599999998835,2.600797e-05,261.0599999998835,0.003079151,261.0599999998835,0.0003121578,261.0599999998835,6.031536e-05
261.07499999988346,2.629079e-05,261.07499999988346,0.002825659,261.07499999988346,0.0003156661,261.07499999988346,5.927764e-05
261.08999999988345,2.955386e-05,261.08999999988345,0.002862375,261.08999999988345,0.0003311128,261.08999999988345,5.876426e-05
261.10499999988343,2.949327e-05,261.10499999988343,0.002897041,261.10499999988343,0.0003098264,261.10499999988343,5.766299e-05
261.1199999998834,2.681861e-05,261.1199999998834,0.002884006,261.1199999998834,0.0002605635,261.1199999998834,5.826206e-05
261.1349999998834,2.697051e-05,261.1349999998834,0.003022636,261.1349999998834,0.0002560942,261.1349999998834,5.859862e-05
261.1499999998834,2.781592e-05,261.1499999998834,0.003115582,261.1499999998834,0.0002740492,261.1499999998834,5.857794e-05
261.1649999998834,2.856447e-05,261.1649999998834,0.003080862,261.1649999998834,0.000275358,261.1649999998834,5.783204e-05
261.17999999988336,3.056976e-05,261.17999999988336,0.002983875,261.17999999988336,0.0002746366,261.17999999988336,5.791553e-05
261.19499999988335,3.069898e-05,261.19499999988335,0.002820477,261.19499999988335,0.0002773227,261.19499999988335,5.786686e-05
261.20999999988334,3.105166e-05,261.20999999988334,0.002735274,261.20999999988334,0.0002792638,261.20999999988334,5.658885e-05
261.2249999998833,3.136851e-05,261.2249999998833,0.002673843,261.2249999998833,0.0002740512,261.2249999998833,5.609581e-05
261.2399999998833,3.141203e-05,261.2399999998833,0.002355109,261.2399999998833,0.0002621645,261.2399999998833,5.528282e-05
261.2549999998833,3.112053e-05,261.2549999998833,0.002120355,261.2549999998833,0.0002653891,261.2549999998833,5.36409e-05
261.2699999998833,3.11992e-05,261.2699999998833,0.002101214,261.2699999998833,0.0003685081,261.2699999998833,4.776041e-05
261.28499999988327,3.159804e-05,261.28499999988327,0.002088823,261.28499999988327,0.0009824572,261.28499999988327,4.396241e-05
261.29999999988325,3.130377e-05,261.29999999988325,0.002038999,261.29999999988325,0.001380719,261.29999999988325,4.266244e-05
261.31499999988324,3.180156e-05,261.31499999988324,0.002036926,261.31499999988324,0.001885817,261.31499999988324,4.296055e-05
261.3299999998832,3.199411e-05,261.3299999998832,0.002203395,261.3299999998832,0.00230248,261.3299999998832,4.253082e-05
261.3449999998832,3.125648e-05,261.3449999998832,0.002432201,261.3449999998832,0.002358409,261.3449999998832,3.802517e-05
261.3599999998832,3.122086e-05,261.3599999998832,0.002709178,261.3599999998832,0.00244807,261.3599999998832,3.710228e-05
261.3749999998832,3.159091e-05,261.3749999998832,0.002841582,261.3749999998832,0.002551065,261.3749999998832,3.529906e-05
261.3899999998832,3.252423e-05,261.3899999998832,0.002770841,261.3899999998832,0.002613093,261.3899999998832,3.438821e-05
261.40499999988316,3.357404e-05,261.40499999988316,0.002906011,261.40499999988316,0.002621756,261.40499999988316,3.560818e-05
261.41999999988315,3.172528e-05,261.41999999988315,0.003168389,261.41999999988315,0.002622012,261.41999999988315,4.088981e-05
261.43499999988313,3.245702e-05,261.43499999988313,0.003392559,261.43499999988313,0.002633223,261.43499999988313,4.670916e-05
261.4499999998831,3.27448e-05,261.4499999998831,0.003594533,261.4499999998831,0.002634736,261.4499999998831,6.030952e-05
261.4649999998831,3.382318e-05,261.4649999998831,0.003760653,261.4649999998831,0.002637683,261.4649999998831,6.369851e-05
261.4799999998831,3.537719e-05,261.4799999998831,0.003849822,261.4799999998831,0.002644696,261.4799999998831,6.897868e-05
261.4949999998831,3.569432e-05,261.4949999998831,0.004091385,261.4949999998831,0.002645482,261.4949999998831,7.873972e-05
261.50999999988306,3.493886e-05,261.50999999988306,0.004311848,261.50999999988306,0.00264204,261.50999999988306,8.354004e-05
261.52499999988305,3.357153e-05,261.52499999988305,0.004484449,261.52499999988305,0.002630824,261.52499999988305,8.381461e-05
261.53999999988304,3.31144e-05,261.53999999988304,0.004660047,261.53999999988304,0.002336781,261.53999999988304,8.445052e-05
261.554999999883,3.210926e-05,261.554999999883,0.004661529,261.554999999883,0.002164225,261.554999999883,8.447504e-05
261.569999999883,3.241099e-05,261.569999999883,0.004736435,261.569999999883,0.001735706,261.569999999883,8.481321e-05
261.584999999883,3.15686e-05,261.584999999883,0.004730905,261.584999999883,0.001224662,261.584999999883,8.760701e-05
261.599999999883,3.063053e-05,261.599999999883,0.004610497,261.599999999883,0.001187364,261.599999999883,8.748617e-05
261.61499999988297,3.333783e-05,261.61499999988297,0.00442687,261.61499999988297,0.0009976054,261.61499999988297,9.115481e-05
261.62999999988295,3.445287e-05,261.62999999988295,0.004449328,261.62999999988295,0.0008027293,261.62999999988295,9.695586e-05
261.64499999988294,3.309526e-05,261.64499999988294,0.004629626,261.64499999988294,0.0006376045,261.64499999988294,9.737658e-05
261.6599999998829,3.490982e-05,261.6599999998829,0.004623639,261.6599999998829,0.0006266882,261.6599999998829,9.988032e-05
261.6749999998829,3.577592e-05,261.6749999998829,0.004482168,261.6749999998829,0.0006985815,261.6749999998829,0.0001016773
261.6899999998829,3.516432e-05,261.6899999998829,0.004482145,261.6899999998829,0.001000397,261.6899999998829,9.69685e-05
261.7049999998829,3.469448e-05,261.7049999998829,0.004482142,261.7049999998829,0.001033823,261.7049999998829,8.913174e-05
261.7199999998829,3.3356e-05,261.7199999998829,0.004488884,261.7199999998829,0.001029755,261.7199999998829,8.841561e-05
261.73499999988286,3.220125e-05,261.73499999988286,0.004595282,261.73499999988286,0.001027675,261.73499999988286,8.349348e-05
261.74999999988285,3.243488e-05,261.74999999988285,0.004560626,261.74999999988285,0.001024821,261.74999999988285,7.574317e-05
261.76499999988283,3.215529e-05,261.76499999988283,0.004363457,261.76499999988283,0.001018434,261.76499999988283,7.149274e-05
261.7799999998828,3.228295e-05,261.7799999998828,0.004098625,261.7799999998828,0.00101562,261.7799999998828,7.072093e-05
261.7949999998828,3.273835e-05,261.7949999998828,0.003904671,261.7949999998828,0.001014023,261.7949999998828,6.991621e-05
261.8099999998828,3.223842e-05,261.8099999998828,0.003894683,261.8099999998828,0.0009995197,261.8099999998828,6.958196e-05
261.8249999998828,3.055455e-05,261.8249999998828,0.003859461,261.8249999998828,0.0009556926,261.8249999998828,6.770278e-05
261.83999999988276,3.036633e-05,261.83999999988276,0.003945509,261.83999999988276,0.0009448609,261.83999999988276,6.257581e-05
261.85499999988275,3.005626e-05,261.85499999988275,0.00420388,261.85499999988275,0.0009321407,261.85499999988275,6.269883e-05
261.86999999988274,2.774645e-05,261.86999999988274,0.004435788,261.86999999988274,0.0009218658,261.86999999988274,5.818779e-05
261.8849999998827,2.662303e-05,261.8849999998827,0.004527749,261.8849999998827,0.0009147113,261.8849999998827,5.147994e-05
261.8999999998827,2.566228e-05,261.8999999998827,0.004547923,261.8999999998827,0.0008791983,261.8999999998827,5.027022e-05
261.9149999998827,2.187778e-05,261.9149999998827,0.004523811,261.9149999998827,0.0008513847,261.9149999998827,4.305848e-05
261.9299999998827,2.276632e-05,261.9299999998827,0.004512026,261.9299999998827,0.000713576,261.9299999998827,4.073795e-05
261.94499999988267,2.886861e-05,261.94499999988267,0.004347361,261.94499999988267,0.0003500347,261.94499999988267,4.984896e-05
261.95999999988265,3.274738e-05,261.95999999988265,0.004096574,261.95999999988265,0.0003178996,261.95999999988265,5.351943e-05
261.97499999988264,3.282215e-05,261.97499999988264,0.003809442,261.97499999988264,0.0003523134,261.97499999988264,5.089459e-05
261.9899999998826,3.564258e-05,261.9899999998826,0.003718009,261.9899999998826,0.0003890365,261.9899999998826,5.069714e-05
262.0049999998826,4.700198e-05,262.0049999998826,0.00381687,262.0049999998826,0.0005224999,262.0049999998826,6.827586e-05
262.0199999998826,5.391228e-05,262.0199999998826,0.004102056,262.0199999998826,0.0006210541,262.0199999998826,8.511214e-05
262.0349999998826,5.347915e-05,262.0349999998826,0.004381289,262.0349999998826,0.0006261346,262.0349999998826,8.546312e-05
262.0499999998826,5.523388e-05,262.0499999998826,0.004518926,262.0499999998826,0.0006908841,262.0499999998826,8.6414e-05
262.06499999988256,5.924246e-05,262.06499999988256,0.004524346,262.06499999988256,0.0007432526,262.06499999988256,8.861566e-05
262.07999999988255,5.964673e-05,262.07999999988255,0.00457745,262.07999999988255,0.0007450422,262.07999999988255,8.842724e-05
262.09499999988253,5.958506e-05,262.09499999988253,0.00457745,262.09499999988253,0.000745283,262.09499999988253,8.706717e-05
262.1099999998825,5.916227e-05,262.1099999998825,0.004576132,262.1099999998825,0.0007475088,262.1099999998825,8.883285e-05
262.1249999998825,5.916799e-05,262.1249999998825,0.004489622,262.1249999998825,0.0007640994,262.1249999998825,8.955476e-05
262.1399999998825,5.993511e-05,262.1399999998825,0.004350367,262.1399999998825,0.0007748749,262.1399999998825,8.874464e-05
262.1549999998825,5.986973e-05,262.1549999998825,0.004230147,262.1549999998825,0.0007740889,262.1549999998825,8.976703e-05
262.16999999988246,5.941318e-05,262.16999999988246,0.004144715,262.16999999988246,0.0007818787,262.16999999988246,9.083622e-05
262.18499999988245,5.885624e-05,262.18499999988245,0.004061033,262.18499999988245,0.0007792023,262.18499999988245,8.855523e-05
262.19999999988244,5.452879e-05,262.19999999988244,0.004000826,262.19999999988244,0.0007435392,262.19999999988244,8.339456e-05
262.2149999998824,5.319524e-05,262.2149999998824,0.003946595,262.2149999998824,0.0007381969,262.2149999998824,7.957683e-05
262.2299999998824,5.29444e-05,262.2299999998824,0.003925798,262.2299999998824,0.0007278146,262.2299999998824,7.898854e-05
262.2449999998824,4.966012e-05,262.2449999998824,0.003724168,262.2449999998824,0.0006989484,262.2449999998824,7.916009e-05
262.2599999998824,3.682522e-05,262.2599999998824,0.003432192,262.2599999998824,0.0005580198,262.2599999998824,6.048118e-05
262.27499999988237,3.265951e-05,262.27499999988237,0.00325443,262.27499999988237,0.0004952537,262.27499999988237,4.962777e-05
262.28999999988235,3.343109e-05,262.28999999988235,0.00324628,262.28999999988235,0.0004849714,262.28999999988235,4.917897e-05
262.30499999988234,2.944738e-05,262.30499999988234,0.003316092,262.30499999988234,0.0003941671,262.30499999988234,4.658202e-05
262.3199999998823,2.470465e-05,262.3199999998823,0.003233496,262.3199999998823,0.0003517899,262.3199999998823,4.429312e-05
262.3349999998823,2.383636e-05,262.3349999998823,0.003004818,262.3349999998823,0.0003469866,262.3349999998823,4.49554e-05
262.3499999998823,2.375408e-05,262.3499999998823,0.002971568,262.3499999998823,0.0003445056,262.3499999998823,4.584589e-05
262.3649999998823,2.632559e-05,262.3649999998823,0.002739696,262.3649999998823,0.0003433903,262.3649999998823,3.878879e-05
262.3799999998823,2.666638e-05,262.3799999998823,0.002708266,262.3799999998823,0.0003131463,262.3799999998823,3.703273e-05
262.39499999988226,2.669542e-05,262.39499999988226,0.002929016,262.39499999988226,0.000307555,262.39499999988226,3.718723e-05
262.40999999988225,2.986019e-05,262.40999999988225,0.003062605,262.40999999988225,0.0003699189,262.40999999988225,3.955406e-05
262.42499999988223,3.061673e-05,262.42499999988223,0.003240165,262.42499999988223,0.000359565,262.42499999988223,3.834391e-05
262.4399999998822,3.10707e-05,262.4399999998822,0.003523504,262.4399999998822,0.0003669829,262.4399999998822,3.822985e-05
262.4549999998822,3.334037e-05,262.4549999998822,0.003754066,262.4549999998822,0.0003687889,262.4549999998822,3.919594e-05
262.4699999998822,3.399227e-05,262.4699999998822,0.003901466,262.4699999998822,0.0003676214,262.4699999998822,3.923869e-05
262.4849999998822,3.389723e-05,262.4849999998822,0.003892821,262.4849999998822,0.0003527732,262.4849999998822,3.931902e-05
262.49999999988216,3.400056e-05,262.49999999988216,0.003838634,262.49999999988216,0.0003513865,262.49999999988216,3.624339e-05
262.51499999988215,3.387146e-05,262.51499999988215,0.003883581,262.51499999988215,0.0003500106,262.51499999988215,3.746085e-05
262.52999999988214,3.358411e-05,262.52999999988214,0.003815299,262.52999999988214,0.0003470587,262.52999999988214,3.942207e-05
262.5449999998821,3.550874e-05,262.5449999998821,0.003657211,262.5449999998821,0.0003639321,262.5449999998821,4.116483e-05
262.5599999998821,3.592876e-05,262.5599999998821,0.003467734,262.5599999998821,0.0003648816,262.5599999998821,4.225569e-05
262.5749999998821,3.653759e-05,262.5749999998821,0.003423469,262.5749999998821,0.0003753656,262.5749999998821,4.599039e-05
262.5899999998821,3.653604e-05,262.5899999998821,0.003358755,262.5899999998821,0.0003816818,262.5899999998821,4.658837e-05
262.60499999988207,3.613868e-05,262.60499999988207,0.003216395,262.60499999988207,0.0003817763,262.60499999988207,4.682091e-05
262.61999999988205,3.52767e-05,262.61999999988205,0.003193902,262.61999999988205,0.0003750388,262.61999999988205,4.757571e-05
262.63499999988204,3.306076e-05,262.63499999988204,0.003138407,262.63499999988204,0.0003537022,262.63499999988204,4.507182e-05
262.649999999882,3.26871e-05,262.649999999882,0.002937638,262.649999999882,0.0003295589,262.649999999882,4.417115e-05
262.664999999882,3.369425e-05,262.664999999882,0.002793116,262.664999999882,0.0002967311,262.664999999882,4.317805e-05
262.679999999882,3.727878e-05,262.679999999882,0.002528271,262.679999999882,0.0003273175,262.679999999882,4.457085e-05
262.694999999882,3.715615e-05,262.694999999882,0.002103323,262.694999999882,0.0003331931,262.694999999882,4.466966e-05
262.709999999882,4.27818e-05,262.709999999882,0.001490522,262.709999999882,0.0004024422,262.709999999882,4.643694e-05
262.72499999988196,4.5094e-05,262.72499999988196,0.0008982004,262.72499999988196,0.0004206712,262.72499999988196,4.642663e-05
262.73999999988195,4.587968e-05,262.73999999988195,0.000832846,262.73999999988195,0.0004307541,262.73999999988195,4.969925e-05
262.75499999988193,4.76683e-05,262.75499999988193,0.0008374746,262.75499999988193,0.0004358736,262.75499999988193,5.494467e-05
262.7699999998819,4.894036e-05,262.7699999998819,0.0007605807,262.7699999998819,0.0004378397,262.7699999998819,5.483021e-05
262.7849999998819,5.440827e-05,262.7849999998819,0.0006380136,262.7849999998819,0.0004401087,262.7849999998819,5.919798e-05
262.7999999998819,5.501462e-05,262.7999999998819,0.0005111872,262.7999999998819,0.0004237853,262.7999999998819,6.189246e-05
262.8149999998819,5.51711e-05,262.8149999998819,0.0004011627,262.8149999998819,0.0004258212,262.8149999998819,6.08263e-05
262.82999999988186,5.46578e-05,262.82999999988186,0.0003129592,262.82999999988186,0.0004279443,262.82999999988186,5.85676e-05
262.84499999988185,5.610811e-05,262.84499999988185,0.0002449033,262.84499999988185,0.0004276145,262.84499999988185,6.022678e-05
262.85999999988184,5.642332e-05,262.85999999988184,0.0001921603,262.85999999988184,0.0004946355,262.85999999988184,5.938591e-05
262.8749999998818,5.698847e-05,262.8749999998818,0.0001508446,262.8749999998818,0.0005268083,262.8749999998818,5.970504e-05
262.8899999998818,5.697116e-05,262.8899999998818,0.0003904585,262.8899999998818,0.0006411055,262.8899999998818,6.017366e-05
262.9049999998818,5.698475e-05,262.9049999998818,0.0009122539,262.9049999998818,0.0006613493,262.9049999998818,6.033544e-05
262.9199999998818,5.323732e-05,262.9199999998818,0.0009340427,262.9199999998818,0.0007131578,262.9199999998818,5.950463e-05
262.93499999988177,5.21201e-05,262.93499999988177,0.001334579,262.93499999988177,0.0007805135,262.93499999988177,6.022561e-05
262.94999999988175,5.358099e-05,262.94999999988175,0.001815625,262.94999999988175,0.0008039791,262.94999999988175,6.457115e-05
262.96499999988174,4.894439e-05,262.96499999988174,0.001845391,262.96499999988174,0.0007721148,262.96499999988174,6.618817e-05
262.9799999998817,4.768632e-05,262.9799999998817,0.001939735,262.9799999998817,0.0007591106,262.9799999998817,6.723426e-05
262.9949999998817,4.464537e-05,262.9949999998817,0.001999895,262.9949999998817,0.0007520328,262.9949999998817,6.363855e-05
263.0099999998817,4.207027e-05,263.0099999998817,0.002015177,263.0099999998817,0.0007659657,263.0099999998817,5.816043e-05
263.0249999998817,5.861328e-05,263.0249999998817,0.002016108,263.0249999998817,0.0009778548,263.0249999998817,8.126278e-05
263.0399999998817,7.191199e-05,263.0399999998817,0.002016352,263.0399999998817,0.001137597,263.0399999998817,0.0001043215
263.05499999988166,7.186084e-05,263.05499999988166,0.002017153,263.05499999988166,0.001150527,263.05499999988166,0.0001047313
263.06999999988165,8.167897e-05,263.06999999988165,0.002017759,263.06999999988165,0.001219097,263.06999999988165,0.0001154495
263.08499999988163,8.599305e-05,263.08499999988163,0.002018096,263.08499999988163,0.001240608,263.08499999988163,0.0001180572
263.0999999998816,8.560476e-05,263.0999999998816,0.00201827,263.0999999998816,0.00126719,263.0999999998816,0.0001176141
263.1149999998816,8.592864e-05,263.1149999998816,0.002018346,263.1149999998816,0.001277583,263.1149999998816,0.0001185202
263.1299999998816,8.541086e-05,263.1299999998816,0.002018383,263.1299999998816,0.001309119,263.1299999998816,0.0001201658
263.1449999998816,8.77736e-05,263.1449999998816,0.0018944,263.1449999998816,0.001344266,263.1449999998816,0.0001213605
263.15999999988156,9.165721e-05,263.15999999988156,0.001779613,263.15999999988156,0.001737507,263.15999999988156,0.0001211923
263.17499999988155,9.21266e-05,263.17499999988155,0.00175348,263.17499999988155,0.001959663,263.17499999988155,0.0001208529
263.18999999988154,9.721689e-05,263.18999999988154,0.001298874,263.18999999988154,0.001964915,263.18999999988154,0.0001211696
263.2049999998815,9.952667e-05,263.2049999998815,0.0007357365,263.2049999998815,0.00202022,263.2049999998815,0.0001213971
263.2199999998815,9.923511e-05,263.2199999998815,0.0006725807,263.2199999998815,0.002031559,263.2199999998815,0.0001305897
263.2349999998815,0.0001001015,263.2349999998815,0.0004355853,263.2349999998815,0.002033872,263.2349999998815,0.0001338279
263.2499999998815,0.0001002976,263.2499999998815,0.0002048045,263.2499999998815,0.002039241,263.2499999998815,0.0001339639
263.26499999988147,9.924391e-05,263.26499999988147,8.094842e-05,263.26499999988147,0.002027478,263.26499999988147,0.0001382278
263.27999999988145,8.751064e-05,263.27999999988145,6.562605e-05,263.27999999988145,0.001922081,263.27999999988145,0.0001258501
263.29499999988144,7.634926e-05,263.29499999988144,6.070947e-05,263.29499999988144,0.001854156,263.29499999988144,0.0001097823
263.3099999998814,7.456852e-05,263.3099999998814,4.647242e-05,263.3099999998814,0.001845966,263.3099999998814,0.0001080518
263.3249999998814,6.421632e-05,263.3249999998814,3.319852e-05,263.3249999998814,0.001804433,263.3249999998814,9.812709e-05
263.3399999998814,6.309837e-05,263.3399999998814,2.211282e-05,263.3399999998814,0.001798607,263.3399999998814,9.956431e-05
263.3549999998814,6.421303e-05,263.3549999998814,1.458744e-05,263.3549999998814,0.001780952,263.3549999998814,9.873659e-05
263.3699999998814,6.666722e-05,263.3699999998814,1.085973e-05,263.3699999998814,0.001732026,263.3699999998814,0.0001011827
263.38499999988136,6.996495e-05,263.38499999988136,9.730914e-06,263.38499999988136,0.001712199,263.38499999988136,9.964493e-05
263.39999999988135,6.724054e-05,263.39999999988135,8.291141e-06,263.39999999988135,0.001612524,263.39999999988135,0.0001021039
263.41499999988133,6.305415e-05,263.41499999988133,8.012934e-06,263.41499999988133,0.001034564,263.41499999988133,0.0001036477
263.4299999998813,6.182733e-05,263.4299999998813,7.42721e-06,263.4299999998813,0.0007446467,263.4299999998813,0.0001021852
263.4449999998813,5.206574e-05,263.4449999998813,5.912964e-06,263.4449999998813,0.0006742041,263.4449999998813,0.0001007845
263.4599999998813,4.838282e-05,263.4599999998813,4.334932e-06,263.4599999998813,0.0005611974,263.4599999998813,9.54506e-05
263.4749999998813,4.69216e-05,263.4749999998813,4.087396e-06,263.4749999998813,0.0005512593,263.4749999998813,8.005159e-05
263.48999999988126,4.625305e-05,263.48999999988126,4.094283e-06,263.48999999988126,0.0005710918,263.48999999988126,7.782143e-05
263.50499999988125,4.664337e-05,263.50499999988125,4.05626e-06,263.50499999988125,0.0005378856,263.50499999988125,7.296694e-05
263.51999999988124,4.670162e-05,263.51999999988124,4.007346e-06,263.51999999988124,0.0005659249,263.51999999988124,6.212304e-05
263.5349999998812,4.681279e-05,263.5349999998812,4.125132e-06,263.5349999998812,0.0006051328,263.5349999998812,5.758159e-05
263.5499999998812,4.664609e-05,263.5499999998812,4.219664e-06,263.5499999998812,0.0006151799,263.5499999998812,5.759822e-05
263.5649999998812,4.645544e-05,263.5649999998812,1.002609e-05,263.5649999998812,0.0006172025,263.5649999998812,5.701614e-05
263.5799999998812,4.600263e-05,263.5799999998812,0.0005459535,263.5799999998812,0.000623084,263.5799999998812,5.471422e-05
263.59499999988117,4.563956e-05,263.59499999988117,0.0005887796,263.59499999988117,0.0006219695,263.59499999988117,5.263084e-05
263.60999999988115,4.230201e-05,263.60999999988115,0.0009557476,263.60999999988115,0.0005846207,263.60999999988115,5.145038e-05
263.62499999988114,3.353626e-05,263.62499999988114,0.0009895911,263.62499999988114,0.0005063839,263.62499999988114,4.054767e-05
263.6399999998811,3.046498e-05,263.6399999998811,0.001012194,263.6399999998811,0.0004860647,263.6399999998811,3.834758e-05
263.6549999998811,2.728364e-05,263.6549999998811,0.001034898,263.6549999998811,0.0004656234,263.6549999998811,3.094942e-05
263.6699999998811,2.342685e-05,263.6699999998811,0.001041667,263.6699999998811,0.000449226,263.6699999998811,2.885543e-05
263.6849999998811,2.327361e-05,263.6849999998811,0.001042502,263.6849999998811,0.0004517155,263.6849999998811,2.914976e-05
263.6999999998811,2.231574e-05,263.6999999998811,0.001042519,263.6999999998811,0.0004467309,263.6999999998811,2.624842e-05
263.71499999988106,2.104819e-05,263.71499999988106,0.001042589,263.71499999988106,0.0004471258,263.71499999988106,2.567874e-05
263.72999999988104,2.008378e-05,263.72999999988104,0.001042674,263.72999999988104,0.0004309316,263.72999999988104,2.491756e-05
263.74499999988103,1.994583e-05,263.74499999988103,0.001042742,263.74499999988103,0.0003805472,263.74499999988103,2.508041e-05
263.759999999881,1.731941e-05,263.759999999881,0.001042776,263.759999999881,0.0003696421,263.759999999881,2.53669e-05
263.774999999881,1.63099e-05,263.774999999881,0.001042789,263.774999999881,0.0003069733,263.774999999881,2.839283e-05
263.789999999881,1.604519e-05,263.789999999881,0.001042793,263.789999999881,0.0002307613,263.789999999881,2.966851e-05
263.804999999881,1.59103e-05,263.804999999881,0.001042798,263.804999999881,0.0002379975,263.804999999881,2.952286e-05
263.81999999988096,1.584109e-05,263.81999999988096,0.001037745,263.81999999988096,0.0002176539,263.81999999988096,3.08952e-05
263.83499999988095,1.60285e-05,263.83499999988095,0.0008598962,263.83499999988095,0.000214322,263.83499999988095,2.997225e-05
263.84999999988094,1.520403e-05,263.84999999988094,0.0007948166,263.84999999988094,0.0002110117,263.84999999988094,2.97041e-05
263.8649999998809,1.430269e-05,263.8649999998809,0.0003040209,263.8649999998809,0.0002124086,263.8649999998809,3.125018e-05
263.8799999998809,1.367018e-05,263.8799999998809,0.0002742794,263.8799999998809,0.0002943214,263.8799999998809,3.297543e-05
263.8949999998809,1.431844e-05,263.8949999998809,0.0001929796,263.8949999998809,0.000376969,263.8949999998809,3.408828e-05
263.9099999998809,1.445746e-05,263.9099999998809,9.277828e-05,263.9099999998809,0.000604443,263.9099999998809,3.368421e-05
263.92499999988087,1.439203e-05,263.92499999988087,3.39205e-05,263.92499999988087,0.0006239312,263.92499999988087,3.592679e-05
263.93999999988085,1.425731e-05,263.93999999988085,1.626406e-05,263.93999999988085,0.000852845,263.93999999988085,3.643025e-05
263.95499999988084,1.589081e-05,263.95499999988084,1.569458e-05,263.95499999988084,0.001501947,263.95499999988084,3.665268e-05
263.9699999998808,1.613362e-05,263.9699999998808,1.410433e-05,263.9699999998808,0.001856488,263.9699999998808,3.713264e-05
263.9849999998808,1.700421e-05,263.9849999998808,1.113259e-05,263.9849999998808,0.00197117,263.9849999998808,3.79161e-05
263.9999999998808,2.290081e-05,263.9999999998808,7.802733e-06,263.9999999998808,0.002370484,263.9999999998808,4.623416e-05
264.0149999998808,2.975006e-05,264.0149999998808,5.719203e-06,264.0149999998808,0.002751258,264.0149999998808,5.614702e-05
264.0299999998808,3.214828e-05,264.0299999998808,5.148897e-06,264.0299999998808,0.002992861,264.0299999998808,5.634237e-05
264.04499999988076,4.393067e-05,264.04499999988076,5.780451e-06,264.04499999988076,0.003009166,264.04499999988076,6.585939e-05
264.05999999988074,4.978506e-05,264.05999999988074,6.409116e-06,264.05999999988074,0.003095663,264.05999999988074,7.459667e-05
264.07499999988073,5.159747e-05,264.07499999988073,7.429107e-06,264.07499999988073,0.003194724,264.07499999988073,7.692734e-05
264.0899999998807,5.232025e-05,264.0899999998807,9.362016e-06,264.0899999998807,0.0032587,264.0899999998807,7.751492e-05
264.1049999998807,5.244879e-05,264.1049999998807,9.982445e-06,264.1049999998807,0.003281156,264.1049999998807,7.964177e-05
264.1199999998807,5.617661e-05,264.1199999998807,1.115282e-05,264.1199999998807,0.003279549,264.1199999998807,7.980962e-05
264.1349999998807,6.328339e-05,264.1349999998807,1.123211e-05,264.1349999998807,0.003287402,264.1349999998807,8.562631e-05
264.14999999988066,6.455086e-05,264.14999999988066,1.157065e-05,264.14999999988066,0.003261648,264.14999999988066,8.802953e-05
264.16499999988065,6.475479e-05,264.16499999988065,1.196448e-05,264.16499999988065,0.003218736,264.16499999988065,8.821001e-05
264.17999999988064,6.65837e-05,264.17999999988064,1.200093e-05,264.17999999988064,0.003254698,264.17999999988064,8.798135e-05
264.1949999998806,6.680674e-05,264.1949999998806,1.200914e-05,264.1949999998806,0.003297768,264.1949999998806,8.7648e-05
264.2099999998806,6.654794e-05,264.2099999998806,1.200327e-05,264.2099999998806,0.003161519,264.2099999998806,8.848298e-05
264.2249999998806,6.654286e-05,264.2249999998806,1.191375e-05,264.2249999998806,0.003076824,264.2249999998806,8.862218e-05
264.2399999998806,6.620435e-05,264.2399999998806,1.192439e-05,264.2399999998806,0.003248941,264.2399999998806,8.947388e-05
264.25499999988057,6.34368e-05,264.25499999988057,1.19031e-05,264.25499999988057,0.003244647,264.25499999988057,8.334505e-05
264.26999999988055,5.994451e-05,264.26999999988055,1.185924e-05,264.26999999988055,0.003066613,264.26999999988055,7.454831e-05
264.28499999988054,5.840165e-05,264.28499999988054,1.176502e-05,264.28499999988054,0.002913554,264.28499999988054,7.314915e-05
264.2999999998805,5.097175e-05,264.2999999998805,1.153651e-05,264.2999999998805,0.002941299,264.2999999998805,6.577228e-05
264.3149999998805,4.773356e-05,264.3149999998805,1.119317e-05,264.3149999998805,0.002991618,264.3149999998805,5.993699e-05
264.3299999998805,4.653422e-05,264.3299999998805,9.67866e-06,264.3299999998805,0.003012328,264.3299999998805,5.931898e-05
264.3449999998805,4.561548e-05,264.3449999998805,8.779654e-06,264.3449999998805,0.002978671,264.3449999998805,5.817302e-05
264.3599999998805,4.649091e-05,264.3599999998805,7.649581e-06,264.3599999998805,0.002990045,264.3599999998805,5.476208e-05
264.37499999988046,4.057857e-05,264.37499999988046,6.642251e-06,264.37499999988046,0.003000353,264.37499999988046,5.331797e-05
264.38999999988044,3.027388e-05,264.38999999988044,6.640129e-06,264.38999999988044,0.002988438,264.38999999988044,4.228035e-05
264.40499999988043,2.923566e-05,264.40499999988043,5.95096e-06,264.40499999988043,0.002989571,264.40499999988043,3.945136e-05
264.4199999998804,2.82406e-05,264.4199999998804,5.222243e-06,264.4199999998804,0.002985406,264.4199999998804,3.837109e-05
264.4349999998804,2.615811e-05,264.4349999998804,5.170737e-06,264.4349999998804,0.002861724,264.4349999998804,3.74364e-05
264.4499999998804,2.842605e-05,264.4499999998804,5.254512e-06,264.4499999998804,0.00267271,264.4499999998804,4.247415e-05
264.4649999998804,4.228035e-05,264.4649999998804,5.736418e-06,264.4649999998804,0.002616528,264.4649999998804,7.356777e-05
264.47999999988036,5.593789e-05,264.47999999988036,1.392845e-05,264.47999999988036,0.002595102,264.47999999988036,9.831224e-05
264.49499999988035,0.0001662845,264.49499999988035,1.537356e-05,264.49499999988035,0.002638906,264.49499999988035,0.0002314188
264.50999999988034,0.0001704996,264.50999999988034,1.569996e-05,264.50999999988034,0.002401568,264.50999999988034,0.0002360798
264.5249999998803,0.0001840493,264.5249999998803,1.562531e-05,264.5249999998803,0.002485533,264.5249999998803,0.0002506144
264.5399999998803,0.0001928049,264.5399999998803,1.565144e-05,264.5399999998803,0.00265334,264.5399999998803,0.0002571745
264.5549999998803,0.0001931813,264.5549999998803,1.548586e-05,264.5549999998803,0.002642118,264.5549999998803,0.0002572453
264.5699999998803,0.0001931622,264.5699999998803,1.550313e-05,264.5699999998803,0.002549016,264.5699999998803,0.0002569807
264.58499999988027,0.0001930782,264.58499999988027,1.544213e-05,264.58499999988027,0.002777327,264.58499999988027,0.0002569081
264.59999999988025,0.0001937072,264.59999999988025,1.546583e-05,264.59999999988025,0.002887768,264.59999999988025,0.0002569363
264.61499999988024,0.0001944923,264.61499999988024,1.586597e-05,264.61499999988024,0.002884916,264.61499999988024,0.0002569542
264.6299999998802,0.0001948944,264.6299999998802,1.589879e-05,264.6299999998802,0.00300308,264.6299999998802,0.0002573862
264.6449999998802,0.0001949312,264.6449999998802,1.617809e-05,264.6449999998802,0.00305724,264.6449999998802,0.0002576536
264.6599999998802,0.0001949803,264.6599999998802,1.642866e-05,264.6599999998802,0.003056507,264.6599999998802,0.0002577071
264.6749999998802,0.0001950181,264.6749999998802,1.646806e-05,264.6749999998802,0.003056471,264.6749999998802,0.0002577449
264.6899999998802,0.0001947865,264.6899999998802,1.645779e-05,264.6899999998802,0.003184235,264.6899999998802,0.0002572945
264.70499999988016,0.0001939189,264.70499999988016,1.635217e-05,264.70499999988016,0.003448812,264.70499999988016,0.0002547825
264.71999999988014,0.0001893331,264.71999999988014,1.603466e-05,264.71999999988014,0.00353697,264.71999999988014,0.0002451891
264.73499999988013,0.0001667654,264.73499999988013,8.122932e-06,264.73499999988013,0.003522012,264.73499999988013,0.0001989155
264.7499999998801,9.304421e-05,264.7499999998801,7.735647e-06,264.7499999998801,0.003565913,264.7499999998801,0.0001034876
264.7649999998801,8.663899e-05,264.7649999998801,7.069622e-06,264.7649999998801,0.003755399,264.7649999998801,9.257779e-05
264.7799999998801,6.004852e-05,264.7799999998801,7.091506e-06,264.7799999998801,0.003869297,264.7799999998801,6.726128e-05
264.7949999998801,4.191663e-05,264.7949999998801,7.101431e-06,264.7949999998801,0.003848618,264.7949999998801,5.67606e-05
264.80999999988006,4.08619e-05,264.80999999988006,7.093493e-06,264.80999999988006,0.003935445,264.80999999988006,6.230848e-05
264.82499999988005,3.984962e-05,264.82499999988005,7.001547e-06,264.82499999988005,0.004041655,264.82499999988005,6.201796e-05
264.83999999988004,3.992978e-05,264.83999999988004,7.047669e-06,264.83999999988004,0.003976567,264.83999999988004,6.291683e-05
264.85499999988,3.839861e-05,264.85499999988,6.690851e-06,264.85499999988,0.003975844,264.85499999988,6.401088e-05
264.86999999988,3.636251e-05,264.86999999988,5.908198e-06,264.86999999988,0.003928732,264.86999999988,6.30948e-05
264.88499999988,4.283676e-05,264.88499999988,0.0006515304,264.88499999988,0.00385525,264.88499999988,7.16677e-05
264.89999999988,9.601138e-05,264.89999999988,0.001401128,264.89999999988,0.003950954,264.89999999988,0.0001506337
264.91499999987997,0.0001281268,264.91499999987997,0.001786512,264.91499999987997,0.004077416,264.91499999987997,0.0001785467
264.92999999987995,0.0001348301,264.92999999987995,0.001795741,264.92999999987995,0.004161965,264.92999999987995,0.0001864601
264.94499999987994,0.0001452768,264.94499999987994,0.001817108,264.94499999987994,0.004214339,264.94499999987994,0.0001957422
264.9599999998799,0.0001478008,264.9599999998799,0.001831062,264.9599999998799,0.004132991,264.9599999998799,0.0001991487
264.9749999998799,0.0001480112,264.9749999998799,0.001833966,264.9749999998799,0.00399874,264.9749999998799,0.0001994399
264.9899999998799,0.0001479865,264.9899999998799,0.001834079,264.9899999998799,0.003893152,264.9899999998799,0.0002007993
265.0049999998799,0.0001472307,265.0049999998799,0.0018343,265.0049999998799,0.003687046,265.0049999998799,0.0002013787
265.0199999998799,0.0001470681,265.0199999998799,0.001834587,265.0199999998799,0.003478624,265.0199999998799,0.0001990974
265.03499999987986,0.0001481129,265.03499999987986,0.001834729,265.03499999987986,0.003317073,265.03499999987986,0.0002074378
265.04999999987984,0.0001486229,265.04999999987984,0.001834778,265.04999999987984,0.003429242,265.04999999987984,0.0002088484
265.06499999987983,0.0001488584,265.06499999987983,0.001973577,265.06499999987983,0.003362103,265.06499999987983,0.000213041
265.0799999998798,0.000148512,265.0799999998798,0.002356098,265.0799999998798,0.003476422,265.0799999998798,0.0002209662
265.0949999998798,0.0001485904,265.0949999998798,0.002643722,265.0949999998798,0.003673382,265.0949999998798,0.0002219512
265.1099999998798,0.0001484422,265.1099999998798,0.002829854,265.1099999998798,0.003892985,265.1099999998798,0.0002230211
265.1249999998798,0.0001484538,265.1249999998798,0.002879268,265.1249999998798,0.0040641,265.1249999998798,0.0002290479
265.13999999987976,0.0001437199,265.13999999987976,0.003040909,265.13999999987976,0.004054629,265.13999999987976,0.0002260843
265.15499999987975,9.227831e-05,265.15499999987975,0.003098219,265.15499999987975,0.004071733,265.15499999987975,0.0001598662
265.16999999987974,7.685168e-05,265.16999999987974,0.003289382,265.16999999987974,0.00411248,265.16999999987974,0.0001508416
265.1849999998797,6.361242e-05,265.1849999998797,0.003529998,265.1849999998797,0.004121618,265.1849999998797,0.0001421347
265.1999999998797,4.462044e-05,265.1999999998797,0.003642749,265.1999999998797,0.00400235,265.1999999998797,0.0001343073
265.2149999998797,4.255632e-05,265.2149999998797,0.003711954,265.2149999998797,0.003915196,265.2149999998797,0.0001347782
265.2299999998797,4.318393e-05,265.2299999998797,0.003968119,265.2299999998797,0.003869995,265.2299999998797,0.0001355717
265.24499999987967,4.2309e-05,265.24499999987967,0.00410243,265.24499999987967,0.003911685,265.24499999987967,0.0001341109
265.25999999987965,4.262908e-05,265.25999999987965,0.004113256,265.25999999987965,0.003909879,265.25999999987965,0.0001332377
265.27499999987964,4.24257e-05,265.27499999987964,0.00411494,265.27499999987964,0.003884808,265.27499999987964,0.000129103
265.2899999998796,3.919415e-05,265.2899999998796,0.004149963,265.2899999998796,0.003733227,265.2899999998796,0.0001128247
265.3049999998796,3.786405e-05,265.3049999998796,0.004168826,265.3049999998796,0.003591825,265.3049999998796,0.0001122221
265.3199999998796,4.084017e-05,265.3199999998796,0.004014813,265.3199999998796,0.003554,265.3199999998796,9.898154e-05
265.3349999998796,5.333064e-05,265.3349999998796,0.003880485,265.3349999998796,0.003363472,265.3349999998796,9.21289e-05
265.34999999987957,5.772574e-05,265.34999999987957,0.003683989,265.34999999987957,0.003277422,265.34999999987957,9.146382e-05
265.36499999987956,7.032463e-05,265.36499999987956,0.003738437,265.36499999987956,0.003084827,265.36499999987956,0.0001020568
265.37999999987954,9.304406e-05,265.37999999987954,0.003862781,265.37999999987954,0.002969109,265.37999999987954,0.0001189022
265.39499999987953,9.688319e-05,265.39499999987953,0.003838443,265.39499999987953,0.003101083,265.39499999987953,0.0001202461
265.4099999998795,0.0001031095,265.4099999998795,0.003816714,265.4099999998795,0.003243208,265.4099999998795,0.0001223585
265.4249999998795,0.0001038626,265.4249999998795,0.003828645,265.4249999998795,0.003280265,265.4249999998795,0.0001219375
265.4399999998795,0.0001063142,265.4399999998795,0.003863915,265.4399999998795,0.003419457,265.4399999998795,0.0001322963
265.4549999998795,0.0001069682,265.4549999998795,0.003938286,265.4549999998795,0.003425941,265.4549999998795,0.0001375011
265.46999999987946,0.0001093845,265.46999999987946,0.003989281,265.46999999987946,0.003558968,265.46999999987946,0.000140574
265.48499999987945,0.0001092335,265.48499999987945,0.004013052,265.48499999987945,0.003728099,265.48499999987945,0.0001578873
265.49999999987944,0.0001101271,265.49999999987944,0.004171567,265.49999999987944,0.003950004,265.49999999987944,0.0001596187
265.5149999998794,0.000111254,265.5149999998794,0.004369755,265.5149999998794,0.004150938,265.5149999998794,0.0001697329
265.5299999998794,0.0001111531,265.5299999998794,0.004503808,265.5299999998794,0.004313063,265.5299999998794,0.0001819431
265.5449999998794,0.0001109607,265.5449999998794,0.00467356,265.5449999998794,0.00441571,265.5449999998794,0.0001819569
265.5599999998794,0.000111415,265.5599999998794,0.004851069,265.5599999998794,0.004640753,265.5599999998794,0.0001913174
265.57499999987937,0.000110744,265.57499999987937,0.005020188,265.57499999987937,0.004809498,265.57499999987937,0.0001920968
265.58999999987935,0.0001024541,265.58999999987935,0.004999559,265.58999999987935,0.00485146,265.58999999987935,0.0001884644
265.60499999987934,0.0001069705,265.60499999987934,0.005125049,265.60499999987934,0.004903235,265.60499999987934,0.0001927761
265.6199999998793,9.089032e-05,265.6199999998793,0.005154357,265.6199999998793,0.004960518,265.6199999998793,0.0001795732
265.6349999998793,7.540224e-05,265.6349999998793,0.004973274,265.6349999998793,0.005024788,265.6349999998793,0.0001783655
265.6499999998793,7.311275e-05,265.6499999998793,0.004813347,265.6499999998793,0.004968465,265.6499999998793,0.0001803113
265.6649999998793,7.394364e-05,265.6649999998793,0.00469542,265.6649999998793,0.004986686,265.6649999998793,0.0001818697
265.67999999987927,7.63262e-05,265.67999999987927,0.004677002,265.67999999987927,0.00498108,265.67999999987927,0.0001813857
265.69499999987926,7.210546e-05,265.69499999987926,0.00459026,265.69499999987926,0.00494429,265.69499999987926,0.0001786255
265.70999999987924,7.372691e-05,265.70999999987924,0.004419514,265.70999999987924,0.004847603,265.70999999987924,0.0001720049
265.72499999987923,7.062266e-05,265.72499999987923,0.00436942,265.72499999987923,0.004728834,265.72499999987923,0.0001658801
265.7399999998792,6.987127e-05,265.7399999998792,0.004435338,265.7399999998792,0.004588899,265.7399999998792,0.0001519894
265.7549999998792,6.987268e-05,265.7549999998792,0.004402765,265.7549999998792,0.004380133,265.7549999998792,0.000148689
265.7699999998792,6.865465e-05,265.7699999998792,0.004209205,265.7699999998792,0.004132555,265.7699999998792,0.0001391358
265.7849999998792,7.177238e-05,265.7849999998792,0.004218121,265.7849999998792,0.003984204,265.7849999998792,0.0001281762
265.79999999987916,9.29703e-05,265.79999999987916,0.004213205,265.79999999987916,0.004033614,265.79999999987916,0.0001576028
265.81499999987915,0.0001293545,265.81499999987915,0.004192609,265.81499999987915,0.004020303,265.81499999987915,0.0002009118
265.82999999987913,0.0001650341,265.82999999987913,0.004208014,265.82999999987913,0.004020303,265.82999999987913,0.0002332244
265.8449999998791,0.0001664461,265.8449999998791,0.004238165,265.8449999998791,0.00391439,265.8449999998791,0.0002339992
265.8599999998791,0.0001713256,265.8599999998791,0.004080195,265.8599999998791,0.003828464,265.8599999998791,0.0002383256
265.8749999998791,0.0001724287,265.8749999998791,0.004200249,265.8749999998791,0.00382845,265.8749999998791,0.0002387543
265.8899999998791,0.000172981,265.8899999998791,0.004296286,265.8899999998791,0.003670026,265.8899999998791,0.0002440459
265.90499999987907,0.0001713998,265.90499999987907,0.004487201,265.90499999987907,0.003804354,265.90499999987907,0.0002517816
265.91999999987905,0.0001716054,265.91999999987905,0.004568167,265.91999999987905,0.003816156,265.91999999987905,0.0002520795
265.93499999987904,0.0001728101,265.93499999987904,0.004612966,265.93499999987904,0.003832427,265.93499999987904,0.000279647
265.949999999879,0.0001731733,265.949999999879,0.004656516,265.949999999879,0.003988183,265.949999999879,0.0002890152
265.964999999879,0.0001733232,265.964999999879,0.004729743,265.964999999879,0.004182522,265.964999999879,0.0003010551
265.979999999879,0.0001735793,265.979999999879,0.004704044,265.979999999879,0.004359095,265.979999999879,0.0003055185
265.994999999879,0.0001738107,265.994999999879,0.004704044,265.994999999879,0.004487079,265.994999999879,0.000307483
266.00999999987897,0.0001735555,266.00999999987897,0.004722572,266.00999999987897,0.004516787,266.00999999987897,0.0003118748
266.02499999987896,0.0001732807,266.02499999987896,0.004887871,266.02499999987896,0.004650855,266.02499999987896,0.0003141549
266.03999999987894,0.0001737079,266.03999999987894,0.005003423,266.03999999987894,0.00480302,266.03999999987894,0.0003139898
266.05499999987893,0.000152802,266.05499999987893,0.004997947,266.05499999987893,0.004802771,266.05499999987893,0.0002962941
266.0699999998789,0.000115042,266.0699999998789,0.005004868,266.0699999998789,0.004826447,266.0699999998789,0.0002586714
266.0849999998789,8.788475e-05,266.0849999998789,0.004867384,266.0849999998789,0.004807228,266.0849999998789,0.0002467623
266.0999999998789,8.571592e-05,266.0999999998789,0.004890373,266.0999999998789,0.004905991,266.0999999998789,0.0002533496
266.1149999998789,7.24895e-05,266.1149999998789,0.005005184,266.1149999998789,0.004747754,266.1149999998789,0.0002464574
266.12999999987886,7.028595e-05,266.12999999987886,0.005023773,266.12999999987886,0.004530727,266.12999999987886,0.0002465778
266.14499999987885,7.171151e-05,266.14499999987885,0.005017504,266.14499999987885,0.004484329,266.14499999987885,0.0002329516
266.15999999987883,6.801333e-05,266.15999999987883,0.004996774,266.15999999987883,0.00436983,266.15999999987883,0.0002301257
266.1749999998788,6.404477e-05,266.1749999998788,0.004916017,266.1749999998788,0.004206778,266.1749999998788,0.0002307673
266.1899999998788,6.41217e-05,266.1899999998788,0.004953553,266.1899999998788,0.004045605,266.1899999998788,0.0001934721
266.2049999998788,7.360375e-05,266.2049999998788,0.004859031,266.2049999998788,0.004066406,266.2049999998788,0.000194395
266.2199999998788,8.679461e-05,266.2199999998788,0.004717316,266.2199999998788,0.004051797,266.2199999998788,0.0001853924
266.23499999987877,0.0001730122,266.23499999987877,0.004846163,266.23499999987877,0.004039594,266.23499999987877,0.0003042831
266.24999999987875,0.0002856176,266.24999999987875,0.004860209,266.24999999987875,0.00397539,266.24999999987875,0.000402907
266.26499999987874,0.0002888785,266.26499999987874,0.005025925,266.26499999987874,0.004109395,266.26499999987874,0.000398964
266.2799999998787,0.0003032003,266.2799999998787,0.005115764,266.2799999998787,0.004057203,266.2799999998787,0.0004112701
266.2949999998787,0.0003091425,266.2949999998787,0.005119359,266.2949999998787,0.004049619,266.2949999998787,0.0004160512
266.3099999998787,0.000312664,266.3099999998787,0.005083168,266.3099999998787,0.004061276,266.3099999998787,0.0004157987
266.3249999998787,0.0003129479,266.3249999998787,0.004873558,266.3249999998787,0.003954314,266.3249999998787,0.0004154556
266.33999999987867,0.0003136565,266.33999999987867,0.004902793,266.33999999987867,0.003921362,266.33999999987867,0.0004128687
266.35499999987866,0.0003157237,266.35499999987866,0.004977881,266.35499999987866,0.004174498,266.35499999987866,0.0004119142
266.36999999987864,0.0003156682,266.36999999987864,0.004942868,266.36999999987864,0.0043901,266.36999999987864,0.0004123761
266.38499999987863,0.0003156491,266.38499999987863,0.00491955,266.38499999987863,0.004453627,266.38499999987863,0.0004112905
266.3999999998786,0.0003150739,266.3999999998786,0.005015284,266.3999999998786,0.004440813,266.3999999998786,0.0004084634
266.4149999998786,0.0003151516,266.4149999998786,0.00507703,266.4149999998786,0.004415386,266.4149999998786,0.0004088221
266.4299999998786,0.0003146821,266.4299999998786,0.005110734,266.4299999998786,0.004545968,266.4299999998786,0.0004068046
266.4449999998786,0.0003120445,266.4449999998786,0.005067463,266.4449999998786,0.004556372,266.4449999998786,0.0004026089
266.45999999987856,0.0003118447,266.45999999987856,0.005072097,266.45999999987856,0.004414078,266.45999999987856,0.000402222
266.47499999987855,0.0002998652,266.47499999987855,0.005026655,266.47499999987855,0.004379773,266.47499999987855,0.0003851904
266.48999999987853,0.0002155176,266.48999999987853,0.00494894,266.48999999987853,0.004466795,266.48999999987853,0.0002440646
266.5049999998785,0.0001298775,266.5049999998785,0.005023153,266.5049999998785,0.0044234,266.5049999998785,0.0001570846
266.5199999998785,0.0001232432,266.5199999998785,0.004990896,266.5199999998785,0.004217393,266.5199999998785,0.0001506322
266.5349999998785,0.0001015362,266.5349999998785,0.004920454,266.5349999998785,0.004361625,266.5349999998785,0.0001377383
266.5499999998785,8.25895e-05,266.5499999998785,0.004784261,266.5499999998785,0.004354953,266.5499999998785,0.0001273006
266.56499999987847,6.849298e-05,266.56499999987847,0.004762431,266.56499999987847,0.004144147,266.56499999987847,0.000120588
266.57999999987845,6.907868e-05,266.57999999987845,0.0048487,266.57999999987845,0.003833489,266.57999999987845,0.0001199912
266.59499999987844,6.416497e-05,266.59499999987844,0.00483072,266.59499999987844,0.003750615,266.59499999987844,0.0001151809
266.6099999998784,5.876521e-05,266.6099999998784,0.004777249,266.6099999998784,0.003612422,266.6099999998784,0.0001118364
266.6249999998784,6.622903e-05,266.6249999998784,0.004767262,266.6249999998784,0.003616322,266.6249999998784,0.0001211482
266.6399999998784,0.0001254346,266.6399999998784,0.004777869,266.6399999998784,0.003778142,266.6399999998784,0.0001824782
266.6549999998784,0.0002253658,266.6549999998784,0.004748087,266.6549999998784,0.003977597,266.6549999998784,0.000311448
266.66999999987837,0.0002640575,266.66999999987837,0.004748087,266.66999999987837,0.004165601,266.66999999987837,0.0003388258
266.68499999987836,0.0002690259,266.68499999987836,0.004803856,266.68499999987836,0.004059128,266.68499999987836,0.0003430246
266.69999999987834,0.000276865,266.69999999987834,0.004789103,266.69999999987834,0.004004721,266.69999999987834,0.0003475058
266.71499999987833,0.0002794181,266.71499999987833,0.004778079,266.71499999987833,0.004085968,266.71499999987833,0.0003534922
266.7299999998783,0.0002800119,266.7299999998783,0.00477808,266.7299999998783,0.003944796,266.7299999998783,0.0003534358
266.7449999998783,0.0002802618,266.7449999998783,0.004843517,266.7449999998783,0.003776503,266.7449999998783,0.0003641851
266.7599999998783,0.0002813493,266.7599999998783,0.004757835,266.7599999998783,0.003688793,266.7599999998783,0.0003912262
266.7749999998783,0.0002832658,266.7749999998783,0.004669784,266.7749999998783,0.003833314,266.7749999998783,0.0004033398
266.78999999987826,0.0002829992,266.78999999987826,0.004606595,266.78999999987826,0.003878082,266.78999999987826,0.0004146397
266.80499999987825,0.0002825449,266.80499999987825,0.004736313,266.80499999987825,0.003907618,266.80499999987825,0.0004244594
266.81999999987823,0.0002831479,266.81999999987823,0.004750657,266.81999999987823,0.004090956,266.81999999987823,0.0004252007
266.8349999998782,0.0002841572,266.8349999998782,0.004981406,266.8349999998782,0.004280224,266.8349999998782,0.0004281795
266.8499999998782,0.00028442,266.8499999998782,0.005095304,266.8499999998782,0.004436018,266.8499999998782,0.0004324709
266.8649999998782,0.0002855929,266.8649999998782,0.005169451,266.8649999998782,0.00454957,266.8649999998782,0.0004375185
266.8799999998782,0.0002803484,266.8799999998782,0.005135777,266.8799999998782,0.004494017,266.8799999998782,0.0004306359
266.89499999987817,0.0002571875,266.89499999987817,0.005137306,266.89499999987817,0.004571923,266.89499999987817,0.0004039131
266.90999999987815,0.000148972,266.90999999987815,0.005011531,266.90999999987815,0.004571923,266.90999999987815,0.000311478
266.92499999987814,0.0001190801,266.92499999987814,0.004809617,266.92499999987814,0.004579385,266.92499999987814,0.0002988566
266.9399999998781,0.0001073329,266.9399999998781,0.004762681,266.9399999998781,0.004653272,266.9399999998781,0.0002949818
266.9549999998781,9.487729e-05,266.9549999998781,0.004818223,266.9549999998781,0.004575266,266.9549999998781,0.0002908854
266.9699999998781,8.078973e-05,266.9699999998781,0.004834222,266.9699999998781,0.004503072,266.9699999998781,0.0002818546
266.9849999998781,8.024037e-05,266.9849999998781,0.004714624,266.9849999998781,0.004593908,266.9849999998781,0.0002711933
266.99999999987807,7.979356e-05,266.99999999987807,0.004550565,266.99999999987807,0.004705899,266.99999999987807,0.0002576085
267.01499999987806,7.481069e-05,267.01499999987806,0.004679243,267.01499999987806,0.004754719,267.01499999987806,0.000204318
267.02999999987804,7.666356e-05,267.02999999987804,0.00475802,267.02999999987804,0.004710882,267.02999999987804,0.0002000084
267.04499999987803,9.125536e-05,267.04499999987803,0.004887275,267.04499999987803,0.004750574,267.04499999987803,0.0001771548
267.059999999878,0.0001042636,267.059999999878,0.004946768,267.059999999878,0.004768608,267.059999999878,0.0001630397
267.074999999878,0.0001229823,267.074999999878,0.004785143,267.074999999878,0.004712243,267.074999999878,0.0001757648
267.089999999878,0.0001526218,267.089999999878,0.004632892,267.089999999878,0.004696011,267.089999999878,0.0002043765
267.104999999878,0.0001505762,267.104999999878,0.004516308,267.104999999878,0.004587915,267.104999999878,0.0001863445
267.11999999987796,0.0001643768,267.11999999987796,0.00446358,267.11999999987796,0.004405392,267.11999999987796,0.0001852139
267.13499999987795,0.0001704528,267.13499999987795,0.004311293,267.13499999987795,0.004369729,267.13499999987795,0.0001903324
267.14999999987793,0.0001727015,267.14999999987793,0.004161617,267.14999999987793,0.004304143,267.14999999987793,0.0001919106
267.1649999998779,0.0001722585,267.1649999998779,0.004380051,267.1649999998779,0.004207818,267.1649999998779,0.0001909678
267.1799999998779,0.0001722181,267.1799999998779,0.004554776,267.1799999998779,0.004262005,267.1799999998779,0.0001916103
267.1949999998779,0.0001714367,267.1949999998779,0.004527075,267.1949999998779,0.004493665,267.1949999998779,0.0001906912
267.2099999998779,0.0001722051,267.2099999998779,0.004527075,267.2099999998779,0.004674493,267.2099999998779,0.0001907914
267.22499999987787,0.0001727077,267.22499999987787,0.004543239,267.22499999987787,0.004657495,267.22499999987787,0.0001908828
267.23999999987785,0.0001728008,267.23999999987785,0.004522699,267.23999999987785,0.004717984,267.23999999987785,0.0001909061
267.25499999987784,0.0001729944,267.25499999987784,0.004472485,267.25499999987784,0.004739775,267.25499999987784,0.0001914473
267.2699999998778,0.0001730207,267.2699999998778,0.004458216,267.2699999998778,0.004701711,267.2699999998778,0.0001948827
267.2849999998778,0.0001652433,267.2849999998778,0.004405319,267.2849999998778,0.004739538,267.2849999998778,0.0001869056
267.2999999998778,0.0001598162,267.2999999998778,0.004215235,267.2999999998778,0.004707641,267.2999999998778,0.0001815005
267.3149999998778,0.0001511149,267.3149999998778,0.00419855,267.3149999998778,0.004506921,267.3149999998778,0.0001735633
267.32999999987777,0.0001323719,267.32999999987777,0.004337162,267.32999999987777,0.004423364,267.32999999987777,0.000153029
267.34499999987776,0.0001012585,267.34499999987776,0.004390415,267.34499999987776,0.004282771,267.34499999987776,0.0001240207
267.35999999987774,9.870977e-05,267.35999999987774,0.00439774,267.35999999987774,0.004136303,267.35999999987774,0.0001254347
267.37499999987773,7.740016e-05,267.37499999987773,0.004349901,267.37499999987773,0.004123853,267.37499999987773,0.000119203
267.3899999998777,6.599763e-05,267.3899999998777,0.00430823,267.3899999998777,0.00397979,267.3899999998777,0.0001096986
267.4049999998777,6.630916e-05,267.4049999998777,0.00417345,267.4049999998777,0.003881978,267.4049999998777,0.0001086453
267.4199999998777,6.535374e-05,267.4199999998777,0.003981995,267.4199999998777,0.003820048,267.4199999998777,0.0001046137
267.4349999998777,6.762304e-05,267.4349999998777,0.003902196,267.4349999998777,0.003645255,267.4349999998777,0.0001067971
267.44999999987766,7.000702e-05,267.44999999987766,0.003879215,267.44999999987766,0.003470553,267.44999999987766,0.0001090711
267.46499999987765,7.495873e-05,267.46499999987765,0.003745169,267.46499999987765,0.003272891,267.46499999987765,0.0001139777
267.47999999987763,7.937371e-05,267.47999999987763,0.003745169,267.47999999987763,0.003089926,267.47999999987763,0.0001162317
267.4949999998776,9.206374e-05,267.4949999998776,0.003960082,267.4949999998776,0.003011126,267.4949999998776,0.0001343487
267.5099999998776,9.117954e-05,267.5099999998776,0.003895347,267.5099999998776,0.00283663,267.5099999998776,0.000136899
267.5249999998776,9.077184e-05,267.5249999998776,0.003816779,267.5249999998776,0.002739959,267.5249999998776,0.0001243638
267.5399999998776,0.0001037459,267.5399999998776,0.003945711,267.5399999998776,0.002681291,267.5399999998776,0.0001339605
267.55499999987757,0.000105344,267.55499999987757,0.003979908,267.55499999987757,0.002508679,267.55499999987757,0.0001331209
267.56999999987755,0.0001055072,267.56999999987755,0.004006751,267.56999999987755,0.002683069,267.56999999987755,0.0001446969
267.58499999987754,0.0001045028,267.58499999987754,0.003901675,267.58499999987754,0.002889386,267.58499999987754,0.0001665676
267.5999999998775,0.0001031975,267.5999999998775,0.003904558,267.5999999998775,0.002962894,267.5999999998775,0.0001752199
267.6149999998775,0.0001037338,267.6149999998775,0.003998371,267.6149999998775,0.003020891,267.6149999998775,0.0001864085
267.6299999998775,0.0001033526,267.6299999998775,0.004042763,267.6299999998775,0.003052283,267.6299999998775,0.000210991
267.6449999998775,0.0001033202,267.6449999998775,0.004118704,267.6449999998775,0.003404071,267.6449999998775,0.0002143556
267.65999999987747,0.0001074828,267.65999999987747,0.004446761,267.65999999987747,0.003692158,267.65999999987747,0.0002372682
267.67499999987746,0.0001062258,267.67499999987746,0.00470079,267.67499999987746,0.003861587,267.67499999987746,0.0002453209
267.68999999987744,0.0001032166,267.68999999987744,0.00481501,267.68999999987744,0.003937326,267.68999999987744,0.0002443092
267.70499999987743,0.0001025522,267.70499999987743,0.004867572,267.70499999987743,0.003948665,267.70499999987743,0.0002458481
267.7199999998774,9.414607e-05,267.7199999998774,0.004911716,267.7199999998774,0.003922651,267.7199999998774,0.0002470961
267.7349999998774,9.188132e-05,267.7349999998774,0.004809746,267.7349999998774,0.003919913,267.7349999998774,0.0002498684
267.7499999998774,8.046564e-05,267.7499999998774,0.00463064,267.7499999998774,0.003857205,267.7499999998774,0.0002420368
267.7649999998774,7.788639e-05,267.7649999998774,0.004728506,267.7649999998774,0.00385433,267.7649999998774,0.0002399414
267.77999999987736,7.340829e-05,267.77999999987736,0.00467573,267.77999999987736,0.003880351,267.77999999987736,0.0002405066
267.79499999987735,5.736369e-05,267.79499999987735,0.004733107,267.79499999987735,0.003735397,267.79499999987735,0.0002353106
267.80999999987733,5.548401e-05,267.80999999987733,0.00485933,267.80999999987733,0.003722128,267.80999999987733,0.0002326303
267.8249999998773,5.478112e-05,267.8249999998773,0.004832808,267.8249999998773,0.003557901,267.8249999998773,0.00022487
267.8399999998773,5.210577e-05,267.8399999998773,0.004930758,267.8399999998773,0.003376045,267.8399999998773,0.0002032902
267.8549999998773,5.152862e-05,267.8549999998773,0.004818227,267.8549999998773,0.003278331,267.8549999998773,0.0001991679
267.8699999998773,5.052457e-05,267.8699999998773,0.004575948,267.8699999998773,0.003172751,267.8699999998773,0.0001803266
267.88499999987727,5.18358e-05,267.88499999987727,0.004455955,267.88499999987727,0.003126794,267.88499999987727,0.000154448
267.89999999987725,0.0001059816,267.89999999987725,0.004526908,267.89999999987725,0.003083455,267.89999999987725,0.0001955096
267.91499999987724,0.0001252315,267.91499999987724,0.004617344,267.91499999987724,0.003005068,267.91499999987724,0.0001873479
267.9299999998772,0.0001349244,267.9299999998772,0.00456097,267.9299999998772,0.002943458,267.9299999998772,0.0001871299
267.9449999998772,0.0001616492,267.9449999998772,0.004495488,267.9449999998772,0.002845925,267.9449999998772,0.0002153505
267.9599999998772,0.0001701973,267.9599999998772,0.004505767,267.9599999998772,0.003011514,267.9599999998772,0.0002169146
267.9749999998772,0.0001711755,267.9749999998772,0.00448019,267.9749999998772,0.003246604,267.9749999998772,0.0002110347
267.98999999987717,0.0001746848,267.98999999987717,0.004653887,267.98999999987717,0.003412763,267.98999999987717,0.0002081498
268.00499999987716,0.0001905204,268.00499999987716,0.004735326,268.00499999987716,0.003719921,268.00499999987716,0.0002223163
268.01999999987714,0.0001953352,268.01999999987714,0.004672421,268.01999999987714,0.003965412,268.01999999987714,0.0002295864
268.03499999987713,0.0001950007,268.03499999987713,0.004676468,268.03499999987713,0.004066704,268.03499999987713,0.0002278042
268.0499999998771,0.0001960741,268.0499999998771,0.004775525,268.0499999998771,0.004275333,268.0499999998771,0.0002286508
268.0649999998771,0.0001966436,268.0649999998771,0.004829731,268.0649999998771,0.004466699,268.0649999998771,0.0002289852
268.0799999998771,0.0001968895,268.0799999998771,0.004775068,268.0799999998771,0.00462968,268.0799999998771,0.0002293296
268.0949999998771,0.0001976584,268.0949999998771,0.004688268,268.0949999998771,0.004720974,268.0949999998771,0.0002305938
268.10999999987706,0.0001988117,268.10999999987706,0.004623748,268.10999999987706,0.004839825,268.10999999987706,0.0002322224
268.12499999987705,0.0001987657,268.12499999987705,0.004630813,268.12499999987705,0.005046374,268.12499999987705,0.0002327512
268.13999999987703,0.0001978853,268.13999999987703,0.004774651,268.13999999987703,0.005221182,268.13999999987703,0.0002321509
268.154999999877,0.0001621364,268.154999999877,0.004916919,268.154999999877,0.005163672,268.154999999877,0.0001787582
268.169999999877,0.0001540281,268.169999999877,0.004924225,268.169999999877,0.004986263,268.169999999877,0.0001718642
268.184999999877,0.0001405352,268.184999999877,0.004990769,268.184999999877,0.004915249,268.184999999877,0.0001553996
268.199999999877,0.0001164087,268.199999999877,0.005011572,268.199999999877,0.004946911,268.199999999877,0.0001375365
268.21499999987697,0.0001081399,268.21499999987697,0.004990926,268.21499999987697,0.004936924,268.21499999987697,0.0001422184
268.22999999987695,0.0001047297,268.22999999987695,0.005004404,268.22999999987695,0.004834495,268.22999999987695,0.000144068
268.24499999987694,9.456558e-05,268.24499999987694,0.00495042,268.24499999987694,0.004728818,268.24499999987694,0.0001395722
268.2599999998769,6.236836e-05,268.2599999998769,0.004960319,268.2599999998769,0.004631612,268.2599999998769,0.0001218684
268.2749999998769,9.007313e-05,268.2749999998769,0.004875187,268.2749999998769,0.004676097,268.2749999998769,0.0001639009
268.2899999998769,0.0001340409,268.2899999998769,0.004916219,268.2899999998769,0.004684755,268.2899999998769,0.0002147904
268.3049999998769,0.0001789408,268.3049999998769,0.004916219,268.3049999998769,0.00459545,268.3049999998769,0.0002502216
268.31999999987687,0.0001840949,268.31999999987687,0.004916219,268.31999999987687,0.004521644,268.31999999987687,0.0002539732
268.33499999987686,0.0001907185,268.33499999987686,0.004970554,268.33499999987686,0.004525087,268.33499999987686,0.0002541455
268.34999999987684,0.0001963081,268.34999999987684,0.004927299,268.34999999987684,0.004541536,268.34999999987684,0.0002694675
268.36499999987683,0.0001960238,268.36499999987683,0.004994524,268.36499999987683,0.004345808,268.36499999987683,0.0002764979
268.3799999998768,0.0001960728,268.3799999998768,0.005205987,268.3799999998768,0.004101368,268.3799999998768,0.0002802597
268.3949999998768,0.0001964734,268.3949999998768,0.005186275,268.3949999998768,0.00379834,268.3949999998768,0.0002882899
268.4099999998768,0.0001967199,268.4099999998768,0.00509342,268.4099999998768,0.003629625,268.4099999998768,0.0002961419
268.4249999998768,0.000197079,268.4249999998768,0.004902073,268.4249999998768,0.003636922,268.4249999998768,0.0003187182
268.43999999987676,0.0001971149,268.43999999987676,0.005020221,268.43999999987676,0.003666314,268.43999999987676,0.0003216177
268.45499999987675,0.0001972011,268.45499999987675,0.004996966,268.45499999987675,0.003658143,268.45499999987675,0.0003254675
268.46999999987673,0.0001968111,268.46999999987673,0.00508158,268.46999999987673,0.003675734,268.46999999987673,0.0003226714
268.4849999998767,0.0001968515,268.4849999998767,0.005080065,268.4849999998767,0.003833188,268.4849999998767,0.0003222749
268.4999999998767,0.0001965918,268.4999999998767,0.005140695,268.4999999998767,0.003887103,268.4999999998767,0.0003310992
268.5149999998767,0.0001963405,268.5149999998767,0.005157773,268.5149999998767,0.003969474,268.5149999998767,0.0003310316
268.5299999998767,0.0001651211,268.5299999998767,0.005177327,268.5299999998767,0.003767262,268.5299999998767,0.0002935521
268.54499999987667,0.0001329969,268.54499999987667,0.00514661,268.54499999987667,0.003588452,268.54499999987667,0.0002635301
268.55999999987665,8.673373e-05,268.55999999987665,0.005075483,268.55999999987665,0.003465421,268.55999999987665,0.0002453377
268.57499999987664,8.273827e-05,268.57499999987664,0.004950777,268.57499999987664,0.003566662,268.57499999987664,0.0002458767
268.5899999998766,5.963492e-05,268.5899999998766,0.004863039,268.5899999998766,0.003348631,268.5899999998766,0.0002458908
268.6049999998766,4.42352e-05,268.6049999998766,0.004865829,268.6049999998766,0.003186475,268.6049999998766,0.0002203201
268.6199999998766,4.373818e-05,268.6199999998766,0.004820958,268.6199999998766,0.003183422,268.6199999998766,0.000216428
268.6349999998766,4.38925e-05,268.6349999998766,0.004723803,268.6349999998766,0.003233516,268.6349999998766,0.0002150362
268.64999999987657,4.497953e-05,268.64999999987657,0.004685867,268.64999999987657,0.003293118,268.64999999987657,0.0002035938
268.66499999987656,4.688225e-05,268.66499999987656,0.004544921,268.66499999987656,0.003369231,268.66499999987656,0.0001724326
268.67999999987654,4.640022e-05,268.67999999987654,0.004448863,268.67999999987654,0.003397864,268.67999999987654,0.0001536817
268.69499999987653,4.682182e-05,268.69499999987653,0.004278187,268.69499999987653,0.003270584,268.69499999987653,0.0001426749
268.7099999998765,4.813382e-05,268.7099999998765,0.004142274,268.7099999998765,0.003108133,268.7099999998765,0.0001290065
268.7249999998765,4.762395e-05,268.7249999998765,0.003987713,268.7249999998765,0.002879546,268.7249999998765,0.0001283446
268.7399999998765,4.956983e-05,268.7399999998765,0.003791351,268.7399999998765,0.002525761,268.7399999998765,0.0001200753
268.7549999998765,7.419677e-05,268.7549999998765,0.003548162,268.7549999998765,0.002498267,268.7549999998765,0.0001276636
268.76999999987646,9.390246e-05,268.76999999987646,0.003320711,268.76999999987646,0.00257852,268.76999999987646,0.0001394724
268.78499999987645,9.469063e-05,268.78499999987645,0.00304531,268.78499999987645,0.00266975,268.78499999987645,0.0001436417
268.79999999987643,9.537737e-05,268.79999999987643,0.002877513,268.79999999987643,0.002899341,268.79999999987643,0.000143076
268.8149999998764,9.522054e-05,268.8149999998764,0.002935215,268.8149999998764,0.003064229,268.8149999998764,0.0001389853
268.8299999998764,9.521669e-05,268.8299999998764,0.003172228,268.8299999998764,0.003107561,268.8299999998764,0.0001366483
268.8449999998764,9.579546e-05,268.8449999998764,0.003239009,268.8449999998764,0.003254899,268.8449999998764,0.0001344956
268.8599999998764,9.554102e-05,268.8599999998764,0.003003369,268.8599999998764,0.003514685,268.8599999998764,0.0001355009
268.87499999987637,9.797321e-05,268.87499999987637,0.003090793,268.87499999987637,0.003808127,268.87499999987637,0.0001351824
268.88999999987635,9.843024e-05,268.88999999987635,0.00323195,268.88999999987635,0.004030324,268.88999999987635,0.0001388037
268.90499999987634,9.877896e-05,268.90499999987634,0.003238386,268.90499999987634,0.004151184,268.90499999987634,0.0001476332
268.9199999998763,0.0001020822,268.9199999998763,0.003502521,268.9199999998763,0.004293584,268.9199999998763,0.0001882392
268.9349999998763,0.0001041798,268.9349999998763,0.003804432,268.9349999998763,0.004490565,268.9349999998763,0.0001939031
268.9499999998763,0.0001073779,268.9499999998763,0.004014436,268.9499999998763,0.004677493,268.9499999998763,0.0001996332
268.9649999998763,0.0001082544,268.9649999998763,0.004169427,268.9649999998763,0.004843126,268.9649999998763,0.0002031327
268.97999999987627,0.0001100454,268.97999999987627,0.004316455,268.97999999987627,0.004987093,268.97999999987627,0.000206048
268.99499999987626,0.0001037784,268.99499999987626,0.004431782,268.99499999987626,0.005157547,268.99499999987626,0.0001991163
269.00999999987624,8.126088e-05,269.00999999987624,0.004498008,269.00999999987624,0.005196857,269.00999999987624,0.0001778251
269.02499999987623,7.157624e-05,269.02499999987623,0.004767142,269.02499999987623,0.005188964,269.02499999987623,0.0001727223
269.0399999998762,6.903584e-05,269.0399999998762,0.005008532,269.0399999998762,0.005252436,269.0399999998762,0.0001704986
269.0549999998762,7.011519e-05,269.0549999998762,0.005130327,269.0549999998762,0.005287615,269.0549999998762,0.0001742325
269.0699999998762,7.079279e-05,269.0699999998762,0.005193704,269.0699999998762,0.005261542,269.0699999998762,0.0001747715
269.0849999998762,7.024245e-05,269.0849999998762,0.005056201,269.0849999998762,0.005139816,269.0849999998762,0.0001778664
269.09999999987616,6.960848e-05,269.09999999987616,0.004945698,269.09999999987616,0.005182785,269.09999999987616,0.0001843954
269.11499999987615,7.187966e-05,269.11499999987615,0.004938317,269.11499999987615,0.005255266,269.11499999987615,0.0001854368
269.12999999987613,6.918728e-05,269.12999999987613,0.004893881,269.12999999987613,0.005244636,269.12999999987613,0.0001814619
269.1449999998761,6.889491e-05,269.1449999998761,0.004836882,269.1449999998761,0.005074691,269.1449999998761,0.0001782514
269.1599999998761,6.226369e-05,269.1599999998761,0.004744655,269.1599999998761,0.005085149,269.1599999998761,0.0001598941
269.1749999998761,5.668659e-05,269.1749999998761,0.0048283,269.1749999998761,0.005156226,269.1749999998761,0.000119327
269.1899999998761,5.17101e-05,269.1899999998761,0.004769809,269.1899999998761,0.005078955,269.1899999998761,0.0001154422
269.20499999987607,4.729627e-05,269.20499999987607,0.00460221,269.20499999987607,0.004862939,269.20499999987607,0.0001070478
269.21999999987605,4.714712e-05,269.21999999987605,0.004479546,269.21999999987605,0.004687172,269.21999999987605,0.0001049271
269.23499999987604,4.329795e-05,269.23499999987604,0.004301488,269.23499999987604,0.004660802,269.23499999987604,0.0001017744
269.249999999876,4.405779e-05,269.249999999876,0.004242719,269.249999999876,0.00471143,269.249999999876,0.0001034718
269.264999999876,4.441635e-05,269.264999999876,0.004236426,269.264999999876,0.004739983,269.264999999876,0.0001238896
269.279999999876,4.446548e-05,269.279999999876,0.004236443,269.279999999876,0.004681966,269.279999999876,0.000134433
269.294999999876,4.42231e-05,269.294999999876,0.004207153,269.294999999876,0.00454634,269.294999999876,0.0001650271
269.30999999987597,4.201096e-05,269.30999999987597,0.00412766,269.30999999987597,0.004527963,269.30999999987597,0.0001684449
269.32499999987596,4.135636e-05,269.32499999987596,0.004255489,269.32499999987596,0.004497981,269.32499999987596,0.0001707077
269.33999999987594,4.153243e-05,269.33999999987594,0.004459288,269.33999999987594,0.004355204,269.33999999987594,0.0001677159
269.35499999987593,4.064794e-05,269.35499999987593,0.004604089,269.35499999987593,0.004127019,269.35499999987593,0.0001672755
269.3699999998759,3.396408e-05,269.3699999998759,0.004713726,269.3699999998759,0.003906066,269.3699999998759,0.0001686383
269.3849999998759,3.650788e-05,269.3849999998759,0.004620347,269.3849999998759,0.003637239,269.3849999998759,0.0001675336
269.3999999998759,3.972712e-05,269.3999999998759,0.004649016,269.3999999998759,0.003669266,269.3999999998759,0.0001681838
269.4149999998759,7.284289e-05,269.4149999998759,0.004699565,269.4149999998759,0.003735176,269.4149999998759,0.0001871908
269.42999999987586,0.0001257131,269.42999999987586,0.004647678,269.42999999987586,0.003728944,269.42999999987586,0.0002282164
269.44499999987585,0.000128425,269.44499999987585,0.004737838,269.44499999987585,0.003766241,269.44499999987585,0.0002296524
269.45999999987583,0.000132473,269.45999999987583,0.004742526,269.45999999987583,0.00380202,269.45999999987583,0.0002311709
269.4749999998758,0.0001370074,269.4749999998758,0.004657712,269.4749999998758,0.003645032,269.4749999998758,0.0002341171
269.4899999998758,0.0001388901,269.4899999998758,0.004777607,269.4899999998758,0.003563951,269.4899999998758,0.0002353738
269.5049999998758,0.0001437382,269.5049999998758,0.004700846,269.5049999998758,0.003460436,269.5049999998758,0.0002404522
269.5199999998758,0.0001452491,269.5199999998758,0.0045636,269.5199999998758,0.003248601,269.5199999998758,0.0002542711
269.53499999987577,0.0001464283,269.53499999987577,0.004567293,269.53499999987577,0.003253376,269.53499999987577,0.0002815671
269.54999999987575,0.0001496016,269.54999999987575,0.004635659,269.54999999987575,0.003246554,269.54999999987575,0.0003780832
269.56499999987574,0.0001518974,269.56499999987574,0.004781944,269.56499999987574,0.003092803,269.56499999987574,0.0004066644
269.5799999998757,0.0001555825,269.5799999998757,0.004794434,269.5799999998757,0.003047247,269.5799999998757,0.0004410596
269.5949999998757,0.000157625,269.5949999998757,0.004794434,269.5949999998757,0.003372593,269.5949999998757,0.0004419335
269.6099999998757,0.0001606124,269.6099999998757,0.004794434,269.6099999998757,0.0036136,269.6099999998757,0.000455177
269.6249999998757,0.0001606529,269.6249999998757,0.004820284,269.6249999998757,0.003826988,269.6249999998757,0.0004691644
269.63999999987567,0.0001602842,269.63999999987567,0.004831937,269.63999999987567,0.003999176,269.63999999987567,0.0004695443
269.65499999987566,0.0001548014,269.65499999987566,0.004684239,269.65499999987566,0.004107137,269.65499999987566,0.000466484
269.66999999987564,0.0001352872,269.66999999987564,0.004725853,269.66999999987564,0.004119242,269.66999999987564,0.0004549533
269.68499999987563,0.000107456,269.68499999987563,0.004719991,269.68499999987563,0.004117431,269.68499999987563,0.0004440013
269.6999999998756,0.0001067038,269.6999999998756,0.004763743,269.6999999998756,0.004146091,269.6999999998756,0.0004439983
269.7149999998756,0.0001010854,269.7149999998756,0.004824281,269.7149999998756,0.004094184,269.7149999998756,0.0004441512
269.7299999998756,9.76118e-05,269.7299999998756,0.005022062,269.7299999998756,0.004163815,269.7299999998756,0.0004437402
269.7449999998756,9.451016e-05,269.7449999998756,0.004969269,269.7449999998756,0.004408156,269.7449999998756,0.0004432791
269.75999999987556,8.924009e-05,269.75999999987556,0.004948289,269.75999999987556,0.004517436,269.75999999987556,0.0004360414
269.77499999987555,8.801784e-05,269.77499999987555,0.004856473,269.77499999987555,0.004518157,269.77499999987555,0.0004257388
269.78999999987553,8.47534e-05,269.78999999987553,0.004716815,269.78999999987553,0.004574137,269.78999999987553,0.0003568279
269.8049999998755,9.152541e-05,269.8049999998755,0.004707092,269.8049999998755,0.004736381,269.8049999998755,0.0003079366
269.8199999998755,0.0001204311,269.8199999998755,0.004534011,269.8199999998755,0.004816452,269.8199999998755,0.0002744773
269.8349999998755,0.0002312623,269.8349999998755,0.004429008,269.8349999998755,0.004885859,269.8349999998755,0.0003624885
269.8499999998755,0.0002705002,269.8499999998755,0.004536437,269.8499999998755,0.004802659,269.8499999998755,0.0003974559
269.86499999987547,0.0002784257,269.86499999987547,0.004681085,269.86499999987547,0.004746378,269.86499999987547,0.0003759205
269.87999999987545,0.0002937181,269.87999999987545,0.004734657,269.87999999987545,0.004746346,269.87999999987545,0.0003795581
269.89499999987544,0.0002972804,269.89499999987544,0.004780907,269.89499999987544,0.004836404,269.89499999987544,0.0003807957
269.9099999998754,0.0002971843,269.9099999998754,0.004805529,269.9099999998754,0.00486105,269.9099999998754,0.0003796019
269.9249999998754,0.0002972121,269.9249999998754,0.004721903,269.9249999998754,0.004826092,269.9249999998754,0.0003786972
269.9399999998754,0.0002972268,269.9399999998754,0.004877042,269.9399999998754,0.004846103,269.9399999998754,0.0003787811
269.9549999998754,0.0002969023,269.9549999998754,0.004812058,269.9549999998754,0.005003042,269.9549999998754,0.0003790508
269.96999999987537,0.0002969512,269.96999999987537,0.004893066,269.96999999987537,0.005076881,269.96999999987537,0.0003795686
269.98499999987536,0.0002983671,269.98499999987536,0.004893821,269.98499999987536,0.005085619,269.98499999987536,0.0003793314
269.99999999987534,0.0002995515,269.99999999987534,0.004946758,269.99999999987534,0.005085618,269.99999999987534,0.0003791373
270.01499999987533,0.000299255,270.01499999987533,0.00509386,270.01499999987533,0.005038956,270.01499999987533,0.0003800426
270.0299999998753,0.0002994397,270.0299999998753,0.005120974,270.0299999998753,0.004976323,270.0299999998753,0.0003800246
270.0449999998753,0.000298253,270.0449999998753,0.00514025,270.0449999998753,0.004866136,270.0449999998753,0.0003817747
270.0599999998753,0.0002960952,270.0599999998753,0.005113396,270.0599999998753,0.004725928,270.0599999998753,0.0003807406
270.0749999998753,0.0002776112,270.0749999998753,0.005120567,270.0749999998753,0.004628676,270.0749999998753,0.0003458913
270.08999999987526,0.0001630456,270.08999999987526,0.005050732,270.08999999987526,0.004522928,270.08999999987526,0.0001898743
270.10499999987525,0.0001406137,270.10499999987525,0.004920845,270.10499999987525,0.004601931,270.10499999987525,0.0001685759
270.11999999987523,0.0001175925,270.11999999987523,0.004791713,270.11999999987523,0.004642843,270.11999999987523,0.0001569704
270.1349999998752,8.338408e-05,270.1349999998752,0.004640288,270.1349999998752,0.00452975,270.1349999998752,0.0001350384
270.1499999998752,7.787246e-05,270.1499999998752,0.004471736,270.1499999998752,0.004263071,270.1499999998752,0.0001382719
270.1649999998752,7.839152e-05,270.1649999998752,0.004351227,270.1649999998752,0.004050328,270.1649999998752,0.0001383597
270.1799999998752,7.511961e-05,270.1799999998752,0.004212244,270.1799999998752,0.003958183,270.1799999998752,0.0001334521
270.19499999987517,7.823612e-05,270.19499999987517,0.004079434,270.19499999987517,0.003893369,270.19499999987517,0.000136389
270.20999999987515,8.168518e-05,270.20999999987515,0.004115853,270.20999999987515,0.003859143,270.20999999987515,0.0001418173
270.22499999987514,8.65054e-05,270.22499999987514,0.004037814,270.22499999987514,0.00377243,270.22499999987514,0.0001479534
270.2399999998751,0.0001232978,270.2399999998751,0.00402964,270.2399999998751,0.003826863,270.2399999998751,0.0001784258
270.2549999998751,0.0001276202,270.2549999998751,0.004025911,270.2549999998751,0.003722216,270.2549999998751,0.0001811183
270.2699999998751,0.0001384389,270.2699999998751,0.003966691,270.2699999998751,0.003875302,270.2699999998751,0.0001905371
270.2849999998751,0.0001442463,270.2849999998751,0.004029868,270.2849999998751,0.004010351,270.2849999998751,0.0001926211
270.29999999987507,0.00014366,270.29999999987507,0.004029891,270.29999999987507,0.003840221,270.29999999987507,0.0001803391
270.31499999987506,0.0001446075,270.31499999987506,0.004132243,270.31499999987506,0.003825089,270.31499999987506,0.0002116296
270.32999999987504,0.0001442087,270.32999999987504,0.004112361,270.32999999987504,0.003981016,270.32999999987504,0.0002462644
270.34499999987503,0.0001409196,270.34499999987503,0.004202271,270.34499999987503,0.003984625,270.34499999987503,0.0004453181
270.359999999875,0.0001426499,270.359999999875,0.004385641,270.359999999875,0.00388597,270.359999999875,0.0004776242
270.374999999875,0.0001459404,270.374999999875,0.004573753,270.374999999875,0.00387029,270.374999999875,0.0005404236
270.389999999875,0.0001503189,270.389999999875,0.004754735,270.389999999875,0.004027318,270.389999999875,0.0005416267
270.404999999875,0.0001546851,270.404999999875,0.004933192,270.404999999875,0.004226199,270.404999999875,0.0005441273
270.41999999987496,0.0001558794,270.41999999987496,0.005069935,270.41999999987496,0.004398669,270.41999999987496,0.0005577315
270.43499999987495,0.0001598011,270.43499999987495,0.005117333,270.43499999987495,0.004505732,270.43499999987495,0.0005589429
270.44999999987493,0.000159528,270.44999999987493,0.005011536,270.44999999987493,0.004610712,270.44999999987493,0.0005620591
270.4649999998749,0.000155269,270.4649999998749,0.004971418,270.4649999998749,0.004494484,270.4649999998749,0.0005625744
270.4799999998749,0.000145091,270.4799999998749,0.005071213,270.4799999998749,0.004541346,270.4799999998749,0.0005584477
270.4949999998749,0.0001174245,270.4949999998749,0.005087404,270.4949999998749,0.004457162,270.4949999998749,0.0005519605
270.5099999998749,0.000113842,270.5099999998749,0.00503611,270.5099999998749,0.004419827,270.5099999998749,0.0005509792
270.52499999987486,9.666659e-05,270.52499999987486,0.004977134,270.52499999987486,0.00416822,270.52499999987486,0.0005463072
270.53999999987485,9.653608e-05,270.53999999987485,0.00505959,270.53999999987485,0.004036268,270.53999999987485,0.0005465455
270.55499999987484,9.47907e-05,270.55499999987484,0.00508895,270.55499999987484,0.004083786,270.55499999987484,0.0005415417
270.5699999998748,9.48415e-05,270.5699999998748,0.005032606,270.5699999998748,0.004074638,270.5699999998748,0.0005207844
270.5849999998748,0.0001016785,270.5849999998748,0.004888596,270.5849999998748,0.004143854,270.5849999998748,0.0004928975
270.5999999998748,0.0001161725,270.5999999998748,0.004926631,270.5999999998748,0.004330114,270.5999999998748,0.0003516527
270.6149999998748,0.0001266284,270.6149999998748,0.004965386,270.6149999998748,0.004486806,270.6149999998748,0.00030257
270.62999999987477,0.0002224672,270.62999999987477,0.004956863,270.62999999987477,0.004502153,270.62999999987477,0.0003343006
270.64499999987476,0.0002668905,270.64499999987476,0.004918963,270.64499999987476,0.004464359,270.64499999987476,0.000369131
270.65999999987474,0.0002683679,270.65999999987474,0.00503293,270.65999999987474,0.00446549,270.65999999987474,0.0003580038
270.67499999987473,0.0002768281,270.67499999987473,0.005088647,270.67499999987473,0.004473875,270.67499999987473,0.0003411575
270.6899999998747,0.0002737739,270.6899999998747,0.005181909,270.6899999998747,0.004374889,270.6899999998747,0.0003392097
270.7049999998747,0.0002737568,270.7049999998747,0.005242746,270.7049999998747,0.004106607,270.7049999998747,0.0003352304
270.7199999998747,0.0002748125,270.7199999998747,0.00524998,270.7199999998747,0.004052859,270.7199999998747,0.0003360909
270.7349999998747,0.000274508,270.7349999998747,0.005249938,270.7349999998747,0.004028878,270.7349999998747,0.000336504
270.74999999987466,0.0002751982,270.74999999987466,0.005186174,270.74999999987466,0.004314288,270.74999999987466,0.0003366009
270.76499999987465,0.0002752906,270.76499999987465,0.005097826,270.76499999987465,0.004557629,270.76499999987465,0.0003377289
270.77999999987463,0.0002751685,270.77999999987463,0.004990848,270.77999999987463,0.004672199,270.77999999987463,0.0003382144
270.7949999998746,0.0002748885,270.7949999998746,0.004866701,270.7949999998746,0.004811899,270.7949999998746,0.0003387007
270.8099999998746,0.0002746212,270.8099999998746,0.004723469,270.8099999998746,0.004805202,270.8099999998746,0.0003386274
270.8249999998746,0.0002738465,270.8249999998746,0.004561416,270.8249999998746,0.004751514,270.8249999998746,0.0003368816
270.8399999998746,0.0002698988,270.8399999998746,0.004404427,270.8399999998746,0.004676022,270.8399999998746,0.0003300911
270.85499999987456,0.0002621394,270.85499999987456,0.004197172,270.85499999987456,0.004484882,270.85499999987456,0.0003142297
270.86999999987455,0.0002489775,270.86999999987455,0.004012826,270.86999999987455,0.004223203,270.86999999987455,0.0002886179
270.88499999987454,0.0001339344,270.88499999987454,0.003837119,270.88499999987454,0.004075459,270.88499999987454,0.0001348541
270.8999999998745,9.220502e-05,270.8999999998745,0.003664455,270.8999999998745,0.004035945,270.8999999998745,9.684319e-05
270.9149999998745,7.951928e-05,270.9149999998745,0.003462896,270.9149999998745,0.003898755,270.9149999998745,9.376284e-05
270.9299999998745,5.420543e-05,270.9299999998745,0.003354368,270.9299999998745,0.00375593,270.9299999998745,9.685251e-05
270.9449999998745,5.672534e-05,270.9449999998745,0.003125378,270.9449999998745,0.003684006,270.9449999998745,0.0001036276
270.95999999987447,5.44665e-05,270.95999999987447,0.003113879,270.95999999987447,0.003649017,270.95999999987447,8.889911e-05
270.97499999987446,6.343991e-05,270.97499999987446,0.002922087,270.97499999987446,0.003769255,270.97499999987446,9.455411e-05
270.98999999987444,6.671728e-05,270.98999999987444,0.002917395,270.98999999987444,0.003821071,270.98999999987444,9.535698e-05
271.0049999998744,9.275839e-05,271.0049999998744,0.002880835,271.0049999998744,0.003748068,271.0049999998744,0.000121227
271.0199999998744,0.0001211683,271.0199999998744,0.002937507,271.0199999998744,0.003735702,271.0199999998744,0.0001487797
271.0349999998744,0.000125353,271.0349999998744,0.003149282,271.0349999998744,0.003798629,271.0349999998744,0.0001477423
271.0499999998744,0.0001308267,271.0499999998744,0.003288015,271.0499999998744,0.00364202,271.0499999998744,0.0001562919
271.0649999998744,0.0001364265,271.0649999998744,0.003611253,271.0649999998744,0.00363938,271.0649999998744,0.0001595714
271.07999999987436,0.0001385218,271.07999999987436,0.003843648,271.07999999987436,0.003849063,271.07999999987436,0.0001579686
271.09499999987435,0.0001385451,271.09499999987435,0.004042408,271.09499999987435,0.003803405,271.09499999987435,0.0001901617
271.10999999987433,0.0001391785,271.10999999987433,0.004192862,271.10999999987433,0.003927844,271.10999999987433,0.0002399688
271.1249999998743,0.0001387384,271.1249999998743,0.004277965,271.1249999998743,0.004092271,271.1249999998743,0.0003456299
271.1399999998743,0.0001385268,271.1399999998743,0.004384537,271.1399999998743,0.004059649,271.1399999998743,0.0003999519
271.1549999998743,0.0001405602,271.1549999998743,0.00465106,271.1549999998743,0.004137351,271.1549999998743,0.0004675882
271.1699999998743,0.0001469059,271.1699999998743,0.004838897,271.1699999998743,0.004339161,271.1699999998743,0.000478685
271.18499999987426,0.0001470424,271.18499999987426,0.004991152,271.18499999987426,0.004522597,271.18499999987426,0.0005012578
271.19999999987425,0.0001458547,271.19999999987425,0.00506255,271.19999999987425,0.004675616,271.19999999987425,0.0005207502
271.21499999987424,0.0001438932,271.21499999987424,0.005095155,271.21499999987424,0.00477079,271.21499999987424,0.0005238605
271.2299999998742,0.0001384384,271.2299999998742,0.004997031,271.2299999998742,0.004770442,271.2299999998742,0.0005324667
271.2449999998742,0.0001372622,271.2449999998742,0.004994923,271.2449999998742,0.004689425,271.2449999998742,0.0005380205
271.2599999998742,0.0001152415,271.2599999998742,0.005082641,271.2599999998742,0.004727742,271.2599999998742,0.0005324227
271.2749999998742,8.9081e-05,271.2749999998742,0.005053215,271.2749999998742,0.004700035,271.2749999998742,0.000526754
271.28999999987417,8.749487e-05,271.28999999987417,0.004947476,271.28999999987417,0.004644116,271.28999999987417,0.0005259
271.30499999987416,7.998787e-05,271.30499999987416,0.005013358,271.30499999987416,0.004678384,271.30499999987416,0.0005237474
271.31999999987414,7.3415e-05,271.31999999987414,0.005107097,271.31999999987414,0.00464754,271.31999999987414,0.0005233288
271.3349999998741,7.235724e-05,271.3349999998741,0.005132742,271.3349999998741,0.00451365,271.3349999998741,0.0005219068
271.3499999998741,7.26574e-05,271.3499999998741,0.0050562,271.3499999998741,0.004549398,271.3499999998741,0.0005083471
271.3649999998741,7.540859e-05,271.3649999998741,0.004938662,271.3649999998741,0.004529369,271.3649999998741,0.000462909
271.3799999998741,9.956955e-05,271.3799999998741,0.004946182,271.3799999998741,0.004661566,271.3799999998741,0.0004307354
271.3949999998741,0.0001032836,271.3949999998741,0.004933211,271.3949999998741,0.004770411,271.3949999998741,0.0003449336
271.40999999987406,0.0001267013,271.40999999987406,0.004904566,271.40999999987406,0.004745239,271.40999999987406,0.0002973236
271.42499999987405,0.0001713795,271.42499999987405,0.004839351,271.42499999987405,0.004680163,271.42499999987405,0.000321842
271.43999999987403,0.0001875023,271.43999999987403,0.004934456,271.43999999987403,0.00468942,271.43999999987403,0.0002995531
271.454999999874,0.0001937526,271.454999999874,0.005001257,271.454999999874,0.004657446,271.454999999874,0.0002716166
271.469999999874,0.0001984501,271.469999999874,0.005107658,271.469999999874,0.00445237,271.469999999874,0.0002866909
271.484999999874,0.0002098063,271.484999999874,0.005225605,271.484999999874,0.004468813,271.484999999874,0.0003028368
271.499999999874,0.000216099,271.499999999874,0.005230489,271.499999999874,0.00461372,271.499999999874,0.0003031245
271.51499999987396,0.0002154011,271.51499999987396,0.005228089,271.51499999987396,0.004659254,271.51499999987396,0.000304318
271.52999999987395,0.0002150053,271.52999999987395,0.005180083,271.52999999987395,0.004707541,271.52999999987395,0.0003042559
271.54499999987394,0.0002246808,271.54499999987394,0.005117286,271.54499999987394,0.004843593,271.54499999987394,0.0003114598
271.5599999998739,0.0002344426,271.5599999998739,0.005153569,271.5599999998739,0.004993478,271.5599999998739,0.0003243585
271.5749999998739,0.0002352748,271.5749999998739,0.005113328,271.5749999998739,0.005092732,271.5749999998739,0.0003265654
271.5899999998739,0.0002379255,271.5899999998739,0.004955336,271.5899999998739,0.005112548,271.5899999998739,0.0003313724
271.6049999998739,0.0002427621,271.6049999998739,0.004778355,271.6049999998739,0.005120093,271.6049999998739,0.0003396712
271.61999999987387,0.0002416823,271.61999999987387,0.00461407,271.61999999987387,0.005186688,271.61999999987387,0.0003467453
271.63499999987386,0.0002306572,271.63499999987386,0.004429572,271.63499999987386,0.005186675,271.63499999987386,0.0003386062
271.64999999987384,0.0002278396,271.64999999987384,0.004263531,271.64999999987384,0.005186644,271.64999999987384,0.0003364609
271.6649999998738,0.0002125689,271.6649999998738,0.004067515,271.6649999998738,0.005100952,271.6649999998738,0.0003274641
271.6799999998738,0.000167296,271.6799999998738,0.003942383,271.6799999998738,0.004970496,271.6799999998738,0.0002814715
271.6949999998738,0.0001606547,271.6949999998738,0.004092246,271.6949999998738,0.00496322,271.6949999998738,0.0002703166
271.7099999998738,0.0001561798,271.7099999998738,0.004115987,271.7099999998738,0.004983872,271.7099999998738,0.0002730062
271.7249999998738,0.0001480036,271.7249999998738,0.004139526,271.7249999998738,0.004918026,271.7249999998738,0.0002469981
271.73999999987376,0.0001375538,271.73999999987376,0.003983433,271.73999999987376,0.004765257,271.73999999987376,0.0002212965
271.75499999987375,0.0001435431,271.75499999987375,0.003957238,271.75499999987375,0.004710813,271.75499999987375,0.000233244
271.76999999987373,0.0001525159,271.76999999987373,0.003971428,271.76999999987373,0.004655375,271.76999999987373,0.0002449118
271.7849999998737,0.0001978535,271.7849999998737,0.003927147,271.7849999998737,0.00460068,271.7849999998737,0.0002910216
271.7999999998737,0.0001971252,271.7999999998737,0.00394586,271.7999999998737,0.004622214,271.7999999998737,0.0002929422
271.8149999998737,0.0001931352,271.8149999998737,0.003929841,271.8149999998737,0.004534749,271.8149999998737,0.0002832844
271.8299999998737,0.0002001207,271.8299999998737,0.004102499,271.8299999998737,0.004423658,271.8299999998737,0.0002849558
271.84499999987366,0.0001976831,271.84499999987366,0.004325705,271.84499999987366,0.004418235,271.84499999987366,0.0002801527
271.85999999987365,0.000193081,271.85999999987365,0.004528297,271.85999999987365,0.004334654,271.85999999987365,0.0002980699
271.87499999987364,0.0001912194,271.87499999987364,0.004706781,271.87499999987364,0.004294871,271.87499999987364,0.0003463383
271.8899999998736,0.0001912049,271.8899999998736,0.004869601,271.8899999998736,0.004212679,271.8899999998736,0.0004964705
271.9049999998736,0.0001908723,271.9049999998736,0.004952736,271.9049999998736,0.004004786,271.9049999998736,0.0005307344
271.9199999998736,0.0001912348,271.9199999998736,0.005121241,271.9199999998736,0.003995923,271.9199999998736,0.0006008414
271.9349999998736,0.0001957361,271.9349999998736,0.005207982,271.9349999998736,0.004273292,271.9349999998736,0.000653333
271.94999999987357,0.0002007969,271.94999999987357,0.005207982,271.94999999987357,0.00438978,271.94999999987357,0.0007738901
271.96499999987356,0.0002043433,271.96499999987356,0.005228895,271.96499999987356,0.004464759,271.96499999987356,0.0008446831
271.97999999987354,0.0002084136,271.97999999987354,0.00522512,271.97999999987354,0.004630466,271.97999999987354,0.0008605075
271.9949999998735,0.0002041701,271.9949999998735,0.005265217,271.9949999998735,0.004680839,271.9949999998735,0.0008839627
272.0099999998735,0.0001926356,272.0099999998735,0.005265205,272.0099999998735,0.004619595,272.0099999998735,0.0008851111
272.0249999998735,0.0001806943,272.0249999998735,0.005302858,272.0249999998735,0.004505361,272.0249999998735,0.0008898873
272.0399999998735,0.0001316536,272.0399999998735,0.005280002,272.0399999998735,0.004412447,272.0399999998735,0.0008801987
272.0549999998735,0.0001233448,272.0549999998735,0.005106368,272.0549999998735,0.004267199,272.0549999998735,0.0008841571
272.06999999987346,0.0001168632,272.06999999987346,0.005022041,272.06999999987346,0.004361904,272.06999999987346,0.0008970465
272.08499999987345,0.0001106837,272.08499999987345,0.004898442,272.08499999987345,0.004337469,272.08499999987345,0.0009031741
272.09999999987343,0.0001119495,272.09999999987343,0.004852153,272.09999999987343,0.004151935,272.09999999987343,0.0009032625
272.1149999998734,0.0001119697,272.1149999998734,0.004726994,272.1149999998734,0.004150403,272.1149999998734,0.0008939425
272.1299999998734,0.0001107258,272.1299999998734,0.004501106,272.1299999998734,0.003994253,272.1299999998734,0.0008336324
272.1449999998734,0.0001126076,272.1449999998734,0.004475351,272.1449999998734,0.003880921,272.1449999998734,0.0007996134
272.1599999998734,0.0001233283,272.1599999998734,0.004367058,272.1599999998734,0.003729331,272.1599999998734,0.0007733421
272.17499999987336,0.0001556749,272.17499999987336,0.004085398,272.17499999987336,0.00379207,272.17499999987336,0.000700032
272.18999999987335,0.0002013922,272.18999999987335,0.004254118,272.18999999987335,0.003846003,272.18999999987335,0.0006894569
272.20499999987334,0.0002037426,272.20499999987334,0.004424734,272.20499999987334,0.00381268,272.20499999987334,0.0005210572
272.2199999998733,0.0002198805,272.2199999998733,0.004424829,272.2199999998733,0.003880141,272.2199999998733,0.0004718648
272.2349999998733,0.0002318436,272.2349999998733,0.004526065,272.2349999998733,0.003804249,272.2349999998733,0.0004725933
272.2499999998733,0.0002331162,272.2499999998733,0.004598543,272.2499999998733,0.003792623,272.2499999998733,0.0004384626
272.2649999998733,0.0002370449,272.2649999998733,0.004482859,272.2649999998733,0.003971123,272.2649999998733,0.0004404041
272.27999999987327,0.0002377545,272.27999999987327,0.00425869,272.27999999987327,0.004161061,272.27999999987327,0.0004207361
272.29499999987326,0.0002368371,272.29499999987326,0.004276312,272.29499999987326,0.004302359,272.29499999987326,0.0004164529
272.30999999987324,0.0002377064,272.30999999987324,0.004594326,272.30999999987324,0.004457047,272.30999999987324,0.0004030577
272.3249999998732,0.0002424719,272.3249999998732,0.004863944,272.3249999998732,0.004495859,272.3249999998732,0.0003909788
272.3399999998732,0.0002415993,272.3399999998732,0.00498395,272.3399999998732,0.004607891,272.3399999998732,0.0003977905
272.3549999998732,0.0002423143,272.3549999998732,0.004895572,272.3549999998732,0.004783186,272.3549999998732,0.0003985282
272.3699999998732,0.0002464014,272.3699999998732,0.004827037,272.3699999998732,0.005003654,272.3699999998732,0.0003944794
272.3849999998732,0.0002467984,272.3849999998732,0.004819728,272.3849999998732,0.005155891,272.3849999998732,0.0003911583
272.39999999987316,0.0002501819,272.39999999987316,0.004757166,272.39999999987316,0.005207062,272.39999999987316,0.0003954693
272.41499999987315,0.0002459846,272.41499999987315,0.004734429,272.41499999987315,0.005260329,272.41499999987315,0.0003876616
272.42999999987313,0.000206866,272.42999999987313,0.004837065,272.42999999987313,0.005321844,272.42999999987313,0.000356378
272.4449999998731,0.0001716436,272.4449999998731,0.004761036,272.4449999998731,0.005297643,272.4449999998731,0.0003267016
272.4599999998731,0.00016923,272.4599999998731,0.004568325,272.4599999998731,0.00523808,272.4599999998731,0.0003248192
272.4749999998731,0.0001444531,272.4749999998731,0.004414188,272.4749999998731,0.005115288,272.4749999998731,0.0002939019
272.4899999998731,0.000127525,272.4899999998731,0.004252061,272.4899999998731,0.005008176,272.4899999998731,0.0002835876
272.50499999987306,0.0001251088,272.50499999987306,0.004174902,272.50499999987306,0.004971583,272.50499999987306,0.0002641434
272.51999999987305,0.000120135,272.51999999987305,0.003989936,272.51999999987305,0.004817495,272.51999999987305,0.0002576168
272.53499999987304,0.0001183424,272.53499999987304,0.003799309,272.53499999987304,0.004611025,272.53499999987304,0.0002503017
272.549999999873,0.0001284719,272.549999999873,0.003788027,272.549999999873,0.004577891,272.549999999873,0.0002514581
272.564999999873,0.0001558653,272.564999999873,0.003748474,272.564999999873,0.004550773,272.564999999873,0.0002739487
272.579999999873,0.0001678128,272.579999999873,0.003661178,272.579999999873,0.004493234,272.579999999873,0.0002599832
272.594999999873,0.0001678052,272.594999999873,0.003676744,272.594999999873,0.004304026,272.594999999873,0.0002400566
272.60999999987297,0.0001683644,272.60999999987297,0.003736943,272.60999999987297,0.004204649,272.60999999987297,0.0002429415
272.62499999987295,0.0001630169,272.62499999987295,0.003832611,272.62499999987295,0.00406431,272.62499999987295,0.0002418323
272.63999999987294,0.0001641226,272.63999999987294,0.00397109,272.63999999987294,0.003889008,272.63999999987294,0.0002411579
272.6549999998729,0.0001557029,272.6549999998729,0.003798108,272.6549999998729,0.003865062,272.6549999998729,0.0002340416
272.6699999998729,0.000151619,272.6699999998729,0.003811918,272.6699999998729,0.003870513,272.6699999998729,0.0002891411
272.6849999998729,0.0001512738,272.6849999998729,0.003818766,272.6849999998729,0.003638797,272.6849999998729,0.0003411091
272.6999999998729,0.0001583611,272.6999999998729,0.00394999,272.6999999998729,0.003263539,272.6999999998729,0.0007335249
272.7149999998729,0.0001611294,272.7149999998729,0.00411368,272.7149999998729,0.003449529,272.7149999998729,0.0007968379
272.72999999987286,0.0001717509,272.72999999987286,0.004312923,272.72999999987286,0.003813949,272.72999999987286,0.000917407
272.74499999987285,0.0001755375,272.74499999987285,0.004485121,272.74499999987285,0.004042786,272.74499999987285,0.0009418766
272.75999999987283,0.0001756497,272.75999999987283,0.004584997,272.75999999987283,0.004136274,272.75999999987283,0.0009434778
272.7749999998728,0.0001750413,272.7749999998728,0.004725824,272.7749999998728,0.004315967,272.7749999998728,0.0009538122
272.7899999998728,0.0001779413,272.7899999998728,0.004730392,272.7899999998728,0.004424704,272.7899999998728,0.0009648619
272.8049999998728,0.0001686485,272.8049999998728,0.004501973,272.8049999998728,0.004292673,272.8049999998728,0.0009689564
272.8199999998728,0.0001353346,272.8199999998728,0.004476806,272.8199999998728,0.004241358,272.8199999998728,0.000964503
272.83499999987276,0.0001363794,272.83499999987276,0.004560572,272.83499999987276,0.004198786,272.83499999987276,0.0009696101
272.84999999987275,0.0001381194,272.84999999987275,0.004634816,272.84999999987275,0.004472865,272.84999999987275,0.000974551
272.86499999987274,0.0001355437,272.86499999987274,0.00468882,272.86499999987274,0.004688571,272.86499999987274,0.0009835432
272.8799999998727,0.000135055,272.8799999998727,0.004683095,272.8799999998727,0.004810028,272.8799999998727,0.0009970529
272.8949999998727,0.0001334721,272.8949999998727,0.004685378,272.8949999998727,0.004778059,272.8949999998727,0.001000174
272.9099999998727,0.0001329783,272.9099999998727,0.004792788,272.9099999998727,0.004633689,272.9099999998727,0.0009956047
272.9249999998727,0.0001333681,272.9249999998727,0.004682156,272.9249999998727,0.004630959,272.9249999998727,0.0009678996
272.93999999987267,0.0001318415,272.93999999987267,0.004627501,272.93999999987267,0.00464933,272.93999999987267,0.0009073444
272.95499999987265,0.0001271388,272.95499999987265,0.004602809,272.95499999987265,0.004581507,272.95499999987265,0.0006562728
272.96999999987264,0.000118281,272.96999999987264,0.004630726,272.96999999987264,0.00436903,272.96999999987264,0.0005919903
272.9849999998726,0.0001203459,272.9849999998726,0.004599065,272.9849999998726,0.004165655,272.9849999998726,0.0004290723
272.9999999998726,0.0002311572,272.9999999998726,0.004599065,272.9999999998726,0.00396752,272.9999999998726,0.0004883798
273.0149999998726,0.0002463257,273.0149999998726,0.004599893,273.0149999998726,0.004026884,273.0149999998726,0.0004893032
273.0299999998726,0.0002630996,273.0299999998726,0.004624216,273.0299999998726,0.004182099,273.0299999998726,0.0004878638
273.0449999998726,0.0002704443,273.0449999998726,0.004681081,273.0449999998726,0.004230396,273.0449999998726,0.0004659506
273.05999999987256,0.0002707438,273.05999999987256,0.004833207,273.05999999987256,0.004212423,273.05999999987256,0.0004519381
273.07499999987255,0.0002684894,273.07499999987255,0.00490348,273.07499999987255,0.004146483,273.07499999987255,0.0004411531
273.08999999987253,0.00026451,273.08999999987253,0.0049035,273.08999999987253,0.004340019,273.08999999987253,0.0004212676
273.1049999998725,0.0002647143,273.1049999998725,0.00490352,273.1049999998725,0.004393457,273.1049999998725,0.0004122076
273.1199999998725,0.0002646403,273.1199999998725,0.004941273,273.1199999998725,0.004383952,273.1199999998725,0.0003883296
273.1349999998725,0.0002645324,273.1349999998725,0.005015992,273.1349999998725,0.004512604,273.1349999998725,0.0003666984
273.1499999998725,0.0002649472,273.1499999998725,0.004917132,273.1499999998725,0.004683977,273.1499999998725,0.0003619008
273.16499999987246,0.000265062,273.16499999987246,0.004859952,273.16499999987246,0.004776692,273.16499999987246,0.0003623086
273.17999999987245,0.0002651,273.17999999987245,0.004902178,273.17999999987245,0.004820754,273.17999999987245,0.0003609888
273.19499999987244,0.0002648721,273.19499999987244,0.00482938,273.19499999987244,0.00495075,273.19499999987244,0.0003570147
273.2099999998724,0.0002632982,273.2099999998724,0.004674969,273.2099999998724,0.005107513,273.2099999998724,0.0003510799
273.2249999998724,0.0002586757,273.2249999998724,0.004544502,273.2249999998724,0.005188144,273.2249999998724,0.00034905
273.2399999998724,0.0002399779,273.2399999998724,0.004405458,273.2399999998724,0.005237805,273.2399999998724,0.0003102989
273.2549999998724,0.0001381806,273.2549999998724,0.00424283,273.2549999998724,0.005210347,273.2549999998724,0.0001960407
273.26999999987237,0.0001261653,273.26999999987237,0.004061347,273.26999999987237,0.00517298,273.26999999987237,0.0001941942
273.28499999987235,8.905474e-05,273.28499999987235,0.003795296,273.28499999987235,0.005066279,273.28499999987235,0.000170099
273.29999999987234,6.397456e-05,273.29999999987234,0.003598709,273.29999999987234,0.004963719,273.29999999987234,0.0001709159
273.3149999998723,6.220847e-05,273.3149999998723,0.003371991,273.3149999998723,0.004815788,273.3149999998723,0.0001701884
273.3299999998723,6.688113e-05,273.3299999998723,0.003124707,273.3299999998723,0.004688058,273.3299999998723,0.0001703709
273.3449999998723,6.69104e-05,273.3449999998723,0.002764625,273.3449999998723,0.004512748,273.3449999998723,0.0001713041
273.3599999998723,7.253262e-05,273.3599999998723,0.002297065,273.3599999998723,0.004389213,273.3599999998723,0.0001755117
273.3749999998723,8.202592e-05,273.3749999998723,0.001636021,273.3749999998723,0.004330807,273.3749999998723,0.0001762622
273.38999999987226,0.0001271209,273.38999999987226,0.001222037,273.38999999987226,0.004390683,273.38999999987226,0.000203946
273.40499999987225,0.0001313024,273.40499999987225,0.001243802,273.40499999987225,0.004363568,273.40499999987225,0.0002083417
273.41999999987223,0.0001320915,273.41999999987223,0.001195039,273.41999999987223,0.00436407,273.41999999987223,0.0002074677
273.4349999998722,0.0001356329,273.4349999998722,0.001039265,273.4349999998722,0.004233012,273.4349999998722,0.0002089894
273.4499999998722,0.0001371789,273.4499999998722,0.0008449609,273.4499999998722,0.00404665,273.4499999998722,0.000207471
273.4649999998722,0.0001386543,273.4649999998722,0.0006657653,273.4649999998722,0.003931979,273.4649999998722,0.0002000071
273.4799999998722,0.000138448,273.4799999998722,0.0005164637,273.4799999998722,0.00391861,273.4799999998722,0.0001838466
273.49499999987216,0.0001368075,273.49499999987216,0.0004028736,273.49499999987216,0.00387531,273.49499999987216,0.0002174174
273.50999999987215,0.0001354962,273.50999999987215,0.001188107,273.50999999987215,0.00391597,273.50999999987215,0.0002496731
273.52499999987214,0.0001393705,273.52499999987214,0.00175545,273.52499999987214,0.003952923,273.52499999987214,0.0002855621
273.5399999998721,0.0001573857,273.5399999998721,0.00216186,273.5399999998721,0.003974032,273.5399999998721,0.0003462355
273.5549999998721,0.0001700682,273.5549999998721,0.002532769,273.5549999998721,0.004157661,273.5549999998721,0.0003727198
