X[s],a: EMG RMS 1-1,X[s].1,a: EMG RMS 1-2,X[s].2,a: EMG RMS 1-3,X[s].3,a: EMG RMS 1-4
109.00500000000375,4.287686e-05,109.00500000000375,0.001019463,109.00500000000375,0.0002689943,109.00500000000375,2.226202e-05
109.02000000000375,4.267697e-05,109.02000000000375,0.001052449,109.02000000000375,0.000280994,109.02000000000375,2.229554e-05
109.03500000000375,4.331193e-05,109.03500000000375,0.001116727,109.03500000000375,0.0003102934,109.03500000000375,2.246987e-05
109.05000000000375,4.272546e-05,109.05000000000375,0.001115652,109.05000000000375,0.000304275,109.05000000000375,2.318872e-05
109.06500000000375,4.232464e-05,109.06500000000375,0.001178387,109.06500000000375,0.0003162216,109.06500000000375,2.164539e-05
109.08000000000375,3.898513e-05,109.08000000000375,0.001217423,109.08000000000375,0.0003143309,109.08000000000375,2.101001e-05
109.09500000000375,3.746574e-05,109.09500000000375,0.001198592,109.09500000000375,0.0003249028,109.09500000000375,2.089032e-05
109.11000000000375,3.588089e-05,109.11000000000375,0.001171133,109.11000000000375,0.0003048229,109.11000000000375,1.960462e-05
109.12500000000375,3.612816e-05,109.12500000000375,0.001149103,109.12500000000375,0.0003101412,109.12500000000375,1.895508e-05
109.14000000000375,3.483751e-05,109.14000000000375,0.001157833,109.14000000000375,0.0003031976,109.14000000000375,1.828324e-05
109.15500000000375,3.239882e-05,109.15500000000375,0.001074322,109.15500000000375,0.0003103244,109.15500000000375,1.773969e-05
109.17000000000375,2.943111e-05,109.17000000000375,0.0009958864,109.17000000000375,0.0003060347,109.17000000000375,1.780231e-05
109.18500000000375,2.565789e-05,109.18500000000375,0.000981303,109.18500000000375,0.0003074835,109.18500000000375,1.792061e-05
109.20000000000375,2.571602e-05,109.20000000000375,0.0009779382,109.20000000000375,0.0003118796,109.20000000000375,1.773969e-05
109.21500000000376,2.486493e-05,109.21500000000376,0.0009113618,109.21500000000376,0.0003107023,109.21500000000376,1.78915e-05
109.23000000000376,2.506805e-05,109.23000000000376,0.0008393464,109.23000000000376,0.000313619,109.23000000000376,1.773492e-05
109.24500000000376,2.441154e-05,109.24500000000376,0.0007872394,109.24500000000376,0.0003067638,109.24500000000376,1.722235e-05
109.26000000000376,2.418777e-05,109.26000000000376,0.0007808857,109.26000000000376,0.0003120287,109.26000000000376,1.693781e-05
109.27500000000376,2.317049e-05,109.27500000000376,0.000702826,109.27500000000376,0.0002869301,109.27500000000376,1.68419e-05
109.29000000000376,2.10863e-05,109.29000000000376,0.0006413031,109.29000000000376,0.0002702908,109.29000000000376,1.620854e-05
109.30500000000376,2.085793e-05,109.30500000000376,0.0005177981,109.30500000000376,0.0002639593,109.30500000000376,1.504476e-05
109.32000000000376,1.99543e-05,109.32000000000376,0.0004296068,109.32000000000376,0.0002401171,109.32000000000376,1.491593e-05
109.33500000000376,1.938568e-05,109.33500000000376,0.0003716997,109.33500000000376,0.0002297796,109.33500000000376,1.487432e-05
109.35000000000376,1.921416e-05,109.35000000000376,0.0003501087,109.35000000000376,0.0002233063,109.35000000000376,1.449152e-05
109.36500000000376,1.863882e-05,109.36500000000376,0.0002805953,109.36500000000376,0.0002133827,109.36500000000376,1.42405e-05
109.38000000000376,1.811606e-05,109.38000000000376,0.0002783411,109.38000000000376,0.0002111274,109.38000000000376,1.356259e-05
109.39500000000376,1.772618e-05,109.39500000000376,0.0002531126,109.39500000000376,0.0001989475,109.39500000000376,1.345414e-05
109.41000000000376,1.758576e-05,109.41000000000376,0.0002744253,109.41000000000376,0.0001758822,109.41000000000376,1.343423e-05
109.42500000000376,1.705137e-05,109.42500000000376,0.0002617051,109.42500000000376,0.0001760938,109.42500000000376,1.251912e-05
109.44000000000376,1.424347e-05,109.44000000000376,0.0002458383,109.44000000000376,0.0001706176,109.44000000000376,1.281274e-05
109.45500000000376,1.448083e-05,109.45500000000376,0.0002400301,109.45500000000376,0.0001579059,109.45500000000376,1.21572e-05
109.47000000000376,1.418301e-05,109.47000000000376,0.0002347594,109.47000000000376,0.0001578902,109.47000000000376,1.123337e-05
109.48500000000377,1.303401e-05,109.48500000000377,0.0002286478,109.48500000000377,0.0001632091,109.48500000000377,1.119694e-05
109.50000000000377,1.279734e-05,109.50000000000377,0.0002182755,109.50000000000377,0.000169278,109.50000000000377,1.105641e-05
109.51500000000377,1.271673e-05,109.51500000000377,0.0002143911,109.51500000000377,0.0001398394,109.51500000000377,1.153651e-05
109.53000000000377,1.272005e-05,109.53000000000377,0.0002224503,109.53000000000377,0.0001364361,109.53000000000377,1.215952e-05
109.54500000000377,1.273333e-05,109.54500000000377,0.0002232716,109.54500000000377,0.0001429536,109.54500000000377,1.171823e-05
109.56000000000377,1.26356e-05,109.56000000000377,0.0002309716,109.56000000000377,0.0001455922,109.56000000000377,1.143101e-05
109.57500000000377,1.272005e-05,109.57500000000377,0.0002367546,109.57500000000377,0.0001455513,109.57500000000377,1.161318e-05
109.59000000000377,1.27278e-05,109.59000000000377,0.0002388696,109.59000000000377,0.0001416943,109.59000000000377,1.116671e-05
109.60500000000377,1.27455e-05,109.60500000000377,0.0002350947,109.60500000000377,0.0001424995,109.60500000000377,1.117049e-05
109.62000000000377,1.239473e-05,109.62000000000377,0.0002249923,109.62000000000377,0.0001415679,109.62000000000377,1.151695e-05
109.63500000000377,1.255171e-05,109.63500000000377,0.0002239534,109.63500000000377,0.0001390842,109.63500000000377,1.159011e-05
109.65000000000377,1.201266e-05,109.65000000000377,0.0001951965,109.65000000000377,0.0001366591,109.65000000000377,1.152429e-05
109.66500000000377,1.186399e-05,109.66500000000377,0.0001625857,109.66500000000377,0.0001389681,109.66500000000377,1.101557e-05
109.68000000000377,1.178416e-05,109.68000000000377,0.0001635574,109.68000000000377,0.0001395209,109.68000000000377,1.122207e-05
109.69500000000377,1.17038e-05,109.69500000000377,0.0001597133,109.69500000000377,0.0001381439,109.69500000000377,1.104111e-05
109.71000000000377,1.169898e-05,109.71000000000377,0.0001584275,109.71000000000377,0.000125822,109.71000000000377,1.129839e-05
109.72500000000377,1.187585e-05,109.72500000000377,0.0001590522,109.72500000000377,0.0001220635,109.72500000000377,1.123838e-05
109.74000000000377,1.169296e-05,109.74000000000377,0.0001614654,109.74000000000377,0.0001038613,109.74000000000377,1.087399e-05
109.75500000000378,1.173625e-05,109.75500000000378,0.0001574659,109.75500000000378,0.0001032593,109.75500000000378,1.070426e-05
109.77000000000378,1.144825e-05,109.77000000000378,0.0001478597,109.77000000000378,0.0001078146,109.77000000000378,9.94852e-06
109.78500000000378,1.118813e-05,109.78500000000378,0.0001371101,109.78500000000378,0.0001064461,109.78500000000378,9.856052e-06
109.80000000000378,1.154627e-05,109.80000000000378,0.0001430377,109.80000000000378,0.0001011025,109.80000000000378,1.028547e-05
109.81500000000378,1.189718e-05,109.81500000000378,0.0001318725,109.81500000000378,9.396245e-05,109.81500000000378,1.003171e-05
109.83000000000378,1.264563e-05,109.83000000000378,0.0001254464,109.83000000000378,9.455963e-05,109.83000000000378,9.808774e-06
109.84500000000378,1.269233e-05,109.84500000000378,0.0001250881,109.84500000000378,9.552864e-05,109.84500000000378,9.801591e-06
109.86000000000378,1.304589e-05,109.86000000000378,0.0001262768,109.86000000000378,0.0001023172,109.86000000000378,9.562988e-06
109.87500000000378,1.378103e-05,109.87500000000378,0.0001316118,109.87500000000378,0.0001027255,109.87500000000378,9.31223e-06
109.89000000000378,1.41502e-05,109.89000000000378,0.000142507,109.89000000000378,0.0001043858,109.89000000000378,9.207261e-06
109.90500000000378,1.406332e-05,109.90500000000378,0.0001440352,109.90500000000378,0.0001064891,109.90500000000378,9.336401e-06
109.92000000000378,1.398095e-05,109.92000000000378,0.0001652206,109.92000000000378,0.0001598072,109.92000000000378,9.423506e-06
109.93500000000378,1.351994e-05,109.93500000000378,0.0001733535,109.93500000000378,0.0001662389,109.93500000000378,9.013988e-06
109.95000000000378,1.303185e-05,109.95000000000378,0.0001738558,109.95000000000378,0.0001796632,109.95000000000378,8.362194e-06
109.96500000000378,1.273554e-05,109.96500000000378,0.0001735837,109.96500000000378,0.0002022299,109.96500000000378,8.309809e-06
109.98000000000378,1.275212e-05,109.98000000000378,0.0001756042,109.98000000000378,0.0002047174,109.98000000000378,8.439329e-06
109.99500000000378,1.303725e-05,109.99500000000378,0.0001784256,109.99500000000378,0.0002209824,109.99500000000378,8.583318e-06
110.01000000000379,1.292221e-05,110.01000000000379,0.0002021944,110.01000000000379,0.000226915,110.01000000000379,8.454338e-06
110.02500000000379,1.287744e-05,110.02500000000379,0.0002185744,110.02500000000379,0.000227148,110.02500000000379,8.477633e-06
110.04000000000379,1.340799e-05,110.04000000000379,0.0002173935,110.04000000000379,0.0002463727,110.04000000000379,8.365563e-06
110.05500000000379,1.32792e-05,110.05500000000379,0.0002205936,110.05500000000379,0.0002512523,110.05500000000379,8.91183e-06
110.07000000000379,1.240268e-05,110.07000000000379,0.0002217835,110.07000000000379,0.000257938,110.07000000000379,8.878575e-06
110.08500000000379,1.271783e-05,110.08500000000379,0.0002299384,110.08500000000379,0.0002663705,110.08500000000379,1.065149e-05
110.10000000000379,1.296248e-05,110.10000000000379,0.0002379465,110.10000000000379,0.0002678061,110.10000000000379,1.157673e-05
110.11500000000379,1.372469e-05,110.11500000000379,0.0002435894,110.11500000000379,0.0003077427,110.11500000000379,1.232407e-05
110.13000000000379,1.406232e-05,110.13000000000379,0.0002514751,110.13000000000379,0.0003288225,110.13000000000379,1.324734e-05
110.14500000000379,1.479836e-05,110.14500000000379,0.000269923,110.14500000000379,0.0003502781,110.14500000000379,1.452842e-05
110.16000000000379,1.527059e-05,110.16000000000379,0.0002653351,110.16000000000379,0.0004264253,110.16000000000379,1.439888e-05
110.17500000000379,1.563973e-05,110.17500000000379,0.0003029386,110.17500000000379,0.0004421654,110.17500000000379,1.446136e-05
110.19000000000379,1.595892e-05,110.19000000000379,0.0003107812,110.19000000000379,0.0004687681,110.19000000000379,1.514648e-05
110.20500000000379,1.601444e-05,110.20500000000379,0.0003178278,110.20500000000379,0.0005080662,110.20500000000379,1.535247e-05
110.2200000000038,1.701581e-05,110.2200000000038,0.0003211803,110.2200000000038,0.0005074994,110.2200000000038,1.575817e-05
110.2350000000038,1.799356e-05,110.2350000000038,0.0003186471,110.2350000000038,0.0005201567,110.2350000000038,1.596863e-05
110.2500000000038,1.794653e-05,110.2500000000038,0.0003201732,110.2500000000038,0.0005560695,110.2500000000038,1.578675e-05
110.2650000000038,1.807324e-05,110.2650000000038,0.0003223878,110.2650000000038,0.0005621092,110.2650000000038,1.615718e-05
110.2800000000038,1.847562e-05,110.2800000000038,0.0003212296,110.2800000000038,0.0005847986,110.2800000000038,1.701912e-05
110.2950000000038,2.005219e-05,110.2950000000038,0.0003443011,110.2950000000038,0.000634454,110.2950000000038,1.694363e-05
110.3100000000038,2.016637e-05,110.3100000000038,0.0003458484,110.3100000000038,0.0006907986,110.3100000000038,1.670669e-05
110.3250000000038,2.646222e-05,110.3250000000038,0.0003396818,110.3250000000038,0.0006924971,110.3250000000038,1.684859e-05
110.3400000000038,2.763147e-05,110.3400000000038,0.0003522284,110.3400000000038,0.0006962813,110.3400000000038,1.573133e-05
110.3550000000038,3.270477e-05,110.3550000000038,0.0003469721,110.3550000000038,0.0007540989,110.3550000000038,1.583754e-05
110.3700000000038,3.298269e-05,110.3700000000038,0.0003437957,110.3700000000038,0.0007949076,110.3700000000038,1.528258e-05
110.3850000000038,3.423219e-05,110.3850000000038,0.0003250793,110.3850000000038,0.0008432778,110.3850000000038,1.449152e-05
110.4000000000038,3.412586e-05,110.4000000000038,0.0003228955,110.4000000000038,0.0008576583,110.4000000000038,1.492443e-05
110.4150000000038,3.499365e-05,110.4150000000038,0.000322158,110.4150000000038,0.0008064826,110.4150000000038,1.499881e-05
110.4300000000038,3.476628e-05,110.4300000000038,0.0002847573,110.4300000000038,0.0008412163,110.4300000000038,1.491877e-05
110.4450000000038,3.483387e-05,110.4450000000038,0.0002885697,110.4450000000038,0.0008253959,110.4450000000038,1.446038e-05
110.4600000000038,3.48856e-05,110.4600000000038,0.0002948947,110.4600000000038,0.0008075169,110.4600000000038,1.426225e-05
110.4750000000038,3.452353e-05,110.4750000000038,0.0002989543,110.4750000000038,0.0008063464,110.4750000000038,1.419393e-05
110.4900000000038,3.472167e-05,110.4900000000038,0.0002988839,110.4900000000038,0.0008131586,110.4900000000038,1.425434e-05
110.5050000000038,3.490901e-05,110.5050000000038,0.0002820966,110.5050000000038,0.0008090931,110.5050000000038,1.435283e-05
110.5200000000038,3.482214e-05,110.5200000000038,0.0002877593,110.5200000000038,0.0008131727,110.5200000000038,1.384731e-05
110.5350000000038,3.513747e-05,110.5350000000038,0.0002758512,110.5350000000038,0.0008024877,110.5350000000038,1.277861e-05
110.5500000000038,3.473709e-05,110.5500000000038,0.0002554666,110.5500000000038,0.0007912954,110.5500000000038,1.266567e-05
110.5650000000038,3.437387e-05,110.5650000000038,0.0002622425,110.5650000000038,0.0007836138,110.5650000000038,1.271562e-05
110.5800000000038,2.988659e-05,110.5800000000038,0.0002576136,110.5800000000038,0.000780189,110.5800000000038,1.259429e-05
110.59500000000381,2.724127e-05,110.59500000000381,0.0002491449,110.59500000000381,0.0007850348,110.59500000000381,1.221269e-05
110.61000000000381,2.389126e-05,110.61000000000381,0.0002462787,110.61000000000381,0.0007305886,110.61000000000381,1.23936e-05
110.62500000000381,2.244227e-05,110.62500000000381,0.0002477379,110.62500000000381,0.0006299856,110.62500000000381,1.172665e-05
110.64000000000381,2.091862e-05,110.64000000000381,0.0002464493,110.64000000000381,0.0005854604,110.64000000000381,1.078554e-05
110.65500000000381,1.974566e-05,110.65500000000381,0.0002435765,110.65500000000381,0.0005744424,110.65500000000381,1.084935e-05
110.67000000000381,1.916644e-05,110.67000000000381,0.0002400119,110.67000000000381,0.0005653875,110.67000000000381,1.098355e-05
110.68500000000381,1.916865e-05,110.68500000000381,0.0002264391,110.68500000000381,0.0005070156,110.68500000000381,1.087399e-05
110.70000000000381,1.97478e-05,110.70000000000381,0.0002135601,110.70000000000381,0.0005067087,110.70000000000381,1.045662e-05
110.71500000000381,1.96527e-05,110.71500000000381,0.0001896832,110.71500000000381,0.0005059995,110.71500000000381,1.025118e-05
110.73000000000381,1.925224e-05,110.73000000000381,0.0001836431,110.73000000000381,0.0004991317,110.73000000000381,9.691749e-06
110.74500000000381,1.972854e-05,110.74500000000381,0.0001852043,110.74500000000381,0.0004613201,110.74500000000381,9.478654e-06
110.76000000000381,2.074416e-05,110.76000000000381,0.0001754756,110.76000000000381,0.0004583057,110.76000000000381,9.351477e-06
110.77500000000381,2.102676e-05,110.77500000000381,0.0001669995,110.77500000000381,0.0004500329,110.77500000000381,9.413036e-06
110.79000000000381,2.027227e-05,110.79000000000381,0.0001648354,110.79000000000381,0.0003981483,110.79000000000381,9.517214e-06
110.80500000000382,1.977632e-05,110.80500000000382,0.0001480722,110.80500000000382,0.0003186331,110.80500000000382,8.744285e-06
110.82000000000382,1.964123e-05,110.82000000000382,0.0001373049,110.82000000000382,0.0003356484,110.82000000000382,8.566891e-06
110.83500000000382,1.954561e-05,110.83500000000382,0.0001338425,110.83500000000382,0.0003536455,110.83500000000382,8.533942e-06
110.85000000000382,1.943865e-05,110.85000000000382,0.0001352875,110.85000000000382,0.0003549057,110.85000000000382,8.537242e-06
110.86500000000382,1.859039e-05,110.86500000000382,0.000133999,110.86500000000382,0.0004244649,110.86500000000382,8.755555e-06
110.88000000000382,1.850609e-05,110.88000000000382,0.000137235,110.88000000000382,0.0004418007,110.88000000000382,9.172005e-06
110.89500000000382,1.81417e-05,110.89500000000382,0.0001525516,110.89500000000382,0.0004492381,110.89500000000382,9.176611e-06
110.91000000000382,1.803735e-05,110.91000000000382,0.0001578086,110.91000000000382,0.0005007553,110.91000000000382,8.630781e-06
110.92500000000382,1.853652e-05,110.92500000000382,0.0001618282,110.92500000000382,0.0005440291,110.92500000000382,8.575109e-06
110.94000000000382,1.842064e-05,110.94000000000382,0.0001668441,110.94000000000382,0.0005427024,110.94000000000382,9.001478e-06
110.95500000000382,1.805452e-05,110.95500000000382,0.0001854138,110.95500000000382,0.0005451875,110.95500000000382,9.410042e-06
110.97000000000382,1.823232e-05,110.97000000000382,0.000192028,110.97000000000382,0.0005679183,110.97000000000382,1.013787e-05
110.98500000000382,1.808259e-05,110.98500000000382,0.0001890282,110.98500000000382,0.0005782901,110.98500000000382,1.068318e-05
111.00000000000382,1.686614e-05,111.00000000000382,0.0001900482,111.00000000000382,0.0005682513,111.00000000000382,1.167246e-05
111.01500000000382,1.601707e-05,111.01500000000382,0.0001986569,111.01500000000382,0.0005747274,111.01500000000382,1.230805e-05
111.03000000000382,1.560276e-05,111.03000000000382,0.0002078496,111.03000000000382,0.000572631,111.03000000000382,1.239928e-05
111.04500000000382,1.609691e-05,111.04500000000382,0.0002100472,111.04500000000382,0.0005674157,111.04500000000382,1.267234e-05
111.06000000000382,1.558379e-05,111.06000000000382,0.0002114046,111.06000000000382,0.0005623376,111.06000000000382,1.353348e-05
111.07500000000383,1.561539e-05,111.07500000000383,0.0002056899,111.07500000000383,0.0005299426,111.07500000000383,1.346879e-05
111.09000000000383,1.513345e-05,111.09000000000383,0.0002055709,111.09000000000383,0.0005347279,111.09000000000383,1.333953e-05
111.10500000000383,1.475928e-05,111.10500000000383,0.0002041542,111.10500000000383,0.0005060339,111.10500000000383,1.357401e-05
111.12000000000383,1.441159e-05,111.12000000000383,0.0002019779,111.12000000000383,0.0004465357,111.12000000000383,1.329828e-05
111.13500000000383,1.436656e-05,111.13500000000383,0.0002018751,111.13500000000383,0.0004383155,111.13500000000383,1.315771e-05
111.15000000000383,1.442234e-05,111.15000000000383,0.0001869393,111.15000000000383,0.0004333644,111.15000000000383,1.300046e-05
111.16500000000383,1.377898e-05,111.16500000000383,0.0001807113,111.16500000000383,0.0003375513,111.16500000000383,1.324308e-05
111.18000000000383,1.393553e-05,111.18000000000383,0.0001795578,111.18000000000383,0.0003198092,111.18000000000383,1.342374e-05
111.19500000000383,1.339958e-05,111.19500000000383,0.0001653942,111.19500000000383,0.0003147483,111.19500000000383,1.29614e-05
111.21000000000383,1.326752e-05,111.21000000000383,0.0001691122,111.21000000000383,0.0003120545,111.21000000000383,1.284787e-05
111.22500000000383,1.268123e-05,111.22500000000383,0.0001765468,111.22500000000383,0.0002676892,111.22500000000383,1.240155e-05
111.24000000000383,1.296031e-05,111.24000000000383,0.0001827313,111.24000000000383,0.0002616165,111.24000000000383,1.185092e-05
111.25500000000383,1.294073e-05,111.25500000000383,0.0001819298,111.25500000000383,0.0002652315,111.25500000000383,1.062368e-05
111.27000000000383,1.35116e-05,111.27000000000383,0.0001665699,111.27000000000383,0.0002528712,111.27000000000383,1.036868e-05
111.28500000000383,1.376159e-05,111.28500000000383,0.0001643833,111.28500000000383,0.0002590328,111.28500000000383,1.02388e-05
111.30000000000383,1.294291e-05,111.30000000000383,0.0001643714,111.30000000000383,0.0002505327,111.30000000000383,9.685934e-06
111.31500000000383,1.335325e-05,111.31500000000383,0.0001680352,111.31500000000383,0.0002466848,111.31500000000383,8.987383e-06
111.33000000000384,1.3061e-05,111.33000000000384,0.0001714421,111.33000000000384,0.0002382926,111.33000000000384,8.43599e-06
111.34500000000384,1.336274e-05,111.34500000000384,0.0001784572,111.34500000000384,0.0002247923,111.34500000000384,8.540542e-06
111.36000000000384,1.347297e-05,111.36000000000384,0.0001803146,111.36000000000384,0.000243258,111.36000000000384,8.535592e-06
111.37500000000384,1.350535e-05,111.37500000000384,0.0001887773,111.37500000000384,0.0002495715,111.37500000000384,8.500864e-06
111.39000000000384,1.485063e-05,111.39000000000384,0.0001946555,111.39000000000384,0.0002455453,111.39000000000384,8.651973e-06
111.40500000000384,1.493953e-05,111.40500000000384,0.0001926834,111.40500000000384,0.0002503716,111.40500000000384,8.43599e-06
111.42000000000384,1.585975e-05,111.42000000000384,0.000194813,111.42000000000384,0.0002485832,111.42000000000384,8.323359e-06
111.43500000000384,1.635303e-05,111.43500000000384,0.0001941316,111.43500000000384,0.0002393729,111.43500000000384,8.287742e-06
111.45000000000384,1.620419e-05,111.45000000000384,0.0001909701,111.45000000000384,0.0002354415,111.45000000000384,8.36893e-06
111.46500000000384,1.62857e-05,111.46500000000384,0.0001814113,111.46500000000384,0.0002343428,111.46500000000384,8.335198e-06
111.48000000000384,1.573402e-05,111.48000000000384,0.000169914,111.48000000000384,0.0002322813,111.48000000000384,7.896054e-06
111.49500000000384,1.702243e-05,111.49500000000384,0.0001693739,111.49500000000384,0.0002077799,111.49500000000384,7.779228e-06
111.51000000000384,1.703236e-05,111.51000000000384,0.0001631922,111.51000000000384,0.0002031476,111.51000000000384,7.732004e-06
111.52500000000384,1.639604e-05,111.52500000000384,0.0001610519,111.52500000000384,0.0001928427,111.52500000000384,7.262268e-06
111.54000000000384,1.736571e-05,111.54000000000384,0.0001589605,111.54000000000384,0.0001882552,111.54000000000384,7.327922e-06
111.55500000000384,1.856841e-05,111.55500000000384,0.0001614749,111.55500000000384,0.0001886628,111.55500000000384,7.238955e-06
111.57000000000384,1.888136e-05,111.57000000000384,0.0001588748,111.57000000000384,0.0001823906,111.57000000000384,7.219469e-06
111.58500000000384,1.881934e-05,111.58500000000384,0.0001389458,111.58500000000384,0.0001727315,111.58500000000384,6.932803e-06
111.60000000000385,1.889851e-05,111.60000000000385,0.0001457093,111.60000000000385,0.0001652146,111.60000000000385,6.627389e-06
111.61500000000385,2.067205e-05,111.61500000000385,0.0001527363,111.61500000000385,0.000133822,111.61500000000385,6.353931e-06
111.63000000000385,2.080654e-05,111.63000000000385,0.0001580014,111.63000000000385,0.0001238936,111.63000000000385,6.016875e-06
111.64500000000385,2.003392e-05,111.64500000000385,0.0001607454,111.64500000000385,0.0001159236,111.64500000000385,5.969867e-06
111.66000000000385,1.973567e-05,111.66000000000385,0.0001613044,111.66000000000385,0.0001142693,111.66000000000385,6.411314e-06
111.67500000000385,1.941182e-05,111.67500000000385,0.0001611093,111.67500000000385,0.0001135722,111.67500000000385,6.446372e-06
111.69000000000385,1.881634e-05,111.69000000000385,0.0001680969,111.69000000000385,0.0001072118,111.69000000000385,6.96726e-06
111.70500000000385,1.97021e-05,111.70500000000385,0.0001820223,111.70500000000385,0.0001113013,111.70500000000385,7.804539e-06
111.72000000000385,1.979981e-05,111.72000000000385,0.0001747548,111.72000000000385,0.0001138762,111.72000000000385,7.752019e-06
111.73500000000385,1.862522e-05,111.73500000000385,0.0001745216,111.73500000000385,0.0001297954,111.73500000000385,7.99181e-06
111.75000000000385,1.866979e-05,111.75000000000385,0.0001752416,111.75000000000385,0.0001428821,111.75000000000385,8.37566e-06
111.76500000000385,1.8274e-05,111.76500000000385,0.0001753516,111.76500000000385,0.0001498162,111.76500000000385,8.760379e-06
111.78000000000385,1.829634e-05,111.78000000000385,0.0001751919,111.78000000000385,0.0001528433,111.78000000000385,8.902342e-06
111.79500000000385,1.763376e-05,111.79500000000385,0.0001797654,111.79500000000385,0.0001548762,111.79500000000385,9.652426e-06
111.81000000000385,1.711815e-05,111.81000000000385,0.0001830354,111.81000000000385,0.0001587662,111.81000000000385,9.756936e-06
111.82500000000385,1.677737e-05,111.82500000000385,0.0001856687,111.82500000000385,0.0001666412,111.82500000000385,9.957012e-06
111.84000000000385,1.662894e-05,111.84000000000385,0.0001870508,111.84000000000385,0.0001682081,111.84000000000385,9.990908e-06
111.85500000000386,1.988783e-05,111.85500000000386,0.0002029843,111.85500000000386,0.0001644229,111.85500000000386,1.021952e-05
111.87000000000386,1.832788e-05,111.87000000000386,0.0002073457,111.87000000000386,0.0001627669,111.87000000000386,1.018501e-05
111.88500000000386,1.816886e-05,111.88500000000386,0.0002212217,111.88500000000386,0.0001652255,111.88500000000386,1.023468e-05
111.90000000000386,1.823387e-05,111.90000000000386,0.0002235625,111.90000000000386,0.000168583,111.90000000000386,1.022917e-05
111.91500000000386,1.860706e-05,111.91500000000386,0.0002242662,111.91500000000386,0.0001655439,111.91500000000386,1.014898e-05
111.93000000000386,1.836857e-05,111.93000000000386,0.000224139,111.93000000000386,0.0001654883,111.93000000000386,1.048353e-05
111.94500000000386,1.900629e-05,111.94500000000386,0.0002157779,111.94500000000386,0.0001734134,111.94500000000386,1.017255e-05
111.96000000000386,1.815024e-05,111.96000000000386,0.0002094654,111.96000000000386,0.0001795686,111.96000000000386,1.027863e-05
111.97500000000386,1.826089e-05,111.97500000000386,0.0002074485,111.97500000000386,0.0001714609,111.97500000000386,1.037819e-05
111.99000000000386,1.843517e-05,111.99000000000386,0.0002070642,111.99000000000386,0.0001614141,111.99000000000386,1.036461e-05
112.00500000000386,1.832173e-05,112.00500000000386,0.0002108756,112.00500000000386,0.0001528351,112.00500000000386,1.005836e-05
112.02000000000386,1.850685e-05,112.02000000000386,0.0002143937,112.02000000000386,0.0001470071,112.02000000000386,9.911636e-06
112.03500000000386,1.804594e-05,112.03500000000386,0.0002228401,112.03500000000386,0.0001642715,112.03500000000386,9.539391e-06
112.05000000000386,1.80896e-05,112.05000000000386,0.0002235143,112.05000000000386,0.0001795707,112.05000000000386,9.239335e-06
112.06500000000386,1.987508e-05,112.06500000000386,0.0002179628,112.06500000000386,0.000206844,112.06500000000386,9.251524e-06
112.08000000000386,2.001914e-05,112.08000000000386,0.0002124274,112.08000000000386,0.0002203237,112.08000000000386,9.557095e-06
112.09500000000386,1.777856e-05,112.09500000000386,0.0002111261,112.09500000000386,0.0002343588,112.09500000000386,9.693203e-06
112.11000000000386,1.605923e-05,112.11000000000386,0.0002063764,112.11000000000386,0.0002820434,112.11000000000386,9.497953e-06
112.12500000000387,1.649199e-05,112.12500000000387,0.0002075608,112.12500000000387,0.0002895232,112.12500000000387,1.050634e-05
112.14000000000387,1.667209e-05,112.14000000000387,0.000204791,112.14000000000387,0.0002901699,112.14000000000387,1.238677e-05
112.15500000000387,1.674207e-05,112.15500000000387,0.0002106794,112.15500000000387,0.0002877496,112.15500000000387,1.274881e-05
112.17000000000387,1.72958e-05,112.17000000000387,0.0002158702,112.17000000000387,0.000288256,112.17000000000387,1.301779e-05
112.18500000000387,1.732835e-05,112.18500000000387,0.0002285255,112.18500000000387,0.0002879629,112.18500000000387,1.433908e-05
112.20000000000387,1.723543e-05,112.20000000000387,0.0002300428,112.20000000000387,0.0002816607,112.20000000000387,1.446331e-05
112.21500000000387,1.784262e-05,112.21500000000387,0.0002317883,112.21500000000387,0.0002779182,112.21500000000387,1.420881e-05
112.23000000000387,1.799121e-05,112.23000000000387,0.0002362812,112.23000000000387,0.0002786341,112.23000000000387,1.427903e-05
112.24500000000387,1.770551e-05,112.24500000000387,0.0002370833,112.24500000000387,0.0002793459,112.24500000000387,1.475547e-05
112.26000000000387,1.806856e-05,112.26000000000387,0.0002356767,112.26000000000387,0.0002817362,112.26000000000387,1.529364e-05
112.27500000000387,1.828864e-05,112.27500000000387,0.0002284577,112.27500000000387,0.0002810824,112.27500000000387,1.52835e-05
112.29000000000387,1.816498e-05,112.29000000000387,0.0002284248,112.29000000000387,0.000261786,112.29000000000387,1.542753e-05
112.30500000000387,1.723706e-05,112.30500000000387,0.0002318756,112.30500000000387,0.0002544901,112.30500000000387,1.560276e-05
112.32000000000387,1.607151e-05,112.32000000000387,0.0002307742,112.32000000000387,0.0002242446,112.32000000000387,1.574923e-05
112.33500000000387,1.675889e-05,112.33500000000387,0.0002285089,112.33500000000387,0.000208748,112.33500000000387,1.560095e-05
112.35000000000387,1.697602e-05,112.35000000000387,0.0002281658,112.35000000000387,0.0001778378,112.35000000000387,1.554759e-05
112.36500000000387,1.707696e-05,112.36500000000387,0.0002200361,112.36500000000387,0.0001220394,112.36500000000387,1.572238e-05
112.38000000000388,1.741997e-05,112.38000000000388,0.0001872582,112.38000000000388,0.0001111652,112.38000000000388,1.501289e-05
112.39500000000388,1.813005e-05,112.39500000000388,0.0001710026,112.39500000000388,0.0001206792,112.39500000000388,1.443504e-05
112.41000000000388,1.846342e-05,112.41000000000388,0.0001650131,112.41000000000388,0.0001277972,112.41000000000388,1.483164e-05
112.42500000000388,1.904109e-05,112.42500000000388,0.0001650602,112.42500000000388,0.0001282024,112.42500000000388,1.510363e-05
112.44000000000388,1.872027e-05,112.44000000000388,0.0001954939,112.44000000000388,0.0001481753,112.44000000000388,1.527428e-05
112.45500000000388,1.829634e-05,112.45500000000388,0.0002048702,112.45500000000388,0.0001557421,112.45500000000388,1.505599e-05
112.47000000000388,1.856006e-05,112.47000000000388,0.0002213398,112.47000000000388,0.0001540703,112.47000000000388,1.513066e-05
112.48500000000388,1.854943e-05,112.48500000000388,0.0002923791,112.48500000000388,0.0001538958,112.48500000000388,1.518363e-05
112.50000000000388,1.873607e-05,112.50000000000388,0.000309241,112.50000000000388,0.0001501632,112.50000000000388,1.466257e-05
112.51500000000388,1.883879e-05,112.51500000000388,0.0003141531,112.51500000000388,0.0001510069,112.51500000000388,1.426422e-05
112.53000000000388,1.858357e-05,112.53000000000388,0.0003238135,112.53000000000388,0.0001564607,112.53000000000388,1.425039e-05
112.54500000000388,1.876236e-05,112.54500000000388,0.000320548,112.54500000000388,0.000197713,112.54500000000388,1.385138e-05
112.56000000000388,1.903813e-05,112.56000000000388,0.0003283518,112.56000000000388,0.0002092126,112.56000000000388,1.380656e-05
112.57500000000388,1.878487e-05,112.57500000000388,0.0003384652,112.57500000000388,0.0002317013,112.57500000000388,1.364027e-05
112.59000000000388,1.948281e-05,112.59000000000388,0.0003541615,112.59000000000388,0.0002481012,112.59000000000388,1.366503e-05
112.60500000000388,1.966417e-05,112.60500000000388,0.0003552942,112.60500000000388,0.0002623826,112.60500000000388,1.366812e-05
112.62000000000388,1.903517e-05,112.62000000000388,0.0003581885,112.62000000000388,0.0002688276,112.62000000000388,1.366709e-05
112.63500000000388,1.971782e-05,112.63500000000388,0.0003795078,112.63500000000388,0.0002964045,112.63500000000388,1.331627e-05
112.65000000000389,1.938495e-05,112.65000000000389,0.0003861072,112.65000000000389,0.0003745014,112.65000000000389,1.264786e-05
112.66500000000389,1.904922e-05,112.66500000000389,0.0004099072,112.66500000000389,0.0003886724,112.66500000000389,1.242425e-05
112.68000000000389,1.932819e-05,112.68000000000389,0.0004100396,112.68000000000389,0.0004671273,112.68000000000389,1.186755e-05
112.69500000000389,2.159001e-05,112.69500000000389,0.0003869593,112.69500000000389,0.0005147353,112.69500000000389,1.081944e-05
112.71000000000389,2.166361e-05,112.71000000000389,0.0003834519,112.71000000000389,0.0005214313,112.71000000000389,1.074235e-05
112.72500000000389,2.133007e-05,112.72500000000389,0.0003838808,112.72500000000389,0.0005580764,112.72500000000389,1.133324e-05
112.74000000000389,2.133337e-05,112.74000000000389,0.0003443573,112.74000000000389,0.0005677828,112.74000000000389,1.117175e-05
112.75500000000389,2.132082e-05,112.75500000000389,0.0003655309,112.75500000000389,0.000572691,112.75500000000389,1.152429e-05
112.77000000000389,2.168246e-05,112.77000000000389,0.0003754993,112.77000000000389,0.0005954915,112.77000000000389,1.250561e-05
112.78500000000389,2.142627e-05,112.78500000000389,0.000383261,112.78500000000389,0.0006279323,112.78500000000389,1.31759e-05
112.80000000000389,2.15384e-05,112.80000000000389,0.0004075215,112.80000000000389,0.0006125803,112.80000000000389,1.363097e-05
112.81500000000389,2.094083e-05,112.81500000000389,0.0004071654,112.81500000000389,0.0006321435,112.81500000000389,1.364027e-05
112.83000000000389,2.083833e-05,112.83000000000389,0.000413392,112.83000000000389,0.0006440781,112.83000000000389,1.347193e-05
112.84500000000389,2.028616e-05,112.84500000000389,0.0004182307,112.84500000000389,0.0006383933,112.84500000000389,1.386358e-05
112.8600000000039,2.042112e-05,112.8600000000039,0.0004332518,112.8600000000039,0.0006351185,112.8600000000039,1.482214e-05
112.8750000000039,2.033679e-05,112.8750000000039,0.0004576556,112.8750000000039,0.0006431573,112.8750000000039,1.461831e-05
112.8900000000039,1.9979e-05,112.8900000000039,0.0004470504,112.8900000000039,0.0006235254,112.8900000000039,1.44711e-05
112.9050000000039,2.011812e-05,112.9050000000039,0.0004425315,112.9050000000039,0.0005965281,112.9050000000039,1.413625e-05
112.9200000000039,1.953624e-05,112.9200000000039,0.0005285534,112.9200000000039,0.0005904756,112.9200000000039,1.385748e-05
112.9350000000039,1.857523e-05,112.9350000000039,0.0005917489,112.9350000000039,0.0005229951,112.9350000000039,1.347506e-05
112.9500000000039,1.683018e-05,112.9500000000039,0.0006445802,112.9500000000039,0.000492184,112.9500000000039,1.344052e-05
112.9650000000039,1.689034e-05,112.9650000000039,0.0008913884,112.9650000000039,0.0004837989,112.9650000000039,1.340484e-05
112.9800000000039,1.815722e-05,112.9800000000039,0.001084071,112.9800000000039,0.0004480024,112.9800000000039,1.286869e-05
112.9950000000039,1.802641e-05,112.9950000000039,0.001123053,112.9950000000039,0.0004452218,112.9950000000039,1.281713e-05
113.0100000000039,1.829326e-05,113.0100000000039,0.001247974,113.0100000000039,0.0004445687,113.0100000000039,1.242765e-05
113.0250000000039,1.878937e-05,113.0250000000039,0.001424219,113.0250000000039,0.0003927688,113.0250000000039,1.124966e-05
113.0400000000039,1.878412e-05,113.0400000000039,0.00147093,113.0400000000039,0.0003633703,113.0400000000039,1.20021e-05
113.0550000000039,1.896176e-05,113.0550000000039,0.001466468,113.0550000000039,0.0003568108,113.0550000000039,1.169898e-05
113.0700000000039,1.910166e-05,113.0700000000039,0.001473566,113.0700000000039,0.0003141533,113.0700000000039,1.190665e-05
113.0850000000039,1.933766e-05,113.0850000000039,0.001483943,113.0850000000039,0.0002862947,113.0850000000039,1.318552e-05
113.1000000000039,1.967992e-05,113.1000000000039,0.001491895,113.1000000000039,0.0002872788,113.1000000000039,1.286212e-05
113.1150000000039,2.075366e-05,113.1150000000039,0.001490437,113.1150000000039,0.000277063,113.1150000000039,1.26144e-05
113.1300000000039,2.108897e-05,113.1300000000039,0.001485905,113.1300000000039,0.0002505239,113.1300000000039,1.319193e-05
113.1450000000039,2.286757e-05,113.1450000000039,0.001488442,113.1450000000039,0.0002635997,113.1450000000039,1.324202e-05
113.1600000000039,2.259677e-05,113.1600000000039,0.001487541,113.1600000000039,0.0002554212,113.1600000000039,1.319513e-05
113.1750000000039,2.299473e-05,113.1750000000039,0.00144376,113.1750000000039,0.000246742,113.1750000000039,1.341429e-05
113.1900000000039,2.34623e-05,113.1900000000039,0.001438802,113.1900000000039,0.0002403729,113.1900000000039,1.352203e-05
113.2050000000039,2.389775e-05,113.2050000000039,0.001409427,113.2050000000039,0.0002546915,113.2050000000039,1.371442e-05
113.2200000000039,2.365424e-05,113.2200000000039,0.00123435,113.2200000000039,0.0002418385,113.2200000000039,1.380758e-05
113.23500000000391,2.286696e-05,113.23500000000391,0.001074099,113.23500000000391,0.0002401137,113.23500000000391,1.360407e-05
113.25000000000391,2.280095e-05,113.25000000000391,0.001047087,113.25000000000391,0.0002284432,113.25000000000391,1.356571e-05
113.26500000000391,2.20177e-05,113.26500000000391,0.0008368951,113.26500000000391,0.0002165953,113.26500000000391,1.343109e-05
113.28000000000391,2.173307e-05,113.28000000000391,0.0005906899,113.28000000000391,0.0002160232,113.28000000000391,1.323563e-05
113.29500000000391,2.15312e-05,113.29500000000391,0.000517928,113.29500000000391,0.0002137848,113.29500000000391,1.240382e-05
113.31000000000391,2.167466e-05,113.31000000000391,0.0005214923,113.31000000000391,0.0002133171,113.31000000000391,1.227482e-05
113.32500000000391,2.165971e-05,113.32500000000391,0.0004896177,113.32500000000391,0.0002101053,113.32500000000391,1.184378e-05
113.34000000000391,2.14847e-05,113.34000000000391,0.0004337696,113.34000000000391,0.0002087935,113.34000000000391,1.013787e-05
113.35500000000391,1.970067e-05,113.35500000000391,0.0004108625,113.35500000000391,0.0002091081,113.35500000000391,9.850334e-06
113.37000000000391,1.922588e-05,113.37000000000391,0.0004111067,113.37000000000391,0.0002064758,113.37000000000391,8.883333e-06
113.38500000000391,1.671175e-05,113.38500000000391,0.0004173843,113.38500000000391,0.0002055671,113.38500000000391,8.28094e-06
113.40000000000391,1.649113e-05,113.40000000000391,0.0003774121,113.40000000000391,0.0001494825,113.40000000000391,8.150632e-06
113.41500000000391,1.591207e-05,113.41500000000391,0.0003731113,113.41500000000391,0.0001340049,113.41500000000391,7.97593e-06
113.43000000000391,1.514276e-05,113.43000000000391,0.0003288935,113.43000000000391,0.0001318393,113.43000000000391,7.804539e-06
113.44500000000392,1.355428e-05,113.44500000000392,0.0002750909,113.44500000000392,0.0001039365,113.44500000000392,7.283574e-06
113.46000000000392,1.302536e-05,113.46000000000392,0.0002557482,113.46000000000392,8.820793e-05,113.46000000000392,7.739288e-06
113.47500000000392,1.269455e-05,113.47500000000392,0.0002670728,113.47500000000392,9.055603e-05,113.47500000000392,8.248557e-06
113.49000000000392,1.296357e-05,113.49000000000392,0.0002808611,113.49000000000392,8.986787e-05,113.49000000000392,8.41258e-06
113.50500000000392,1.286759e-05,113.50500000000392,0.0002709782,113.50500000000392,9.073102e-05,113.50500000000392,8.447671e-06
113.52000000000392,1.276317e-05,113.52000000000392,0.0002710541,113.52000000000392,8.803465e-05,113.52000000000392,8.563602e-06
113.53500000000392,1.310622e-05,113.53500000000392,0.0002619393,113.53500000000392,8.551207e-05,113.53500000000392,8.545489e-06
113.55000000000392,1.291567e-05,113.55000000000392,0.0002474116,113.55000000000392,7.573982e-05,113.55000000000392,8.343643e-06
113.56500000000392,1.2601e-05,113.56500000000392,0.0002442011,113.56500000000392,7.508754e-05,113.56500000000392,8.485937e-06
113.58000000000392,1.266233e-05,113.58000000000392,0.0002451384,113.58000000000392,7.380138e-05,113.58000000000392,8.606265e-06
113.59500000000392,1.20933e-05,113.59500000000392,0.0002430066,113.59500000000392,6.991944e-05,113.59500000000392,8.927624e-06
113.61000000000392,1.227023e-05,113.61000000000392,0.0002314517,113.61000000000392,7.102919e-05,113.61000000000392,8.881747e-06
113.62500000000392,1.267234e-05,113.62500000000392,0.0002250887,113.62500000000392,6.957022e-05,113.62500000000392,8.880161e-06
113.64000000000392,1.307717e-05,113.64000000000392,0.0002094358,113.64000000000392,6.896827e-05,113.64000000000392,8.573465e-06
113.65500000000392,1.397288e-05,113.65500000000392,0.0002069854,113.65500000000392,7.230719e-05,113.65500000000392,8.485937e-06
113.67000000000392,1.374828e-05,113.67000000000392,0.0002062442,113.67000000000392,7.00758e-05,113.67000000000392,8.617714e-06
113.68500000000392,1.474974e-05,113.68500000000392,0.0002051015,113.68500000000392,6.94324e-05,113.68500000000392,8.454338e-06
113.70000000000393,1.509524e-05,113.70000000000393,0.0002080294,113.70000000000393,7.396974e-05,113.70000000000393,8.485937e-06
113.71500000000393,1.51892e-05,113.71500000000393,0.0001971739,113.71500000000393,6.846047e-05,113.71500000000393,7.981227e-06
113.73000000000393,1.618331e-05,113.73000000000393,0.0001351656,113.73000000000393,6.424198e-05,113.73000000000393,7.322153e-06
113.74500000000393,1.620245e-05,113.74500000000393,0.0001226525,113.74500000000393,6.376261e-05,113.74500000000393,7.287441e-06
113.76000000000393,1.687365e-05,113.76000000000393,0.0001226836,113.76000000000393,5.94601e-05,113.76000000000393,7.015617e-06
113.77500000000393,1.700587e-05,113.77500000000393,0.0001230873,113.77500000000393,6.583821e-05,113.77500000000393,7.03967e-06
113.79000000000393,1.698598e-05,113.79000000000393,0.0001360738,113.79000000000393,7.388132e-05,113.79000000000393,7.553216e-06
113.80500000000393,1.665433e-05,113.80500000000393,0.0001367387,113.80500000000393,7.830073e-05,113.80500000000393,7.564397e-06
113.82000000000393,1.689618e-05,113.82000000000393,0.0001373616,113.82000000000393,8.280022e-05,113.82000000000393,7.260328e-06
113.83500000000393,1.721171e-05,113.83500000000393,0.0001361458,113.83500000000393,8.323054e-05,113.83500000000393,6.955118e-06
113.85000000000393,1.706953e-05,113.85000000000393,0.000142024,113.85000000000393,9.057111e-05,113.85000000000393,6.782854e-06
113.86500000000393,1.682767e-05,113.86500000000393,0.0001484952,113.86500000000393,9.298136e-05,113.86500000000393,6.971302e-06
113.88000000000393,1.645008e-05,113.88000000000393,0.0001491687,113.88000000000393,9.884325e-05,113.88000000000393,7.023643e-06
113.89500000000393,1.66501e-05,113.89500000000393,0.0001583509,113.89500000000393,0.0001108528,113.89500000000393,7.053663e-06
113.91000000000393,1.777538e-05,113.91000000000393,0.0001653692,113.91000000000393,0.0001332256,113.91000000000393,6.963215e-06
113.92500000000393,1.919215e-05,113.92500000000393,0.0001729277,113.92500000000393,0.0001556114,113.92500000000393,7.057657e-06
113.94000000000393,1.91105e-05,113.94000000000393,0.0001761654,113.94000000000393,0.0002324974,113.94000000000393,7.077588e-06
113.95500000000393,1.9151e-05,113.95500000000393,0.000180383,113.95500000000393,0.0002419791,113.95500000000393,7.540149e-06
113.97000000000394,2.047073e-05,113.97000000000394,0.0001874744,113.97000000000394,0.0002542954,113.97000000000394,7.673483e-06
113.98500000000394,2.105153e-05,113.98500000000394,0.000239345,113.98500000000394,0.000256198,113.98500000000394,7.773794e-06
114.00000000000394,2.249242e-05,114.00000000000394,0.0002663209,114.00000000000394,0.0002656846,114.00000000000394,9.484596e-06
114.01500000000394,2.59266e-05,114.01500000000394,0.0003448117,114.01500000000394,0.0002700881,114.01500000000394,1.007515e-05
114.03000000000394,2.592877e-05,114.03000000000394,0.0003598583,114.03000000000394,0.0002701553,114.03000000000394,1.043774e-05
114.04500000000394,2.776066e-05,114.04500000000394,0.0003572899,114.04500000000394,0.0002764711,114.04500000000394,1.022779e-05
114.06000000000394,2.79629e-05,114.06000000000394,0.0003670194,114.06000000000394,0.0003088706,114.06000000000394,1.044988e-05
114.07500000000394,2.883101e-05,114.07500000000394,0.000369391,114.07500000000394,0.0003213784,114.07500000000394,1.054916e-05
114.09000000000394,2.924047e-05,114.09000000000394,0.0003694799,114.09000000000394,0.0003241818,114.09000000000394,1.047143e-05
114.10500000000394,2.941387e-05,114.10500000000394,0.0003701145,114.10500000000394,0.0003307301,114.10500000000394,1.047949e-05
114.12000000000394,2.934339e-05,114.12000000000394,0.00038198,114.12000000000394,0.000350671,114.12000000000394,1.091278e-05
114.13500000000394,2.937601e-05,114.13500000000394,0.0003879917,114.13500000000394,0.0003623812,114.13500000000394,1.14421e-05
114.15000000000394,2.972733e-05,114.15000000000394,0.0005074955,114.15000000000394,0.0003639108,114.15000000000394,1.309332e-05
114.16500000000394,2.902045e-05,114.16500000000394,0.0005484123,114.16500000000394,0.0003533216,114.16500000000394,1.543392e-05
114.18000000000394,2.865113e-05,114.18000000000394,0.00055746,114.18000000000394,0.0003343424,114.18000000000394,1.611965e-05
114.19500000000394,2.872381e-05,114.19500000000394,0.000560053,114.19500000000394,0.0003056617,114.19500000000394,1.631681e-05
114.21000000000394,2.827948e-05,114.21000000000394,0.0005760125,114.21000000000394,0.0003103836,114.21000000000394,1.961827e-05
114.22500000000394,2.805996e-05,114.22500000000394,0.0008710272,114.22500000000394,0.0003232997,114.22500000000394,2.023332e-05
114.24000000000395,2.777081e-05,114.24000000000395,0.001062372,114.24000000000395,0.0003423107,114.24000000000395,2.180361e-05
114.25500000000395,2.618394e-05,114.25500000000395,0.001101076,114.25500000000395,0.00034209,114.25500000000395,2.14965e-05
114.27000000000395,2.422152e-05,114.27000000000395,0.001553797,114.27000000000395,0.0003422292,114.27000000000395,2.174344e-05
114.28500000000395,2.295242e-05,114.28500000000395,0.002010745,114.28500000000395,0.000346072,114.28500000000395,2.210773e-05
114.30000000000395,2.235422e-05,114.30000000000395,0.002146379,114.30000000000395,0.0003451841,114.30000000000395,2.23372e-05
114.31500000000395,2.233909e-05,114.31500000000395,0.002160826,114.31500000000395,0.0003221958,114.31500000000395,2.262605e-05
114.33000000000395,2.155278e-05,114.33000000000395,0.00226481,114.33000000000395,0.0003094682,114.33000000000395,2.271801e-05
114.34500000000395,2.140785e-05,114.34500000000395,0.002285918,114.34500000000395,0.0003168819,114.34500000000395,2.271181e-05
114.36000000000395,2.179456e-05,114.36000000000395,0.002322509,114.36000000000395,0.0003099481,114.36000000000395,2.362206e-05
114.37500000000395,2.241086e-05,114.37500000000395,0.002405034,114.37500000000395,0.0002926973,114.37500000000395,2.545781e-05
114.39000000000395,2.243222e-05,114.39000000000395,0.00242485,114.39000000000395,0.0002801784,114.39000000000395,2.502305e-05
114.40500000000395,2.094083e-05,114.40500000000395,0.002427831,114.40500000000395,0.000274134,114.40500000000395,2.521652e-05
114.42000000000395,2.095697e-05,114.42000000000395,0.002427732,114.42000000000395,0.0002778366,114.42000000000395,2.399129e-05
114.43500000000395,2.048105e-05,114.43500000000395,0.002435009,114.43500000000395,0.0002749637,114.43500000000395,2.417087e-05
114.45000000000395,2.030837e-05,114.45000000000395,0.002447272,114.45000000000395,0.0002635143,114.45000000000395,2.366139e-05
114.46500000000395,1.948281e-05,114.46500000000395,0.002434725,114.46500000000395,0.0002461868,114.46500000000395,2.106959e-05
114.48000000000395,1.899146e-05,114.48000000000395,0.002272611,114.48000000000395,0.0002244493,114.48000000000395,2.00999e-05
114.49500000000396,1.856082e-05,114.49500000000396,0.002198265,114.49500000000396,0.000199219,114.49500000000396,1.942415e-05
114.51000000000396,1.806232e-05,114.51000000000396,0.002161139,114.51000000000396,0.0001936956,114.51000000000396,1.904775e-05
114.52500000000396,1.78655e-05,114.52500000000396,0.001838785,114.52500000000396,0.0002004324,114.52500000000396,2.034787e-05
114.54000000000396,1.834094e-05,114.54000000000396,0.001566864,114.54000000000396,0.000195227,114.54000000000396,2.120887e-05
114.55500000000396,1.932454e-05,114.55500000000396,0.001500394,114.55500000000396,0.000207919,114.55500000000396,2.290204e-05
114.57000000000396,1.888211e-05,114.57000000000396,0.001483124,114.57000000000396,0.0002120976,114.57000000000396,2.343226e-05
114.58500000000396,1.845578e-05,114.58500000000396,0.001396822,114.58500000000396,0.0002129091,114.58500000000396,2.353304e-05
114.60000000000396,1.85957e-05,114.60000000000396,0.001409619,114.60000000000396,0.0001897347,114.60000000000396,2.372263e-05
114.61500000000396,1.909871e-05,114.61500000000396,0.001655304,114.61500000000396,0.0001888975,114.61500000000396,2.223733e-05
114.63000000000396,1.84596e-05,114.63000000000396,0.0015728,114.63000000000396,0.0001855168,114.63000000000396,1.976492e-05
114.64500000000396,1.817041e-05,114.64500000000396,0.001903166,114.64500000000396,0.0001892164,114.64500000000396,2.282379e-05
114.66000000000396,1.885224e-05,114.66000000000396,0.002051024,114.66000000000396,0.0001911078,114.66000000000396,2.370718e-05
114.67500000000396,1.847028e-05,114.67500000000396,0.002060974,114.67500000000396,0.0001862468,114.67500000000396,2.401535e-05
114.69000000000396,1.867658e-05,114.69000000000396,0.002036184,114.69000000000396,0.0001858091,114.69000000000396,2.421803e-05
114.70500000000396,1.901147e-05,114.70500000000396,0.002147059,114.70500000000396,0.0001900609,114.70500000000396,2.420465e-05
114.72000000000396,1.902555e-05,114.72000000000396,0.002166866,114.72000000000396,0.0001887553,114.72000000000396,2.453873e-05
114.73500000000396,1.872253e-05,114.73500000000396,0.002160501,114.73500000000396,0.0001825816,114.73500000000396,2.410317e-05
114.75000000000396,1.848782e-05,114.75000000000396,0.002144513,114.75000000000396,0.0001810482,114.75000000000396,2.458461e-05
114.76500000000397,1.872253e-05,114.76500000000397,0.002147115,114.76500000000397,0.0001777111,114.76500000000397,2.449506e-05
114.78000000000397,1.916571e-05,114.78000000000397,0.002136226,114.78000000000397,0.0001665564,114.78000000000397,2.284415e-05
114.79500000000397,1.899813e-05,114.79500000000397,0.002053467,114.79500000000397,0.0001508196,114.79500000000397,2.188679e-05
114.81000000000397,1.797163e-05,114.81000000000397,0.001995372,114.81000000000397,0.00011091,114.81000000000397,2.07713e-05
114.82500000000397,1.853348e-05,114.82500000000397,0.001999709,114.82500000000397,0.000107967,114.82500000000397,2.170713e-05
114.84000000000397,1.856537e-05,114.84000000000397,0.001998802,114.84000000000397,0.0001067277,114.84000000000397,2.191831e-05
114.85500000000397,1.784657e-05,114.85500000000397,0.001913942,114.85500000000397,0.0001051776,114.85500000000397,2.203689e-05
114.87000000000397,1.747003e-05,114.87000000000397,0.001688029,114.87000000000397,0.0001005239,114.87000000000397,2.196774e-05
114.88500000000397,1.787102e-05,114.88500000000397,0.001624829,114.88500000000397,9.631914e-05,114.88500000000397,2.323424e-05
114.90000000000397,1.778727e-05,114.90000000000397,0.001556636,114.90000000000397,8.936487e-05,114.90000000000397,2.059832e-05
114.91500000000397,1.715022e-05,114.91500000000397,0.001723891,114.91500000000397,9.168779e-05,114.91500000000397,1.898478e-05
114.93000000000397,1.7373e-05,114.93000000000397,0.002070257,114.93000000000397,9.2289e-05,114.93000000000397,1.936241e-05
114.94500000000397,1.709345e-05,114.94500000000397,0.002486693,114.94500000000397,9.529995e-05,114.94500000000397,1.947051e-05
114.96000000000397,1.666955e-05,114.96000000000397,0.002462578,114.96000000000397,8.607312e-05,114.96000000000397,1.926614e-05
114.97500000000397,1.707943e-05,114.97500000000397,0.002491588,114.97500000000397,9.377456e-05,114.97500000000397,1.881559e-05
114.99000000000397,1.757454e-05,114.99000000000397,0.002538761,114.99000000000397,0.0001049748,114.99000000000397,1.841605e-05
115.00500000000397,1.736895e-05,115.00500000000397,0.002557843,115.00500000000397,0.0001397978,115.00500000000397,1.909281e-05
115.02000000000398,1.702574e-05,115.02000000000398,0.002562564,115.02000000000398,0.0001517538,115.02000000000398,1.879762e-05
115.03500000000398,1.6258e-05,115.03500000000398,0.002556595,115.03500000000398,0.0001521646,115.03500000000398,1.851446e-05
115.05000000000398,1.613449e-05,115.05000000000398,0.002552125,115.05000000000398,0.0001680442,115.05000000000398,1.816731e-05
115.06500000000398,1.56829e-05,115.06500000000398,0.002546383,115.06500000000398,0.0001747295,115.06500000000398,1.666194e-05
115.08000000000398,1.453908e-05,115.08000000000398,0.002542678,115.08000000000398,0.0001815246,115.08000000000398,1.592535e-05
115.09500000000398,1.441746e-05,115.09500000000398,0.002539285,115.09500000000398,0.0002039274,115.09500000000398,1.542753e-05
115.11000000000398,1.484873e-05,115.11000000000398,0.002526559,115.11000000000398,0.000208303,115.11000000000398,1.541108e-05
115.12500000000398,1.444772e-05,115.12500000000398,0.002521595,115.12500000000398,0.0002083959,115.12500000000398,1.527244e-05
115.14000000000398,1.433712e-05,115.14000000000398,0.002512072,115.14000000000398,0.0002076159,115.14000000000398,1.26779e-05
115.15500000000398,1.495178e-05,115.15500000000398,0.00213828,115.15500000000398,0.0002096553,115.15500000000398,1.283141e-05
115.17000000000398,1.455747e-05,115.17000000000398,0.001957726,115.17000000000398,0.0002081831,115.17000000000398,1.188889e-05
115.18500000000398,1.477836e-05,115.18500000000398,0.00149952,115.18500000000398,0.000207259,115.18500000000398,1.150839e-05
115.20000000000398,1.505131e-05,115.20000000000398,0.0008105492,115.20000000000398,0.0002077204,115.20000000000398,1.120071e-05
115.21500000000398,1.601004e-05,115.21500000000398,0.0007011268,115.21500000000398,0.0002048248,115.21500000000398,1.109965e-05
115.23000000000398,1.48658e-05,115.23000000000398,0.0005931729,115.23000000000398,0.0002017533,115.23000000000398,1.149982e-05
115.24500000000398,1.483449e-05,115.24500000000398,0.0003782162,115.24500000000398,0.0001889026,115.24500000000398,1.073842e-05
115.26000000000398,1.479551e-05,115.26000000000398,0.0002219573,115.26000000000398,0.0001718061,115.26000000000398,1.007655e-05
115.27500000000398,1.449152e-05,115.27500000000398,0.0001529709,115.27500000000398,0.0001601261,115.27500000000398,1.004294e-05
115.29000000000399,1.407934e-05,115.29000000000399,9.55248e-05,115.29000000000399,0.0001612284,115.29000000000399,9.938602e-06
115.30500000000399,1.501571e-05,115.30500000000399,8.211825e-05,115.30500000000399,0.0001465954,115.30500000000399,9.834591e-06
115.32000000000399,1.496873e-05,115.32000000000399,5.958435e-05,115.32000000000399,0.0001510686,115.32000000000399,9.658262e-06
115.33500000000399,1.541108e-05,115.33500000000399,6.136445e-05,115.33500000000399,0.0001350937,115.33500000000399,1.069109e-05
115.35000000000399,1.5324e-05,115.35000000000399,5.311732e-05,115.35000000000399,0.0001076281,115.35000000000399,1.070952e-05
115.36500000000399,1.498002e-05,115.36500000000399,5.041097e-05,115.36500000000399,0.0001032896,115.36500000000399,1.05505e-05
115.38000000000399,1.494801e-05,115.38000000000399,5.127018e-05,115.38000000000399,0.0001040289,115.38000000000399,1.060244e-05
115.39500000000399,1.418301e-05,115.39500000000399,5.197828e-05,115.39500000000399,0.0001050587,115.39500000000399,1.037683e-05
115.41000000000399,1.465488e-05,115.41000000000399,4.892913e-05,115.41000000000399,9.845385e-05,115.41000000000399,1.032512e-05
115.42500000000399,1.44711e-05,115.42500000000399,4.793441e-05,115.42500000000399,9.75786e-05,115.42500000000399,1.030873e-05
115.44000000000399,1.394766e-05,115.44000000000399,4.630358e-05,115.44000000000399,9.78977e-05,115.44000000000399,1.009331e-05
115.45500000000399,1.443406e-05,115.45500000000399,4.426131e-05,115.45500000000399,0.0001029933,115.45500000000399,1.032239e-05
115.47000000000399,1.452163e-05,115.47000000000399,4.459486e-05,115.47000000000399,0.0001022632,115.47000000000399,1.019468e-05
115.48500000000399,1.464527e-05,115.48500000000399,4.473489e-05,115.48500000000399,0.0001104208,115.48500000000399,9.990908e-06
115.500000000004,1.500632e-05,115.500000000004,4.423234e-05,115.500000000004,0.0001094081,115.500000000004,9.854623e-06
115.515000000004,1.512414e-05,115.515000000004,4.439858e-05,115.515000000004,0.0001106832,115.515000000004,1.03142e-05
115.530000000004,1.497625e-05,115.530000000004,4.396112e-05,115.530000000004,0.0001098034,115.530000000004,1.031829e-05
115.545000000004,1.562802e-05,115.545000000004,4.373592e-05,115.545000000004,9.745105e-05,115.545000000004,1.017394e-05
115.560000000004,1.507282e-05,115.560000000004,4.232997e-05,115.560000000004,9.214281e-05,115.560000000004,1.021539e-05
115.575000000004,1.57179e-05,115.575000000004,3.997879e-05,115.575000000004,8.385493e-05,115.575000000004,9.928676e-06
115.590000000004,1.570714e-05,115.590000000004,2.886519e-05,115.590000000004,8.676913e-05,115.590000000004,9.116548e-06
115.605000000004,1.599507e-05,115.605000000004,2.771699e-05,115.605000000004,8.671408e-05,115.605000000004,8.861105e-06
115.620000000004,1.653038e-05,115.620000000004,2.735582e-05,115.620000000004,8.692209e-05,115.620000000004,8.489256e-06
115.635000000004,1.732591e-05,115.635000000004,2.72795e-05,115.635000000004,8.697911e-05,115.635000000004,8.429308e-06
115.650000000004,1.886718e-05,115.650000000004,2.737229e-05,115.650000000004,8.548043e-05,115.650000000004,8.202317e-06
115.665000000004,1.874509e-05,115.665000000004,2.570341e-05,115.665000000004,8.559093e-05,115.665000000004,8.306418e-06
115.680000000004,1.940166e-05,115.680000000004,2.452553e-05,115.680000000004,8.646338e-05,115.680000000004,8.289442e-06
115.695000000004,1.952398e-05,115.695000000004,2.361908e-05,115.695000000004,8.412261e-05,115.695000000004,8.026986e-06
115.710000000004,1.882158e-05,115.710000000004,2.301739e-05,115.710000000004,8.104199e-05,115.710000000004,7.491418e-06
115.725000000004,1.855702e-05,115.725000000004,2.204967e-05,115.725000000004,8.927008e-05,115.725000000004,7.22532e-06
115.740000000004,1.896474e-05,115.740000000004,2.199978e-05,115.740000000004,8.13437e-05,115.740000000004,7.372003e-06
115.755000000004,1.896325e-05,115.755000000004,2.126988e-05,115.755000000004,9.116053e-05,115.755000000004,7.385367e-06
115.770000000004,1.936969e-05,115.770000000004,2.119425e-05,115.770000000004,0.0001404059,115.770000000004,7.089519e-06
115.785000000004,1.912008e-05,115.785000000004,2.049342e-05,115.785000000004,0.0001679932,115.785000000004,7.270023e-06
115.800000000004,2.029935e-05,115.800000000004,1.943865e-05,115.800000000004,0.000221138,115.800000000004,7.521444e-06
115.815000000004,2.116831e-05,115.815000000004,1.868638e-05,115.815000000004,0.0002315904,115.815000000004,8.262207e-06
115.830000000004,2.554509e-05,115.830000000004,1.74329e-05,115.830000000004,0.0002420437,115.830000000004,1.033739e-05
115.845000000004,2.57762e-05,115.845000000004,1.660011e-05,115.845000000004,0.0002508455,115.845000000004,1.091794e-05
115.860000000004,2.573463e-05,115.860000000004,1.598274e-05,115.860000000004,0.0002652009,115.860000000004,1.300046e-05
115.87500000000401,2.547164e-05,115.87500000000401,1.599243e-05,115.87500000000401,0.000267189,115.87500000000401,1.318445e-05
115.89000000000401,2.387062e-05,115.89000000000401,1.533411e-05,115.89000000000401,0.0002672678,115.89000000000401,1.315557e-05
115.90500000000401,2.404993e-05,115.90500000000401,1.502227e-05,115.90500000000401,0.000269102,115.90500000000401,1.301454e-05
115.92000000000401,2.358088e-05,115.92000000000401,1.530284e-05,115.92000000000401,0.0002692303,115.92000000000401,1.322499e-05
115.93500000000401,2.360834e-05,115.93500000000401,1.524566e-05,115.93500000000401,0.0002701536,115.93500000000401,1.327495e-05
115.95000000000401,2.352945e-05,115.95000000000401,1.455747e-05,115.95000000000401,0.000270107,115.95000000000401,1.324202e-05
115.96500000000401,2.34617e-05,115.96500000000401,1.4652e-05,115.96500000000401,0.0002670345,115.96500000000401,1.35875e-05
115.98000000000401,2.385527e-05,115.98000000000401,1.560727e-05,115.98000000000401,0.000265634,115.98000000000401,1.3632e-05
115.99500000000401,2.350968e-05,115.99500000000401,1.556932e-05,115.99500000000401,0.0002637477,115.99500000000401,1.356571e-05
116.01000000000401,2.317657e-05,116.01000000000401,1.574923e-05,116.01000000000401,0.0002614695,116.01000000000401,1.37134e-05
116.02500000000401,2.308644e-05,116.02500000000401,1.62207e-05,116.02500000000401,0.0002286149,116.02500000000401,1.382899e-05
116.04000000000401,2.264659e-05,116.04000000000401,1.580994e-05,116.04000000000401,0.0002088875,116.04000000000401,1.379124e-05
116.05500000000401,2.157826e-05,116.05500000000401,1.570176e-05,116.05500000000401,0.0001479973,116.05500000000401,1.367534e-05
116.07000000000401,1.835399e-05,116.07000000000401,1.566673e-05,116.07000000000401,0.0001381476,116.07000000000401,1.253936e-05
116.08500000000402,1.401717e-05,116.08500000000402,1.552401e-05,116.08500000000402,0.0001343043,116.08500000000402,1.139646e-05
116.10000000000402,1.520959e-05,116.10000000000402,1.547402e-05,116.10000000000402,0.0001086416,116.10000000000402,9.917319e-06
116.11500000000402,1.565683e-05,116.11500000000402,1.542388e-05,116.11500000000402,8.303246e-05,116.11500000000402,8.095138e-06
116.13000000000402,1.603905e-05,116.13000000000402,1.598186e-05,116.13000000000402,7.620559e-05,116.13000000000402,7.982992e-06
116.14500000000402,1.580548e-05,116.14500000000402,1.61109e-05,116.14500000000402,7.568214e-05,116.14500000000402,8.077717e-06
116.16000000000402,1.556117e-05,116.16000000000402,1.633062e-05,116.16000000000402,7.276027e-05,116.16000000000402,8.081204e-06
116.17500000000402,1.550313e-05,116.17500000000402,1.761058e-05,116.17500000000402,6.906236e-05,116.17500000000402,7.666136e-06
116.19000000000402,1.513252e-05,116.19000000000402,1.877437e-05,116.19000000000402,6.643777e-05,116.19000000000402,7.653262e-06
116.20500000000402,1.524566e-05,116.20500000000402,1.958521e-05,116.20500000000402,6.579198e-05,116.20500000000402,7.495178e-06
116.22000000000402,1.499036e-05,116.22000000000402,1.917673e-05,116.22000000000402,6.643311e-05,116.22000000000402,6.944984e-06
116.23500000000402,1.472106e-05,116.23500000000402,1.885897e-05,116.23500000000402,6.405049e-05,116.23500000000402,6.726546e-06
116.25000000000402,1.464815e-05,116.25000000000402,1.912966e-05,116.25000000000402,6.055614e-05,116.25000000000402,6.813935e-06
116.26500000000402,1.453229e-05,116.26500000000402,1.906253e-05,116.26500000000402,5.658959e-05,116.26500000000402,6.395915e-06
116.28000000000402,1.467505e-05,116.28000000000402,1.907287e-05,116.28000000000402,5.949374e-05,116.28000000000402,5.804769e-06
116.29500000000402,1.460288e-05,116.29500000000402,1.892756e-05,116.29500000000402,5.836787e-05,116.29500000000402,5.809621e-06
116.31000000000402,1.418599e-05,116.31000000000402,1.913261e-05,116.31000000000402,5.458792e-05,116.31000000000402,6.102884e-06
116.32500000000402,1.395876e-05,116.32500000000402,1.885299e-05,116.32500000000402,5.703022e-05,116.32500000000402,6.203613e-06
116.34000000000403,1.423655e-05,116.34000000000403,1.860857e-05,116.34000000000403,0.0001152753,116.34000000000403,6.398117e-06
116.35500000000403,1.296031e-05,116.35500000000403,1.877587e-05,116.35500000000403,0.0001518215,116.35500000000403,6.993494e-06
116.37000000000403,1.267123e-05,116.37000000000403,1.847638e-05,116.37000000000403,0.0001809134,116.37000000000403,7.051666e-06
116.38500000000403,1.27731e-05,116.38500000000403,1.793082e-05,116.38500000000403,0.000235178,116.38500000000403,7.308674e-06
116.40000000000403,1.591119e-05,116.40000000000403,1.81448e-05,116.40000000000403,0.0002393859,116.40000000000403,7.394897e-06
116.41500000000403,2.30229e-05,116.41500000000403,1.84107e-05,116.41500000000403,0.0002498142,116.41500000000403,7.268085e-06
116.43000000000403,3.228078e-05,116.43000000000403,1.832864e-05,116.43000000000403,0.0002534744,116.43000000000403,7.34712e-06
116.44500000000403,3.350937e-05,116.44500000000403,1.800843e-05,116.44500000000403,0.0002538633,116.44500000000403,7.558809e-06
116.46000000000403,3.385482e-05,116.46000000000403,1.716582e-05,116.46000000000403,0.000253797,116.46000000000403,8.129866e-06
116.47500000000403,3.404155e-05,116.47500000000403,1.71937e-05,116.47500000000403,0.0002537791,116.47500000000403,8.186846e-06
116.49000000000403,3.377275e-05,116.49000000000403,1.665095e-05,116.49000000000403,0.0002552559,116.49000000000403,8.744285e-06
116.50500000000403,3.392133e-05,116.50500000000403,1.646806e-05,116.50500000000403,0.0002554642,116.50500000000403,9.173541e-06
116.52000000000403,3.398688e-05,116.52000000000403,1.654997e-05,116.52000000000403,0.00025731,116.52000000000403,9.325834e-06
116.53500000000403,3.413741e-05,116.53500000000403,1.621549e-05,116.53500000000403,0.000258338,116.53500000000403,9.947104e-06
116.55000000000403,3.418525e-05,116.55000000000403,1.62502e-05,116.55000000000403,0.0002613307,116.55000000000403,1.001626e-05
116.56500000000403,3.408456e-05,116.56500000000403,1.632717e-05,116.56500000000403,0.0002645147,116.56500000000403,1.019192e-05
116.58000000000403,3.433738e-05,116.58000000000403,1.635648e-05,116.58000000000403,0.0002631937,116.58000000000403,1.015453e-05
116.59500000000403,3.451496e-05,116.59500000000403,1.666363e-05,116.59500000000403,0.000227379,116.59500000000403,1.018777e-05
116.61000000000404,3.449537e-05,116.61000000000404,1.769596e-05,116.61000000000404,0.0002183728,116.61000000000404,1.019745e-05
116.62500000000404,3.483064e-05,116.62500000000404,1.808103e-05,116.62500000000404,0.0001819001,116.62500000000404,1.030736e-05
116.64000000000404,3.4865e-05,116.64000000000404,1.812383e-05,116.64000000000404,0.0001250712,116.64000000000404,1.025118e-05
116.65500000000404,3.076407e-05,116.65500000000404,1.774048e-05,116.65500000000404,0.0001210427,116.65500000000404,1.017947e-05
116.67000000000404,2.113301e-05,116.67000000000404,1.752639e-05,116.67000000000404,0.000101331,116.67000000000404,1.028137e-05
116.68500000000404,1.704228e-05,116.68500000000404,1.646463e-05,116.68500000000404,9.757456e-05,116.68500000000404,1.024018e-05
116.70000000000404,1.598891e-05,116.70000000000404,1.622678e-05,116.70000000000404,9.867551e-05,116.70000000000404,9.838886e-06
116.71500000000404,1.559373e-05,116.71500000000404,1.632199e-05,116.71500000000404,0.0001008852,116.71500000000404,9.792964e-06
116.73000000000404,1.514648e-05,116.73000000000404,1.664249e-05,116.73000000000404,0.0001010674,116.73000000000404,9.746825e-06
116.74500000000404,1.541748e-05,116.74500000000404,1.685109e-05,116.74500000000404,9.658597e-05,116.74500000000404,9.091791e-06
116.76000000000404,1.599419e-05,116.76000000000404,1.706541e-05,116.76000000000404,9.93754e-05,116.76000000000404,9.010862e-06
116.77500000000404,1.61659e-05,116.77500000000404,1.700256e-05,116.77500000000404,9.095911e-05,116.77500000000404,8.724932e-06
116.79000000000404,1.584198e-05,116.79000000000404,1.699676e-05,116.79000000000404,8.955634e-05,116.79000000000404,8.026986e-06
116.80500000000404,1.74224e-05,116.80500000000404,1.726727e-05,116.80500000000404,7.857138e-05,116.80500000000404,7.956479e-06
116.82000000000404,1.724197e-05,116.82000000000404,1.663402e-05,116.82000000000404,6.810854e-05,116.82000000000404,7.59228e-06
116.83500000000404,1.770949e-05,116.83500000000404,1.721253e-05,116.83500000000404,6.677953e-05,116.83500000000404,7.480127e-06
116.85000000000404,1.74789e-05,116.85000000000404,1.672018e-05,116.85000000000404,6.445804e-05,116.85000000000404,7.373913e-06
116.86500000000404,1.741269e-05,116.86500000000404,1.630299e-05,116.86500000000404,6.037535e-05,116.86500000000404,6.861319e-06
116.88000000000405,1.685527e-05,116.88000000000405,1.598538e-05,116.88000000000405,5.847059e-05,116.88000000000405,6.770382e-06
116.89500000000405,1.798338e-05,116.89500000000405,1.573044e-05,116.89500000000405,5.887682e-05,116.89500000000405,6.703471e-06
116.91000000000405,1.801938e-05,116.91000000000405,1.539279e-05,116.91000000000405,6.037862e-05,116.91000000000405,6.64861e-06
116.92500000000405,1.842217e-05,116.92500000000405,1.540285e-05,116.92500000000405,6.062519e-05,116.92500000000405,6.621009e-06
116.94000000000405,1.810283e-05,116.94000000000405,1.526413e-05,116.94000000000405,6.030812e-05,116.94000000000405,6.621009e-06
116.95500000000405,1.834862e-05,116.95500000000405,1.53992e-05,116.95500000000405,6.026863e-05,116.95500000000405,6.535352e-06
116.97000000000405,1.83678e-05,116.97000000000405,1.519661e-05,116.97000000000405,5.638086e-05,116.97000000000405,6.474718e-06
116.98500000000405,1.831327e-05,116.98500000000405,1.43793e-05,116.98500000000405,5.709095e-05,116.98500000000405,6.745368e-06
117.00000000000405,1.869165e-05,117.00000000000405,1.460578e-05,117.00000000000405,5.564879e-05,117.00000000000405,6.561167e-06
117.01500000000405,1.801704e-05,117.01500000000405,1.408534e-05,117.01500000000405,5.078043e-05,117.01500000000405,6.476893e-06
117.03000000000405,1.794025e-05,117.03000000000405,1.390112e-05,117.03000000000405,4.765441e-05,117.03000000000405,6.479067e-06
117.04500000000405,1.795046e-05,117.04500000000405,1.376057e-05,117.04500000000405,4.809137e-05,117.04500000000405,6.439814e-06
117.06000000000405,1.851903e-05,117.06000000000405,1.372058e-05,117.06000000000405,4.695161e-05,117.06000000000405,6.528882e-06
117.07500000000405,1.934713e-05,117.07500000000405,1.388084e-05,117.07500000000405,4.889054e-05,117.07500000000405,6.500773e-06
117.09000000000405,1.897884e-05,117.09000000000405,1.354596e-05,117.09000000000405,5.005933e-05,117.09000000000405,6.50294e-06
117.10500000000405,1.968135e-05,117.10500000000405,1.331733e-05,117.10500000000405,5.014705e-05,117.10500000000405,6.569749e-06
117.12000000000405,1.977133e-05,117.12000000000405,1.302103e-05,117.12000000000405,5.003203e-05,117.12000000000405,6.533196e-06
117.13500000000406,2.078689e-05,117.13500000000406,1.30286e-05,117.13500000000406,5.096706e-05,117.13500000000406,6.505105e-06
117.15000000000406,2.014191e-05,117.15000000000406,1.293311e-05,117.15000000000406,5.119457e-05,117.15000000000406,6.481242e-06
117.16500000000406,2.038384e-05,117.16500000000406,1.313628e-05,117.16500000000406,5.05452e-05,117.16500000000406,6.618881e-06
117.18000000000406,2.011531e-05,117.18000000000406,1.343843e-05,117.18000000000406,5.148021e-05,117.18000000000406,6.627389e-06
117.19500000000406,2.053462e-05,117.19500000000406,1.322712e-05,117.19500000000406,5.099496e-05,117.19500000000406,6.582601e-06
117.21000000000406,2.03056e-05,117.21000000000406,1.305345e-05,117.21000000000406,4.718355e-05,117.21000000000406,6.541815e-06
117.22500000000406,2.039144e-05,117.22500000000406,1.342059e-05,117.22500000000406,4.668292e-05,117.22500000000406,6.437625e-06
117.24000000000406,2.031947e-05,117.24000000000406,1.344995e-05,117.24000000000406,4.697171e-05,117.24000000000406,6.125922e-06
117.25500000000406,2.044938e-05,117.25500000000406,1.417308e-05,117.25500000000406,4.629171e-05,117.25500000000406,6.009847e-06
117.27000000000406,2.133403e-05,117.27000000000406,1.429973e-05,117.27000000000406,4.662283e-05,117.27000000000406,6.187698e-06
117.28500000000406,2.143416e-05,117.28500000000406,1.46568e-05,117.28500000000406,4.330413e-05,117.28500000000406,6.16489e-06
117.30000000000406,2.28133e-05,117.30000000000406,1.444674e-05,117.30000000000406,4.409773e-05,117.30000000000406,6.123622e-06
117.31500000000406,2.165385e-05,117.31500000000406,1.475928e-05,117.31500000000406,4.243798e-05,117.31500000000406,6.19225e-06
117.33000000000406,2.158087e-05,117.33000000000406,1.451969e-05,117.33000000000406,4.084121e-05,117.33000000000406,6.300498e-06
117.34500000000406,2.22348e-05,117.34500000000406,1.493198e-05,117.34500000000406,3.861007e-05,117.34500000000406,6.221753e-06
117.36000000000406,2.242154e-05,117.36000000000406,1.50204e-05,117.36000000000406,3.877535e-05,117.36000000000406,6.125922e-06
117.37500000000406,2.195876e-05,117.37500000000406,1.515856e-05,117.37500000000406,4.09731e-05,117.37500000000406,6.123622e-06
117.39000000000406,2.119624e-05,117.39000000000406,1.494989e-05,117.39000000000406,4.118912e-05,117.39000000000406,6.300498e-06
117.40500000000407,2.134723e-05,117.40500000000407,1.514927e-05,117.40500000000407,4.390052e-05,117.40500000000407,6.369431e-06
117.42000000000407,2.18049e-05,117.42000000000407,1.482594e-05,117.42000000000407,4.866441e-05,117.42000000000407,6.162605e-06
117.43500000000407,2.124006e-05,117.43500000000407,1.482784e-05,117.43500000000407,7.831764e-05,117.43500000000407,6.468188e-06
117.45000000000407,2.123144e-05,117.45000000000407,1.57367e-05,117.45000000000407,0.0001062067,117.45000000000407,6.764137e-06
117.46500000000407,2.158609e-05,117.46500000000407,1.575192e-05,117.46500000000407,0.0001440387,117.46500000000407,6.809799e-06
117.48000000000407,2.166101e-05,117.48000000000407,1.547494e-05,117.48000000000407,0.0001476955,117.48000000000407,6.834577e-06
117.49500000000407,2.204328e-05,117.49500000000407,1.651333e-05,117.49500000000407,0.0001620361,117.49500000000407,7.62745e-06
117.51000000000407,2.240332e-05,117.51000000000407,1.692866e-05,117.51000000000407,0.0001809115,117.51000000000407,7.940529e-06
117.52500000000407,2.242594e-05,117.52500000000407,1.659587e-05,117.52500000000407,0.0001809718,117.52500000000407,7.938755e-06
117.54000000000407,2.272669e-05,117.54000000000407,1.706706e-05,117.54000000000407,0.000181834,117.54000000000407,8.26732e-06
117.55500000000407,2.095361e-05,117.55500000000407,1.810283e-05,117.55500000000407,0.0001818118,117.55500000000407,8.372296e-06
117.57000000000407,2.165841e-05,117.57000000000407,1.867884e-05,117.57000000000407,0.0001821126,117.57000000000407,8.260502e-06
117.58500000000407,2.090043e-05,117.58500000000407,1.915394e-05,117.58500000000407,0.0001825996,117.58500000000407,8.253678e-06
117.60000000000407,2.167986e-05,117.60000000000407,1.870597e-05,117.60000000000407,0.0001870334,117.60000000000407,8.415928e-06
117.61500000000407,2.217008e-05,117.61500000000407,1.903591e-05,117.61500000000407,0.0001937986,117.61500000000407,8.37566e-06
117.63000000000407,2.230691e-05,117.63000000000407,1.901222e-05,117.63000000000407,0.0001978654,117.63000000000407,9.052973e-06
117.64500000000407,2.22462e-05,117.64500000000407,1.88081e-05,117.64500000000407,0.0002164165,117.64500000000407,9.21185e-06
117.66000000000408,2.221769e-05,117.66000000000408,1.877962e-05,117.66000000000408,0.0002187244,117.66000000000408,9.54382e-06
117.67500000000408,2.198569e-05,117.67500000000408,1.861689e-05,117.67500000000408,0.0002153985,117.67500000000408,9.618801e-06
117.69000000000408,2.205733e-05,117.69000000000408,1.885747e-05,117.69000000000408,0.0002114509,117.69000000000408,1.021263e-05
117.70500000000408,2.171881e-05,117.70500000000408,1.940529e-05,117.70500000000408,0.0001986302,117.70500000000408,1.005696e-05
117.72000000000408,2.325787e-05,117.72000000000408,1.99423e-05,117.72000000000408,0.0002006548,117.72000000000408,1.146915e-05
117.73500000000408,2.465499e-05,117.73500000000408,2.025002e-05,117.73500000000408,0.0001988853,117.73500000000408,1.145071e-05
117.75000000000408,2.716151e-05,117.75000000000408,1.984813e-05,117.75000000000408,0.0002007197,117.75000000000408,1.182474e-05
117.76500000000408,2.699922e-05,117.76500000000408,1.991685e-05,117.76500000000408,0.0001977812,117.76500000000408,1.19527e-05
117.78000000000408,2.698095e-05,117.78000000000408,2.037209e-05,117.78000000000408,0.0001982876,117.78000000000408,1.22966e-05
117.79500000000408,2.716774e-05,117.79500000000408,1.952398e-05,117.79500000000408,0.0002115382,117.79500000000408,1.232635e-05
117.81000000000408,2.883443e-05,117.81000000000408,1.889106e-05,117.81000000000408,0.0002241193,117.81000000000408,1.27455e-05
117.82500000000408,2.812514e-05,117.82500000000408,1.835169e-05,117.82500000000408,0.0002244739,117.82500000000408,1.284458e-05
117.84000000000408,2.78144e-05,117.84000000000408,1.781259e-05,117.84000000000408,0.0002313377,117.84000000000408,1.314379e-05
117.85500000000408,2.58237e-05,117.85500000000408,1.785209e-05,117.85500000000408,0.0002319045,117.85500000000408,1.310515e-05
117.87000000000408,2.595266e-05,117.87000000000408,1.755289e-05,117.87000000000408,0.0002279012,117.87000000000408,1.299938e-05
117.88500000000408,2.59266e-05,117.88500000000408,1.793082e-05,117.88500000000408,0.0002241645,117.88500000000408,1.300046e-05
117.90000000000408,2.575543e-05,117.90000000000408,1.827708e-05,117.90000000000408,0.0002082543,117.90000000000408,1.29342e-05
117.91500000000408,2.53369e-05,117.91500000000408,1.85957e-05,117.91500000000408,0.000208132,117.91500000000408,1.286102e-05
117.93000000000409,2.571821e-05,117.93000000000409,1.946907e-05,117.93000000000409,0.0002141123,117.93000000000409,1.261775e-05
117.94500000000409,2.570232e-05,117.94500000000409,1.901296e-05,117.94500000000409,0.000206058,117.94500000000409,1.222422e-05
117.96000000000409,2.484792e-05,117.96000000000409,1.779439e-05,117.96000000000409,0.0001968013,117.96000000000409,1.187585e-05
117.97500000000409,2.306447e-05,117.97500000000409,1.777935e-05,117.97500000000409,0.0001856652,117.97500000000409,1.080511e-05
117.99000000000409,2.051472e-05,117.99000000000409,1.70621e-05,117.99000000000409,0.0001747128,117.99000000000409,1.045258e-05
118.00500000000409,1.764733e-05,118.00500000000409,1.658653e-05,118.00500000000409,0.0001619442,118.00500000000409,9.755493e-06
118.02000000000409,1.74135e-05,118.02000000000409,1.546401e-05,118.02000000000409,0.0001588841,118.02000000000409,9.40555e-06
118.03500000000409,1.589967e-05,118.03500000000409,1.485632e-05,118.03500000000409,0.0001577884,118.03500000000409,8.658483e-06
118.05000000000409,1.572686e-05,118.05000000000409,1.439986e-05,118.05000000000409,0.0001240273,118.05000000000409,8.205751e-06
118.06500000000409,1.284019e-05,118.06500000000409,1.449833e-05,118.06500000000409,0.0001186337,118.06500000000409,7.790086e-06
118.08000000000409,1.276317e-05,118.08000000000409,1.532768e-05,118.08000000000409,0.0001164287,118.08000000000409,7.571843e-06
118.09500000000409,1.320793e-05,118.09500000000409,1.622244e-05,118.09500000000409,9.668189e-05,118.09500000000409,7.291306e-06
118.11000000000409,1.336485e-05,118.11000000000409,1.660351e-05,118.11000000000409,9.127543e-05,118.11000000000409,7.322153e-06
118.12500000000409,1.359682e-05,118.12500000000409,1.652953e-05,118.12500000000409,8.783456e-05,118.12500000000409,7.071614e-06
118.1400000000041,1.346565e-05,118.1400000000041,1.658653e-05,118.1400000000041,8.832698e-05,118.1400000000041,6.730734e-06
118.1550000000041,1.344786e-05,118.1550000000041,1.642694e-05,118.1550000000041,8.674445e-05,118.1550000000041,6.509435e-06
118.1700000000041,1.313414e-05,118.1700000000041,1.518549e-05,118.1700000000041,8.347711e-05,118.1700000000041,6.19225e-06
118.1850000000041,1.266678e-05,118.1850000000041,1.439986e-05,118.1850000000041,7.606423e-05,118.1850000000041,6.518086e-06
118.2000000000041,1.260211e-05,118.2000000000041,1.423852e-05,118.2000000000041,7.347063e-05,118.2000000000041,6.411314e-06
118.2150000000041,1.275544e-05,118.2150000000041,1.422467e-05,118.2150000000041,7.433069e-05,118.2150000000041,6.844875e-06
118.2300000000041,1.339538e-05,118.2300000000041,1.422566e-05,118.2300000000041,7.373073e-05,118.2300000000041,6.963215e-06
118.2450000000041,1.366091e-05,118.2450000000041,1.412928e-05,118.2450000000041,7.538618e-05,118.2450000000041,7.131124e-06
118.2600000000041,1.395775e-05,118.2600000000041,1.408334e-05,118.2600000000041,7.455266e-05,118.2600000000041,7.201887e-06
118.2750000000041,1.541565e-05,118.2750000000041,1.464719e-05,118.2750000000041,7.510499e-05,118.2750000000041,7.213613e-06
118.2900000000041,1.51055e-05,118.2900000000041,1.61179e-05,118.2900000000041,7.364662e-05,118.2900000000041,7.293238e-06
118.3050000000041,1.504851e-05,118.3050000000041,1.649797e-05,118.3050000000041,7.45279e-05,118.3050000000041,7.268085e-06
118.3200000000041,1.503258e-05,118.3200000000041,1.618679e-05,118.3200000000041,6.847653e-05,118.3200000000041,7.091506e-06
118.3350000000041,1.541565e-05,118.3350000000041,1.509244e-05,118.3350000000041,6.790202e-05,118.3350000000041,7.349037e-06
118.3500000000041,1.507843e-05,118.3500000000041,1.420088e-05,118.3500000000041,6.89364e-05,118.3500000000041,7.285508e-06
118.3650000000041,1.559463e-05,118.3650000000041,1.41502e-05,118.3650000000041,6.627091e-05,118.3650000000041,7.431003e-06
118.3800000000041,1.51567e-05,118.3800000000041,1.404027e-05,118.3800000000041,5.818368e-05,118.3800000000041,7.279705e-06
118.3950000000041,1.526967e-05,118.3950000000041,1.361546e-05,118.3950000000041,5.551117e-05,118.3950000000041,7.30096e-06
118.4100000000041,1.494141e-05,118.4100000000041,1.351994e-05,118.4100000000041,5.553426e-05,118.4100000000041,7.2409e-06
118.4250000000041,1.505786e-05,118.4250000000041,1.365266e-05,118.4250000000041,4.999006e-05,118.4250000000041,7.237009e-06
118.4400000000041,1.486106e-05,118.4400000000041,1.38849e-05,118.4400000000041,4.530126e-05,118.4400000000041,7.037669e-06
118.4550000000041,1.482024e-05,118.4550000000041,1.468177e-05,118.4550000000041,4.683655e-05,118.4550000000041,7.178377e-06
118.4700000000041,1.453811e-05,118.4700000000041,1.496496e-05,118.4700000000041,4.499143e-05,118.4700000000041,6.690851e-06
118.4850000000041,1.604958e-05,118.4850000000041,1.587751e-05,118.4850000000041,4.130388e-05,118.4850000000041,6.481242e-06
118.5000000000041,1.621375e-05,118.5000000000041,1.622591e-05,118.5000000000041,4.262313e-05,118.5000000000041,6.511599e-06
118.51500000000411,1.789465e-05,118.51500000000411,1.642523e-05,118.51500000000411,4.082258e-05,118.51500000000411,6.217223e-06
118.53000000000411,1.679919e-05,118.53000000000411,1.531757e-05,118.53000000000411,4.163236e-05,118.53000000000411,6.380479e-06
118.54500000000411,1.699427e-05,118.54500000000411,1.457392e-05,118.54500000000411,4.10888e-05,118.54500000000411,6.316129e-06
118.56000000000411,1.691617e-05,118.56000000000411,1.46568e-05,118.56000000000411,3.948705e-05,118.56000000000411,6.448557e-06
118.57500000000411,1.667716e-05,118.57500000000411,1.454489e-05,118.57500000000411,3.880695e-05,118.57500000000411,6.500773e-06
118.59000000000411,1.650906e-05,118.59000000000411,1.465969e-05,118.59000000000411,3.672486e-05,118.59000000000411,6.109804e-06
118.60500000000411,1.67488e-05,118.60500000000411,1.451581e-05,118.60500000000411,3.717662e-05,118.60500000000411,6.028569e-06
118.62000000000411,1.649199e-05,118.62000000000411,1.458841e-05,118.62000000000411,3.722282e-05,118.62000000000411,5.853103e-06
118.63500000000411,1.728684e-05,118.63500000000411,1.444284e-05,118.63500000000411,3.789677e-05,118.63500000000411,5.920107e-06
118.65000000000411,1.723788e-05,118.65000000000411,1.452357e-05,118.65000000000411,3.895007e-05,118.65000000000411,5.893875e-06
118.66500000000411,1.72158e-05,118.66500000000411,1.472967e-05,118.66500000000411,3.939025e-05,118.66500000000411,6.007502e-06
118.68000000000411,1.751915e-05,118.68000000000411,1.453229e-05,118.68000000000411,4.980684e-05,118.68000000000411,5.768253e-06
118.69500000000411,1.761378e-05,118.69500000000411,1.443406e-05,118.69500000000411,0.0001156344,118.69500000000411,5.589657e-06
118.71000000000411,1.818978e-05,118.71000000000411,1.398497e-05,118.71000000000411,0.0001347778,118.71000000000411,5.741327e-06
118.72500000000412,1.810517e-05,118.72500000000412,1.409034e-05,118.72500000000412,0.0001812027,118.72500000000412,6.426676e-06
118.74000000000412,1.80311e-05,118.74000000000412,1.338065e-05,118.74000000000412,0.0002007583,118.74000000000412,6.770382e-06
118.75500000000412,1.767684e-05,118.75500000000412,1.352098e-05,118.75500000000412,0.0002071768,118.75500000000412,7.219469e-06
118.77000000000412,1.619984e-05,118.77000000000412,1.389707e-05,118.77000000000412,0.0002319176,118.77000000000412,8.299631e-06
118.78500000000412,1.940747e-05,118.78500000000412,1.408334e-05,118.78500000000412,0.0002371401,118.78500000000412,8.352081e-06
118.80000000000412,2.340579e-05,118.80000000000412,1.453326e-05,118.80000000000412,0.000239544,118.80000000000412,9.474194e-06
118.81500000000412,2.425814e-05,118.81500000000412,1.516506e-05,118.81500000000412,0.0002407468,118.81500000000412,1.004715e-05
118.83000000000412,2.465899e-05,118.83000000000412,1.564513e-05,118.83000000000412,0.0002422659,118.83000000000412,1.003171e-05
118.84500000000412,2.476957e-05,118.84500000000412,1.559192e-05,118.84500000000412,0.0002446277,118.84500000000412,1.028958e-05
118.86000000000412,2.537801e-05,118.86000000000412,1.548767e-05,118.86000000000412,0.0002453334,118.86000000000412,1.052376e-05
118.87500000000412,2.493282e-05,118.87500000000412,1.56208e-05,118.87500000000412,0.0002499729,118.87500000000412,1.104749e-05
118.89000000000412,2.501404e-05,118.89000000000412,1.572417e-05,118.89000000000412,0.0002509608,118.89000000000412,1.121203e-05
118.90500000000412,2.515836e-05,118.90500000000412,1.581884e-05,118.90500000000412,0.000252526,118.90500000000412,1.131334e-05
118.92000000000412,2.533801e-05,118.92000000000412,1.582241e-05,118.92000000000412,0.000253515,118.92000000000412,1.132951e-05
118.93500000000412,2.534412e-05,118.93500000000412,1.576443e-05,118.93500000000412,0.0002464534,118.93500000000412,1.139522e-05
118.95000000000412,2.540353e-05,118.95000000000412,1.604432e-05,118.95000000000412,0.0002270826,118.95000000000412,1.142485e-05
118.96500000000412,2.527901e-05,118.96500000000412,1.553943e-05,118.96500000000412,0.0002111065,118.96500000000412,1.121831e-05
118.98000000000413,2.486549e-05,118.98000000000413,1.547129e-05,118.98000000000413,0.0001682569,118.98000000000413,1.114524e-05
118.99500000000413,2.464756e-05,118.99500000000413,1.537631e-05,118.99500000000413,0.0001553327,118.99500000000413,1.094372e-05
119.01000000000413,2.673813e-05,119.01000000000413,1.549404e-05,119.01000000000413,0.0001457852,119.01000000000413,1.02333e-05
119.02500000000413,2.667694e-05,119.02500000000413,1.489514e-05,119.02500000000413,0.0001039873,119.02500000000413,9.863196e-06
119.04000000000413,2.538855e-05,119.04000000000413,1.444381e-05,119.04000000000413,0.0001029853,119.04000000000413,9.453355e-06
119.05500000000413,2.259116e-05,119.05500000000413,1.490176e-05,119.05500000000413,9.586014e-05,119.05500000000413,8.601352e-06
119.07000000000413,2.249368e-05,119.07000000000413,1.49866e-05,119.07000000000413,9.423117e-05,119.07000000000413,7.96002e-06
119.08500000000413,2.237185e-05,119.08500000000413,1.576532e-05,119.08500000000413,8.724577e-05,119.08500000000413,7.770169e-06
119.10000000000413,2.181782e-05,119.10000000000413,1.572148e-05,119.10000000000413,8.365782e-05,119.10000000000413,7.590424e-06
119.11500000000413,2.127584e-05,119.11500000000413,1.598715e-05,119.11500000000413,7.831296e-05,119.11500000000413,6.955118e-06
119.13000000000413,2.198313e-05,119.13000000000413,1.610741e-05,119.13000000000413,6.703492e-05,119.13000000000413,6.468188e-06
119.14500000000413,2.221959e-05,119.14500000000413,1.603817e-05,119.14500000000413,7.2676e-05,119.14500000000413,6.293787e-06
119.16000000000413,2.195427e-05,119.16000000000413,1.644751e-05,119.16000000000413,7.344435e-05,119.16000000000413,6.652846e-06
119.17500000000413,2.211601e-05,119.17500000000413,1.653294e-05,119.17500000000413,7.044291e-05,119.17500000000413,6.80773e-06
119.19000000000413,2.18049e-05,119.19000000000413,1.687198e-05,119.19000000000413,6.982568e-05,119.19000000000413,6.885912e-06
119.20500000000413,2.166751e-05,119.20500000000413,1.695942e-05,119.20500000000413,6.867947e-05,119.20500000000413,7.095478e-06
119.22000000000413,2.176157e-05,119.22000000000413,1.696772e-05,119.22000000000413,6.921762e-05,119.22000000000413,6.96726e-06
119.23500000000413,2.228226e-05,119.23500000000413,1.657124e-05,119.23500000000413,6.946181e-05,119.23500000000413,7.051666e-06
119.25000000000414,2.216691e-05,119.25000000000414,1.646806e-05,119.25000000000414,6.957123e-05,119.25000000000414,7.219469e-06
119.26500000000414,2.043422e-05,119.26500000000414,1.644066e-05,119.26500000000414,7.060271e-05,119.26500000000414,7.335607e-06
119.28000000000414,2.045627e-05,119.28000000000414,1.651674e-05,119.28000000000414,6.964146e-05,119.28000000000414,7.860292e-06
119.29500000000414,1.953335e-05,119.29500000000414,1.503258e-05,119.29500000000414,7.050287e-05,119.29500000000414,7.835162e-06
119.31000000000414,1.847257e-05,119.31000000000414,1.496873e-05,119.31000000000414,7.063302e-05,119.31000000000414,7.813558e-06
119.32500000000414,1.808259e-05,119.32500000000414,1.402621e-05,119.32500000000414,7.168695e-05,119.32500000000414,8.24514e-06
119.34000000000414,1.81417e-05,119.34000000000414,1.381574e-05,119.34000000000414,7.065057e-05,119.34000000000414,8.430979e-06
119.35500000000414,1.831096e-05,119.35500000000414,1.380452e-05,119.35500000000414,7.08099e-05,119.35500000000414,8.517419e-06
119.37000000000414,1.876461e-05,119.37000000000414,1.394564e-05,119.37000000000414,7.074163e-05,119.37000000000414,8.520726e-06
119.38500000000414,1.745793e-05,119.38500000000414,1.317804e-05,119.38500000000414,6.856061e-05,119.38500000000414,8.723317e-06
119.40000000000414,1.726809e-05,119.40000000000414,1.326646e-05,119.40000000000414,5.190397e-05,119.40000000000414,8.959125e-06
119.41500000000414,1.736895e-05,119.41500000000414,1.300371e-05,119.41500000000414,4.888535e-05,119.41500000000414,8.905506e-06
119.43000000000414,1.728195e-05,119.43000000000414,1.319086e-05,119.43000000000414,4.808493e-05,119.43000000000414,8.918151e-06
119.44500000000414,1.793711e-05,119.44500000000414,1.242084e-05,119.44500000000414,4.628867e-05,119.44500000000414,8.851561e-06
119.46000000000414,1.798417e-05,119.46000000000414,1.229546e-05,119.46000000000414,4.203978e-05,119.46000000000414,8.718472e-06
119.47500000000414,1.789071e-05,119.47500000000414,1.239018e-05,119.47500000000414,4.144517e-05,119.47500000000414,8.576751e-06
119.49000000000414,1.82632e-05,119.49000000000414,1.291785e-05,119.49000000000414,4.173915e-05,119.49000000000414,8.515764e-06
119.50500000000415,1.736327e-05,119.50500000000415,1.398699e-05,119.50500000000415,4.418581e-05,119.50500000000415,8.415928e-06
119.52000000000415,1.694446e-05,119.52000000000415,1.443308e-05,119.52000000000415,4.246752e-05,119.52000000000415,8.301328e-06
119.53500000000415,1.618679e-05,119.53500000000415,1.454876e-05,119.53500000000415,4.502272e-05,119.53500000000415,8.060259e-06
119.55000000000415,1.513252e-05,119.55000000000415,1.450998e-05,119.55000000000415,4.277423e-05,119.55000000000415,8.140256e-06
119.56500000000415,1.544031e-05,119.56500000000415,1.433515e-05,119.56500000000415,4.280287e-05,119.56500000000415,8.192006e-06
119.58000000000415,1.586686e-05,119.58000000000415,1.444577e-05,119.58000000000415,4.182815e-05,119.58000000000415,7.838757e-06
119.59500000000415,1.587041e-05,119.59500000000415,1.479075e-05,119.59500000000415,4.405619e-05,119.59500000000415,7.56626e-06
119.61000000000415,1.621896e-05,119.61000000000415,1.516135e-05,119.61000000000415,4.751883e-05,119.61000000000415,7.410121e-06
119.62500000000415,1.588638e-05,119.62500000000415,1.598009e-05,119.62500000000415,5.371962e-05,119.62500000000415,7.442368e-06
119.64000000000415,1.625453e-05,119.64000000000415,1.679751e-05,119.64000000000415,5.924008e-05,119.64000000000415,6.969281e-06
119.65500000000415,1.690118e-05,119.65500000000415,1.622504e-05,119.65500000000415,6.634973e-05,119.65500000000415,6.500773e-06
119.67000000000415,1.67488e-05,119.67000000000415,1.673028e-05,119.67000000000415,6.8717e-05,119.67000000000415,6.298262e-06
119.68500000000415,1.618331e-05,119.68500000000415,1.747729e-05,119.68500000000415,6.97502e-05,119.68500000000415,6.176305e-06
119.70000000000415,1.613624e-05,119.70000000000415,1.776429e-05,119.70000000000415,7.954053e-05,119.70000000000415,6.325044e-06
119.71500000000415,1.596245e-05,119.71500000000415,1.765053e-05,119.71500000000415,9.324112e-05,119.71500000000415,6.371642e-06
119.73000000000415,1.64937e-05,119.73000000000415,1.79324e-05,119.73000000000415,9.92087e-05,119.73000000000415,6.511599e-06
119.74500000000415,1.695776e-05,119.74500000000415,1.708933e-05,119.74500000000415,0.0001120221,119.74500000000415,6.505105e-06
119.76000000000415,1.680422e-05,119.76000000000415,1.737057e-05,119.76000000000415,0.0001134057,119.76000000000415,6.463831e-06
119.77500000000416,1.768879e-05,119.77500000000416,1.760098e-05,119.77500000000416,0.0001134661,119.77500000000416,6.591156e-06
119.79000000000416,1.778806e-05,119.79000000000416,1.775715e-05,119.79000000000416,0.0001145539,119.79000000000416,6.351713e-06
119.80500000000416,1.776191e-05,119.80500000000416,1.817041e-05,119.80500000000416,0.0001201162,119.80500000000416,6.313899e-06
119.82000000000416,1.778172e-05,119.82000000000416,1.819907e-05,119.82000000000416,0.0001283591,119.82000000000416,6.398117e-06
119.83500000000416,1.732835e-05,119.83500000000416,1.806232e-05,119.83500000000416,0.0001283991,119.83500000000416,6.371642e-06
119.85000000000416,1.72387e-05,119.85000000000416,1.732266e-05,119.85000000000416,0.0001292292,119.85000000000416,6.861319e-06
119.86500000000416,1.694529e-05,119.86500000000416,1.745148e-05,119.86500000000416,0.0001578878,119.86500000000416,6.867475e-06
119.88000000000416,1.857675e-05,119.88000000000416,1.647661e-05,119.88000000000416,0.0001644454,119.88000000000416,8.138525e-06
119.89500000000416,1.894095e-05,119.89500000000416,1.647319e-05,119.89500000000416,0.0001654533,119.89500000000416,8.088174e-06
119.91000000000416,2.083428e-05,119.91000000000416,1.61807e-05,119.91000000000416,0.0001667231,119.91000000000416,8.384065e-06
119.92500000000416,2.104685e-05,119.92500000000416,1.520403e-05,119.92500000000416,0.0001665584,119.92500000000416,8.851561e-06
119.94000000000416,2.181072e-05,119.94000000000416,1.531848e-05,119.94000000000416,0.000172683,119.94000000000416,9.031162e-06
119.95500000000416,2.282811e-05,119.95500000000416,1.565683e-05,119.95500000000416,0.0001765102,119.95500000000416,8.861105e-06
119.97000000000416,2.351987e-05,119.97000000000416,1.660435e-05,119.97000000000416,0.000176831,119.97000000000416,8.861105e-06
119.98500000000416,2.250745e-05,119.98500000000416,1.702408e-05,119.98500000000416,0.0001901401,119.98500000000416,8.835633e-06
120.00000000000416,2.236241e-05,120.00000000000416,1.701332e-05,120.00000000000416,0.000185657,120.00000000000416,8.851561e-06
120.01500000000416,2.224747e-05,120.01500000000416,1.602059e-05,120.01500000000416,0.0002107723,120.01500000000416,9.40555e-06
120.03000000000416,2.417262e-05,120.03000000000416,1.877737e-05,120.03000000000416,0.0002220441,120.03000000000416,1.122082e-05
120.04500000000417,2.499489e-05,120.04500000000417,1.89417e-05,120.04500000000417,0.0002232187,120.04500000000417,1.393351e-05
120.06000000000417,2.48207e-05,120.06000000000417,1.932381e-05,120.06000000000417,0.0002348745,120.06000000000417,1.468177e-05
120.07500000000417,2.490964e-05,120.07500000000417,1.931506e-05,120.07500000000417,0.0002438779,120.07500000000417,1.472488e-05
120.09000000000417,2.699191e-05,120.09000000000417,1.938641e-05,120.09000000000417,0.0002465256,120.09000000000417,1.526506e-05
120.10500000000417,2.957768e-05,120.10500000000417,2.037001e-05,120.10500000000417,0.0002475659,120.10500000000417,1.619897e-05
120.12000000000417,2.963193e-05,120.12000000000417,2.004165e-05,120.12000000000417,0.0002416265,120.12000000000417,1.638401e-05
120.13500000000417,2.913236e-05,120.13500000000417,1.991827e-05,120.13500000000417,0.000242773,120.13500000000417,1.579924e-05
120.15000000000417,2.750833e-05,120.15000000000417,2.0055e-05,120.15000000000417,0.0002558795,120.15000000000417,1.671597e-05
120.16500000000417,2.726969e-05,120.16500000000417,2.015869e-05,120.16500000000417,0.000262788,120.16500000000417,1.742725e-05
120.18000000000417,2.738053e-05,120.18000000000417,2.000295e-05,120.18000000000417,0.0002630923,120.18000000000417,1.765691e-05
120.19500000000417,2.652018e-05,120.19500000000417,1.986728e-05,120.19500000000417,0.0002553155,120.19500000000417,1.766409e-05
120.21000000000417,2.590594e-05,120.21000000000417,1.962257e-05,120.21000000000417,0.0002519771,120.21000000000417,1.783788e-05
120.22500000000417,2.561393e-05,120.22500000000417,2.021312e-05,120.22500000000417,0.0002473831,120.22500000000417,1.795752e-05
120.24000000000417,2.577948e-05,120.24000000000417,1.959528e-05,120.24000000000417,0.0002406283,120.24000000000417,1.821454e-05
120.25500000000417,2.600255e-05,120.25500000000417,1.959599e-05,120.25500000000417,0.0002472932,120.25500000000417,1.838543e-05
120.27000000000417,2.595592e-05,120.27000000000417,1.944807e-05,120.27000000000417,0.0002279846,120.27000000000417,1.796457e-05
120.28500000000417,2.408505e-05,120.28500000000417,1.719206e-05,120.28500000000417,0.000220017,120.28500000000417,1.685611e-05
120.30000000000418,2.339255e-05,120.30000000000418,1.681846e-05,120.30000000000418,0.0002170137,120.30000000000418,1.515484e-05
120.31500000000418,2.350669e-05,120.31500000000418,1.651845e-05,120.31500000000418,0.0001989944,120.31500000000418,1.511482e-05
120.33000000000418,2.27688e-05,120.33000000000418,1.664164e-05,120.33000000000418,0.0001863845,120.33000000000418,1.509057e-05
120.34500000000418,1.969709e-05,120.34500000000418,1.561449e-05,120.34500000000418,0.0001833104,120.34500000000418,1.472967e-05
120.36000000000418,1.678157e-05,120.36000000000418,1.591827e-05,120.36000000000418,0.0001762913,120.36000000000418,1.406533e-05
120.37500000000418,1.754406e-05,120.37500000000418,1.636423e-05,120.37500000000418,0.0001591074,120.37500000000418,1.396683e-05
120.39000000000418,1.789071e-05,120.39000000000418,1.627359e-05,120.39000000000418,0.0001489349,120.39000000000418,1.367225e-05
120.40500000000418,1.796536e-05,120.40500000000418,1.66086e-05,120.40500000000418,0.000123714,120.40500000000418,1.219884e-05
120.42000000000418,1.783788e-05,120.42000000000418,1.730557e-05,120.42000000000418,0.0001290067,120.42000000000418,1.17746e-05
120.43500000000418,1.859191e-05,120.43500000000418,1.727054e-05,120.43500000000418,0.0001294299,120.43500000000418,1.133573e-05
120.45000000000418,1.914438e-05,120.45000000000418,1.711322e-05,120.45000000000418,0.0001343446,120.45000000000418,1.150104e-05
120.46500000000418,1.943068e-05,120.46500000000418,1.580102e-05,120.46500000000418,0.000140596,120.46500000000418,1.146301e-05
120.48000000000418,1.903073e-05,120.48000000000418,1.560276e-05,120.48000000000418,0.0001318123,120.48000000000418,1.115156e-05
120.49500000000418,1.877362e-05,120.49500000000418,1.684859e-05,120.49500000000418,0.0001297186,120.49500000000418,1.032921e-05
120.51000000000418,1.927637e-05,120.51000000000418,1.647148e-05,120.51000000000418,0.0001070908,120.51000000000418,1.049561e-05
120.52500000000418,1.915468e-05,120.52500000000418,1.58482e-05,120.52500000000418,0.0001053493,120.52500000000418,1.070294e-05
120.54000000000418,2.007045e-05,120.54000000000418,1.661284e-05,120.54000000000418,0.0001042399,120.54000000000418,1.041071e-05
120.55500000000418,2.037278e-05,120.55500000000418,1.682683e-05,120.55500000000418,0.0001050377,120.55500000000418,1.01933e-05
120.57000000000419,2.039765e-05,120.57000000000419,1.685193e-05,120.57000000000419,0.0001052887,120.57000000000419,1.079207e-05
120.58500000000419,2.050854e-05,120.58500000000419,1.700504e-05,120.58500000000419,0.0001079581,120.58500000000419,1.136675e-05
120.60000000000419,2.051266e-05,120.60000000000419,1.748857e-05,120.60000000000419,0.0001084849,120.60000000000419,1.068582e-05
120.61500000000419,2.007466e-05,120.61500000000419,1.830788e-05,120.61500000000419,0.00010797,120.61500000000419,1.037276e-05
120.63000000000419,1.91804e-05,120.63000000000419,1.8158e-05,120.63000000000419,0.0001077993,120.63000000000419,1.029232e-05
120.64500000000419,1.943865e-05,120.64500000000419,1.798965e-05,120.64500000000419,0.0001063792,120.64500000000419,1.029643e-05
120.66000000000419,1.938423e-05,120.66000000000419,1.756653e-05,120.66000000000419,9.760069e-05,120.66000000000419,1.002188e-05
120.67500000000419,1.914659e-05,120.67500000000419,1.680338e-05,120.67500000000419,9.379484e-05,120.67500000000419,1.039311e-05
120.69000000000419,1.853348e-05,120.69000000000419,1.813782e-05,120.69000000000419,9.43483e-05,120.69000000000419,1.040259e-05
120.70500000000419,1.846647e-05,120.70500000000419,1.854487e-05,120.70500000000419,8.718342e-05,120.70500000000419,1.018639e-05
120.72000000000419,1.884253e-05,120.72000000000419,1.831096e-05,120.72000000000419,7.616806e-05,120.72000000000419,1.014065e-05
120.73500000000419,2.019499e-05,120.73500000000419,1.810361e-05,120.73500000000419,7.887164e-05,120.73500000000419,1.012675e-05
120.75000000000419,1.986444e-05,120.75000000000419,1.74926e-05,120.75000000000419,7.914835e-05,120.75000000000419,1.013092e-05
120.76500000000419,2.088358e-05,120.76500000000419,1.794732e-05,120.76500000000419,8.280957e-05,120.76500000000419,9.938602e-06
120.7800000000042,2.163628e-05,120.7800000000042,1.795202e-05,120.7800000000042,0.0001027693,120.7800000000042,9.038959e-06
120.7950000000042,2.42378e-05,120.7950000000042,1.752799e-05,120.7950000000042,0.0001062191,120.7950000000042,8.853152e-06
120.8100000000042,2.409908e-05,120.8100000000042,1.697353e-05,120.8100000000042,0.0001176766,120.8100000000042,8.599714e-06
120.8250000000042,2.422269e-05,120.8250000000042,1.658398e-05,120.8250000000042,0.000123067,120.8250000000042,7.135074e-06
120.8400000000042,2.490455e-05,120.8400000000042,1.578854e-05,120.8400000000042,0.0001418667,120.8400000000042,6.766219e-06
120.8550000000042,2.863441e-05,120.8550000000042,1.465104e-05,120.8550000000042,0.0001599256,120.8550000000042,7.575563e-06
120.8700000000042,2.95324e-05,120.8700000000042,1.471819e-05,120.8700000000042,0.0001630491,120.8700000000042,7.538281e-06
120.8850000000042,2.964143e-05,120.8850000000042,1.544943e-05,120.8850000000042,0.0001679539,120.8850000000042,7.974164e-06
120.9000000000042,2.974438e-05,120.9000000000042,1.576175e-05,120.9000000000042,0.0001735624,120.9000000000042,9.325834e-06
120.9150000000042,3.055502e-05,120.9150000000042,1.68352e-05,120.9150000000042,0.0001754363,120.9150000000042,9.41902e-06
120.9300000000042,3.085779e-05,120.9300000000042,1.684859e-05,120.9300000000042,0.0001757244,120.9300000000042,9.31979e-06
120.9450000000042,3.123214e-05,120.9450000000042,1.611615e-05,120.9450000000042,0.0001763959,120.9450000000042,1.034011e-05
120.9600000000042,3.070127e-05,120.9600000000042,1.584554e-05,120.9600000000042,0.0001877123,120.9600000000042,1.07266e-05
120.9750000000042,3.008063e-05,120.9750000000042,1.71198e-05,120.9750000000042,0.000191698,120.9750000000042,1.097457e-05
120.9900000000042,2.979501e-05,120.9900000000042,1.702822e-05,120.9900000000042,0.0001954627,120.9900000000042,1.089987e-05
121.0050000000042,3.072375e-05,121.0050000000042,1.673113e-05,121.0050000000042,0.0001955218,121.0050000000042,1.091149e-05
121.0200000000042,3.066822e-05,121.0200000000042,1.692533e-05,121.0200000000042,0.0001948838,121.0200000000042,1.088694e-05
121.0350000000042,3.039323e-05,121.0350000000042,1.941472e-05,121.0350000000042,0.0001828062,121.0350000000042,1.086751e-05
121.0500000000042,2.850375e-05,121.0500000000042,1.960462e-05,121.0500000000042,0.0001804329,121.0500000000042,1.108441e-05
121.0650000000042,2.820217e-05,121.0650000000042,1.974994e-05,121.0650000000042,0.0001749256,121.0650000000042,1.178297e-05
121.0800000000042,2.779717e-05,121.0800000000042,1.972068e-05,121.0800000000042,0.0001715236,121.0800000000042,1.206415e-05
121.0950000000042,2.749502e-05,121.0950000000042,1.975921e-05,121.0950000000042,0.0001411487,121.0950000000042,1.213516e-05
121.1100000000042,2.530964e-05,121.1100000000042,1.948642e-05,121.1100000000042,0.000137842,121.1100000000042,1.208398e-05
121.1250000000042,2.45261e-05,121.1250000000042,1.878712e-05,121.1250000000042,0.000137991,121.1250000000042,1.206765e-05
121.1400000000042,2.513371e-05,121.1400000000042,1.849619e-05,121.1400000000042,0.000144819,121.1400000000042,1.206531e-05
121.15500000000421,2.437169e-05,121.15500000000421,1.82524e-05,121.15500000000421,0.0001531279,121.15500000000421,1.143225e-05
121.17000000000421,2.408095e-05,121.17000000000421,1.732185e-05,121.17000000000421,0.0001569577,121.17000000000421,1.093084e-05
121.18500000000421,2.644145e-05,121.18500000000421,1.72632e-05,121.18500000000421,0.0001815896,121.18500000000421,1.093857e-05
121.20000000000421,2.685902e-05,121.20000000000421,1.681176e-05,121.20000000000421,0.00018874,121.20000000000421,1.002469e-05
121.21500000000421,2.672601e-05,121.21500000000421,1.675889e-05,121.21500000000421,0.0001910559,121.21500000000421,9.971149e-06
121.23000000000421,2.856447e-05,121.23000000000421,1.556389e-05,121.23000000000421,0.0001882369,121.23000000000421,1.041477e-05
121.24500000000421,2.78564e-05,121.24500000000421,1.570355e-05,121.24500000000421,0.0001853179,121.24500000000421,1.200093e-05
121.26000000000421,2.642386e-05,121.26000000000421,1.65065e-05,121.26000000000421,0.0001850376,121.26000000000421,1.227367e-05
121.27500000000421,2.588201e-05,121.27500000000421,1.487432e-05,121.27500000000421,0.0001861249,121.27500000000421,1.300371e-05
121.29000000000421,2.552854e-05,121.29000000000421,1.341009e-05,121.29000000000421,0.0001859031,121.29000000000421,1.383917e-05
121.30500000000421,2.552302e-05,121.30500000000421,1.360925e-05,121.30500000000421,0.0001885535,121.30500000000421,1.342479e-05
121.32000000000421,2.583788e-05,121.32000000000421,1.382389e-05,121.32000000000421,0.0001927899,121.32000000000421,1.309977e-05
121.33500000000421,2.720349e-05,121.33500000000421,1.406833e-05,121.33500000000421,0.0001927956,121.33500000000421,1.284897e-05
121.35000000000421,2.756972e-05,121.35000000000421,1.43322e-05,121.35000000000421,0.0001861969,121.35000000000421,1.259652e-05
121.36500000000422,2.682439e-05,121.36500000000422,1.496496e-05,121.36500000000422,0.0001832126,121.36500000000422,1.25719e-05
121.38000000000422,2.590594e-05,121.38000000000422,1.521884e-05,121.38000000000422,0.0001802218,121.38000000000422,1.239018e-05
121.39500000000422,2.576527e-05,121.39500000000422,1.518641e-05,121.39500000000422,0.0001686962,121.39500000000422,1.215024e-05
121.41000000000422,2.546777e-05,121.41000000000422,1.566493e-05,121.41000000000422,0.0001656534,121.41000000000422,1.208515e-05
121.42500000000422,2.476331e-05,121.42500000000422,1.520773e-05,121.42500000000422,0.0001469837,121.42500000000422,1.213632e-05
121.44000000000422,2.214656e-05,121.44000000000422,1.545307e-05,121.44000000000422,0.0001171162,121.44000000000422,1.205597e-05
121.45500000000422,2.219421e-05,121.45500000000422,1.569368e-05,121.45500000000422,0.000110155,121.45500000000422,1.167126e-05
121.47000000000422,2.128445e-05,121.47000000000422,1.551857e-05,121.47000000000422,8.898701e-05,121.47000000000422,1.169296e-05
121.48500000000422,2.008728e-05,121.48500000000422,1.540468e-05,121.48500000000422,8.784483e-05,121.48500000000422,1.06647e-05
121.50000000000422,2.045145e-05,121.50000000000422,1.512414e-05,121.50000000000422,8.779221e-05,121.50000000000422,9.173541e-06
121.51500000000422,1.987933e-05,121.51500000000422,1.497625e-05,121.51500000000422,8.096686e-05,121.51500000000422,8.462665e-06
121.53000000000422,1.962042e-05,121.53000000000422,1.467121e-05,121.53000000000422,7.805405e-05,121.53000000000422,7.885342e-06
121.54500000000422,1.986657e-05,121.54500000000422,1.400309e-05,121.54500000000422,7.727922e-05,121.54500000000422,6.987449e-06
121.56000000000422,2.018104e-05,121.56000000000422,1.403424e-05,121.56000000000422,6.346944e-05,121.56000000000422,6.869526e-06
121.57500000000422,1.830634e-05,121.57500000000422,1.459323e-05,121.57500000000422,5.538618e-05,121.57500000000422,6.595429e-06
121.59000000000422,1.69727e-05,121.59000000000422,1.444381e-05,121.59000000000422,5.299067e-05,121.59000000000422,6.522406e-06
121.60500000000422,1.601795e-05,121.60500000000422,1.517899e-05,121.60500000000422,5.010827e-05,121.60500000000422,6.550423e-06
121.62000000000423,1.628311e-05,121.62000000000423,1.549858e-05,121.62000000000423,4.982296e-05,121.62000000000423,6.404719e-06
121.63500000000423,1.626493e-05,121.63500000000423,1.521329e-05,121.63500000000423,4.759081e-05,121.63500000000423,6.415707e-06
121.65000000000423,1.676477e-05,121.65000000000423,1.534972e-05,121.65000000000423,4.711035e-05,121.65000000000423,6.500773e-06
121.66500000000423,1.739731e-05,121.66500000000423,1.542844e-05,121.66500000000423,4.431856e-05,121.66500000000423,6.304968e-06
121.68000000000423,1.759057e-05,121.68000000000423,1.524566e-05,121.68000000000423,4.274524e-05,121.68000000000423,6.331722e-06
121.69500000000423,1.620854e-05,121.69500000000423,1.495366e-05,121.69500000000423,4.036835e-05,121.69500000000423,6.210422e-06
121.71000000000423,1.568919e-05,121.71000000000423,1.514089e-05,121.71000000000423,4.26839e-05,121.71000000000423,6.591156e-06
121.72500000000423,1.584109e-05,121.72500000000423,1.50588e-05,121.72500000000423,4.375073e-05,121.72500000000423,6.331722e-06
121.74000000000423,1.575996e-05,121.74000000000423,1.559102e-05,121.74000000000423,5.265359e-05,121.74000000000423,6.400318e-06
121.75500000000423,1.612576e-05,121.75500000000423,1.529087e-05,121.75500000000423,5.405736e-05,121.75500000000423,6.439814e-06
121.77000000000423,1.727135e-05,121.77000000000423,1.514462e-05,121.77000000000423,5.431914e-05,121.77000000000423,6.468188e-06
121.78500000000423,1.74789e-05,121.78500000000423,1.512228e-05,121.78500000000423,6.584869e-05,121.78500000000423,6.384893e-06
121.80000000000423,1.777776e-05,121.80000000000423,1.510457e-05,121.80000000000423,7.16557e-05,121.80000000000423,6.550423e-06
121.81500000000423,1.764494e-05,121.81500000000423,1.476596e-05,121.81500000000423,7.603534e-05,121.81500000000423,6.887957e-06
121.83000000000423,1.805296e-05,121.83000000000423,1.416214e-05,121.83000000000423,7.692771e-05,121.83000000000423,6.809799e-06
121.84500000000423,1.841911e-05,121.84500000000423,1.445356e-05,121.84500000000423,8.497748e-05,121.84500000000423,7.115304e-06
121.86000000000423,2.007325e-05,121.86000000000423,1.387373e-05,121.86000000000423,8.487116e-05,121.86000000000423,7.12124e-06
121.87500000000423,1.992746e-05,121.87500000000423,1.381981e-05,121.87500000000423,8.841115e-05,121.87500000000423,7.375824e-06
121.89000000000424,2.063112e-05,121.89000000000424,1.404227e-05,121.89000000000424,9.471651e-05,121.89000000000424,7.669811e-06
121.90500000000424,2.169739e-05,121.90500000000424,1.469999e-05,121.90500000000424,9.640217e-05,121.90500000000424,7.982992e-06
121.92000000000424,2.202602e-05,121.92000000000424,1.429973e-05,121.92000000000424,9.808171e-05,121.92000000000424,7.929877e-06
121.93500000000424,2.295488e-05,121.93500000000424,1.416015e-05,121.93500000000424,9.912389e-05,121.93500000000424,8.011176e-06
121.95000000000424,2.277993e-05,121.95000000000424,1.432729e-05,121.95000000000424,0.0001015979,121.95000000000424,8.591521e-06
121.96500000000424,2.271119e-05,121.96500000000424,1.451289e-05,121.96500000000424,0.0001029009,121.96500000000424,8.270727e-06
121.98000000000424,2.249994e-05,121.98000000000424,1.469232e-05,121.98000000000424,0.0001014301,121.98000000000424,8.45767e-06
121.99500000000424,2.249931e-05,121.99500000000424,1.438616e-05,121.99500000000424,0.0001028831,121.99500000000424,8.629149e-06
122.01000000000424,2.185008e-05,122.01000000000424,1.426324e-05,122.01000000000424,0.0001041456,122.01000000000424,8.658483e-06
122.02500000000424,2.177969e-05,122.02500000000424,1.43979e-05,122.02500000000424,0.0001095746,122.02500000000424,8.62425e-06
122.04000000000424,2.310901e-05,122.04000000000424,1.42098e-05,122.04000000000424,0.0001076496,122.04000000000424,8.578393e-06
122.05500000000424,2.324757e-05,122.05500000000424,1.423061e-05,122.05500000000424,0.0001150817,122.05500000000424,8.755555e-06
122.07000000000424,2.391307e-05,122.07000000000424,1.456038e-05,122.07000000000424,0.0001183457,122.07000000000424,9.048304e-06
122.08500000000424,2.360357e-05,122.08500000000424,1.462698e-05,122.08500000000424,0.0001219341,122.08500000000424,9.636359e-06
122.10000000000424,2.354441e-05,122.10000000000424,1.423457e-05,122.10000000000424,0.0001198697,122.10000000000424,9.669923e-06
122.11500000000424,2.223036e-05,122.11500000000424,1.350535e-05,122.11500000000424,0.0001199791,122.11500000000424,1.017532e-05
122.13000000000424,2.34599e-05,122.13000000000424,1.355532e-05,122.13000000000424,0.000115921,122.13000000000424,1.007235e-05
122.14500000000425,2.371669e-05,122.14500000000425,1.359579e-05,122.14500000000425,0.0001153053,122.14500000000425,9.607078e-06
122.16000000000425,2.165971e-05,122.16000000000425,1.312341e-05,122.16000000000425,0.000118153,122.16000000000425,9.665551e-06
122.17500000000425,2.246548e-05,122.17500000000425,1.398598e-05,122.17500000000425,0.0001180808,122.17500000000425,9.76848e-06
122.19000000000425,2.350609e-05,122.19000000000425,1.454973e-05,122.19000000000425,0.0001211329,122.19000000000425,1.024018e-05
122.20500000000425,2.39219e-05,122.20500000000425,1.46106e-05,122.20500000000425,0.0001179128,122.20500000000425,9.959841e-06
122.22000000000425,2.457946e-05,122.22000000000425,1.470574e-05,122.22000000000425,0.0001166695,122.22000000000425,1.011562e-05
122.23500000000425,2.425988e-05,122.23500000000425,1.42948e-05,122.23500000000425,0.0001159502,122.23500000000425,1.028137e-05
122.25000000000425,2.501686e-05,122.25000000000425,1.478027e-05,122.25000000000425,0.0001140103,122.25000000000425,1.020435e-05
122.26500000000425,2.616995e-05,122.26500000000425,1.494235e-05,122.26500000000425,0.0001092517,122.26500000000425,1.028821e-05
122.28000000000425,2.7161e-05,122.28000000000425,1.487622e-05,122.28000000000425,0.0001056176,122.28000000000425,1.029506e-05
122.29500000000425,2.807903e-05,122.29500000000425,1.543209e-05,122.29500000000425,0.0001006648,122.29500000000425,1.062235e-05
122.31000000000425,2.822164e-05,122.31000000000425,1.573939e-05,122.31000000000425,9.718413e-05,122.31000000000425,1.097072e-05
122.32500000000425,2.758606e-05,122.32500000000425,1.590587e-05,122.32500000000425,9.558348e-05,122.32500000000425,1.048353e-05
122.34000000000425,2.808354e-05,122.34000000000425,1.586242e-05,122.34000000000425,9.109297e-05,122.34000000000425,1.049293e-05
122.35500000000425,2.833572e-05,122.35500000000425,1.58135e-05,122.35500000000425,9.34331e-05,122.35500000000425,1.18628e-05
122.37000000000425,2.778551e-05,122.37000000000425,1.570714e-05,122.37000000000425,9.438591e-05,122.37000000000425,1.172184e-05
122.38500000000425,2.675077e-05,122.38500000000425,1.543574e-05,122.38500000000425,9.34973e-05,122.38500000000425,1.182712e-05
122.40000000000425,2.614841e-05,122.40000000000425,1.57161e-05,122.40000000000425,9.914905e-05,122.40000000000425,1.269344e-05
122.41500000000426,2.63181e-05,122.41500000000426,1.50915e-05,122.41500000000426,9.999012e-05,122.41500000000426,1.306316e-05
122.43000000000426,2.512137e-05,122.43000000000426,1.393856e-05,122.43000000000426,0.000100285,122.43000000000426,1.298094e-05
122.44500000000426,2.541794e-05,122.44500000000426,1.377591e-05,122.44500000000426,0.0001067133,122.44500000000426,1.274218e-05
122.46000000000426,2.501123e-05,122.46000000000426,1.352411e-05,122.46000000000426,0.0001109006,122.46000000000426,1.271008e-05
122.47500000000426,2.507535e-05,122.47500000000426,1.377796e-05,122.47500000000426,0.0001150089,122.47500000000426,1.266233e-05
122.49000000000426,2.576691e-05,122.49000000000426,1.426126e-05,122.49000000000426,0.0001146387,122.49000000000426,1.245482e-05
122.50500000000426,2.526173e-05,122.50500000000426,1.426916e-05,122.50500000000426,0.0001149723,122.50500000000426,1.242538e-05
122.52000000000426,2.350369e-05,122.52000000000426,1.433319e-05,122.52000000000426,0.0001157191,122.52000000000426,1.240496e-05
122.53500000000426,2.223226e-05,122.53500000000426,1.447596e-05,122.53500000000426,0.0001156095,122.53500000000426,1.227597e-05
122.55000000000426,1.938931e-05,122.55000000000426,1.452163e-05,122.55000000000426,0.0001099274,122.55000000000426,1.196331e-05
122.56500000000426,1.905366e-05,122.56500000000426,1.415518e-05,122.56500000000426,0.0001090109,122.56500000000426,1.137542e-05
122.58000000000426,1.929974e-05,122.58000000000426,1.367431e-05,122.58000000000426,0.0001086702,122.58000000000426,1.134318e-05
122.59500000000426,1.878937e-05,122.59500000000426,1.365369e-05,122.59500000000426,0.0001035169,122.59500000000426,1.08025e-05
122.61000000000426,1.8274e-05,122.61000000000426,1.320367e-05,122.61000000000426,0.0001025075,122.61000000000426,8.40923e-06
122.62500000000426,1.864487e-05,122.62500000000426,1.342059e-05,122.62500000000426,0.0001017896,122.62500000000426,8.456004e-06
122.64000000000426,2.017755e-05,122.64000000000426,1.339328e-05,122.64000000000426,0.000102922,122.64000000000426,7.915653e-06
122.65500000000426,2.054697e-05,122.65500000000426,1.292003e-05,122.65500000000426,9.727338e-05,122.65500000000426,6.896133e-06
122.67000000000426,2.167401e-05,122.67000000000426,1.288181e-05,122.67000000000426,9.168472e-05,122.67000000000426,6.329497e-06
122.68500000000427,2.314677e-05,122.68500000000427,1.341429e-05,122.68500000000427,0.0001098658,122.68500000000427,6.320588e-06
122.70000000000427,2.350429e-05,122.70000000000427,1.383204e-05,122.70000000000427,0.0001010857,122.70000000000427,6.365006e-06
122.71500000000427,2.375526e-05,122.71500000000427,1.372161e-05,122.71500000000427,0.0001068302,122.71500000000427,6.444187e-06
122.73000000000427,2.328995e-05,122.73000000000427,1.336906e-05,122.73000000000427,0.0001003472,122.73000000000427,6.411314e-06
122.74500000000427,2.356474e-05,122.74500000000427,1.267679e-05,122.74500000000427,0.000103614,122.74500000000427,6.237581e-06
122.76000000000427,2.34803e-05,122.76000000000427,1.356882e-05,122.76000000000427,0.0001045127,122.76000000000427,6.189974e-06
122.77500000000427,2.376238e-05,122.77500000000427,1.484399e-05,122.77500000000427,0.0001063156,122.77500000000427,6.217223e-06
122.79000000000427,2.385763e-05,122.79000000000427,1.53644e-05,122.79000000000427,0.0001073813,122.79000000000427,6.380479e-06
122.80500000000427,2.418136e-05,122.80500000000427,1.57689e-05,122.80500000000427,0.0001067336,122.80500000000427,6.266871e-06
122.82000000000427,2.401476e-05,122.82000000000427,1.594568e-05,122.82000000000427,0.0001054383,122.82000000000427,6.58688e-06
122.83500000000427,2.374696e-05,122.83500000000427,1.634097e-05,122.83500000000427,0.0001059795,122.83500000000427,6.603967e-06
122.85000000000427,2.419068e-05,122.85000000000427,1.640463e-05,122.85000000000427,0.0001051922,122.85000000000427,6.537507e-06
122.86500000000427,2.438729e-05,122.86500000000427,1.700173e-05,122.86500000000427,0.0001067041,122.86500000000427,6.500773e-06
122.88000000000427,2.426568e-05,122.88000000000427,1.680422e-05,122.88000000000427,0.0001063179,122.88000000000427,6.398117e-06
122.89500000000427,2.282441e-05,122.89500000000427,1.720762e-05,122.89500000000427,0.0001033989,122.89500000000427,6.393712e-06
122.91000000000427,2.251058e-05,122.91000000000427,1.754807e-05,122.91000000000427,0.0001010641,122.91000000000427,6.692956e-06
122.92500000000427,2.02813e-05,122.92500000000427,1.765053e-05,122.92500000000427,9.442635e-05,122.92500000000427,6.816002e-06
122.94000000000428,1.81921e-05,122.94000000000428,1.71937e-05,122.94000000000428,7.819343e-05,122.94000000000428,6.616753e-06
122.95500000000428,1.739407e-05,122.95500000000428,1.676981e-05,122.95500000000428,6.897052e-05,122.95500000000428,6.576178e-06
122.97000000000428,1.721007e-05,122.97000000000428,1.667293e-05,122.97000000000428,6.629132e-05,122.97000000000428,6.185421e-06
122.98500000000428,1.723706e-05,122.98500000000428,1.651162e-05,122.98500000000428,6.555174e-05,122.98500000000428,6.242096e-06
123.00000000000428,1.599155e-05,123.00000000000428,1.718222e-05,123.00000000000428,5.742284e-05,123.00000000000428,6.194524e-06
123.01500000000428,1.637111e-05,123.01500000000428,1.593154e-05,123.01500000000428,5.941745e-05,123.01500000000428,6.082075e-06
123.03000000000428,1.629003e-05,123.03000000000428,1.437342e-05,123.03000000000428,6.141057e-05,123.03000000000428,6.338393e-06
123.04500000000428,1.658483e-05,123.04500000000428,1.370312e-05,123.04500000000428,6.476284e-05,123.04500000000428,6.362793e-06
123.06000000000428,1.692283e-05,123.06000000000428,1.341009e-05,123.06000000000428,7.109896e-05,123.06000000000428,6.391509e-06
123.07500000000428,1.711157e-05,123.07500000000428,1.323883e-05,123.07500000000428,8.396607e-05,123.07500000000428,6.189974e-06
123.09000000000428,1.707943e-05,123.09000000000428,1.316627e-05,123.09000000000428,8.351457e-05,123.09000000000428,6.246608e-06
123.10500000000428,1.669657e-05,123.10500000000428,1.261999e-05,123.10500000000428,8.697636e-05,123.10500000000428,6.255622e-06
123.12000000000428,1.809038e-05,123.12000000000428,1.295161e-05,123.12000000000428,8.394073e-05,123.12000000000428,6.389304e-06
123.13500000000428,2.00978e-05,123.13500000000428,1.262333e-05,123.13500000000428,8.551717e-05,123.13500000000428,6.654963e-06
123.15000000000428,2.092603e-05,123.15000000000428,1.240496e-05,123.15000000000428,9.037025e-05,123.15000000000428,6.718165e-06
123.16500000000428,2.153905e-05,123.16500000000428,1.626926e-05,123.16500000000428,9.19175e-05,123.16500000000428,6.342836e-06
