X[s],a: EMG RMS 1-1,X[s].1,a: EMG RMS 1-2,X[s].2,a: EMG RMS 1-3,X[s].3,a: EMG RMS 1-4
289.00499999985806,0.0002439662,289.00499999985806,0.004053061,289.00499999985806,0.005239998,289.00499999985806,0.001536887
289.01999999985804,0.0002372292,289.01999999985804,0.004273507,289.01999999985804,0.005218056,289.01999999985804,0.001539457
289.03499999985803,0.0002354981,289.03499999985803,0.004440359,289.03499999985803,0.005040057,289.03499999985803,0.0015318
289.049999999858,0.0002335772,289.049999999858,0.004503305,289.049999999858,0.004992552,289.049999999858,0.001508479
289.064999999858,0.0002315061,289.064999999858,0.004597618,289.064999999858,0.004917277,289.064999999858,0.001351838
289.079999999858,0.0002282891,289.079999999858,0.004573981,289.079999999858,0.004825177,289.079999999858,0.001247124
289.094999999858,0.0002168203,289.094999999858,0.004563382,289.094999999858,0.004737162,289.094999999858,0.001061297
289.10999999985796,0.00021351,289.10999999985796,0.004563382,289.10999999985796,0.00473681,289.10999999985796,0.0009281816
289.12499999985795,0.0002395903,289.12499999985795,0.004567761,289.12499999985795,0.0047355,289.12499999985795,0.0009594172
289.13999999985793,0.0002506518,289.13999999985793,0.004634167,289.13999999985793,0.004735538,289.13999999985793,0.0008650648
289.1549999998579,0.0002329177,289.1549999998579,0.004683485,289.1549999998579,0.004641743,289.1549999998579,0.0005421473
289.1699999998579,0.0002332832,289.1699999998579,0.004712267,289.1699999998579,0.004555878,289.1699999998579,0.0005588615
289.1849999998579,0.0002170046,289.1849999998579,0.004846975,289.1849999998579,0.004673996,289.1849999998579,0.0005218233
289.1999999998579,0.0002178431,289.1999999998579,0.005053685,289.1999999998579,0.00469772,289.1999999998579,0.0005230642
289.21499999985787,0.0002459509,289.21499999985787,0.005055551,289.21499999985787,0.004651303,289.21499999985787,0.0005200909
289.22999999985785,0.000257185,289.22999999985785,0.005000221,289.22999999985785,0.004611184,289.22999999985785,0.0004429705
289.24499999985784,0.000271858,289.24499999985784,0.004885276,289.24499999985784,0.004711545,289.24499999985784,0.0004656775
289.2599999998578,0.0003082395,289.2599999998578,0.004814328,289.2599999998578,0.004720974,289.2599999998578,0.0004934342
289.2749999998578,0.0003120418,289.2749999998578,0.004803227,289.2749999998578,0.00472136,289.2749999998578,0.0004893974
289.2899999998578,0.0003119883,289.2899999998578,0.004852758,289.2899999998578,0.004817196,289.2899999998578,0.000483704
289.3049999998578,0.0003138208,289.3049999998578,0.004967513,289.3049999998578,0.004822004,289.3049999998578,0.0004843168
289.31999999985777,0.0003200833,289.31999999985777,0.004959792,289.31999999985777,0.004774713,289.31999999985777,0.0004871651
289.33499999985776,0.0003222187,289.33499999985776,0.004944256,289.33499999985776,0.004911133,289.33499999985776,0.0004868961
289.34999999985774,0.0003220603,289.34999999985774,0.004816145,289.34999999985774,0.005011156,289.34999999985774,0.0004876205
289.36499999985773,0.0003186975,289.36499999985773,0.004539112,289.36499999985773,0.00507218,289.36499999985773,0.000486521
289.3799999998577,0.0002831433,289.3799999998577,0.004416262,289.3799999998577,0.005065443,289.3799999998577,0.0004187156
289.3949999998577,0.0002770063,289.3949999998577,0.004334202,289.3949999998577,0.004988166,289.3949999998577,0.0004153738
289.4099999998577,0.0002622517,289.4099999998577,0.004213061,289.4099999998577,0.005061982,289.4099999998577,0.0004109591
289.4249999998577,0.0002549984,289.4249999998577,0.004050171,289.4249999998577,0.00508435,289.4249999998577,0.0003984161
289.43999999985766,0.0002521621,289.43999999985766,0.003839283,289.43999999985766,0.005048607,289.43999999985766,0.0003921314
289.45499999985765,0.0002505572,289.45499999985765,0.003623116,289.45499999985765,0.004883605,289.45499999985765,0.0003933163
289.46999999985763,0.0001971273,289.46999999985763,0.003560803,289.46999999985763,0.00468773,289.46999999985763,0.0003273062
289.4849999998576,0.0001936941,289.4849999998576,0.003422409,289.4849999998576,0.004541893,289.4849999998576,0.000325098
289.4999999998576,0.0001494512,289.4999999998576,0.00338413,289.4999999998576,0.004379905,289.4999999998576,0.0002582903
289.5149999998576,0.0001031669,289.5149999998576,0.003099575,289.5149999998576,0.004348237,289.5149999998576,0.0002401401
289.5299999998576,0.0001669249,289.5299999998576,0.002817716,289.5299999998576,0.004310074,289.5299999998576,0.000323025
289.54499999985757,0.0001847793,289.54499999985757,0.002541939,289.54499999985757,0.004369674,289.54499999985757,0.0003313246
289.55999999985755,0.0001841211,289.55999999985755,0.002187994,289.55999999985755,0.004411186,289.55999999985755,0.0003462305
289.57499999985754,0.0001798977,289.57499999985754,0.001973397,289.57499999985754,0.004272671,289.57499999985754,0.000347494
289.5899999998575,0.0001804488,289.5899999998575,0.001360295,289.5899999998575,0.004072162,289.5899999998575,0.0003567024
289.6049999998575,0.0001812879,289.6049999998575,0.0007967523,289.6049999998575,0.004091607,289.6049999998575,0.0003579033
289.6199999998575,0.0001816796,289.6199999998575,0.000683176,289.6199999998575,0.003944298,289.6199999998575,0.0003565955
289.6349999998575,0.0001816604,289.6349999998575,0.0006902463,289.6349999998575,0.003794434,289.6349999998575,0.0004374125
289.64999999985747,0.0001816801,289.64999999985747,0.0007129651,289.64999999985747,0.003780893,289.64999999985747,0.0004740111
289.66499999985746,0.0001840924,289.66499999985746,0.001555319,289.66499999985746,0.003956173,289.66499999985746,0.0005147539
289.67999999985744,0.0001869697,289.67999999985744,0.001955872,289.67999999985744,0.004047624,289.67999999985744,0.0005695318
289.69499999985743,0.0001965653,289.69499999985743,0.002341123,289.69499999985743,0.004129568,289.69499999985743,0.0005916902
289.7099999998574,0.0002060755,289.7099999998574,0.00267311,289.7099999998574,0.004243481,289.7099999998574,0.0006017589
289.7249999998574,0.0002120914,289.7249999998574,0.002943029,289.7249999998574,0.004473017,289.7249999998574,0.0006492657
289.7399999998574,0.000212079,289.7399999998574,0.003097179,289.7399999998574,0.004675692,289.7399999998574,0.0006976496
289.7549999998574,0.000213235,289.7549999998574,0.003170853,289.7549999998574,0.004810224,289.7549999998574,0.0007073029
289.76999999985736,0.0002314194,289.76999999985736,0.003201801,289.76999999985736,0.00480947,289.76999999985736,0.0006973588
289.78499999985735,0.0002309904,289.78499999985735,0.003255876,289.78499999985735,0.004786527,289.78499999985735,0.000667643
289.79999999985733,0.0002652137,289.79999999985733,0.003587166,289.79999999985733,0.004748222,289.79999999985733,0.0006987085
289.8149999998573,0.000312854,289.8149999998573,0.003850637,289.8149999998573,0.004776051,289.8149999998573,0.0007136559
289.8299999998573,0.0003145867,289.8299999998573,0.003991016,289.8299999998573,0.004968605,289.8299999998573,0.0007168057
289.8449999998573,0.0003212559,289.8449999998573,0.004067434,289.8449999998573,0.005104783,289.8449999998573,0.0007121114
289.8599999998573,0.0003350434,289.8599999998573,0.004153916,289.8599999998573,0.005090503,289.8599999998573,0.000721632
289.87499999985727,0.0003370243,289.87499999985727,0.004434554,289.87499999985727,0.005144705,289.87499999985727,0.0007175601
289.88999999985725,0.0003380751,289.88999999985725,0.004674391,289.88999999985725,0.005193601,289.88999999985725,0.000643987
289.90499999985724,0.0003399331,289.90499999985724,0.00474863,289.90499999985724,0.005272778,289.90499999985724,0.0006309311
289.9199999998572,0.0003439393,289.9199999998572,0.004697156,289.9199999998572,0.005224983,289.9199999998572,0.0005876331
289.9349999998572,0.0003424277,289.9349999998572,0.004680623,289.9349999998572,0.005224983,289.9349999998572,0.0005258783
289.9499999998572,0.0003435846,289.9499999998572,0.004680623,289.9499999998572,0.005236075,289.9499999998572,0.0005239912
289.9649999998572,0.0003569726,289.9649999998572,0.00467193,289.9649999998572,0.005236076,289.9649999998572,0.000526091
289.97999999985717,0.0003593765,289.97999999985717,0.004767456,289.97999999985717,0.005101603,289.97999999985717,0.0004728925
289.99499999985716,0.0003692639,289.99499999985716,0.004828284,289.99499999985716,0.004899217,289.99499999985716,0.0004321536
290.00999999985714,0.0003707298,290.00999999985714,0.004969277,290.00999999985714,0.004784678,290.00999999985714,0.0004372844
290.02499999985713,0.0003346697,290.02499999985713,0.005103569,290.02499999985713,0.004686472,290.02499999985713,0.0004577207
290.0399999998571,0.0003155297,290.0399999998571,0.005173289,290.0399999998571,0.004501733,290.0399999998571,0.0004575456
290.0549999998571,0.0002815029,290.0549999998571,0.005094829,290.0549999998571,0.004501706,290.0549999998571,0.0004764317
290.0699999998571,0.0002504723,290.0699999998571,0.005172065,290.0699999998571,0.004551042,290.0699999998571,0.0004547275
290.0849999998571,0.0002627897,290.0849999998571,0.005250458,290.0849999998571,0.004646637,290.0849999998571,0.0004801262
290.09999999985706,0.0002549163,290.09999999985706,0.005299738,290.09999999985706,0.004715486,290.09999999985706,0.0004800817
290.11499999985705,0.0002420782,290.11499999985705,0.005331193,290.11499999985705,0.004648461,290.11499999985705,0.0004699361
290.12999999985703,0.0002412366,290.12999999985703,0.005221018,290.12999999985703,0.0046167,290.12999999985703,0.0004703072
290.144999999857,0.0002504746,290.144999999857,0.005230239,290.144999999857,0.0046167,290.144999999857,0.0004783118
290.159999999857,0.0002415914,290.159999999857,0.005329607,290.159999999857,0.00457947,290.159999999857,0.0004784387
290.174999999857,0.0002447219,290.174999999857,0.005344831,290.174999999857,0.004573541,290.174999999857,0.0004798832
290.189999999857,0.000250609,290.189999999857,0.005337441,290.189999999857,0.004526406,290.189999999857,0.0004895265
290.20499999985697,0.0002306121,290.20499999985697,0.005154436,290.20499999985697,0.004450705,290.20499999985697,0.0004682396
290.21999999985695,0.0002041433,290.21999999985695,0.005028577,290.21999999985695,0.004583634,290.21999999985695,0.0004539599
290.23499999985694,0.000200615,290.23499999985694,0.004982815,290.23499999985694,0.004695677,290.23499999985694,0.000444931
290.2499999998569,0.000184444,290.2499999998569,0.004905887,290.2499999998569,0.004781344,290.2499999998569,0.0004188778
290.2649999998569,0.0001805598,290.2649999998569,0.004800812,290.2649999998569,0.004820597,290.2649999998569,0.0004061011
290.2799999998569,0.0001781761,290.2799999998569,0.004669014,290.2799999998569,0.004766556,290.2799999998569,0.0003748214
290.2949999998569,0.0001772064,290.2949999998569,0.004526463,290.2949999998569,0.004768568,290.2949999998569,0.0003555386
290.30999999985687,0.0001556446,290.30999999985687,0.004365988,290.30999999985687,0.00484569,290.30999999985687,0.0002904136
290.32499999985686,0.0001441515,290.32499999985686,0.004131841,290.32499999985686,0.004804504,290.32499999985686,0.0002721052
290.33999999985684,0.0001291388,290.33999999985684,0.00392296,290.33999999985684,0.004615796,290.33999999985684,0.0002580574
290.35499999985683,0.0001328504,290.35499999985683,0.003742988,290.35499999985683,0.004543619,290.35499999985683,0.0002558937
290.3699999998568,0.0001363835,290.3699999998568,0.003530968,290.3699999998568,0.004619262,290.3699999998568,0.0002572104
290.3849999998568,0.0001935667,290.3849999998568,0.003305729,290.3849999998568,0.004605508,290.3849999998568,0.000316121
290.3999999998568,0.0001974479,290.3999999998568,0.002972077,290.3999999998568,0.004605508,290.3999999998568,0.0002987977
290.4149999998568,0.0001999153,290.4149999998568,0.002548015,290.4149999998568,0.004569961,290.4149999998568,0.000294172
290.42999999985676,0.0002026154,290.42999999985676,0.001976843,290.42999999985676,0.004401342,290.42999999985676,0.000294188
290.44499999985675,0.0002068687,290.44499999985675,0.00137335,290.44499999985675,0.004401065,290.44499999985675,0.0002907823
290.45999999985673,0.0002078897,290.45999999985673,0.001324531,290.45999999985673,0.004374732,290.45999999985673,0.0002993929
290.4749999998567,0.0002092072,290.4749999998567,0.001887254,290.4749999998567,0.004370474,290.4749999998567,0.0003763471
290.4899999998567,0.0002093409,290.4899999998567,0.002334766,290.4899999998567,0.004342651,290.4899999998567,0.0005864132
290.5049999998567,0.000221631,290.5049999998567,0.002495928,290.5049999998567,0.004316901,290.5049999998567,0.0006220182
290.5199999998567,0.0002266511,290.5199999998567,0.00268288,290.5199999998567,0.004321677,290.5199999998567,0.0006926778
290.53499999985667,0.0002279838,290.53499999985667,0.00288436,290.53499999985667,0.004415121,290.53499999985667,0.0007174963
290.54999999985665,0.0002363131,290.54999999985665,0.00304381,290.54999999985665,0.004622462,290.54999999985665,0.0007199387
290.56499999985664,0.0002373816,290.56499999985664,0.003125561,290.56499999985664,0.004656447,290.56499999985664,0.0007405753
290.5799999998566,0.0002383304,290.5799999998566,0.003357549,290.5799999998566,0.004710323,290.5799999998566,0.0007577499
290.5949999998566,0.0002370108,290.5949999998566,0.003687659,290.5949999998566,0.004834914,290.5949999998566,0.0008152352
290.6099999998566,0.0002344465,290.6099999998566,0.003954346,290.6099999998566,0.004882025,290.6099999998566,0.0008355884
290.6249999998566,0.0002295358,290.6249999998566,0.004060325,290.6249999998566,0.004873887,290.6249999998566,0.0008720624
290.63999999985657,0.0001723208,290.63999999985657,0.004151772,290.63999999985657,0.004865347,290.63999999985657,0.0008986719
290.65499999985656,0.0001700927,290.65499999985656,0.004188735,290.65499999985656,0.004802829,290.65499999985656,0.001025813
290.66999999985654,0.0001624279,290.66999999985654,0.004358232,290.66999999985654,0.004746882,290.66999999985654,0.001065306
290.68499999985653,0.0001506505,290.68499999985653,0.004517755,290.68499999985653,0.004811119,290.68499999985653,0.001065599
290.6999999998565,0.0001455507,290.6999999998565,0.004697816,290.6999999998565,0.004866948,290.6999999998565,0.001072672
290.7149999998565,0.0001454847,290.7149999998565,0.004839711,290.7149999998565,0.004813182,290.7149999998565,0.00107358
290.7299999998565,0.0001438729,290.7299999998565,0.004637816,290.7299999998565,0.004678491,290.7299999998565,0.001000262
290.7449999998565,0.0001386146,290.7449999998565,0.004561109,290.7449999998565,0.004486743,290.7449999998565,0.0009509138
290.75999999985646,0.0001156441,290.75999999985646,0.004564898,290.75999999985646,0.00453176,290.75999999985646,0.0009089715
290.77499999985645,0.0001163035,290.77499999985645,0.00450798,290.77499999985645,0.004504804,290.77499999985645,0.000869489
290.78999999985643,0.0001592444,290.78999999985643,0.004408264,290.78999999985643,0.0045362,290.78999999985643,0.0008767059
290.8049999998564,0.000177642,290.8049999998564,0.004478572,290.8049999998564,0.004574954,290.8049999998564,0.0008769981
290.8199999998564,0.0001827938,290.8199999998564,0.004494483,290.8199999998564,0.004518293,290.8199999998564,0.0008657596
290.8349999998564,0.0001960225,290.8349999998564,0.004505329,290.8349999998564,0.004481413,290.8349999998564,0.0008303565
290.8499999998564,0.0002123304,290.8499999998564,0.004444488,290.8499999998564,0.004601205,290.8499999998564,0.0007931767
290.86499999985637,0.0002154383,290.86499999985637,0.004277328,290.86499999985637,0.004618618,290.86499999985637,0.0007588833
290.87999999985635,0.0002156703,290.87999999985635,0.004248033,290.87999999985635,0.00454135,290.87999999985635,0.0007242325
290.89499999985634,0.0002166457,290.89499999985634,0.004392513,290.89499999985634,0.004376713,290.89499999985634,0.0006175635
290.9099999998563,0.0002345587,290.9099999998563,0.004660957,290.9099999998563,0.00433545,290.9099999998563,0.0004748887
290.9249999998563,0.0002589991,290.9249999998563,0.004809682,290.9249999998563,0.004630734,290.9249999998563,0.0004320312
290.9399999998563,0.0002596279,290.9399999998563,0.004822394,290.9399999998563,0.004817932,290.9399999998563,0.0004314843
290.9549999998563,0.0002583336,290.9549999998563,0.004622154,290.9549999998563,0.004909259,290.9549999998563,0.0004088049
290.96999999985627,0.0002586682,290.96999999985627,0.004475786,290.96999999985627,0.005057981,290.96999999985627,0.000398269
290.98499999985626,0.0002616887,290.98499999985626,0.004512029,290.98499999985626,0.005203251,290.98499999985626,0.0003957269
290.99999999985624,0.0002620279,290.99999999985624,0.00448838,290.99999999985624,0.005299607,290.99999999985624,0.0004259963
291.01499999985623,0.0002633384,291.01499999985623,0.004495723,291.01499999985623,0.005230685,291.01499999985623,0.0004368869
291.0299999998562,0.0002618629,291.0299999998562,0.004629409,291.0299999998562,0.005159125,291.0299999998562,0.0004380474
291.0449999998562,0.0002246437,291.0449999998562,0.004582993,291.0449999998562,0.005119256,291.0449999998562,0.000386435
291.0599999998562,0.0002132693,291.0599999998562,0.004499726,291.0599999998562,0.005052418,291.0599999998562,0.0004152841
291.0749999998562,0.0002080116,291.0749999998562,0.004549843,291.0749999998562,0.005083697,291.0749999998562,0.0004219669
291.08999999985616,0.0001991017,291.08999999985616,0.004563652,291.08999999985616,0.005130074,291.08999999985616,0.0004271489
291.10499999985615,0.0001775857,291.10499999985615,0.004501424,291.10499999985615,0.005130067,291.10499999985615,0.0004016144
291.11999999985613,0.0001720934,291.11999999985613,0.004499065,291.11999999985613,0.005130054,291.11999999985613,0.0003897901
291.1349999998561,0.0001705079,291.1349999998561,0.004484199,291.1349999998561,0.005086703,291.1349999998561,0.0003877624
291.1499999998561,0.0001665767,291.1499999998561,0.004349048,291.1499999998561,0.004993381,291.1499999998561,0.0003902236
291.1649999998561,0.000118842,291.1649999998561,0.004170701,291.1649999998561,0.004964454,291.1649999998561,0.0003539885
291.1799999998561,9.131554e-05,291.1799999998561,0.003968462,291.1799999998561,0.004948353,291.1799999998561,0.0003458643
291.19499999985607,8.972197e-05,291.19499999985607,0.003836572,291.19499999985607,0.004866716,291.19499999985607,0.0003463805
291.20999999985605,9.308584e-05,291.20999999985605,0.003841009,291.20999999985605,0.004709951,291.20999999985605,0.0003471074
291.22499999985604,9.747013e-05,291.22499999985604,0.003810454,291.22499999985604,0.004641527,291.22499999985604,0.0003370573
291.239999999856,9.808487e-05,291.239999999856,0.003866498,291.239999999856,0.004594719,291.239999999856,0.0003361638
291.254999999856,0.0001278995,291.254999999856,0.003969565,291.254999999856,0.00463875,291.254999999856,0.0003427106
291.269999999856,0.0002241212,291.269999999856,0.003964812,291.269999999856,0.004660637,291.269999999856,0.0004315977
291.284999999856,0.0002319633,291.284999999856,0.003865933,291.284999999856,0.004661038,291.284999999856,0.0004369077
291.29999999985597,0.0002522866,291.29999999985597,0.003851731,291.29999999985597,0.004602052,291.29999999985597,0.0004390262
291.31499999985596,0.0002645713,291.31499999985596,0.003706238,291.31499999985596,0.004635328,291.31499999985596,0.0004185666
291.32999999985594,0.0002656052,291.32999999985594,0.003482149,291.32999999985594,0.004604324,291.32999999985594,0.0004899517
291.34499999985593,0.0002656097,291.34499999985593,0.003412798,291.34499999985593,0.004645385,291.34499999985593,0.0005862735
291.3599999998559,0.0002654842,291.3599999998559,0.00347992,291.3599999998559,0.004591434,291.3599999998559,0.001174844
291.3749999998559,0.0002661973,291.3749999998559,0.00353807,291.3749999998559,0.00452028,291.3749999998559,0.001324903
291.3899999998559,0.0002697609,291.3899999998559,0.003624406,291.3899999998559,0.004645346,291.3899999998559,0.001580713
291.4049999998559,0.0002696175,291.4049999998559,0.003789293,291.4049999998559,0.004781113,291.4049999998559,0.001670753
291.41999999985586,0.00027179,291.41999999985586,0.003917906,291.41999999985586,0.004789148,291.41999999985586,0.001675942
291.43499999985585,0.0002721921,291.43499999985585,0.003975945,291.43499999985585,0.004779079,291.43499999985585,0.001688922
291.44999999985583,0.0002744079,291.44999999985583,0.004020987,291.44999999985583,0.004926145,291.44999999985583,0.001738126
291.4649999998558,0.0002733288,291.4649999998558,0.004312775,291.4649999998558,0.005055977,291.4649999998558,0.001756411
291.4799999998558,0.0002728606,291.4799999998558,0.004551862,291.4799999998558,0.005129159,291.4799999998558,0.001757572
291.4949999998558,0.0002703135,291.4949999998558,0.004589006,291.4949999998558,0.005103137,291.4949999998558,0.001756538
291.5099999998558,0.0002302195,291.5099999998558,0.004491327,291.5099999998558,0.005112065,291.5099999998558,0.001751244
291.52499999985577,0.0001621581,291.52499999985577,0.004420097,291.52499999985577,0.005106456,291.52499999985577,0.001747092
291.53999999985575,0.0001566645,291.53999999985575,0.004470403,291.53999999985575,0.005047401,291.53999999985575,0.00174815
291.55499999985574,0.0001250478,291.55499999985574,0.004640939,291.55499999985574,0.005088183,291.55499999985574,0.00174639
291.5699999998557,0.0001019264,291.5699999998557,0.004676097,291.5699999998557,0.005088446,291.5699999998557,0.001746316
291.5849999998557,0.0001006905,291.5849999998557,0.004623366,291.5849999998557,0.005155636,291.5849999998557,0.001700332
291.5999999998557,0.0001007546,291.5999999998557,0.004394924,291.5999999998557,0.005020261,291.5999999998557,0.001622072
291.6149999998557,0.000101204,291.6149999998557,0.004224687,291.6149999998557,0.00485916,291.6149999998557,0.001204872
291.62999999985567,0.0001087401,291.62999999985567,0.004102438,291.62999999985567,0.004835571,291.62999999985567,0.001105524
291.64499999985566,0.0001222513,291.64499999985566,0.003938111,291.64499999985566,0.0047434,291.64499999985566,0.0007311843
291.65999999985564,0.0002233399,291.65999999985564,0.003814094,291.65999999985564,0.004737448,291.65999999985564,0.0006828144
291.67499999985563,0.0002500566,291.67499999985563,0.003825522,291.67499999985563,0.004703186,291.67499999985563,0.0006925922
291.6899999998556,0.0002585908,291.6899999998556,0.003829803,291.6899999998556,0.004796948,291.6899999998556,0.0006383675
291.7049999998556,0.0002809926,291.7049999998556,0.003960414,291.7049999998556,0.00479697,291.7049999998556,0.0005273287
291.7199999998556,0.00028479,291.7199999998556,0.00393371,291.7199999998556,0.004773034,291.7199999998556,0.0005098433
291.7349999998556,0.0002867345,291.7349999998556,0.003754434,291.7349999998556,0.00481321,291.7349999998556,0.0005055766
291.74999999985556,0.0002889292,291.74999999985556,0.003505456,291.74999999985556,0.004801983,291.74999999985556,0.0005085237
291.76499999985555,0.0002912659,291.76499999985555,0.0038281,291.76499999985555,0.004728123,291.76499999985555,0.0004649833
291.77999999985553,0.0003166248,291.77999999985553,0.004001203,291.77999999985553,0.004754154,291.77999999985553,0.0004648784
291.7949999998555,0.0003234897,291.7949999998555,0.004059375,291.7949999998555,0.004894366,291.7949999998555,0.0004736485
291.8099999998555,0.0003252917,291.8099999998555,0.004004926,291.8099999998555,0.004939219,291.8099999998555,0.0004726166
291.8249999998555,0.0003262635,291.8249999998555,0.004131379,291.8249999998555,0.004926722,291.8249999998555,0.0004711631
291.8399999998555,0.0003260321,291.8399999998555,0.004305526,291.8399999998555,0.004972028,291.8399999998555,0.0004705891
291.85499999985547,0.0003287548,291.85499999985547,0.004585476,291.85499999985547,0.005110561,291.85499999985547,0.0004856967
291.86999999985545,0.0003289265,291.86999999985545,0.004747418,291.86999999985545,0.005214953,291.86999999985545,0.0004966478
291.88499999985544,0.0003251137,291.88499999985544,0.004928222,291.88499999985544,0.005275758,291.88499999985544,0.0004923638
291.8999999998554,0.0003159584,291.8999999998554,0.005070449,291.8999999998554,0.005306439,291.8999999998554,0.0004761361
291.9149999998554,0.0002441339,291.9149999998554,0.005050627,291.9149999998554,0.005318589,291.9149999998554,0.0003941194
291.9299999998554,0.0002328195,291.9299999998554,0.005139357,291.9299999998554,0.005296139,291.9299999998554,0.0003870585
291.9449999998554,0.0002166362,291.9449999998554,0.005166797,291.9449999998554,0.005132246,291.9449999998554,0.0003669703
291.95999999985537,0.0001898819,291.95999999985537,0.005018043,291.95999999985537,0.005044966,291.95999999985537,0.0003483144
291.97499999985536,0.0001842497,291.97499999985536,0.004837035,291.97499999985536,0.005109469,291.97499999985536,0.000346936
291.98999999985534,0.0001810069,291.98999999985534,0.004700725,291.98999999985534,0.005142632,291.98999999985534,0.0003473562
292.00499999985533,0.0001715513,292.00499999985533,0.004580636,292.00499999985533,0.00515257,292.00499999985533,0.0003330093
292.0199999998553,0.0001630466,292.0199999998553,0.004428969,292.0199999998553,0.005169799,292.0199999998553,0.0003325296
292.0349999998553,0.0001084911,292.0349999998553,0.004235103,292.0349999998553,0.005060031,292.0349999998553,0.0002931634
292.0499999998553,0.0001129171,292.0499999998553,0.004082323,292.0499999998553,0.004863565,292.0499999998553,0.0002911524
292.0649999998553,0.0001876996,292.0649999998553,0.003856195,292.0649999998553,0.004930388,292.0649999998553,0.000346751
292.07999999985526,0.000202157,292.07999999985526,0.0036081,292.07999999985526,0.004970486,292.07999999985526,0.0003507156
292.09499999985525,0.0002047353,292.09499999985525,0.003399438,292.09499999985525,0.004977405,292.09499999985525,0.0003513734
292.10999999985523,0.0002037028,292.10999999985523,0.003137772,292.10999999985523,0.004831818,292.10999999985523,0.0003225512
292.1249999998552,0.0002085713,292.1249999998552,0.0028056,292.1249999998552,0.004705874,292.1249999998552,0.0003061924
292.1399999998552,0.0002041694,292.1399999998552,0.002376949,292.1399999998552,0.004662554,292.1399999998552,0.0003009641
292.1549999998552,0.000201765,292.1549999998552,0.001920781,292.1549999998552,0.0044674,292.1549999998552,0.0002855113
292.1699999998552,0.0002028667,292.1699999998552,0.002035083,292.1699999998552,0.004397378,292.1699999998552,0.000296471
292.18499999985517,0.0002027428,292.18499999985517,0.002201536,292.18499999985517,0.004502725,292.18499999985517,0.0003492099
292.19999999985515,0.0002030367,292.19999999985515,0.002275164,292.19999999985515,0.004625014,292.19999999985515,0.0003655025
292.21499999985514,0.0002032958,292.21499999985514,0.002534721,292.21499999985514,0.004619504,292.21499999985514,0.0004596691
292.2299999998551,0.0002131962,292.2299999998551,0.002913149,292.2299999998551,0.004609025,292.2299999998551,0.0005349412
292.2449999998551,0.0002161391,292.2449999998551,0.0032118,292.2449999998551,0.004538732,292.2449999998551,0.0005421353
292.2599999998551,0.0002261018,292.2599999998551,0.003453593,292.2599999998551,0.004538694,292.2599999998551,0.0006236628
292.2749999998551,0.0002278363,292.2749999998551,0.003635102,292.2749999998551,0.004591346,292.2749999998551,0.0006614478
292.28999999985507,0.0002257701,292.28999999985507,0.003729686,292.28999999985507,0.004560663,292.28999999985507,0.000662791
292.30499999985506,0.0002200861,292.30499999985506,0.003833814,292.30499999985506,0.004690995,292.30499999985506,0.0006574824
292.31999999985504,0.0001572966,292.31999999985504,0.004115653,292.31999999985504,0.004808046,292.31999999985504,0.0006367351
292.33499999985503,0.0001682407,292.33499999985503,0.004201779,292.33499999985503,0.004807882,292.33499999985503,0.0006402428
292.349999999855,0.0001690004,292.349999999855,0.00437192,292.349999999855,0.004826292,292.349999999855,0.0006470918
292.364999999855,0.0001804623,292.364999999855,0.004556868,292.364999999855,0.004967775,292.364999999855,0.0006487193
292.379999999855,0.0001823411,292.379999999855,0.004653464,292.379999999855,0.005001097,292.379999999855,0.0006500912
292.394999999855,0.0001809968,292.394999999855,0.004707726,292.394999999855,0.004868037,292.394999999855,0.0006493122
292.40999999985496,0.0001823913,292.40999999985496,0.004871002,292.40999999985496,0.005104637,292.40999999985496,0.0006468882
292.42499999985495,0.0001808469,292.42499999985495,0.004755779,292.42499999985495,0.005208225,292.42499999985495,0.0006302077
292.43999999985493,0.0001810711,292.43999999985493,0.00454942,292.43999999985493,0.005215557,292.43999999985493,0.0006033908
292.4549999998549,0.000182196,292.4549999998549,0.004274304,292.4549999998549,0.005212881,292.4549999998549,0.0005861893
292.4699999998549,0.000188564,292.4699999998549,0.004095803,292.4699999998549,0.005142495,292.4699999998549,0.0004988848
292.4849999998549,0.0001906823,292.4849999998549,0.003954093,292.4849999998549,0.005117717,292.4849999998549,0.0004329548
292.4999999998549,0.0001902116,292.4999999998549,0.003786949,292.4999999998549,0.00516898,292.4999999998549,0.0004192551
292.51499999985487,0.0001830607,292.51499999985487,0.003594785,292.51499999985487,0.005099754,292.51499999985487,0.0002727625
292.52999999985485,0.0001824745,292.52999999985485,0.003412755,292.52999999985485,0.005028422,292.52999999985485,0.0002313946
292.54499999985484,0.0001786523,292.54499999985484,0.003391165,292.54499999985484,0.005001292,292.54499999985484,0.0002231995
292.5599999998548,0.0001747997,292.5599999998548,0.003241891,292.5599999998548,0.004824062,292.5599999998548,0.0002353414
292.5749999998548,0.000172184,292.5749999998548,0.002932384,292.5749999998548,0.004549043,292.5749999998548,0.0002596325
292.5899999998548,0.000159724,292.5899999998548,0.002888183,292.5899999998548,0.004459078,292.5899999998548,0.0002579361
292.6049999998548,0.0001575648,292.6049999998548,0.002836994,292.6049999998548,0.004478673,292.6049999998548,0.0005368128
292.61999999985477,0.0001618109,292.61999999985477,0.00247292,292.61999999985477,0.004579717,292.61999999985477,0.0005821642
292.63499999985476,0.0001625138,292.63499999985476,0.002372042,292.63499999985476,0.004649761,292.63499999985476,0.0006687106
292.64999999985474,0.0001713272,292.64999999985474,0.002495222,292.64999999985474,0.004722402,292.64999999985474,0.0007339299
292.66499999985473,0.0001929919,292.66499999985473,0.002506773,292.66499999985473,0.004703559,292.66499999985473,0.000743271
292.6799999998547,0.000201125,292.6799999998547,0.002630241,292.6799999998547,0.004694977,292.6799999998547,0.0007424068
292.6949999998547,0.0001992378,292.6949999998547,0.002686083,292.6949999998547,0.004592821,292.6949999998547,0.0007415643
292.7099999998547,0.0001986765,292.7099999998547,0.003090297,292.7099999998547,0.004415691,292.7099999998547,0.0007464473
292.7249999998547,0.0001961864,292.7249999998547,0.003433006,292.7249999998547,0.004640749,292.7249999998547,0.0007496131
292.73999999985466,0.0001859202,292.73999999985466,0.003693545,292.73999999985466,0.004735451,292.73999999985466,0.0007457558
292.75499999985465,0.0001875196,292.75499999985465,0.003910363,292.75499999985465,0.004735451,292.75499999985465,0.0007473921
292.76999999985463,0.0001837104,292.76999999985463,0.003945061,292.76999999985463,0.004815762,292.76999999985463,0.0007468642
292.7849999998546,0.0001841505,292.7849999998546,0.003959844,292.7849999998546,0.004774208,292.7849999998546,0.0007401516
292.7999999998546,0.000184096,292.7999999998546,0.003908898,292.7999999998546,0.004766398,292.7999999998546,0.0007370661
292.8149999998546,0.0001810734,292.8149999998546,0.004012925,292.8149999998546,0.004935532,292.8149999998546,0.0007329395
292.8299999998546,0.0001806592,292.8299999998546,0.004090203,292.8299999998546,0.005072432,292.8299999998546,0.0007285606
292.84499999985456,0.0001803656,292.84499999985456,0.004078368,292.84499999985456,0.00518002,292.84499999985456,0.0007173003
292.85999999985455,0.0001673581,292.85999999985455,0.003890177,292.85999999985455,0.00519599,292.85999999985455,0.0004700306
292.87499999985454,0.0001484883,292.87499999985454,0.003877835,292.87499999985454,0.005086942,292.87499999985454,0.0004487905
292.8899999998545,0.0001489432,292.8899999998545,0.003776236,292.8899999998545,0.004933339,292.8899999998545,0.0003136288
292.9049999998545,0.0001345285,292.9049999998545,0.003580955,292.9049999998545,0.004862194,292.9049999998545,0.0002036421
292.9199999998545,9.723225e-05,292.9199999998545,0.003437208,292.9199999998545,0.004852388,292.9199999998545,0.0001776774
292.9349999998545,9.165629e-05,292.9349999998545,0.003325059,292.9349999998545,0.004825776,292.9349999998545,0.0001775862
292.94999999985447,9.013457e-05,292.94999999985447,0.003184943,292.94999999985447,0.004732751,292.94999999985447,0.0001742451
292.96499999985446,8.541399e-05,292.96499999985446,0.00286934,292.96499999985446,0.004603651,292.96499999985446,0.0002489611
292.97999999985444,8.202747e-05,292.97999999985444,0.002464691,292.97999999985444,0.004494654,292.97999999985444,0.0003042798
292.99499999985443,6.479981e-05,292.99499999985443,0.00191764,292.99499999985443,0.004366917,292.99499999985443,0.0003313401
293.0099999998544,6.546335e-05,293.0099999998544,0.001237617,293.0099999998544,0.004180143,293.0099999998544,0.0003468816
293.0249999998544,7.552488e-05,293.0249999998544,0.001138617,293.0249999998544,0.00404098,293.0249999998544,0.0003543893
293.0399999998544,7.833994e-05,293.0399999998544,0.001146044,293.0399999998544,0.00399353,293.0399999998544,0.0003531465
293.0549999998544,7.757813e-05,293.0549999998544,0.001040231,293.0549999998544,0.004024912,293.0549999998544,0.000352066
293.06999999985436,8.028687e-05,293.06999999985436,0.0008665491,293.06999999985436,0.003871924,293.06999999985436,0.000351523
293.08499999985435,8.403198e-05,293.08499999985435,0.0006859803,293.08499999985435,0.003583366,293.08499999985435,0.0003517211
293.09999999985433,9.023969e-05,293.09999999985433,0.001452326,293.09999999985433,0.003576251,293.09999999985433,0.000351385
293.1149999998543,9.068209e-05,293.1149999998543,0.001871831,293.1149999998543,0.003632944,293.1149999998543,0.0003534757
293.1299999998543,9.131431e-05,293.1299999998543,0.002275978,293.1299999998543,0.003718812,293.1299999998543,0.0003598713
293.1449999998543,9.300938e-05,293.1449999998543,0.002603376,293.1449999998543,0.003812987,293.1449999998543,0.0003701418
293.1599999998543,9.867523e-05,293.1599999998543,0.002853926,293.1599999998543,0.003960364,293.1599999998543,0.0003777053
293.17499999985426,0.000147782,293.17499999985426,0.00298293,293.17499999985426,0.00379941,293.17499999985426,0.0004542707
293.18999999985425,0.0001562106,293.18999999985425,0.003042382,293.18999999985425,0.003667316,293.18999999985425,0.0004614514
293.20499999985424,0.0001756897,293.20499999985424,0.003064827,293.20499999985424,0.003836267,293.20499999985424,0.0005255663
293.2199999998542,0.0002112032,293.2199999998542,0.003067436,293.2199999998542,0.003995809,293.2199999998542,0.0005150222
293.2349999998542,0.0002165495,293.2349999998542,0.003059737,293.2349999998542,0.004093761,293.2349999998542,0.0005017307
293.2499999998542,0.0002181199,293.2499999998542,0.003461689,293.2499999998542,0.004327386,293.2499999998542,0.0005154919
293.2649999998542,0.0002254593,293.2649999998542,0.003790132,293.2649999998542,0.004464747,293.2649999998542,0.000529175
293.27999999985417,0.0002258875,293.27999999985417,0.004063628,293.27999999985417,0.00460891,293.27999999985417,0.0005304836
293.29499999985416,0.0002245408,293.29499999985416,0.004293197,293.29499999985416,0.004701686,293.29499999985416,0.0005320567
293.30999999985414,0.0002240476,293.30999999985414,0.004345925,293.30999999985414,0.004727922,293.30999999985414,0.0005319833
293.3249999998541,0.0002247031,293.3249999998541,0.00451033,293.3249999998541,0.004746771,293.3249999998541,0.0005314731
293.3399999998541,0.0002223918,293.3399999998541,0.004626472,293.3399999998541,0.004795384,293.3399999998541,0.0005317068
293.3549999998541,0.0002222091,293.3549999998541,0.004448838,293.3549999998541,0.004776226,293.3549999998541,0.0005390062
293.3699999998541,0.0002348415,293.3699999998541,0.00431816,293.3699999998541,0.004727266,293.3699999998541,0.0005614411
293.3849999998541,0.0002859824,293.3849999998541,0.004323835,293.3849999998541,0.004899974,293.3849999998541,0.0006163649
293.39999999985406,0.0002919196,293.39999999985406,0.004344468,293.39999999985406,0.005008594,293.39999999985406,0.0006180508
293.41499999985405,0.0002933243,293.41499999985405,0.00447105,293.41499999985405,0.005022807,293.41499999985405,0.0005997757
293.42999999985403,0.0002737131,293.42999999985403,0.004491226,293.42999999985403,0.005153419,293.42999999985403,0.000559004
293.444999999854,0.0002739143,293.444999999854,0.004611608,293.444999999854,0.005175921,293.444999999854,0.0005461769
293.459999999854,0.0002526902,293.459999999854,0.004705343,293.459999999854,0.005122892,293.459999999854,0.0004580959
293.474999999854,0.0002392585,293.474999999854,0.00488634,293.474999999854,0.005161795,293.474999999854,0.0004208235
293.489999999854,0.0002762106,293.489999999854,0.004984915,293.489999999854,0.005161894,293.489999999854,0.000455499
293.50499999985396,0.0003200319,293.50499999985396,0.004948625,293.50499999985396,0.005182646,293.50499999985396,0.0004777851
293.51999999985395,0.0003342147,293.51999999985395,0.004874903,293.51999999985395,0.00514906,293.51999999985395,0.0004667988
293.53499999985394,0.0003497694,293.53499999985394,0.004858254,293.53499999985394,0.00514906,293.53499999985394,0.0004747125
293.5499999998539,0.0003537465,293.5499999998539,0.004705004,293.5499999998539,0.005198901,293.5499999998539,0.0004766186
293.5649999998539,0.000352919,293.5649999998539,0.004873312,293.5649999998539,0.005190867,293.5649999998539,0.000498891
293.5799999998539,0.000355126,293.5799999998539,0.005022675,293.5799999998539,0.005103969,293.5799999998539,0.000504141
293.5949999998539,0.00035804,293.5949999998539,0.005081207,293.5949999998539,0.005104335,293.5949999998539,0.000507397
293.60999999985387,0.0003562906,293.60999999985387,0.005030441,293.60999999985387,0.00511864,293.60999999985387,0.0004953127
293.62499999985386,0.0003427911,293.62499999985386,0.004849987,293.62499999985386,0.005088255,293.62499999985386,0.0004520017
293.63999999985384,0.0003084632,293.63999999985384,0.004752209,293.63999999985384,0.005088255,293.63999999985384,0.0003914282
293.6549999998538,0.0003059349,293.6549999998538,0.004712476,293.6549999998538,0.005078414,293.6549999998538,0.0004012718
293.6699999998538,0.0003031052,293.6699999998538,0.004645824,293.6699999998538,0.00502221,293.6699999998538,0.0004033972
293.6849999998538,0.0003028284,293.6849999998538,0.00452834,293.6849999998538,0.004991786,293.6849999998538,0.0004049618
293.6999999998538,0.0003002519,293.6999999998538,0.004365996,293.6999999998538,0.005129138,293.6999999998538,0.0004110986
293.7149999998538,0.0002981473,293.7149999998538,0.004241047,293.7149999998538,0.00519261,293.7149999998538,0.0004189458
293.72999999985376,0.0002884167,293.72999999985376,0.004015837,293.72999999985376,0.005192606,293.72999999985376,0.0004200241
293.74499999985375,0.0002155765,293.74499999985375,0.003807534,293.74499999985375,0.005177122,293.74499999985375,0.000356857
293.75999999985373,0.0001836265,293.75999999985373,0.003592849,293.75999999985373,0.00501301,293.75999999985373,0.0003393871
293.7749999998537,0.0001427754,293.7749999998537,0.003325276,293.7749999998537,0.004904958,293.7749999998537,0.0003279275
293.7899999998537,0.0001181979,293.7899999998537,0.00305396,293.7899999998537,0.004762123,293.7899999998537,0.0003237902
293.8049999998537,0.0001129499,293.8049999998537,0.002795808,293.8049999998537,0.004614257,293.8049999998537,0.0003149097
293.8199999998537,0.0001283538,293.8199999998537,0.002483291,293.8199999998537,0.004528302,293.8199999998537,0.0002918446
293.83499999985366,0.0001775007,293.83499999985366,0.00197087,293.83499999985366,0.0045864,293.83499999985366,0.0003510382
293.84999999985365,0.00017943,293.84999999985365,0.001279787,293.84999999985365,0.004552628,293.84999999985365,0.0003419642
293.86499999985364,0.0001896463,293.86499999985364,0.001013346,293.86499999985364,0.004494856,293.86499999985364,0.000343672
293.8799999998536,0.0001922081,293.8799999998536,0.001032751,293.8799999998536,0.004526998,293.8799999998536,0.0003480533
293.8949999998536,0.0001886976,293.8949999998536,0.001008465,293.8949999998536,0.004462699,293.8949999998536,0.0003630654
293.9099999998536,0.0001979681,293.9099999998536,0.0008966784,293.9099999998536,0.004437804,293.9099999998536,0.0005388114
293.9249999998536,0.0001978337,293.9249999998536,0.000838753,293.9249999998536,0.004559132,293.9249999998536,0.0007691489
293.93999999985357,0.0002085685,293.93999999985357,0.001611628,293.93999999985357,0.004672083,293.93999999985357,0.001084614
293.95499999985356,0.0002087997,293.95499999985356,0.001987588,293.95499999985356,0.004672079,293.95499999985356,0.001108036
293.96999999985354,0.000210799,293.96999999985354,0.002355905,293.96999999985354,0.004672111,293.96999999985354,0.001199869
293.9849999998535,0.0002140491,293.9849999998535,0.002663018,293.9849999998535,0.004652231,293.9849999998535,0.001233876
293.9999999998535,0.0002172349,293.9999999998535,0.002897773,293.9999999998535,0.004577545,293.9999999998535,0.001235912
294.0149999998535,0.0002189343,294.0149999998535,0.003017453,294.0149999998535,0.004635334,294.0149999998535,0.001238454
294.0299999998535,0.0002256001,294.0299999998535,0.003072782,294.0299999998535,0.004575579,294.0299999998535,0.001241598
294.0449999998535,0.0002270649,294.0449999998535,0.003093594,294.0449999998535,0.004718664,294.0449999998535,0.001247194
294.05999999985346,0.0002279069,294.05999999985346,0.003095944,294.05999999985346,0.004896482,294.05999999985346,0.001252246
294.07499999985345,0.0002211028,294.07499999985345,0.003088498,294.07499999985345,0.004958213,294.07499999985345,0.001249938
294.08999999985343,0.0001833231,294.08999999985343,0.003272782,294.08999999985343,0.004958213,294.08999999985343,0.001242586
294.1049999998534,0.0001814932,294.1049999998534,0.003640084,294.1049999998534,0.004976697,294.1049999998534,0.001245273
294.1199999998534,0.0001686415,294.1199999998534,0.003944036,294.1199999998534,0.004912002,294.1199999998534,0.001243775
294.1349999998534,0.000162537,294.1349999998534,0.00419863,294.1349999998534,0.004891789,294.1349999998534,0.001243673
294.1499999998534,0.0001618398,294.1499999998534,0.004412583,294.1499999998534,0.004867109,294.1499999998534,0.001224367
294.16499999985336,0.0001522822,294.16499999985336,0.004556859,294.16499999985336,0.004704168,294.16499999985336,0.001147956
294.17999999985335,0.0001487939,294.17999999985335,0.00464663,294.17999999985335,0.004562574,294.17999999985335,0.0008771415
294.19499999985334,0.0001363653,294.19499999985334,0.00452597,294.19499999985334,0.004528045,294.19499999985334,0.0006305765
294.2099999998533,0.0001426292,294.2099999998533,0.004468233,294.2099999998533,0.004528047,294.2099999998533,0.0005863947
294.2249999998533,0.0001493095,294.2249999998533,0.004419126,294.2249999998533,0.00452343,294.2249999998533,0.0004277834
294.2399999998533,0.0002414695,294.2399999998533,0.004564798,294.2399999998533,0.004650625,294.2399999998533,0.0004445045
294.2549999998533,0.0002565065,294.2549999998533,0.004658209,294.2549999998533,0.004772042,294.2549999998533,0.0004500878
294.26999999985327,0.000279218,294.26999999985327,0.004731751,294.26999999985327,0.004823467,294.26999999985327,0.0004653425
294.28499999985326,0.0003084787,294.28499999985326,0.004778922,294.28499999985326,0.004952497,294.28499999985326,0.0004820988
294.29999999985324,0.0003085801,294.29999999985324,0.004713742,294.29999999985324,0.004916391,294.29999999985324,0.0004650652
294.3149999998532,0.0003073327,294.3149999998532,0.004704429,294.3149999998532,0.004749006,294.3149999998532,0.0004651077
294.3299999998532,0.0003142215,294.3299999998532,0.004786457,294.3299999998532,0.004736049,294.3299999998532,0.00044656
294.3449999998532,0.0003216079,294.3449999998532,0.004817769,294.3449999998532,0.004740925,294.3449999998532,0.0004456155
294.3599999998532,0.0003221607,294.3599999998532,0.004746207,294.3599999998532,0.004817,294.3599999998532,0.000448378
294.3749999998532,0.0003237967,294.3749999998532,0.004592038,294.3749999998532,0.005007067,294.3749999998532,0.0004484857
294.38999999985316,0.0003238789,294.38999999985316,0.004362866,294.38999999985316,0.005002866,294.38999999985316,0.0004499869
294.40499999985315,0.0003236416,294.40499999985315,0.004141284,294.40499999985315,0.005082363,294.40499999985315,0.0004466067
294.41999999985313,0.0003263764,294.41999999985313,0.004003311,294.41999999985313,0.005182727,294.41999999985313,0.0004427579
294.4349999998531,0.0003268905,294.4349999998531,0.0038349,294.4349999998531,0.005281966,294.4349999998531,0.000445561
294.4499999998531,0.000326953,294.4499999998531,0.003637196,294.4499999998531,0.005267528,294.4499999998531,0.0004428138
294.4649999998531,0.0003245523,294.4649999998531,0.003431835,294.4649999998531,0.005154623,294.4649999998531,0.0004400451
294.4799999998531,0.0003068183,294.4799999998531,0.003245303,294.4799999998531,0.005106106,294.4799999998531,0.000402842
294.49499999985306,0.0002385109,294.49499999985306,0.002925384,294.49499999985306,0.005202622,294.49499999985306,0.0003307964
294.50999999985305,0.0002310506,294.50999999985305,0.00251696,294.50999999985305,0.005259571,294.50999999985305,0.0003252387
294.52499999985304,0.0001864652,294.52499999985304,0.001968002,294.52499999985304,0.005266483,294.52499999985304,0.0002759967
294.539999999853,0.0001539123,294.539999999853,0.001296483,294.539999999853,0.005184796,294.539999999853,0.0002685003
294.554999999853,0.0001503806,294.554999999853,0.001209888,294.554999999853,0.005050532,294.554999999853,0.0002648373
294.569999999853,0.0001436568,294.569999999853,0.001213667,294.569999999853,0.005045473,294.569999999853,0.0002427314
294.584999999853,0.0001148929,294.584999999853,0.001097884,294.584999999853,0.005012504,294.584999999853,0.0002440537
294.59999999985297,9.793669e-05,294.59999999985297,0.000914094,294.59999999985297,0.004891563,294.59999999985297,0.0002270866
294.61499999985296,9.926974e-05,294.61499999985296,0.0007247881,294.61499999985296,0.004750717,294.61499999985296,0.0002177033
294.62999999985294,9.826251e-05,294.62999999985294,0.0005623395,294.62999999985294,0.004646252,294.62999999985294,0.0002186233
294.6449999998529,0.0001048715,294.6449999998529,0.0004350719,294.6449999998529,0.004629266,294.6449999998529,0.0002319043
294.6599999998529,0.0001321097,294.6599999998529,0.0003386914,294.6599999998529,0.00461041,294.6599999998529,0.0002750216
294.6749999998529,0.0002304165,294.6749999998529,0.0002657861,294.6749999998529,0.004640736,294.6749999998529,0.0003528487
294.6899999998529,0.0002402107,294.6899999998529,0.0002094881,294.6899999998529,0.004640736,294.6899999998529,0.0003814777
294.7049999998529,0.0002538822,294.7049999998529,0.0001672686,294.7049999998529,0.004587157,294.7049999998529,0.0004280861
294.71999999985286,0.0002649755,294.71999999985286,0.0001359404,294.71999999985286,0.004541913,294.71999999985286,0.000446802
294.73499999985285,0.0002666037,294.73499999985285,0.0001117616,294.73499999985285,0.004582895,294.73499999985285,0.0005318373
294.74999999985283,0.0002665814,294.74999999985283,8.930873e-05,294.74999999985283,0.00453601,294.74999999985283,0.000564666
294.7649999998528,0.0002674528,294.7649999998528,7.029217e-05,294.7649999998528,0.004466062,294.7649999998528,0.0007674174
294.7799999998528,0.0002687363,294.7799999998528,0.001131764,294.7799999998528,0.004440689,294.7799999998528,0.0009483063
294.7949999998528,0.0002716732,294.7949999998528,0.001644336,294.7949999998528,0.004578699,294.7949999998528,0.001214527
294.8099999998528,0.0002840378,294.8099999998528,0.002152543,294.8099999998528,0.004654462,294.8099999998528,0.001389818
294.82499999985276,0.0003165415,294.82499999985276,0.0025382,294.82499999985276,0.004658922,294.82499999985276,0.001426868
294.83999999985275,0.0003771116,294.83999999985275,0.002817198,294.83999999985275,0.004736594,294.83999999985275,0.001621937
294.85499999985274,0.0003947628,294.85499999985274,0.002957442,294.85499999985274,0.00486868,294.85499999985274,0.001934732
294.8699999998527,0.0004507604,294.8699999998527,0.003019967,294.8699999998527,0.004968969,294.8699999998527,0.001962761
294.8849999998527,0.0004652994,294.8849999998527,0.003041237,294.8849999998527,0.00514159,294.8849999998527,0.001967646
294.8999999998527,0.0004702545,294.8999999998527,0.00327883,294.8999999998527,0.005139887,294.8999999998527,0.001968079
294.9149999998527,0.0004551866,294.9149999998527,0.003609614,294.9149999998527,0.005166721,294.9149999998527,0.002002352
294.92999999985267,0.0004233329,294.92999999985267,0.003769627,294.92999999985267,0.005131921,294.92999999985267,0.002020155
294.94499999985266,0.0004213973,294.94499999985266,0.003928252,294.94499999985266,0.005131921,294.94499999985266,0.002039042
294.95999999985264,0.0004135737,294.95999999985264,0.004193977,294.95999999985264,0.005236256,294.95999999985264,0.002100578
294.9749999998526,0.0004084297,294.9749999998526,0.004437478,294.9749999998526,0.005171775,294.9749999998526,0.002128775
294.9899999998526,0.0004095305,294.9899999998526,0.004532055,294.9899999998526,0.004977833,294.9899999998526,0.002117467
295.0049999998526,0.0004101757,295.0049999998526,0.004700082,295.0049999998526,0.005078254,295.0049999998526,0.002115505
295.0199999998526,0.0004085932,295.0199999998526,0.004819368,295.0199999998526,0.005129069,295.0199999998526,0.002033992
295.0349999998526,0.0004073775,295.0349999998526,0.004558135,295.0349999998526,0.00522028,295.0349999998526,0.00196893
295.04999999985256,0.0004025505,295.04999999985256,0.004351475,295.04999999985256,0.005206339,295.04999999985256,0.001827999
295.06499999985255,0.0003864911,295.06499999985255,0.004252551,295.06499999985255,0.00499933,295.06499999985255,0.001698579
295.07999999985253,0.0003452392,295.07999999985253,0.00412787,295.07999999985253,0.004931538,295.07999999985253,0.001683032
295.0949999998525,0.0003043459,295.0949999998525,0.004009988,295.0949999998525,0.004870597,295.0949999998525,0.001422356
295.1099999998525,0.0003342919,295.1099999998525,0.003986427,295.1099999998525,0.004851868,295.1099999998525,0.00114848
295.1249999998525,0.000297579,295.1249999998525,0.004117289,295.1249999998525,0.004835963,295.1249999998525,0.001154437
295.1399999998525,0.0003086124,295.1399999998525,0.004238718,295.1399999998525,0.004829976,295.1399999998525,0.001203139
295.15499999985246,0.0002980297,295.15499999985246,0.004303009,295.15499999985246,0.004735432,295.15499999985246,0.001214829
295.16999999985245,0.0002968364,295.16999999985245,0.004251116,295.16999999985245,0.004816052,295.16999999985245,0.001215192
295.18499999985244,0.0003065867,295.18499999985244,0.004273343,295.18499999985244,0.004855969,295.18499999985244,0.001189756
295.1999999998524,0.0003224432,295.1999999998524,0.004241222,295.1999999998524,0.004855969,295.1999999998524,0.001189503
295.2149999998524,0.0003235078,295.2149999998524,0.004241225,295.2149999998524,0.004841915,295.2149999998524,0.001040839
295.2299999998524,0.0003276535,295.2299999998524,0.004244895,295.2299999998524,0.004837551,295.2299999998524,0.001005701
295.2449999998524,0.0003373101,295.2449999998524,0.00440483,295.2449999998524,0.004861906,295.2449999998524,0.001011097
295.25999999985237,0.0003383772,295.25999999985237,0.004347306,295.25999999985237,0.00486127,295.25999999985237,0.0009846058
295.27499999985235,0.000339387,295.27499999985235,0.004195578,295.27499999985235,0.004861151,295.27499999985235,0.0009473315
295.28999999985234,0.0003394633,295.28999999985234,0.004246878,295.28999999985234,0.004856732,295.28999999985234,0.0009350408
295.3049999998523,0.000339749,295.3049999998523,0.004354441,295.3049999998523,0.004838171,295.3049999998523,0.0009231006
295.3199999998523,0.000339725,295.3199999998523,0.004453322,295.3199999998523,0.0049578,295.3199999998523,0.0009146801
295.3349999998523,0.0003390866,295.3349999998523,0.004500731,295.3349999998523,0.005086559,295.3349999998523,0.0009123078
295.3499999998523,0.0003279329,295.3499999998523,0.004502121,295.3499999998523,0.005048392,295.3499999998523,0.0008818401
295.3649999998523,0.000241102,295.3649999998523,0.0043818,295.3649999998523,0.005042849,295.3649999998523,0.0008062408
295.37999999985226,0.0002155844,295.37999999985226,0.004173477,295.37999999985226,0.004949049,295.37999999985226,0.0007841465
295.39499999985225,0.0001897924,295.39499999985225,0.004208975,295.39499999985225,0.004781222,295.39499999985225,0.0007315084
295.40999999985223,0.0001864031,295.40999999985223,0.004184781,295.40999999985223,0.004882056,295.40999999985223,0.0006964538
295.4249999998522,0.0001811932,295.4249999998522,0.004025935,295.4249999998522,0.004980327,295.4249999998522,0.000524516
295.4399999998522,0.0001512357,295.4399999998522,0.00385808,295.4399999998522,0.00499046,295.4399999998522,0.0004181524
295.4549999998522,0.0001225301,295.4549999998522,0.003667893,295.4549999998522,0.004899092,295.4549999998522,0.0004048749
295.4699999998522,0.0001134666,295.4699999998522,0.003382692,295.4699999998522,0.004769344,295.4699999998522,0.0004036912
295.48499999985216,8.777311e-05,295.48499999985216,0.003031991,295.48499999985216,0.004634345,295.48499999985216,0.0003680224
295.49999999985215,5.485975e-05,295.49999999985215,0.002587202,295.49999999985215,0.004509135,295.49999999985215,0.0003712447
295.51499999985214,6.775062e-05,295.51499999985214,0.002271134,295.51499999985214,0.004463108,295.51499999985214,0.0003430825
295.5299999998521,0.0001148927,295.5299999998521,0.002276499,295.5299999998521,0.004428376,295.5299999998521,0.0003559632
295.5449999998521,0.0001618089,295.5449999998521,0.002249005,295.5449999998521,0.004469294,295.5449999998521,0.0003806302
295.5599999998521,0.0001643575,295.5599999998521,0.00216699,295.5599999998521,0.004614763,295.5599999998521,0.0003720743
295.5749999998521,0.0001749715,295.5749999998521,0.002074478,295.5749999998521,0.004579238,295.5749999998521,0.0003588843
295.58999999985207,0.0001828094,295.58999999985207,0.002001741,295.58999999985207,0.004552396,295.58999999985207,0.0003711116
295.60499999985205,0.0001836237,295.60499999985205,0.001952738,295.60499999985205,0.004503937,295.60499999985205,0.0003815324
295.61999999985204,0.0001863338,295.61999999985204,0.002023336,295.61999999985204,0.004555978,295.61999999985204,0.0005822356
295.634999999852,0.0001883716,295.634999999852,0.002237595,295.634999999852,0.004586144,295.634999999852,0.0007413833
295.649999999852,0.0001911591,295.649999999852,0.002234541,295.649999999852,0.004609036,295.649999999852,0.0009287531
295.664999999852,0.0001954658,295.664999999852,0.002372669,295.664999999852,0.004462228,295.664999999852,0.0009526502
295.679999999852,0.0001961303,295.679999999852,0.0027309,295.679999999852,0.004295923,295.679999999852,0.0009805476
295.694999999852,0.0001964802,295.694999999852,0.003013971,295.694999999852,0.004090939,295.694999999852,0.0009897669
295.70999999985196,0.0002009898,295.70999999985196,0.003171534,295.70999999985196,0.004102715,295.70999999985196,0.00100228
295.72499999985195,0.0002035404,295.72499999985195,0.003244824,295.72499999985195,0.004177312,295.72499999985195,0.001041433
295.73999999985193,0.0002036068,295.73999999985193,0.003276057,295.73999999985193,0.004193283,295.73999999985193,0.001055458
295.7549999998519,0.0002001126,295.7549999998519,0.003285111,295.7549999998519,0.004154815,295.7549999998519,0.001054976
295.7699999998519,0.0001948831,295.7699999998519,0.00326828,295.7699999998519,0.004069988,295.7699999998519,0.001062677
295.7849999998519,0.0001560222,295.7849999998519,0.00335183,295.7849999998519,0.00392661,295.7849999998519,0.001086506
295.7999999998519,0.0001305761,295.7999999998519,0.003712024,295.7999999998519,0.003838597,295.7999999998519,0.001102233
295.81499999985186,0.0001277815,295.81499999985186,0.004010682,295.81499999985186,0.003838597,295.81499999985186,0.00110305
295.82999999985185,0.0001125675,295.82999999985185,0.004261712,295.82999999985185,0.003887788,295.82999999985185,0.001101899
295.84499999985184,0.0001027442,295.84499999985184,0.004454064,295.84499999985184,0.003817932,295.84499999985184,0.001099485
295.8599999998518,0.0001064979,295.8599999998518,0.004636751,295.8599999998518,0.003654106,295.8599999998518,0.001100066
295.8749999998518,0.0001048644,295.8749999998518,0.004675168,295.8749999998518,0.003487918,295.8749999998518,0.0009659249
295.8899999998518,9.814345e-05,295.8899999998518,0.004522528,295.8899999998518,0.003381359,295.8899999998518,0.0007682149
295.9049999998518,9.409324e-05,295.9049999998518,0.004377879,295.9049999998518,0.003405949,295.9049999998518,0.000685524
295.91999999985177,8.824194e-05,295.91999999985177,0.004561208,295.91999999985177,0.003572955,295.91999999985177,0.000637184
295.93499999985175,9.62536e-05,295.93499999985175,0.00468539,295.93499999985175,0.003716293,295.93499999985175,0.0006005221
295.94999999985174,9.831769e-05,295.94999999985174,0.004700359,295.94999999985174,0.003892793,295.94999999985174,0.0005821273
295.9649999998517,8.625899e-05,295.9649999998517,0.004772253,295.9649999998517,0.003714803,295.9649999998517,0.000538865
295.9799999998517,8.330718e-05,295.9799999998517,0.004882145,295.9799999998517,0.003942706,295.9799999998517,0.0004675456
295.9949999998517,8.286807e-05,295.9949999998517,0.00500008,295.9949999998517,0.004197964,295.9949999998517,0.0004218241
296.0099999998517,9.454785e-05,296.0099999998517,0.005131874,296.0099999998517,0.004380722,296.0099999998517,0.0004182955
296.0249999998517,0.0001063821,296.0249999998517,0.005233708,296.0249999998517,0.004523826,296.0249999998517,0.0003837519
296.03999999985166,0.0001015385,296.03999999985166,0.005273929,296.03999999985166,0.004541359,296.03999999985166,0.0002539744
296.05499999985165,0.0001090263,296.05499999985165,0.00516963,296.05499999985165,0.004550368,296.05499999985165,0.0002001075
296.06999999985163,0.0001120657,296.06999999985163,0.005085737,296.06999999985163,0.004550368,296.06999999985163,0.0002017349
296.0849999998516,0.0001120455,296.0849999998516,0.005015719,296.0849999998516,0.004556663,296.0849999998516,0.00019932
296.0999999998516,0.0001114772,296.0999999998516,0.004999013,296.0999999998516,0.004634331,296.0999999998516,0.0001769317
296.1149999998516,0.000104667,296.1149999998516,0.004999013,296.1149999998516,0.004711296,296.1149999998516,0.0001445317
296.1299999998516,0.0001025851,296.1299999998516,0.004999013,296.1299999998516,0.004679393,296.1299999998516,0.0001459037
296.14499999985156,0.0001030154,296.14499999985156,0.005001619,296.14499999985156,0.004771274,296.14499999985156,0.0001593041
296.15999999985155,0.0001069725,296.15999999985155,0.005035017,296.15999999985155,0.004796037,296.15999999985155,0.0001605182
296.17499999985154,0.000104107,296.17499999985154,0.004947282,296.17499999985154,0.00488448,296.17499999985154,0.000157386
296.1899999998515,9.761469e-05,296.1899999998515,0.004754392,296.1899999998515,0.004747659,296.1899999998515,0.000159488
296.2049999998515,9.399438e-05,296.2049999998515,0.004608376,296.2049999998515,0.004523204,296.2049999998515,0.0001583576
296.2199999998515,9.355017e-05,296.2199999998515,0.004571475,296.2199999998515,0.004387788,296.2199999998515,0.0001517349
296.2349999998515,9.430484e-05,296.2349999998515,0.004634974,296.2349999998515,0.004242971,296.2349999998515,0.0001462908
296.24999999985147,9.422623e-05,296.24999999985147,0.004662455,296.24999999985147,0.004210395,296.24999999985147,0.0001472771
296.26499999985145,0.000115369,296.26499999985145,0.00466245,296.26499999985145,0.004220629,296.26499999985145,0.0001770629
296.27999999985144,0.0001460062,296.27999999985144,0.004660659,296.27999999985144,0.004259646,296.27999999985144,0.0002018967
296.2949999998514,0.0001483675,296.2949999998514,0.004628735,296.2949999998514,0.004381174,296.2949999998514,0.0002061839
296.3099999998514,0.0001494316,296.3099999998514,0.004631309,296.3099999998514,0.004375477,296.3099999998514,0.0002055144
296.3249999998514,0.0001690732,296.3249999998514,0.004587707,296.3249999998514,0.004255266,296.3249999998514,0.000208395
296.3399999998514,0.0001956415,296.3399999998514,0.004534516,296.3399999998514,0.004248419,296.3399999998514,0.0002371309
296.3549999998514,0.0002016455,296.3549999998514,0.004659068,296.3549999998514,0.004153425,296.3549999998514,0.0002441625
296.36999999985136,0.0002118914,296.36999999985136,0.004616873,296.36999999985136,0.00409388,296.36999999985136,0.0002451406
296.38499999985135,0.0002133423,296.38499999985135,0.004616873,296.38499999985135,0.004210002,296.38499999985135,0.0002452312
296.39999999985133,0.0002147427,296.39999999985133,0.004616873,296.39999999985133,0.004249913,296.39999999985133,0.0002621025
296.4149999998513,0.0002171372,296.4149999998513,0.004648004,296.4149999998513,0.004350409,296.4149999998513,0.0003446502
296.4299999998513,0.0002194257,296.4299999998513,0.004733969,296.4299999998513,0.004370274,296.4299999998513,0.0003816085
296.4449999998513,0.000242759,296.4449999998513,0.004797536,296.4449999998513,0.004526727,296.4449999998513,0.000784199
296.4599999998513,0.0002471211,296.4599999998513,0.004835399,296.4599999998513,0.004702018,296.4599999998513,0.0008117228
296.47499999985126,0.0002549584,296.47499999985126,0.004727495,296.47499999985126,0.004857018,296.47499999985126,0.0008532062
296.48999999985125,0.000264047,296.48999999985125,0.004491898,296.48999999985125,0.005017561,296.48999999985125,0.0008714343
296.50499999985124,0.0002632002,296.50499999985124,0.004204946,296.50499999985124,0.005013592,296.50499999985124,0.000881378
296.5199999998512,0.0002409154,296.5199999998512,0.004204894,296.5199999998512,0.005051067,296.5199999998512,0.0008756088
296.5349999998512,0.0002321377,296.5349999998512,0.00422113,296.5349999998512,0.005033361,296.5349999998512,0.0009156996
296.5499999998512,0.0002378119,296.5499999998512,0.004415489,296.5499999998512,0.004959502,296.5499999998512,0.0009384537
296.5649999998512,0.0002357211,296.5649999998512,0.004674573,296.5649999998512,0.004844471,296.5649999998512,0.0009481601
296.57999999985117,0.0002248958,296.57999999985117,0.004775483,296.57999999985117,0.004795058,296.57999999985117,0.0009628228
296.59499999985115,0.0002069222,296.59499999985115,0.004732533,296.59499999985115,0.004587246,296.59499999985115,0.000959432
296.60999999985114,0.0002016478,296.60999999985114,0.004623452,296.60999999985114,0.004583434,296.60999999985114,0.0009602099
296.6249999998511,0.0001965926,296.6249999998511,0.004602054,296.6249999998511,0.004402346,296.6249999998511,0.0009650264
296.6399999998511,0.0001937955,296.6399999998511,0.004602054,296.6399999998511,0.004094732,296.6399999998511,0.0009638589
296.6549999998511,0.0001916874,296.6549999998511,0.004602054,296.6549999998511,0.004268286,296.6549999998511,0.0009502751
296.6699999998511,0.0001857958,296.6699999998511,0.004602054,296.6699999998511,0.004380142,296.6699999998511,0.0009160706
296.6849999998511,0.0001801274,296.6849999998511,0.004616811,296.6849999998511,0.004442873,296.6849999998511,0.0008590043
296.69999999985106,0.0001503131,296.69999999985106,0.004637835,296.69999999985106,0.004442888,296.69999999985106,0.0005675172
296.71499999985105,0.0001462022,296.71499999985105,0.004735393,296.71499999985105,0.004387153,296.71499999985105,0.0005390961
296.72999999985103,0.0001260685,296.72999999985103,0.004824091,296.72999999985103,0.004257427,296.72999999985103,0.0005025022
296.744999999851,0.0001138444,296.744999999851,0.004885737,296.744999999851,0.004112347,296.744999999851,0.0004744628
296.759999999851,0.0001138877,296.759999999851,0.004912812,296.759999999851,0.004106121,296.759999999851,0.000454223
296.774999999851,0.0001145095,296.774999999851,0.004879224,296.774999999851,0.004106121,296.774999999851,0.0004422361
296.789999999851,8.519419e-05,296.789999999851,0.004998707,296.789999999851,0.004153529,296.789999999851,0.0003063981
296.80499999985096,6.34157e-05,296.80499999985096,0.005030455,296.80499999985096,0.004216891,296.80499999985096,0.0002782594
296.81999999985095,6.316776e-05,296.81999999985095,0.004944208,296.81999999985095,0.004272851,296.81999999985095,0.0002374929
296.83499999985094,5.891604e-05,296.83499999985094,0.004957382,296.83499999985094,0.004399238,296.83499999985094,0.0001933145
296.8499999998509,5.237138e-05,296.8499999998509,0.004985074,296.8499999998509,0.004600502,296.8499999998509,0.0001782758
296.8649999998509,5.16425e-05,296.8649999998509,0.004993175,296.8649999998509,0.00471984,296.8649999998509,0.0001675613
296.8799999998509,5.471396e-05,296.8799999998509,0.005004217,296.8799999998509,0.00471574,296.8799999998509,0.0001387303
296.8949999998509,5.491262e-05,296.8949999998509,0.004949317,296.8949999998509,0.004762597,296.8949999998509,0.0001383114
296.90999999985087,5.317034e-05,296.90999999985087,0.004985997,296.90999999985087,0.004677094,296.90999999985087,0.0001366615
296.92499999985085,5.093111e-05,296.92499999985085,0.0048613,296.92499999985085,0.004467728,296.92499999985085,0.0001405743
296.93999999985084,5.206601e-05,296.93999999985084,0.004860939,296.93999999985084,0.004206637,296.93999999985084,0.0001383314
296.9549999998508,5.025228e-05,296.9549999998508,0.004769853,296.9549999998508,0.003897358,296.9549999998508,0.0001340687
296.9699999998508,5.099441e-05,296.9699999998508,0.004587315,296.9699999998508,0.003740155,296.9699999998508,0.0001364526
296.9849999998508,5.136735e-05,296.9849999998508,0.004413056,296.9849999998508,0.003906898,296.9849999998508,0.0001202485
296.9999999998508,5.094522e-05,296.9999999998508,0.004336717,296.9999999998508,0.004128153,296.9999999998508,0.000102085
297.0149999998508,5.156442e-05,297.0149999998508,0.00411656,297.0149999998508,0.004059942,297.0149999998508,9.821777e-05
297.02999999985076,5.618037e-05,297.02999999985076,0.004119049,297.02999999985076,0.004059942,297.02999999985076,0.0001001447
297.04499999985075,5.612945e-05,297.04499999985075,0.004150652,297.04499999985075,0.004065839,297.04499999985075,0.0001076776
297.05999999985073,5.74302e-05,297.05999999985073,0.004151362,297.05999999985073,0.004090156,297.05999999985073,0.0001198794
297.0749999998507,5.770231e-05,297.0749999998507,0.004224263,297.0749999998507,0.004061992,297.0749999998507,0.0001398452
297.0899999998507,5.636961e-05,297.0899999998507,0.004140295,297.0899999998507,0.003916251,297.0899999998507,0.0001414052
297.1049999998507,5.709021e-05,297.1049999998507,0.004307938,297.1049999998507,0.003696296,297.1049999998507,0.0001429145
297.1199999998507,5.60629e-05,297.1199999998507,0.004338694,297.1199999998507,0.003446673,297.1199999998507,0.0001495028
297.13499999985066,5.469774e-05,297.13499999985066,0.004282044,297.13499999985066,0.003445595,297.13499999985066,0.0001494721
297.14999999985065,5.434791e-05,297.14999999985065,0.004266541,297.14999999985065,0.003343366,297.14999999985065,0.0001534605
297.16499999985064,5.260809e-05,297.16499999985064,0.004167832,297.16499999985064,0.003273543,297.16499999985064,0.0001874681
297.1799999998506,4.988173e-05,297.1799999998506,0.00412509,297.1799999998506,0.003270622,297.1799999998506,0.0002070077
297.1949999998506,4.660167e-05,297.1949999998506,0.00404765,297.1949999998506,0.003274518,297.1949999998506,0.0002221505
297.2099999998506,4.581178e-05,297.2099999998506,0.004124802,297.2099999998506,0.00328696,297.2099999998506,0.0003323585
297.2249999998506,4.499205e-05,297.2249999998506,0.004155195,297.2249999998506,0.003289523,297.2249999998506,0.000337711
297.23999999985057,4.454872e-05,297.23999999985057,0.004082868,297.23999999985057,0.003059821,297.23999999985057,0.0003541728
297.25499999985055,4.445027e-05,297.25499999985055,0.003998986,297.25499999985055,0.002769816,297.25499999985055,0.0003765845
297.26999999985054,3.987435e-05,297.26999999985054,0.003985629,297.26999999985054,0.00256121,297.26999999985054,0.0003771078
297.2849999998505,3.35039e-05,297.2849999998505,0.003848637,297.2849999998505,0.002184408,297.2849999998505,0.0003774352
297.2999999998505,3.619205e-05,297.2999999998505,0.003625042,297.2999999998505,0.001701832,297.2999999998505,0.0003818993
297.3149999998505,3.900247e-05,297.3149999998505,0.003396455,297.3149999998505,0.001315993,297.3149999998505,0.0003787974
297.3299999998505,4.107473e-05,297.3299999998505,0.003162099,297.3299999998505,0.001415448,297.3299999998505,0.0003746731
297.3449999998505,4.495823e-05,297.3449999998505,0.002879747,297.3449999998505,0.001365609,297.3449999998505,0.0003795617
297.35999999985046,4.999935e-05,297.35999999985046,0.00247921,297.35999999985046,0.001474866,297.35999999985046,0.0003987588
297.37499999985044,5.040901e-05,297.37499999985044,0.001939387,297.37499999985044,0.001520126,297.37499999985044,0.0003978077
297.38999999985043,5.237972e-05,297.38999999985043,0.00124785,297.38999999985043,0.001479269,297.38999999985043,0.0004049776
297.4049999998504,5.204057e-05,297.4049999998504,0.001109174,297.4049999998504,0.001462704,297.4049999998504,0.000418241
297.4199999998504,5.694296e-05,297.4199999998504,0.001128424,297.4199999998504,0.001467075,297.4199999998504,0.0003981916
297.4349999998504,6.047256e-05,297.4349999998504,0.001046873,297.4349999998504,0.001466193,297.4349999998504,0.0004015062
297.4499999998504,6.54696e-05,297.4499999998504,0.0008912377,297.4499999998504,0.001465717,297.4499999998504,0.0003959776
297.46499999985036,6.919217e-05,297.46499999985036,0.0007189082,297.46499999985036,0.001449681,297.46499999985036,0.000345208
297.47999999985035,6.957994e-05,297.47999999985035,0.0006805952,297.47999999985035,0.001484197,297.47999999985035,0.0003731221
297.49499999985034,7.149865e-05,297.49499999985034,0.001523957,297.49499999985034,0.001486253,297.49499999985034,0.0004362095
297.5099999998503,7.234146e-05,297.5099999998503,0.001971872,297.5099999998503,0.001481464,297.5099999998503,0.0004431183
297.5249999998503,7.890164e-05,297.5249999998503,0.002325066,297.5249999998503,0.001563005,297.5249999998503,0.0005866967
297.5399999998503,8.424778e-05,297.5399999998503,0.002689395,297.5399999998503,0.001620106,297.5399999998503,0.0006974583
297.5549999998503,8.954407e-05,297.5549999998503,0.002987981,297.5549999998503,0.00166174,297.5549999998503,0.0006947159
297.56999999985027,8.572529e-05,297.56999999985027,0.003207921,297.56999999985027,0.001596291,297.56999999985027,0.0007009321
297.58499999985025,8.599518e-05,297.58499999985025,0.003319067,297.58499999985025,0.001561036,297.58499999985025,0.0007526759
297.59999999985024,8.565592e-05,297.59999999985024,0.003370811,297.59999999985024,0.00153751,297.59999999985024,0.0007790045
297.6149999998502,8.463547e-05,297.6149999998502,0.003390214,297.6149999998502,0.001751637,297.6149999998502,0.0007760176
297.6299999998502,0.0001113875,297.6299999998502,0.003629402,297.6299999998502,0.002149336,297.6299999998502,0.0007812538
297.6449999998502,0.0001998483,297.6449999998502,0.003758081,297.6449999998502,0.002505832,297.6449999998502,0.0007940209
297.6599999998502,0.0002021511,297.6599999998502,0.004066078,297.6599999998502,0.0027676,297.6599999998502,0.000797077
297.6749999998502,0.0002131535,297.6749999998502,0.004325562,297.6749999998502,0.002909281,297.6749999998502,0.0007988386
297.68999999985016,0.0002268291,297.68999999985016,0.00454525,297.68999999985016,0.002978529,297.68999999985016,0.0007926095
297.70499999985014,0.0002282334,297.70499999985014,0.004726614,297.70499999985014,0.003347542,297.70499999985014,0.000777757
297.71999999985013,0.0002300688,297.71999999985013,0.004773786,297.71999999985013,0.003643444,297.71999999985013,0.000777981
297.7349999998501,0.0002409433,297.7349999998501,0.004737149,297.7349999998501,0.003885307,297.7349999998501,0.0007763624
297.7499999998501,0.0002464741,297.7499999998501,0.004627675,297.7499999998501,0.003990559,297.7499999998501,0.0007363685
297.7649999998501,0.0002566713,297.7649999998501,0.004476564,297.7649999998501,0.004183302,297.7649999998501,0.0007341604
297.7799999998501,0.0002688024,297.7799999998501,0.004502172,297.7799999998501,0.004332237,297.7799999998501,0.0005963485
297.79499999985006,0.0002673464,297.79499999985006,0.004502172,297.79499999985006,0.004478905,297.79499999985006,0.0005343727
297.80999999985005,0.0002678414,297.80999999985005,0.004423155,297.80999999985005,0.004516578,297.80999999985005,0.0005430978
297.82499999985004,0.0002704297,297.82499999985004,0.004280248,297.82499999985004,0.004524954,297.82499999985004,0.0005293117
297.83999999985,0.0002720762,297.83999999985,0.004174313,297.83999999985,0.004748796,297.83999999985,0.000460589
297.85499999985,0.0002726248,297.85499999985,0.004098891,297.85499999985,0.004790064,297.85499999985,0.0004301641
297.86999999985,0.0002732986,297.86999999985,0.004038726,297.86999999985,0.004661673,297.86999999985,0.0004279042
297.88499999985,0.0002619385,297.88499999985,0.004034807,297.88499999985,0.004452999,297.88499999985,0.0004182518
297.89999999984997,0.0002051585,297.89999999984997,0.004019275,297.89999999984997,0.004274273,297.89999999984997,0.0003823444
297.91499999984995,0.000202418,297.91499999984995,0.004036323,297.91499999984995,0.004073652,297.91499999984995,0.0003729328
297.92999999984994,0.0001730056,297.92999999984994,0.004091454,297.92999999984994,0.003934341,297.92999999984994,0.0003923881
297.9449999998499,0.0001711127,297.9449999998499,0.004039826,297.9449999998499,0.003825782,297.9449999998499,0.0004187228
297.9599999998499,0.0001676747,297.9599999998499,0.003914953,297.9599999998499,0.003585916,297.9599999998499,0.0004223678
297.9749999998499,0.0001649724,297.9749999998499,0.003942991,297.9749999998499,0.003287473,297.9749999998499,0.0004053065
297.9899999998499,0.0001405311,297.9899999998499,0.003968492,297.9899999998499,0.002925183,297.9899999998499,0.0003691211
298.0049999998499,0.0001348621,298.0049999998499,0.003941797,298.0049999998499,0.002845598,298.0049999998499,0.0003737236
298.01999999984986,9.997744e-05,298.01999999984986,0.004024504,298.01999999984986,0.002613592,298.01999999984986,0.0003398225
298.03499999984984,7.526854e-05,298.03499999984984,0.004170363,298.03499999984984,0.002280758,298.03499999984984,0.0003241039
298.04999999984983,7.464481e-05,298.04999999984983,0.004305874,298.04999999984983,0.001833712,298.04999999984983,0.0003026004
298.0649999998498,6.981479e-05,298.0649999998498,0.00446945,298.0649999998498,0.001666122,298.0649999998498,0.0002807783
298.0799999998498,5.508704e-05,298.0799999998498,0.004641896,298.0799999998498,0.001505736,298.0799999998498,0.0002811586
298.0949999998498,4.153819e-05,298.0949999998498,0.0046845,298.0949999998498,0.000967541,298.0949999998498,0.0002785058
298.1099999998498,3.827956e-05,298.1099999998498,0.004723833,298.1099999998498,0.00091743,298.1099999998498,0.0002833937
298.12499999984976,2.860389e-05,298.12499999984976,0.004766159,298.12499999984976,0.0009092955,298.12499999984976,0.0002729705
298.13999999984975,2.806146e-05,298.13999999984975,0.004669585,298.13999999984975,0.0009492686,298.13999999984975,0.0002720305
298.15499999984974,2.981108e-05,298.15499999984974,0.004542298,298.15499999984974,0.001071415,298.15499999984974,0.0002672729
298.1699999998497,3.097489e-05,298.1699999998497,0.004532089,298.1699999998497,0.001133951,298.1699999998497,0.0002656123
298.1849999998497,3.063053e-05,298.1849999998497,0.004532089,298.1849999998497,0.001120018,298.1849999998497,0.0002264284
298.1999999998497,2.970742e-05,298.1999999998497,0.004532089,298.1999999998497,0.001053339,298.1999999998497,0.0001948812
298.2149999998497,2.991533e-05,298.2149999998497,0.004539262,298.2149999998497,0.001043818,298.2149999998497,0.0001963302
298.22999999984967,2.939519e-05,298.22999999984967,0.00460005,298.22999999984967,0.001046226,298.22999999984967,0.0001959633
298.24499999984965,2.796542e-05,298.24499999984965,0.004646471,298.24499999984965,0.001038481,298.24499999984965,0.0001911747
298.25999999984964,2.737487e-05,298.25999999984964,0.004642317,298.25999999984964,0.00104897,298.25999999984964,0.0001822093
298.2749999998496,3.38236e-05,298.2749999998496,0.00447941,298.2749999998496,0.001623702,298.2749999998496,0.0001767255
298.2899999998496,3.56651e-05,298.2899999998496,0.004295567,298.2899999998496,0.00202168,298.2899999998496,0.0001766431
298.3049999998496,4.840203e-05,298.3049999998496,0.004091294,298.3049999998496,0.002150265,298.3049999998496,0.0001844552
298.3199999998496,5.557686e-05,298.3199999998496,0.003887975,298.3199999998496,0.002485808,298.3199999998496,0.0001924298
298.3349999998496,7.916526e-05,298.3349999998496,0.00363252,298.3349999998496,0.002858994,298.3349999998496,0.0001928783
298.34999999984956,8.65435e-05,298.34999999984956,0.003590239,298.34999999984956,0.003159007,298.34999999984956,0.0002140568
298.36499999984954,8.692403e-05,298.36499999984954,0.003485655,298.36499999984954,0.003333535,298.36499999984954,0.000217004
298.37999999984953,9.607225e-05,298.37999999984953,0.003582255,298.37999999984953,0.003608955,298.37999999984953,0.0002175553
298.3949999998495,0.0001111383,298.3949999998495,0.003796513,298.3949999998495,0.003814371,298.3949999998495,0.000211964
298.4099999998495,0.0001173787,298.4099999998495,0.004045263,298.4099999998495,0.003821524,298.4099999998495,0.0002056728
298.4249999998495,0.0001538982,298.4249999998495,0.004205488,298.4249999998495,0.003944024,298.4249999998495,0.000232066
298.4399999998495,0.0001618005,298.4399999998495,0.004252869,298.4399999998495,0.003983791,298.4399999998495,0.0002373253
298.45499999984946,0.0001662209,298.45499999984946,0.004115258,298.45499999984946,0.003996798,298.45499999984946,0.0002587499
298.46999999984945,0.0001857831,298.46999999984945,0.004109512,298.46999999984945,0.004179574,298.46999999984945,0.0003466751
298.48499999984944,0.0001907636,298.48499999984944,0.004140788,298.48499999984944,0.00435452,298.48499999984944,0.0003636682
298.4999999998494,0.0001931666,298.4999999998494,0.004245535,298.4999999998494,0.004379133,298.4999999998494,0.0004317792
298.5149999998494,0.0001977379,298.5149999998494,0.00440005,298.5149999998494,0.004299377,298.5149999998494,0.0004811042
298.5299999998494,0.000198113,298.5299999998494,0.004392301,298.5299999998494,0.004051665,298.5299999998494,0.0004880729
298.5449999998494,0.0001977117,298.5449999998494,0.004369223,298.5449999998494,0.003827914,298.5449999998494,0.0005070327
298.55999999984937,0.0001950142,298.55999999984937,0.004447669,298.55999999984937,0.003699928,298.55999999984937,0.0005421396
298.57499999984935,0.0001939361,298.57499999984935,0.004447959,298.57499999984935,0.003536472,298.57499999984935,0.0005583682
298.58999999984934,0.0001845748,298.58999999984934,0.004558924,298.58999999984934,0.003346861,298.58999999984934,0.0005609866
298.6049999998493,0.0001838063,298.6049999998493,0.00464146,298.6049999998493,0.003111377,298.6049999998493,0.0005573736
298.6199999998493,0.0001831891,298.6199999998493,0.004739073,298.6199999998493,0.002886224,298.6199999998493,0.000563258
298.6349999998493,0.0001765189,298.6349999998493,0.004798101,298.6349999998493,0.002509938,298.6349999998493,0.0005641698
298.6499999998493,0.0001672394,298.6499999998493,0.004766077,298.6499999998493,0.002136568,298.6499999998493,0.0005617143
298.6649999998493,0.0001569702,298.6649999998493,0.004607287,298.6649999998493,0.00209727,298.6649999998493,0.0005658245
298.67999999984926,0.0001272102,298.67999999984926,0.004417943,298.67999999984926,0.001918219,298.67999999984926,0.0005541287
298.69499999984924,0.00012114,298.69499999984924,0.004201999,298.69499999984924,0.00190605,298.69499999984924,0.0005526615
298.70999999984923,0.0001091809,298.70999999984923,0.004212527,298.70999999984923,0.001838356,298.70999999984923,0.0005341067
298.7249999998492,7.633949e-05,298.7249999998492,0.004310417,298.7249999998492,0.001392325,298.7249999998492,0.0004771959
298.7399999998492,7.117025e-05,298.7399999998492,0.004204843,298.7399999998492,0.0009589417,298.7399999998492,0.0004667256
298.7549999998492,6.20116e-05,298.7549999998492,0.004195295,298.7549999998492,0.0008941067,298.7549999998492,0.0003978727
298.7699999998492,4.986309e-05,298.7699999998492,0.004193919,298.7699999998492,0.0008994609,298.7699999998492,0.0003527601
298.78499999984916,4.548776e-05,298.78499999984916,0.004207333,298.78499999984916,0.0008878798,298.78499999984916,0.0003467663
298.79999999984915,4.454366e-05,298.79999999984915,0.004280653,298.79999999984915,0.0008792275,298.79999999984915,0.0003089226
298.81499999984914,3.693904e-05,298.81499999984914,0.004090526,298.81499999984914,0.000862101,298.81499999984914,0.000235253
298.8299999998491,3.288689e-05,298.8299999998491,0.004018441,298.8299999998491,0.0008401462,298.8299999998491,0.0002101937
298.8449999998491,3.190196e-05,298.8449999998491,0.004062605,298.8449999998491,0.0008286312,298.8449999998491,0.0001920802
298.8599999998491,3.119829e-05,298.8599999998491,0.004210805,298.8599999998491,0.0008285003,298.8599999998491,0.00017893
298.8749999998491,3.120326e-05,298.8749999998491,0.004246122,298.8749999998491,0.0008280074,298.8749999998491,0.0001572566
298.88999999984907,3.091344e-05,298.88999999984907,0.004246122,298.88999999984907,0.0008024206,298.88999999984907,0.0001494033
298.90499999984905,2.402297e-05,298.90499999984905,0.004254225,298.90499999984905,0.0005321886,298.90499999984905,0.0001359939
298.91999999984904,2.033818e-05,298.91999999984904,0.004371842,298.91999999984904,0.0005252903,298.91999999984904,0.0001059424
298.934999999849,1.821918e-05,298.934999999849,0.004451232,298.934999999849,0.0004549513,298.934999999849,0.000105698
298.949999999849,1.78852e-05,298.949999999849,0.004504627,298.949999999849,0.0003084527,298.949999999849,9.802898e-05
298.964999999849,1.763296e-05,298.964999999849,0.004517953,298.964999999849,0.0003026637,298.964999999849,9.375203e-05
298.979999999849,1.802954e-05,298.979999999849,0.004568254,298.979999999849,0.000305362,298.979999999849,8.268411e-05
298.994999999849,1.802798e-05,298.994999999849,0.00468889,298.994999999849,0.000298262,298.994999999849,7.143775e-05
299.00999999984896,1.71937e-05,299.00999999984896,0.004690991,299.00999999984896,0.0002608931,299.00999999984896,6.854808e-05
299.02499999984894,1.666955e-05,299.02499999984894,0.004791064,299.02499999984894,0.0002277745,299.02499999984894,6.467556e-05
299.03999999984893,1.655763e-05,299.03999999984893,0.00481208,299.03999999984893,0.0002293959,299.03999999984893,6.471344e-05
299.0549999998489,1.744502e-05,299.0549999998489,0.004745032,299.0549999998489,0.000212354,299.0549999998489,6.525839e-05
299.0699999998489,1.819984e-05,299.0699999998489,0.004669816,299.0699999998489,0.000188743,299.0699999998489,6.483241e-05
299.0849999998489,1.821686e-05,299.0849999998489,0.004667604,299.0849999998489,0.000189705,299.0849999998489,6.524523e-05
299.0999999998489,1.92676e-05,299.0999999998489,0.004701794,299.0999999998489,0.0002072548,299.0999999998489,6.582751e-05
299.11499999984886,2.022914e-05,299.11499999984886,0.004740614,299.11499999984886,0.0002485006,299.11499999984886,6.741816e-05
299.12999999984885,2.052639e-05,299.12999999984885,0.004781863,299.12999999984885,0.0002508835,299.12999999984885,7.012403e-05
299.14499999984884,2.135647e-05,299.14499999984884,0.004717132,299.14499999984884,0.0002603894,299.14499999984884,6.799283e-05
299.1599999998488,2.467041e-05,299.1599999998488,0.004551816,299.1599999998488,0.0003046016,299.1599999998488,6.368237e-05
299.1749999998488,2.513595e-05,299.1749999998488,0.004562569,299.1749999998488,0.0003347164,299.1749999998488,6.083279e-05
299.1899999998488,2.4769e-05,299.1899999998488,0.004629618,299.1899999998488,0.0003459427,299.1899999998488,6.323373e-05
299.2049999998488,2.402239e-05,299.2049999998488,0.004671024,299.2049999998488,0.0003413576,299.2049999998488,6.360866e-05
299.21999999984877,2.464413e-05,299.21999999984877,0.004545908,299.21999999984877,0.000336668,299.21999999984877,6.22818e-05
299.23499999984875,2.476843e-05,299.23499999984875,0.004396347,299.23499999984875,0.0003445232,299.23499999984875,6.151578e-05
299.24999999984874,2.471776e-05,299.24999999984874,0.004390677,299.24999999984874,0.0003530979,299.24999999984874,6.107776e-05
299.2649999998487,2.517123e-05,299.2649999998487,0.004329626,299.2649999998487,0.0003556782,299.2649999998487,6.006165e-05
299.2799999998487,2.513483e-05,299.2799999998487,0.004184002,299.2799999998487,0.000356331,299.2799999998487,5.907244e-05
299.2949999998487,2.530296e-05,299.2949999998487,0.004065762,299.2949999998487,0.0003612961,299.2949999998487,5.658711e-05
299.3099999998487,2.443345e-05,299.3099999998487,0.003867202,299.3099999998487,0.0003745537,299.3099999998487,5.419945e-05
299.32499999984867,2.417612e-05,299.32499999984867,0.00364784,299.32499999984867,0.0003755454,299.32499999984867,5.390757e-05
299.33999999984866,2.311754e-05,299.33999999984866,0.003400825,299.33999999984866,0.0003813315,299.33999999984866,5.687341e-05
299.35499999984864,2.307607e-05,299.35499999984864,0.003364517,299.35499999984864,0.0003737551,299.35499999984864,5.851803e-05
299.36999999984863,2.179198e-05,299.36999999984863,0.003260092,299.36999999984863,0.0003530459,299.36999999984863,5.855317e-05
299.3849999998486,2.188229e-05,299.3849999998486,0.003102849,299.3849999998486,0.0003788657,299.3849999998486,5.595677e-05
299.3999999998486,2.085995e-05,299.3999999998486,0.003091354,299.3999999998486,0.0003835315,299.3999999998486,5.608702e-05
299.4149999998486,1.625453e-05,299.4149999998486,0.003195871,299.4149999998486,0.0003548239,299.4149999998486,5.462558e-05
299.4299999998486,1.614235e-05,299.4299999998486,0.003073886,299.4299999998486,0.0003332284,299.4299999998486,5.206141e-05
299.44499999984856,1.632717e-05,299.44499999984856,0.002952875,299.44499999984856,0.0003281929,299.44499999984856,4.899128e-05
299.45999999984855,1.6678e-05,299.45999999984855,0.002896004,299.45999999984855,0.0003441107,299.45999999984855,5.161494e-05
299.47499999984854,1.742886e-05,299.47499999984854,0.003098981,299.47499999984854,0.0003536266,299.47499999984854,5.613371e-05
299.4899999998485,1.727054e-05,299.4899999998485,0.003218336,299.4899999998485,0.0003479779,299.4899999998485,5.711611e-05
299.5049999998485,1.774604e-05,299.5049999998485,0.003223624,299.5049999998485,0.0003628145,299.5049999998485,6.216633e-05
299.5199999998485,1.721989e-05,299.5199999998485,0.003346304,299.5199999998485,0.000380459,299.5199999998485,6.635928e-05
299.5349999998485,1.721907e-05,299.5349999998485,0.003453317,299.5349999998485,0.0003892459,299.5349999998485,7.04623e-05
299.54999999984847,1.725177e-05,299.54999999984847,0.003457258,299.54999999984847,0.0003804788,299.54999999984847,7.109164e-05
299.56499999984845,1.736976e-05,299.56499999984845,0.003513237,299.56499999984845,0.0003761796,299.56499999984845,7.053703e-05
299.57999999984844,1.734298e-05,299.57999999984844,0.003594415,299.57999999984844,0.0003747725,299.57999999984844,7.09653e-05
299.5949999998484,1.756332e-05,299.5949999998484,0.003765046,299.5949999998484,0.0003673959,299.5949999998484,6.968291e-05
299.6099999998484,2.004376e-05,299.6099999998484,0.003963463,299.6099999998484,0.0003776222,299.6099999998484,7.45978e-05
299.6249999998484,1.980905e-05,299.6249999998484,0.004081186,299.6249999998484,0.0003956262,299.6249999998484,8.602924e-05
299.6399999998484,2.03264e-05,299.6399999998484,0.004289665,299.6399999998484,0.0003685071,299.6399999998484,8.739725e-05
299.65499999984837,2.062429e-05,299.65499999984837,0.004387625,299.65499999984837,0.000358618,299.65499999984837,8.867064e-05
299.66999999984836,2.149191e-05,299.66999999984836,0.004450175,299.66999999984836,0.0003568784,299.66999999984836,8.993337e-05
299.68499999984834,2.222276e-05,299.68499999984834,0.004567776,299.68499999984834,0.0003544886,299.68499999984834,9.102816e-05
299.69999999984833,2.199914e-05,299.69999999984833,0.004667079,299.69999999984833,0.0003566922,299.69999999984833,9.101516e-05
299.7149999998483,2.153775e-05,299.7149999998483,0.004725914,299.7149999998483,0.0003648649,299.7149999998483,8.845767e-05
299.7299999998483,2.029588e-05,299.7299999998483,0.004571675,299.7299999998483,0.0003941474,299.7299999998483,8.681474e-05
299.7449999998483,2.094016e-05,299.7449999998483,0.004326365,299.7449999998483,0.0004096039,299.7449999998483,9.034157e-05
299.7599999998483,2.312058e-05,299.7599999998483,0.004224238,299.7599999998483,0.0004989851,299.7599999998483,8.749535e-05
299.77499999984826,2.385173e-05,299.77499999984826,0.004229137,299.77499999984826,0.000549731,299.77499999984826,9.137507e-05
299.78999999984825,2.660132e-05,299.78999999984825,0.004443693,299.78999999984825,0.0005460736,299.78999999984825,9.233234e-05
299.80499999984823,2.659974e-05,299.80499999984823,0.004691095,299.80499999984823,0.0005511352,299.80499999984823,9.193957e-05
299.8199999998482,2.668064e-05,299.8199999998482,0.004770521,299.8199999998482,0.0006031979,299.8199999998482,9.228015e-05
299.8349999998482,2.823961e-05,299.8349999998482,0.004700835,299.8349999998482,0.0006161692,299.8349999998482,9.443828e-05
299.8499999998482,3.040852e-05,299.8499999998482,0.00455495,299.8499999998482,0.0006284178,299.8499999998482,9.315195e-05
299.8649999998482,2.921348e-05,299.8649999998482,0.004383558,299.8649999998482,0.0006741455,299.8649999998482,8.902642e-05
299.87999999984817,2.927803e-05,299.87999999984817,0.004251502,299.87999999984817,0.0008566208,299.87999999984817,7.821324e-05
299.89499999984815,2.906362e-05,299.89499999984815,0.00413905,299.89499999984815,0.0008687738,299.89499999984815,7.80183e-05
299.90999999984814,3.143714e-05,299.90999999984814,0.004002139,299.90999999984814,0.0009490726,299.90999999984814,7.631937e-05
299.9249999998481,3.054395e-05,299.9249999998481,0.003840254,299.9249999998481,0.001152329,299.9249999998481,7.36049e-05
299.9399999998481,3.045296e-05,299.9399999998481,0.003658304,299.9399999998481,0.001212537,299.9399999998481,7.272077e-05
299.9549999998481,3.064111e-05,299.9549999998481,0.003520402,299.9549999998481,0.001361821,299.9549999998481,7.389829e-05
299.9699999998481,3.049733e-05,299.9699999998481,0.00342499,299.9699999998481,0.001372682,299.9699999998481,7.495948e-05
299.98499999984807,3.03069e-05,299.98499999984807,0.003357982,299.98499999984807,0.001577318,299.98499999984807,6.728473e-05
299.99999999984806,2.948658e-05,299.99999999984806,0.003310259,299.99999999984806,0.00195212,299.99999999984806,6.312493e-05
300.01499999984804,2.8687e-05,300.01499999984804,0.003029037,300.01499999984804,0.002013705,300.01499999984804,6.289981e-05
300.02999999984803,2.809858e-05,300.02999999984803,0.002668207,300.02999999984803,0.002022471,300.02999999984803,5.482687e-05
300.044999999848,2.619255e-05,300.044999999848,0.002196294,300.044999999848,0.002025001,300.044999999848,4.821745e-05
300.059999999848,2.622104e-05,300.059999999848,0.001514963,300.059999999848,0.002033459,300.059999999848,4.761241e-05
300.074999999848,2.487229e-05,300.074999999848,0.00117157,300.074999999848,0.002062586,300.074999999848,4.727482e-05
300.089999999848,2.455365e-05,300.089999999848,0.001191125,300.089999999848,0.002252353,300.089999999848,4.156159e-05
300.10499999984796,2.327906e-05,300.10499999984796,0.00110837,300.10499999984796,0.002564916,300.10499999984796,3.691424e-05
300.11999999984795,2.29383e-05,300.11999999984795,0.0009304225,300.11999999984795,0.002664253,300.11999999984795,3.683937e-05
300.13499999984793,2.313703e-05,300.13499999984793,0.0007331118,300.13499999984793,0.002691165,300.13499999984793,3.702969e-05
300.1499999998479,2.221325e-05,300.1499999998479,0.0005631797,300.1499999998479,0.002731039,300.1499999998479,4.525771e-05
300.1649999998479,2.070745e-05,300.1649999998479,0.0004326696,300.1649999998479,0.002688481,300.1649999998479,4.713367e-05
300.1799999998479,2.078757e-05,300.1799999998479,0.0003345881,300.1799999998479,0.002646229,300.1799999998479,4.769164e-05
300.1949999998479,2.121351e-05,300.1949999998479,0.0002616704,300.1949999998479,0.002591091,300.1949999998479,5.104163e-05
300.20999999984787,2.158479e-05,300.20999999984787,0.0002063009,300.20999999984787,0.002523075,300.20999999984787,5.014873e-05
300.22499999984785,2.188358e-05,300.22499999984785,0.0001637428,300.22499999984785,0.002512351,300.22499999984785,5.203462e-05
300.23999999984784,2.170583e-05,300.23999999984784,0.0001299987,300.23999999984784,0.002303002,300.23999999984784,5.202325e-05
300.2549999998478,2.16213e-05,300.2549999998478,0.0001034096,300.2549999998478,0.001992716,300.2549999998478,5.187628e-05
300.2699999998478,2.06666e-05,300.2699999998478,8.220861e-05,300.2699999998478,0.001938792,300.2699999998478,5.960728e-05
300.2849999998478,2.046729e-05,300.2849999998478,6.543753e-05,300.2849999998478,0.00193271,300.2849999998478,7.744729e-05
300.2999999998478,1.970639e-05,300.2999999998478,5.204734e-05,300.2999999998478,0.001896667,300.2999999998478,8.027898e-05
300.31499999984777,1.977418e-05,300.31499999984777,4.132467e-05,300.31499999984777,0.001901125,300.31499999984777,8.594865e-05
300.32999999984776,1.892458e-05,300.32999999984776,3.287404e-05,300.32999999984776,0.001855491,300.32999999984776,9.469375e-05
300.34499999984774,1.692367e-05,300.34499999984774,2.599063e-05,300.34499999984774,0.001586015,300.34499999984774,9.835536e-05
300.35999999984773,1.602411e-05,300.35999999984773,2.066728e-05,300.35999999984773,0.000883054,300.35999999984773,0.0001011495
300.3749999998477,1.619028e-05,300.3749999998477,1.673365e-05,300.3749999998477,0.0007866408,300.3749999998477,0.0001074191
300.3899999998477,1.557655e-05,300.3899999998477,1.358024e-05,300.3899999998477,0.0005226366,300.3899999998477,0.0001063337
300.4049999998477,1.639433e-05,300.4049999998477,1.109965e-05,300.4049999998477,0.0003711425,300.4049999998477,0.0001020452
300.4199999998477,1.691784e-05,300.4199999998477,9.847473e-06,300.4199999998477,0.0004141029,300.4199999998477,0.0001012902
300.43499999984766,1.706376e-05,300.43499999984766,1.044988e-05,300.43499999984766,0.0004062324,300.43499999984766,0.0001027213
300.44999999984765,1.6922e-05,300.44999999984765,1.278742e-05,300.44999999984765,0.0004810903,300.44999999984765,0.0001093745
300.46499999984763,1.652612e-05,300.46499999984763,1.339853e-05,300.46499999984763,0.0006498417,300.46499999984763,0.0001188823
300.4799999998476,1.671849e-05,300.4799999998476,0.001075797,300.4799999998476,0.0008224237,300.4799999998476,0.0001184369
300.4949999998476,1.966703e-05,300.4949999998476,0.001583097,300.4949999998476,0.0009384071,300.4949999998476,0.0001206499
300.5099999998476,2.121019e-05,300.5099999998476,0.002102806,300.5099999998476,0.001584226,300.5099999998476,0.0001221038
300.5249999998476,2.249305e-05,300.5249999998476,0.00243298,300.5249999998476,0.002037529,300.5249999998476,0.0001142978
300.53999999984757,2.595538e-05,300.53999999984757,0.002483639,300.53999999984757,0.00215079,300.53999999984757,0.0001019696
300.55499999984755,3.168441e-05,300.55499999984755,0.002604241,300.55499999984755,0.002478045,300.55499999984755,0.0001027237
300.56999999984754,3.22135e-05,300.56999999984754,0.00267521,300.56999999984754,0.002819119,300.56999999984754,9.83777e-05
300.5849999998475,3.274695e-05,300.5849999998475,0.002963345,300.5849999998475,0.00297649,300.5849999998475,9.10656e-05
300.5999999998475,3.544243e-05,300.5999999998475,0.003191768,300.5999999998475,0.003083728,300.5999999998475,9.046124e-05
300.6149999998475,3.978948e-05,300.6149999998475,0.003362658,300.6149999998475,0.003372521,300.6149999998475,8.614575e-05
300.6299999998475,4.6933e-05,300.6299999998475,0.003439629,300.6299999998475,0.003506623,300.6299999998475,8.391354e-05
300.64499999984747,4.768396e-05,300.64499999984747,0.003615614,300.64499999984747,0.00352982,300.64499999984747,8.738226e-05
300.65999999984746,5.392404e-05,300.65999999984746,0.003949755,300.65999999984746,0.003665948,300.65999999984746,9.071922e-05
300.67499999984744,5.929261e-05,300.67499999984744,0.004232801,300.67499999984744,0.003714496,300.67499999984744,0.0001126073
300.68999999984743,6.060729e-05,300.68999999984743,0.004474313,300.68999999984743,0.003840672,300.68999999984743,0.0001182555
300.7049999998474,8.389356e-05,300.7049999998474,0.004671288,300.7049999998474,0.003994116,300.7049999998474,0.0001153783
300.7199999998474,9.161417e-05,300.7199999998474,0.004782352,300.7199999998474,0.004130985,300.7199999998474,0.0001455774
300.7349999998474,9.787251e-05,300.7349999998474,0.004603858,300.7349999998474,0.004120144,300.7349999998474,0.0001632622
300.7499999998474,0.0001019641,300.7499999998474,0.004511289,300.7499999998474,0.004256673,300.7499999998474,0.0002085433
300.76499999984736,0.0001044736,300.76499999984736,0.004588185,300.76499999984736,0.004230809,300.76499999984736,0.000226394
300.77999999984735,0.0001241831,300.77999999984735,0.004669063,300.77999999984735,0.004054204,300.77999999984735,0.000244484
300.79499999984733,0.0001279491,300.79499999984733,0.004774091,300.79499999984733,0.004146449,300.79499999984733,0.0002454853
300.8099999998473,0.0001291877,300.8099999998473,0.004825155,300.8099999998473,0.004203008,300.8099999998473,0.0002477658
300.8249999998473,0.0001290245,300.8249999998473,0.004899846,300.8249999998473,0.004004171,300.8249999998473,0.0002593295
300.8399999998473,0.0001293604,300.8399999998473,0.004843814,300.8399999998473,0.003922576,300.8399999998473,0.0002629523
300.8549999998473,0.0001290804,300.8549999998473,0.004747294,300.8549999998473,0.003818423,300.8549999998473,0.0002695018
300.86999999984727,0.0001294001,300.86999999984727,0.004758296,300.86999999984727,0.003642745,300.86999999984727,0.0003130994
300.88499999984725,0.0001313796,300.88499999984725,0.004806862,300.88499999984725,0.003647985,300.88499999984725,0.0003292716
300.89999999984724,0.000131856,300.89999999984724,0.004843024,300.89999999984724,0.003609345,300.89999999984724,0.000352099
300.9149999998472,0.000129205,300.9149999998472,0.004843024,300.9149999998472,0.003466865,300.9149999998472,0.0003764122
300.9299999998472,0.0001279018,300.9299999998472,0.004835048,300.9299999998472,0.003447695,300.9299999998472,0.0003758861
300.9449999998472,0.0001224918,300.9449999998472,0.004852564,300.9449999998472,0.003246765,300.9449999998472,0.0003783353
300.9599999998472,0.0001113798,300.9599999998472,0.004838201,300.9599999998472,0.003064094,300.9599999998472,0.0003868211
300.97499999984717,0.0001059045,300.97499999984717,0.004815554,300.97499999984717,0.002844905,300.97499999984717,0.0003833503
300.98999999984716,0.000100676,300.98999999984716,0.004777216,300.98999999984716,0.002841841,300.98999999984716,0.000379031
301.00499999984714,9.552185e-05,301.00499999984714,0.004716938,301.00499999984714,0.002507217,301.00499999984714,0.0003522844
301.01999999984713,8.903433e-05,301.01999999984713,0.004888732,301.01999999984713,0.002102039,301.01999999984713,0.0003515422
301.0349999998471,6.535632e-05,301.0349999998471,0.005006365,301.0349999998471,0.002102557,301.0349999998471,0.0003477421
301.0499999998471,5.573555e-05,301.0499999998471,0.005122645,301.0499999998471,0.001935128,301.0499999998471,0.0003494771
301.0649999998471,5.50328e-05,301.0649999998471,0.005106153,301.0649999998471,0.001789381,301.0649999998471,0.0003495558
301.0799999998471,5.551929e-05,301.0799999998471,0.004982934,301.0799999998471,0.001848014,301.0799999998471,0.000347675
301.09499999984706,5.210901e-05,301.09499999984706,0.004828116,301.09499999984706,0.00182571,301.09499999984706,0.0003454126
301.10999999984705,5.111802e-05,301.10999999984705,0.004692555,301.10999999984705,0.001719737,301.10999999984705,0.0003500663
301.12499999984703,4.097825e-05,301.12499999984703,0.004612206,301.12499999984703,0.001642968,301.12499999984703,0.0003046612
301.139999999847,3.359124e-05,301.139999999847,0.004713178,301.139999999847,0.001667017,301.139999999847,0.0002959549
301.154999999847,3.404486e-05,301.154999999847,0.004846138,301.154999999847,0.001929909,301.154999999847,0.0002718705
301.169999999847,3.314502e-05,301.169999999847,0.004887541,301.169999999847,0.00232579,301.169999999847,0.00024878
301.184999999847,3.431439e-05,301.184999999847,0.004782781,301.184999999847,0.002547098,301.184999999847,0.0002485252
301.19999999984697,3.514268e-05,301.19999999984697,0.00469104,301.19999999984697,0.002653479,301.19999999984697,0.0002468491
301.21499999984695,3.559552e-05,301.21499999984695,0.004556808,301.21499999984695,0.002683861,301.21499999984695,0.000235978
301.22999999984694,3.584397e-05,301.22999999984694,0.004256567,301.22999999984694,0.002806128,301.22999999984694,0.0002609403
301.2449999998469,3.619516e-05,301.2449999998469,0.003955955,301.2449999998469,0.003075109,301.2449999998469,0.0002714306
301.2599999998469,3.654684e-05,301.2599999998469,0.003872875,301.2599999998469,0.003362507,301.2599999998469,0.0002794079
301.2749999998469,3.574243e-05,301.2749999998469,0.003813022,301.2749999998469,0.003416793,301.2749999998469,0.0002927558
301.2899999998469,3.321719e-05,301.2899999998469,0.003755335,301.2899999998469,0.003393978,301.2899999998469,0.0002867417
301.30499999984687,3.357488e-05,301.30499999984687,0.00368871,301.30499999984687,0.003372331,301.30499999984687,0.0002849567
301.31999999984686,3.305352e-05,301.31999999984686,0.003891879,301.31999999984686,0.003310605,301.31999999984686,0.0002786498
301.33499999984684,3.504071e-05,301.33499999984684,0.004072095,301.33499999984684,0.003348111,301.33499999984684,0.0002751467
301.34999999984683,3.768318e-05,301.34999999984683,0.004170217,301.34999999984683,0.003497842,301.34999999984683,0.000274069
301.3649999998468,3.893922e-05,301.3649999998468,0.004316117,301.3649999998468,0.003575571,301.3649999998468,0.0002611578
301.3799999998468,3.941134e-05,301.3799999998468,0.004459472,301.3799999998468,0.003601804,301.3799999998468,0.0002566765
301.3949999998468,3.938095e-05,301.3949999998468,0.004442986,301.3949999998468,0.003567886,301.3949999998468,0.0002562018
301.4099999998468,3.836374e-05,301.4099999998468,0.004267396,301.4099999998468,0.003413184,301.4099999998468,0.0002526738
301.42499999984676,3.864362e-05,301.42499999984676,0.004223448,301.42499999984676,0.003156029,301.42499999984676,0.0002529746
301.43999999984675,3.784098e-05,301.43999999984675,0.004364599,301.43999999984675,0.002947457,301.43999999984675,0.0002523374
301.45499999984673,3.679805e-05,301.45499999984673,0.004299631,301.45499999984673,0.002794076,301.45499999984673,0.0002503363
301.4699999998467,3.701371e-05,301.4699999998467,0.00431063,301.4699999998467,0.002800952,301.4699999998467,0.0002494401
301.4849999998467,3.658536e-05,301.4849999998467,0.004302811,301.4849999998467,0.002702407,301.4849999998467,0.0002280518
301.4999999998467,3.863925e-05,301.4999999998467,0.004146135,301.4999999998467,0.002382141,301.4999999998467,0.0002338913
301.5149999998467,3.860678e-05,301.5149999998467,0.004067964,301.5149999998467,0.002003177,301.5149999998467,0.0002176269
301.52999999984667,3.807959e-05,301.52999999984667,0.004034109,301.52999999984667,0.001810443,301.52999999984667,0.0002102606
301.54499999984665,3.813504e-05,301.54499999984665,0.004208693,301.54499999984665,0.001657847,301.54499999984665,0.000219396
301.55999999984664,3.654452e-05,301.55999999984664,0.004309579,301.55999999984664,0.001651931,301.55999999984664,0.000242467
301.5749999998466,3.536445e-05,301.5749999998466,0.00414281,301.5749999998466,0.001708223,301.5749999998466,0.000286927
301.5899999998466,3.288175e-05,301.5899999998466,0.003956228,301.5899999998466,0.001653216,301.5899999998466,0.0003138279
301.6049999998466,3.07929e-05,301.6049999998466,0.003756618,301.6049999998466,0.001363135,301.6049999998466,0.0003390593
301.6199999998466,2.776269e-05,301.6199999998466,0.003494348,301.6199999998466,0.001135977,301.6199999998466,0.000359635
301.63499999984657,2.7161e-05,301.63499999984657,0.003167612,301.63499999984657,0.001090793,301.63499999984657,0.0003623303
301.64999999984656,2.713453e-05,301.64999999984656,0.00299259,301.64999999984656,0.001136608,301.64999999984656,0.0004290168
301.66499999984654,2.855312e-05,301.66499999984654,0.002970232,301.66499999984654,0.001159865,301.66499999984654,0.0004317271
301.67999999984653,2.768342e-05,301.67999999984653,0.002737456,301.67999999984653,0.001111871,301.67999999984653,0.0004274062
301.6949999998465,2.742114e-05,301.6949999998465,0.002418031,301.6949999998465,0.001076508,301.6949999998465,0.0004210995
301.7099999998465,2.712051e-05,301.7099999998465,0.00233696,301.7099999998465,0.001074571,301.7099999998465,0.0004207222
301.7249999998465,2.581497e-05,301.7249999998465,0.002261698,301.7249999998465,0.001055154,301.7249999998465,0.0004174801
301.7399999998465,2.595375e-05,301.7399999998465,0.002269441,301.7399999998465,0.00102765,301.7399999998465,0.0004095061
301.75499999984646,2.586077e-05,301.75499999984646,0.002252243,301.75499999984646,0.001051516,301.75499999984646,0.0004056626
301.76999999984645,2.859257e-05,301.76999999984645,0.00204414,301.76999999984645,0.001036823,301.76999999984645,0.0004055909
301.78499999984643,2.965806e-05,301.78499999984643,0.001842372,301.78499999984643,0.001068504,301.78499999984643,0.0004049865
301.7999999998464,3.061351e-05,301.7999999998464,0.001311644,301.7999999998464,0.001068366,301.7999999998464,0.0003986765
301.8149999998464,3.047007e-05,301.8149999998464,0.0009558394,301.8149999998464,0.001021917,301.8149999998464,0.000353739
301.8299999998464,3.027853e-05,301.8299999998464,0.0008324455,301.8299999998464,0.000970708,301.8299999998464,0.0003466244
301.8449999998464,2.951666e-05,301.8449999998464,0.0009608082,301.8449999998464,0.0008848344,301.8449999998464,0.0003239121
301.85999999984637,2.979927e-05,301.85999999984637,0.0009900869,301.85999999984637,0.0008620868,301.85999999984637,0.0002944271
301.87499999984635,3.066271e-05,301.87499999984635,0.001102791,301.87499999984635,0.000782948,301.87499999984635,0.0002670638
301.88999999984634,3.108294e-05,301.88999999984634,0.001139046,301.88999999984634,0.000737855,301.88999999984634,0.0002553551
301.9049999998463,2.985641e-05,301.9049999998463,0.00114205,301.9049999998463,0.000679817,301.9049999998463,0.0001413128
301.9199999998463,2.814917e-05,301.9199999998463,0.001121591,301.9199999998463,0.0006674339,301.9199999998463,0.0001409544
301.9349999998463,2.834715e-05,301.9349999998463,0.001117987,301.9349999998463,0.0006979125,301.9349999998463,0.0001415929
301.9499999998463,2.832179e-05,301.9499999998463,0.001104271,301.9499999998463,0.000718295,301.9499999998463,0.0001310003
301.96499999984627,2.859503e-05,301.96499999984627,0.001095569,301.96499999984627,0.0007194928,301.96499999984627,0.0001307371
301.97999999984626,2.84622e-05,301.97999999984626,0.001096881,301.97999999984626,0.0007366758,301.97999999984626,0.0001394891
301.99499999984624,2.830537e-05,301.99499999984624,0.001116143,301.99499999984624,0.0007341861,301.99499999984624,0.0001300349
302.00999999984623,2.46367e-05,302.00999999984623,0.001109106,302.00999999984623,0.0006740065,302.00999999984623,0.0001298486
302.0249999998462,2.090582e-05,302.0249999998462,0.001130283,302.0249999998462,0.0006258945,302.0249999998462,0.0001462179
302.0399999998462,1.918554e-05,302.0399999998462,0.00112623,302.0399999998462,0.0005954716,302.0399999998462,0.0001529388
302.0549999998462,1.782603e-05,302.0549999998462,0.001110201,302.0549999998462,0.0005816568,302.0549999998462,0.0001556521
302.0699999998462,1.792847e-05,302.0699999998462,0.001080083,302.0699999998462,0.0005742702,302.0699999998462,0.0001550791
302.08499999984616,1.838696e-05,302.08499999984616,0.0009876409,302.08499999984616,0.00058413,302.08499999984616,0.0001523202
302.09999999984615,1.972996e-05,302.09999999984615,0.0009043402,302.09999999984615,0.0005712292,302.09999999984615,0.000151262
302.11499999984613,1.857902e-05,302.11499999984613,0.0009115924,302.11499999984613,0.0005369585,302.11499999984613,0.0001503757
302.1299999998461,1.78284e-05,302.1299999998461,0.000781813,302.1299999998461,0.0005492753,302.1299999998461,0.0001504162
302.1449999998461,1.799591e-05,302.1449999998461,0.0007678079,302.1449999998461,0.0005272663,302.1449999998461,0.0001456871
302.1599999998461,1.825471e-05,302.1599999998461,0.0008520621,302.1599999998461,0.0004913232,302.1599999998461,0.0001445983
302.1749999998461,1.813471e-05,302.1749999998461,0.0009224453,302.1749999998461,0.0004828463,302.1749999998461,0.000142254
302.18999999984607,1.74224e-05,302.18999999984607,0.0009277707,302.18999999984607,0.0004196911,302.18999999984607,0.0001393259
302.20499999984605,1.799513e-05,302.20499999984605,0.001049467,302.20499999984605,0.0003922535,302.20499999984605,0.0001387884
302.21999999984604,1.780943e-05,302.21999999984604,0.001206053,302.21999999984604,0.0003944488,302.21999999984604,0.000132892
302.234999999846,1.835015e-05,302.234999999846,0.001177367,302.234999999846,0.00041128,302.234999999846,0.0001155444
302.249999999846,1.755289e-05,302.249999999846,0.001199706,302.249999999846,0.0004713927,302.249999999846,0.000114053
302.264999999846,1.716418e-05,302.264999999846,0.001268881,302.264999999846,0.0004807079,302.264999999846,0.0001067581
302.279999999846,1.711651e-05,302.279999999846,0.001258121,302.279999999846,0.0004703028,302.279999999846,7.034866e-05
302.29499999984597,1.685026e-05,302.29499999984597,0.001252533,302.29499999984597,0.0004926142,302.29499999984597,5.872349e-05
302.30999999984596,1.709592e-05,302.30999999984596,0.001239517,302.30999999984596,0.0005011875,302.30999999984596,3.729805e-05
302.32499999984594,1.86237e-05,302.32499999984594,0.001235274,302.32499999984594,0.0004898146,302.32499999984594,3.765401e-05
302.33999999984593,1.955858e-05,302.33999999984593,0.001234411,302.33999999984593,0.0004981146,302.33999999984593,4.387484e-05
302.3549999998459,1.830326e-05,302.3549999998459,0.001216198,302.3549999998459,0.0005141628,302.3549999998459,4.10641e-05
302.3699999998459,1.825394e-05,302.3699999998459,0.001191388,302.3699999998459,0.0005075367,302.3699999998459,4.101296e-05
302.3849999998459,1.79481e-05,302.3849999998459,0.001181311,302.3849999998459,0.0005182892,302.3849999998459,4.176917e-05
302.3999999998459,1.7466e-05,302.3999999998459,0.001177061,302.3999999998459,0.0005530932,302.3999999998459,4.271359e-05
302.41499999984586,1.738759e-05,302.41499999984586,0.001094731,302.41499999984586,0.0005721245,302.41499999984586,4.759821e-05
302.42999999984585,1.808649e-05,302.42999999984585,0.001036016,302.42999999984585,0.0005759557,302.42999999984585,4.718893e-05
302.44499999984583,1.802016e-05,302.44499999984583,0.001024391,302.44499999984583,0.0006516768,302.44499999984583,4.673449e-05
302.4599999998458,1.698764e-05,302.4599999998458,0.0008610697,302.4599999998458,0.0006782355,302.4599999998458,4.738167e-05
302.4749999998458,1.691201e-05,302.4749999998458,0.0006763631,302.4749999998458,0.0006824844,302.4749999998458,4.974855e-05
302.4899999998458,1.663487e-05,302.4899999998458,0.0006521441,302.4899999998458,0.0006810777,302.4899999998458,5.356442e-05
302.5049999998458,1.673618e-05,302.5049999998458,0.0005127999,302.5049999998458,0.0006616777,302.5049999998458,5.488798e-05
302.51999999984577,1.676897e-05,302.51999999984577,0.0003698475,302.51999999984577,0.0006577701,302.51999999984577,5.715828e-05
302.53499999984575,1.688367e-05,302.53499999984575,0.000329686,302.53499999984575,0.0006566783,302.53499999984575,6.263386e-05
302.54999999984574,1.760098e-05,302.54999999984574,0.0003236149,302.54999999984574,0.0006462922,302.54999999984574,6.558718e-05
302.5649999998457,1.495178e-05,302.5649999998457,0.0003327541,302.5649999998457,0.0007177581,302.5649999998457,6.588741e-05
302.5799999998457,1.416811e-05,302.5799999998457,0.000386889,302.5799999998457,0.0007766748,302.5799999998457,6.751755e-05
302.5949999998457,1.253599e-05,302.5949999998457,0.0003983418,302.5949999998457,0.0007600429,302.5949999998457,9.394925e-05
302.6099999998457,1.426027e-05,302.6099999998457,0.0004062056,302.6099999998457,0.0007659938,302.6099999998457,0.0001176029
302.62499999984567,1.477169e-05,302.62499999984567,0.0004613082,302.62499999984567,0.0007813694,302.62499999984567,0.0001183692
302.63999999984566,1.5928e-05,302.63999999984566,0.0004536983,302.63999999984566,0.0007792001,302.63999999984566,0.0001273281
302.65499999984564,1.736733e-05,302.65499999984564,0.0004983845,302.65499999984564,0.0007661169,302.65499999984564,0.0001525524
302.66999999984563,1.881934e-05,302.66999999984563,0.001089437,302.66999999984563,0.0007513063,302.66999999984563,0.0001653566
302.6849999998456,1.916056e-05,302.6849999998456,0.001360495,302.6849999998456,0.0007783705,302.6849999998456,0.0001719757
302.6999999998456,2.025141e-05,302.6999999998456,0.001503606,302.6999999998456,0.0007862849,302.6999999998456,0.000198189
302.7149999998456,2.050648e-05,302.7149999998456,0.001978178,302.7149999998456,0.0007811287,302.7149999998456,0.0002120786
302.7299999998456,2.114367e-05,302.7299999998456,0.002263614,302.7299999998456,0.0007821766,302.7299999998456,0.0002141524
302.74499999984556,2.15096e-05,302.74499999984556,0.002367348,302.74499999984556,0.0007671883,302.74499999984556,0.0002220797
302.75999999984555,2.137361e-05,302.75999999984555,0.002675699,302.75999999984555,0.0007547224,302.75999999984555,0.0002264712
302.77499999984553,2.163628e-05,302.77499999984553,0.002791193,302.77499999984553,0.0007640896,302.77499999984553,0.0002263705
302.7899999998455,2.13261e-05,302.7899999998455,0.002845266,302.7899999998455,0.0007640734,302.7899999998455,0.0002259587
302.8049999998455,2.10609e-05,302.8049999998455,0.002941622,302.8049999998455,0.0007982867,302.8049999998455,0.0002251335
302.8199999998455,2.129702e-05,302.8199999998455,0.003249082,302.8199999998455,0.0008408245,302.8199999998455,0.000224213
302.8349999998455,2.112101e-05,302.8349999998455,0.003549849,302.8349999998455,0.0008155222,302.8349999998455,0.0002232502
302.84999999984547,2.031461e-05,302.84999999984547,0.003794276,302.84999999984547,0.0008452847,302.84999999984547,0.000206351
302.86499999984545,2.111501e-05,302.86499999984545,0.003999073,302.86499999984545,0.000844966,302.86499999984545,0.0001989696
302.87999999984544,2.093949e-05,302.87999999984544,0.004203329,302.87999999984544,0.0008414102,302.87999999984544,0.0001982174
302.8949999998454,1.915027e-05,302.8949999998454,0.00442678,302.8949999998454,0.0008363824,302.8949999998454,0.0001917093
302.9099999998454,1.809505e-05,302.9099999998454,0.004592356,302.9099999998454,0.0008331135,302.9099999998454,0.0001699719
302.9249999998454,1.856082e-05,302.9249999998454,0.004632347,302.9249999998454,0.0008431404,302.9249999998454,0.0001610045
302.9399999998454,1.936896e-05,302.9399999998454,0.004652065,302.9399999998454,0.0008384198,302.9399999998454,0.0001475783
302.95499999984537,1.864411e-05,302.95499999984537,0.004754888,302.95499999984537,0.0007729828,302.95499999984537,0.0001060536
302.96999999984536,1.850153e-05,302.96999999984536,0.004756408,302.96999999984536,0.0007694175,302.96999999984536,9.652382e-05
302.98499999984534,1.77841e-05,302.98499999984534,0.004852759,302.98499999984534,0.0007650072,302.98499999984534,9.398778e-05
302.99999999984533,1.819133e-05,302.99999999984533,0.004768506,302.99999999984533,0.0007612501,302.99999999984533,6.755281e-05
303.0149999998453,1.822305e-05,303.0149999998453,0.004554442,303.0149999998453,0.0007730848,303.0149999998453,5.931826e-05
303.0299999998453,1.826474e-05,303.0299999998453,0.004521189,303.0299999998453,0.0008472149,303.0299999998453,7.073685e-05
303.0449999998453,1.882233e-05,303.0449999998453,0.004494857,303.0449999998453,0.001230367,303.0449999998453,7.390496e-05
303.0599999998453,1.879162e-05,303.0599999998453,0.004385676,303.0599999998453,0.001569529,303.0599999998453,7.318535e-05
303.07499999984526,1.872328e-05,303.07499999984526,0.0042269,303.07499999984526,0.001649983,303.07499999984526,7.95145e-05
303.08999999984525,1.957658e-05,303.08999999984525,0.00403105,303.08999999984525,0.001696459,303.08999999984525,8.588732e-05
303.10499999984523,1.892756e-05,303.10499999984523,0.003788602,303.10499999984523,0.001710973,303.10499999984523,8.707753e-05
303.1199999998452,1.83816e-05,303.1199999998452,0.003505126,303.1199999998452,0.002048854,303.1199999998452,8.826253e-05
303.1349999998452,2.289405e-05,303.1349999998452,0.003295339,303.1349999998452,0.002514004,303.1349999998452,9.811646e-05
303.1499999998452,2.572423e-05,303.1499999998452,0.003040851,303.1499999998452,0.002864131,303.1499999998452,0.0001085344
303.1649999998452,2.627363e-05,303.1649999998452,0.002724171,303.1649999998452,0.003145709,303.1649999998452,0.000110074
303.17999999984517,2.72764e-05,303.17999999984517,0.00238381,303.17999999984517,0.003214458,303.17999999984517,0.0001198144
303.19499999984515,3.069118e-05,303.19499999984515,0.002274416,303.19499999984515,0.00322074,303.19499999984515,0.0001305787
303.20999999984514,3.066684e-05,303.20999999984514,0.001936814,303.20999999984514,0.003362067,303.20999999984514,0.0001300217
303.2249999998451,3.072788e-05,303.2249999998451,0.001418703,303.2249999998451,0.003584575,303.2249999998451,0.0001293422
303.2399999998451,3.065811e-05,303.2399999998451,0.0008599463,303.2399999998451,0.003794324,303.2399999998451,0.0001313485
303.2549999998451,3.049133e-05,303.2549999998451,0.0006792877,303.2549999998451,0.003964141,303.2549999998451,0.0001314706
303.2699999998451,3.054072e-05,303.2699999998451,0.0007265098,303.2699999998451,0.004018804,303.2699999998451,0.0001309493
303.28499999984507,3.050934e-05,303.28499999984507,0.0006785992,303.28499999984507,0.004031829,303.28499999984507,0.0001265604
303.29999999984506,3.001405e-05,303.29999999984506,0.0006587532,303.29999999984506,0.004025855,303.29999999984506,0.0001240212
303.31499999984504,2.996708e-05,303.31499999984504,0.0006679353,303.31499999984504,0.003945428,303.31499999984504,0.0001253328
303.32999999984503,2.996426e-05,303.32999999984503,0.0006612476,303.32999999984503,0.003859451,303.32999999984503,0.0001256941
303.344999999845,2.952763e-05,303.344999999845,0.0006797591,303.344999999845,0.003820348,303.344999999845,0.0001226277
303.359999999845,2.948897e-05,303.359999999845,0.0007362859,303.359999999845,0.003816031,303.359999999845,0.0001223391
303.374999999845,2.85319e-05,303.374999999845,0.0007277457,303.374999999845,0.003634652,303.374999999845,0.0001229139
303.389999999845,2.331776e-05,303.389999999845,0.000731178,303.389999999845,0.003368567,303.389999999845,0.0001145984
303.40499999984496,2.344428e-05,303.40499999984496,0.001186249,303.40499999984496,0.003057512,303.40499999984496,0.0001087978
303.41999999984495,2.264846e-05,303.41999999984495,0.001632459,303.41999999984495,0.002713613,303.41999999984495,0.0001089823
303.43499999984493,2.031392e-05,303.43499999984493,0.001818185,303.43499999984493,0.002667723,303.43499999984493,9.212126e-05
303.4499999998449,1.714282e-05,303.4499999998449,0.002032696,303.4499999998449,0.002658048,303.4499999998449,8.343813e-05
303.4649999998449,1.712227e-05,303.4649999998449,0.002525656,303.4649999998449,0.002494119,303.4649999998449,8.437559e-05
303.4799999998449,1.744986e-05,303.4799999998449,0.00288693,303.4799999998449,0.002185812,303.4799999998449,7.929291e-05
303.4949999998449,1.791668e-05,303.4949999998449,0.003170193,303.4949999998449,0.001746793,303.4949999998449,7.79755e-05
303.50999999984487,1.801782e-05,303.50999999984487,0.003402699,303.50999999984487,0.001128903,303.50999999984487,8.072746e-05
303.52499999984485,1.843669e-05,303.52499999984485,0.00354193,303.52499999984485,0.0009183927,303.52499999984485,7.678584e-05
303.53999999984484,1.846037e-05,303.53999999984484,0.003589573,303.53999999984484,0.0008557704,303.53999999984484,7.746347e-05
303.5549999998448,1.854791e-05,303.5549999998448,0.003589749,303.5549999998448,0.0006375609,303.5549999998448,8.769058e-05
303.5699999998448,2.190416e-05,303.5699999998448,0.003582739,303.5699999998448,0.0007042122,303.5699999998448,9.339902e-05
303.5849999998448,2.39813e-05,303.5849999998448,0.003933308,303.5849999998448,0.00108095,303.5849999998448,8.545571e-05
