X[s],a: EMG RMS 1-1,X[s].1,a: EMG RMS 1-2,X[s].2,a: EMG RMS 1-3,X[s].3,a: EMG RMS 1-4
169.00499999996717,2.012862e-05,169.00499999996717,0.000197071,169.00499999996717,0.000296216,169.00499999996717,6.782854e-06
169.01999999996715,1.986586e-05,169.01999999996715,0.0002084629,169.01999999996715,0.0003104397,169.01999999996715,7.172487e-06
169.03499999996714,2.030629e-05,169.03499999996714,0.0002357158,169.03499999996714,0.0003161706,169.03499999996714,7.826167e-06
169.04999999996713,2.010971e-05,169.04999999996713,0.0002688507,169.04999999996713,0.0003160861,169.04999999996713,8.851561e-06
169.0649999999671,1.997265e-05,169.0649999999671,0.0003696971,169.0649999999671,0.0003167071,169.0649999999671,8.992083e-06
169.0799999999671,2.087615e-05,169.0799999999671,0.0003930017,169.0799999999671,0.0003197303,169.0799999999671,9.959841e-06
169.0949999999671,2.093209e-05,169.0949999999671,0.0004976583,169.0949999999671,0.0003198267,169.0949999999671,1.011422e-05
169.10999999996707,2.1103e-05,169.10999999996707,0.0006781213,169.10999999996707,0.0003204331,169.10999999996707,1.012675e-05
169.12499999996706,2.128908e-05,169.12499999996706,0.0007134766,169.12499999996706,0.0004931412,169.12499999996706,1.012397e-05
169.13999999996705,2.245983e-05,169.13999999996705,0.0007447542,169.13999999996705,0.000719683,169.13999999996705,9.957012e-06
169.15499999996703,2.207393e-05,169.15499999996703,0.0007670379,169.15499999996703,0.0009033001,169.15499999996703,9.811646e-06
169.16999999996702,2.22481e-05,169.16999999996702,0.0007625151,169.16999999996702,0.0009078925,169.16999999996702,9.887446e-06
169.184999999967,2.283922e-05,169.184999999967,0.0007667408,169.184999999967,0.000904722,169.184999999967,1.003873e-05
169.199999999967,2.338231e-05,169.199999999967,0.0008221003,169.199999999967,0.0008972647,169.199999999967,9.981033e-06
169.21499999996698,2.332923e-05,169.21499999996698,0.0008492327,169.21499999996698,0.0008851371,169.21499999996698,1.003733e-05
169.22999999996696,2.242657e-05,169.22999999996696,0.0009072541,169.22999999996696,0.0008837766,169.22999999996696,1.03142e-05
169.24499999996695,2.270684e-05,169.24499999996695,0.0009367757,169.24499999996695,0.0008835685,169.24499999996695,1.032512e-05
169.25999999996694,2.2414e-05,169.25999999996694,0.0009432705,169.25999999996694,0.0008823399,169.25999999996694,9.962669e-06
169.27499999996692,2.382573e-05,169.27499999996692,0.0009435778,169.27499999996692,0.0008786345,169.27499999996692,9.824559e-06
169.2899999999669,2.409031e-05,169.2899999999669,0.0009318401,169.2899999999669,0.0008772017,169.2899999999669,9.580649e-06
169.3049999999669,2.487965e-05,169.3049999999669,0.0009223233,169.3049999999669,0.0008772041,169.3049999999669,9.09334e-06
169.31999999996688,2.490964e-05,169.31999999996688,0.0008873553,169.31999999996688,0.000877256,169.31999999996688,8.999913e-06
169.33499999996687,2.472688e-05,169.33499999996687,0.0008835753,169.33499999996687,0.0008767109,169.33499999996687,8.558665e-06
169.34999999996685,2.534079e-05,169.34999999996685,0.0008016665,169.34999999996685,0.0008770885,169.34999999996685,8.908669e-06
169.36499999996684,2.51869e-05,169.36499999996684,0.0006796542,169.36499999996684,0.0008767775,169.36499999996684,8.881747e-06
169.37999999996683,2.507872e-05,169.37999999996683,0.0006577487,169.37999999996683,0.0006512283,169.37999999996683,8.861105e-06
169.3949999999668,2.367805e-05,169.3949999999668,0.000626285,169.3949999999668,0.0004584243,169.3949999999668,8.95598e-06
169.4099999999668,2.404232e-05,169.4099999999668,0.0006161472,169.4099999999668,0.0001879602,169.4099999999668,8.848378e-06
169.4249999999668,2.384641e-05,169.4249999999668,0.000615882,169.4249999999668,0.0001785095,169.4249999999668,8.716856e-06
169.43999999996677,2.253247e-05,169.43999999996677,0.0005652893,169.43999999996677,0.0001678217,169.43999999996677,8.387425e-06
169.45499999996676,2.203433e-05,169.45499999996676,0.0004752142,169.45499999996676,0.0001127891,169.45499999996676,8.790878e-06
169.46999999996675,2.108897e-05,169.46999999996675,0.0004287341,169.46999999996675,9.498265e-05,169.46999999996675,8.397496e-06
169.48499999996673,2.074008e-05,169.48499999996673,0.0003283225,169.48499999996673,9.38663e-05,169.48499999996673,8.36051e-06
169.49999999996672,2.023471e-05,169.49999999996672,0.0002604525,169.49999999996672,9.783019e-05,169.49999999996672,8.24514e-06
169.5149999999667,2.008097e-05,169.5149999999667,0.0002396289,169.5149999999667,9.174908e-05,169.5149999999667,8.25709e-06
169.5299999999667,1.789229e-05,169.5299999999667,0.0002284035,169.5299999999667,8.148661e-05,169.5299999999667,8.304722e-06
169.54499999996668,1.74046e-05,169.54499999996668,0.0002105588,169.54499999996668,8.013338e-05,169.54499999996668,7.62745e-06
169.55999999996666,1.627618e-05,169.55999999996666,0.0002139279,169.55999999996666,9.473525e-05,169.55999999996666,7.295169e-06
169.57499999996665,1.597128e-05,169.57499999996665,0.0002186864,169.57499999996665,9.572073e-05,169.57499999996665,7.133099e-06
169.58999999996664,1.417208e-05,169.58999999996664,0.0001913324,169.58999999996664,0.0001147965,169.58999999996664,6.548272e-06
169.60499999996662,1.381676e-05,169.60499999996662,0.000153865,169.60499999996662,0.0001253687,169.60499999996662,6.479067e-06
169.6199999999666,1.391935e-05,169.6199999999666,0.0001427476,169.6199999999666,0.000127958,169.6199999999666,6.481242e-06
169.6349999999666,1.3632e-05,169.6349999999666,0.0001421297,169.6349999999666,0.0001298689,169.6349999999666,6.69506e-06
169.64999999996658,1.319406e-05,169.64999999996658,0.000138372,169.64999999996658,0.0001353754,169.64999999996658,6.574036e-06
169.66499999996657,1.277861e-05,169.66499999996657,0.0001404245,169.66499999996657,0.000135904,169.66499999996657,6.713969e-06
169.67999999996655,1.345519e-05,169.67999999996655,0.0001440006,169.67999999996655,0.0001338052,169.67999999996655,6.787006e-06
169.69499999996654,1.369489e-05,169.69499999996654,0.0001486739,169.69499999996654,0.0001377968,169.69499999996654,6.840758e-06
169.70999999996653,1.347088e-05,169.70999999996653,0.0001491927,169.70999999996653,0.0001370307,169.70999999996653,6.380479e-06
169.7249999999665,1.267123e-05,169.7249999999665,0.0001471207,169.7249999999665,0.0001381736,169.7249999999665,6.347276e-06
169.7399999999665,1.228055e-05,169.7399999999665,0.0001377818,169.7399999999665,0.0001422761,169.7399999999665,6.380479e-06
169.7549999999665,1.22173e-05,169.7549999999665,0.0001359426,169.7549999999665,0.0001474943,169.7549999999665,6.273611e-06
169.76999999996647,1.211774e-05,169.76999999996647,0.0001328762,169.76999999996647,0.000165982,169.76999999996647,6.082075e-06
169.78499999996646,1.222076e-05,169.78499999996646,0.0001301342,169.78499999996646,0.0001735043,169.78499999996646,5.988714e-06
169.79999999996645,1.208864e-05,169.79999999996645,0.000125316,169.79999999996645,0.0001765524,169.79999999996645,5.955692e-06
169.81499999996643,1.249209e-05,169.81499999996643,0.0001218346,169.81499999996643,0.0001749645,169.81499999996643,5.955692e-06
169.82999999996642,1.25775e-05,169.82999999996642,0.00010634,169.82999999996642,0.0001751182,169.82999999996642,5.912964e-06
169.8449999999664,1.294835e-05,169.8449999999664,9.454026e-05,169.8449999999664,0.0001617855,169.8449999999664,6.009847e-06
169.8599999999664,1.300588e-05,169.8599999999664,9.560779e-05,169.8599999999664,0.0001567485,169.8599999999664,5.955692e-06
169.87499999996638,1.293202e-05,169.87499999996638,0.0001004443,169.87499999996638,0.0001694883,169.87499999996638,5.984008e-06
169.88999999996636,1.327071e-05,169.88999999996636,0.0001024979,169.88999999996636,0.0001697072,169.88999999996636,5.773135e-06
169.90499999996635,1.327177e-05,169.90499999996635,0.0001041077,169.90499999996635,0.0001727632,169.90499999996635,5.738873e-06
169.91999999996634,1.332579e-05,169.91999999996634,0.0001246368,169.91999999996634,0.000176749,169.91999999996634,5.592176e-06
169.93499999996632,1.32122e-05,169.93499999996632,0.000160569,169.93499999996632,0.0001768463,169.93499999996632,5.536481e-06
169.9499999999663,1.326009e-05,169.9499999999663,0.000181534,169.9499999999663,0.0001804088,169.9499999999663,5.541568e-06
169.9649999999663,1.346984e-05,169.9649999999663,0.0001929144,169.9649999999663,0.0001810848,169.9649999999663,5.407768e-06
169.97999999996628,1.375033e-05,169.97999999996628,0.0002196936,169.97999999996628,0.000180108,169.97999999996628,5.627332e-06
169.99499999996627,1.515206e-05,169.99499999996627,0.0002317963,169.99499999996627,0.0001769123,169.99499999996627,5.647323e-06
170.00999999996625,1.820758e-05,170.00999999996625,0.0002366219,170.00999999996625,0.0001706195,170.00999999996625,5.687093e-06
170.02499999996624,1.966918e-05,170.02499999996624,0.0002377632,170.02499999996624,0.000152227,170.02499999996624,5.795054e-06
170.03999999996623,2.049548e-05,170.03999999996623,0.0002378733,170.03999999996623,0.0001555873,170.03999999996623,6.051891e-06
170.0549999999662,2.060174e-05,170.0549999999662,0.0002389233,170.0549999999662,0.0001601955,170.0549999999662,6.659195e-06
170.0699999999662,2.174862e-05,170.0699999999662,0.0002388171,170.0699999999662,0.0001894405,170.0699999999662,6.869526e-06
170.0849999999662,2.183137e-05,170.0849999999662,0.0002383925,170.0849999999662,0.0001943428,170.0849999999662,7.312527e-06
170.09999999996617,2.161087e-05,170.09999999996617,0.0002413755,170.09999999996617,0.0001905403,170.09999999996617,7.545752e-06
170.11499999996616,2.157173e-05,170.11499999996616,0.0002537102,170.11499999996616,0.0001866677,170.11499999996616,7.631143e-06
170.12999999996615,2.160827e-05,170.12999999996615,0.0002566759,170.12999999996615,0.0001764785,170.12999999996615,7.842351e-06
170.14499999996613,2.158479e-05,170.14499999996613,0.0002612734,170.14499999996613,0.0001756783,170.14499999996613,8.270727e-06
170.15999999996612,2.131818e-05,170.15999999996612,0.0002994796,170.15999999996612,0.0001718453,170.15999999996612,8.36893e-06
170.1749999999661,2.116565e-05,170.1749999999661,0.0003000798,170.1749999999661,0.0001709131,170.1749999999661,8.365563e-06
170.1899999999661,2.063727e-05,170.1899999999661,0.0002918564,170.1899999999661,0.0001683841,170.1899999999661,8.558665e-06
170.20499999996608,2.08505e-05,170.20499999996608,0.0002883931,170.20499999996608,0.0001636491,170.20499999996608,8.982679e-06
170.21999999996606,2.128974e-05,170.21999999996606,0.0002912988,170.21999999996606,0.0001644555,170.21999999996606,8.943388e-06
170.23499999996605,2.125862e-05,170.23499999996605,0.0003017963,170.23499999996605,0.0001645785,170.23499999996605,9.063859e-06
170.24999999996604,2.014471e-05,170.24999999996604,0.0003066086,170.24999999996604,0.0001657803,170.24999999996604,9.322813e-06
170.26499999996602,1.738354e-05,170.26499999996602,0.0003060691,170.26499999996602,0.0001696274,170.26499999996602,9.35449e-06
170.279999999966,1.609166e-05,170.279999999966,0.0003056908,170.279999999966,0.0001712609,170.279999999966,9.360511e-06
170.294999999966,1.582152e-05,170.294999999966,0.0003075999,170.294999999966,0.0001629087,170.294999999966,9.193482e-06
170.30999999996598,1.42583e-05,170.30999999996598,0.0003077933,170.30999999996598,0.0001402619,170.30999999996598,8.77805e-06
170.32499999996597,1.376671e-05,170.32499999996597,0.0003191847,170.32499999996597,0.0001004966,170.32499999996597,8.548785e-06
170.33999999996595,1.418401e-05,170.33999999996595,0.0003426538,170.33999999996595,0.0001025438,170.33999999996595,8.286042e-06
170.35499999996594,1.522532e-05,170.35499999996594,0.000355831,170.35499999996594,0.0001039799,170.35499999996594,7.896054e-06
170.36999999996593,1.577783e-05,170.36999999996593,0.0003487993,170.36999999996593,0.0001048702,170.36999999996593,8.026986e-06
170.3849999999659,1.58322e-05,170.3849999999659,0.0003635393,170.3849999999659,0.0001052206,170.3849999999659,7.607108e-06
170.3999999999659,1.612576e-05,170.3999999999659,0.0003730299,170.3999999999659,0.00010252,170.3999999999659,7.256447e-06
170.4149999999659,1.720516e-05,170.4149999999659,0.0003440118,170.4149999999659,9.978365e-05,170.4149999999659,7.254505e-06
170.42999999996587,1.719943e-05,170.42999999996587,0.0003301016,170.42999999996587,9.891392e-05,170.42999999996587,7.154789e-06
170.44499999996586,1.696772e-05,170.44499999996586,0.0003262009,170.44499999996586,9.712309e-05,170.44499999996586,6.838698e-06
170.45999999996585,1.698515e-05,170.45999999996585,0.0003242153,170.45999999996585,9.647215e-05,170.45999999996585,6.362793e-06
170.47499999996583,1.645608e-05,170.47499999996583,0.0003086613,170.47499999996583,9.497049e-05,170.47499999996583,6.298262e-06
170.48999999996582,1.599067e-05,170.48999999996582,0.0002934819,170.48999999996582,9.429931e-05,170.48999999996582,5.850696e-06
170.5049999999658,1.615805e-05,170.5049999999658,0.0002856139,170.5049999999658,9.142439e-05,170.5049999999658,5.582091e-06
170.5199999999658,1.553036e-05,170.5199999999658,0.0002876382,170.5199999999658,7.79867e-05,170.5199999999658,5.539025e-06
170.53499999996578,1.550131e-05,170.53499999996578,0.0002946854,170.53499999996578,7.645399e-05,170.53499999996578,5.579567e-06
170.54999999996576,1.604344e-05,170.54999999996576,0.000305397,170.54999999996576,7.717872e-05,170.54999999996576,5.704405e-06
170.56499999996575,1.623372e-05,170.56499999996575,0.000312786,170.56499999996575,7.697952e-05,170.56499999996575,5.785323e-06
170.57999999996574,1.650565e-05,170.57999999996574,0.0003070927,170.57999999996574,7.632085e-05,170.57999999996574,6.201342e-06
170.59499999996572,1.605397e-05,170.59499999996572,0.0002691659,170.59499999996572,7.290534e-05,170.59499999996572,6.248863e-06
170.6099999999657,1.555121e-05,170.6099999999657,0.000242979,170.6099999999657,7.207478e-05,170.6099999999657,6.340615e-06
170.6249999999657,1.527151e-05,170.6249999999657,0.000238967,170.6249999999657,7.802805e-05,170.6249999999657,6.347276e-06
170.63999999996568,1.541657e-05,170.63999999996568,0.000258221,170.63999999996568,7.705578e-05,170.63999999996568,6.898175e-06
170.65499999996567,1.39426e-05,170.65499999996567,0.0003977583,170.65499999996567,7.558436e-05,170.65499999996567,7.135074e-06
170.66999999996565,1.369798e-05,170.66999999996565,0.0004600398,170.66999999996565,7.621723e-05,170.66999999996565,7.203842e-06
170.68499999996564,1.386764e-05,170.68499999996564,0.0004711405,170.68499999996564,8.080281e-05,170.68499999996564,7.398706e-06
170.69999999996563,1.537173e-05,170.69999999996563,0.0004780697,170.69999999996563,8.074979e-05,170.69999999996563,7.453716e-06
170.7149999999656,1.574118e-05,170.7149999999656,0.0005178486,170.7149999999656,8.892795e-05,170.7149999999656,7.547619e-06
170.7299999999656,1.569996e-05,170.7299999999656,0.0005481477,170.7299999999656,8.614166e-05,170.7299999999656,7.623756e-06
170.7449999999656,1.582597e-05,170.7449999999656,0.0005584963,170.7449999999656,8.606248e-05,170.7449999999656,7.571843e-06
170.75999999996557,1.784104e-05,170.75999999996557,0.0005690687,170.75999999996557,0.0001241071,170.75999999996557,7.59228e-06
170.77499999996556,1.800843e-05,170.77499999996556,0.0005693196,170.77499999996556,0.0001316247,170.77499999996556,7.607108e-06
170.78999999996554,1.814325e-05,170.78999999996554,0.0005662459,170.78999999996554,0.0001547775,170.78999999996554,7.3106e-06
170.80499999996553,1.838313e-05,170.80499999996553,0.0005767583,170.80499999996553,0.0001547828,170.80499999996553,7.127172e-06
170.81999999996552,1.834708e-05,170.81999999996552,0.0005852281,170.81999999996552,0.0001547573,170.81999999996552,7.180339e-06
170.8349999999655,1.83839e-05,170.8349999999655,0.0005820573,170.8349999999655,0.0001544436,170.8349999999655,6.749543e-06
170.8499999999655,1.835783e-05,170.8499999999655,0.0005761262,170.8499999999655,0.0001570054,170.8499999999655,7.12124e-06
170.86499999996548,1.849467e-05,170.86499999996548,0.000587464,170.86499999996548,0.0001557107,170.86499999996548,7.24479e-06
170.87999999996546,1.834324e-05,170.87999999996546,0.0005986883,170.87999999996546,0.0001536989,170.87999999996546,7.603404e-06
170.89499999996545,1.829172e-05,170.89499999996545,0.0005689797,170.89499999996545,0.0001542459,170.89499999996545,7.083556e-06
170.90999999996544,1.865167e-05,170.90999999996544,0.0004764773,170.90999999996544,0.000155357,170.90999999996544,7.172487e-06
170.92499999996542,1.853499e-05,170.92499999996542,0.0004276843,170.92499999996542,0.0001568579,170.92499999996542,7.726537e-06
170.9399999999654,1.799043e-05,170.9399999999654,0.0003969405,170.9399999999654,0.0001546177,170.9399999999654,7.553216e-06
170.9549999999654,1.715597e-05,170.9549999999654,0.000396398,170.9549999999654,0.0001581828,170.9549999999654,7.671647e-06
170.96999999996538,1.702657e-05,170.96999999996538,0.0003589394,170.96999999996538,0.0001560704,170.96999999996538,7.542018e-06
170.98499999996537,1.687615e-05,170.98499999996537,0.0003430691,170.98499999996537,0.0001558993,170.98499999996537,7.489538e-06
170.99999999996535,1.645779e-05,170.99999999996535,0.0003274477,170.99999999996535,0.0001530314,170.99999999996535,7.534543e-06
171.01499999996534,1.497343e-05,171.01499999996534,0.0003137106,171.01499999996534,0.0001195492,171.01499999996534,7.735647e-06
171.02999999996533,1.460674e-05,171.02999999996533,0.0003310634,171.02999999996533,0.0001054936,171.02999999996533,7.847737e-06
171.0449999999653,1.467025e-05,171.0449999999653,0.0003309431,171.0449999999653,8.846101e-05,171.0449999999653,7.928101e-06
171.0599999999653,1.276537e-05,171.0599999999653,0.0002941526,171.0599999999653,8.956357e-05,171.0599999999653,8.119463e-06
171.07499999996529,1.234234e-05,171.07499999996529,0.0002683143,171.07499999996529,8.977754e-05,171.07499999996529,8.248557e-06
171.08999999996527,1.233435e-05,171.08999999996527,0.000259428,171.08999999996527,8.881938e-05,171.08999999996527,7.982992e-06
171.10499999996526,1.229202e-05,171.10499999996526,0.0002564112,171.10499999996526,8.403818e-05,171.10499999996526,7.753835e-06
171.11999999996524,1.123713e-05,171.11999999996524,0.0002401262,171.11999999996524,9.083947e-05,171.11999999996524,7.771981e-06
171.13499999996523,1.150839e-05,171.13499999996523,0.0002526757,171.13499999996523,9.22235e-05,171.13499999996523,7.415822e-06
171.14999999996522,1.087269e-05,171.14999999996522,0.0004337323,171.14999999996522,8.817902e-05,171.14999999996522,7.254505e-06
171.1649999999652,1.092955e-05,171.1649999999652,0.001042059,171.1649999999652,9.003731e-05,171.1649999999652,7.22727e-06
171.1799999999652,1.12158e-05,171.1799999999652,0.00117827,171.1799999999652,8.665135e-05,171.1799999999652,6.938897e-06
171.19499999996518,1.131334e-05,171.19499999996518,0.001337436,171.19499999996518,8.700259e-05,171.19499999996518,7.021637e-06
171.20999999996516,1.122709e-05,171.20999999996516,0.001588942,171.20999999996516,7.424137e-05,171.20999999996516,6.926705e-06
171.22499999996515,1.165918e-05,171.22499999996515,0.001700004,171.22499999996515,7.409836e-05,171.22499999996515,6.855157e-06
171.23999999996514,1.163862e-05,171.23999999996514,0.001753,171.23999999996514,7.329709e-05,171.23999999996514,6.830453e-06
171.25499999996512,1.201618e-05,171.25499999996512,0.001770764,171.25499999996512,7.298354e-05,171.25499999996512,6.728641e-06
171.2699999999651,1.166039e-05,171.2699999999651,0.001769903,171.2699999999651,7.153234e-05,171.2699999999651,6.380479e-06
171.2849999999651,1.169417e-05,171.2849999999651,0.001764688,171.2849999999651,6.926075e-05,171.2849999999651,6.189974e-06
171.29999999996508,1.177101e-05,171.29999999996508,0.001764514,171.29999999996508,6.73887e-05,171.29999999996508,6.201342e-06
171.31499999996507,1.277089e-05,171.31499999996507,0.001764672,171.31499999996507,6.469821e-05,171.31499999996507,5.731505e-06
171.32999999996505,1.343528e-05,171.32999999996505,0.001766159,171.32999999996505,6.395673e-05,171.32999999996505,5.751133e-06
171.34499999996504,1.351577e-05,171.34499999996504,0.001769571,171.34499999996504,6.232769e-05,171.34499999996504,5.584614e-06
171.35999999996503,1.3602e-05,171.35999999996503,0.001769323,171.35999999996503,6.158763e-05,171.35999999996503,5.415577e-06
171.374999999965,1.376773e-05,171.374999999965,0.001768747,171.374999999965,5.565107e-05,171.374999999965,5.178904e-06
171.389999999965,1.371031e-05,171.389999999965,0.002023291,171.389999999965,5.355706e-05,171.389999999965,5.428567e-06
171.40499999996499,1.385443e-05,171.40499999996499,0.002260731,171.40499999996499,5.279279e-05,171.40499999996499,5.475077e-06
171.41999999996497,1.362167e-05,171.41999999996497,0.002339867,171.41999999996497,4.874626e-05,171.41999999996497,5.433755e-06
171.43499999996496,1.351473e-05,171.43499999996496,0.002557423,171.43499999996496,5.050561e-05,171.43499999996496,5.173461e-06
171.44999999996494,1.381064e-05,171.44999999996494,0.002657812,171.44999999996494,5.066378e-05,171.44999999996494,5.154366e-06
171.46499999996493,1.412429e-05,171.46499999996493,0.002654168,171.46499999996493,5.09806e-05,171.46499999996493,5.420777e-06
171.47999999996492,1.456425e-05,171.47999999996492,0.002725659,171.47999999996492,5.258693e-05,171.47999999996492,5.526294e-06
171.4949999999649,1.523735e-05,171.4949999999649,0.002846307,171.4949999999649,5.132785e-05,171.4949999999649,5.687093e-06
171.5099999999649,1.495931e-05,171.5099999999649,0.002935995,171.5099999999649,5.08766e-05,171.5099999999649,5.674694e-06
171.52499999996488,1.469999e-05,171.52499999996488,0.002979345,171.52499999996488,5.132428e-05,171.52499999996488,5.775575e-06
171.53999999996486,1.502133e-05,171.53999999996486,0.002991726,171.53999999996486,5.173761e-05,171.53999999996486,6.03324e-06
171.55499999996485,1.535706e-05,171.55499999996485,0.002993124,171.55499999996485,5.233398e-05,171.55499999996485,6.11211e-06
171.56999999996484,1.490554e-05,171.56999999996484,0.002993127,171.56999999996484,5.317511e-05,171.56999999996484,6.271365e-06
171.58499999996482,1.484304e-05,171.58499999996482,0.002993132,171.58499999996482,5.343962e-05,171.58499999996482,6.338393e-06
171.5999999999648,1.491121e-05,171.5999999999648,0.002992861,171.5999999999648,5.355285e-05,171.5999999999648,6.457289e-06
171.6149999999648,1.483829e-05,171.6149999999648,0.002992819,171.6149999999648,5.060954e-05,171.6149999999648,6.413511e-06
171.62999999996478,1.465777e-05,171.62999999996478,0.002992859,171.62999999996478,5.103197e-05,171.62999999996478,6.541815e-06
171.64499999996477,1.448472e-05,171.64499999996477,0.002700674,171.64499999996477,5.117503e-05,171.64499999996477,6.342836e-06
171.65999999996475,1.493104e-05,171.65999999996475,0.002442696,171.65999999996475,5.251241e-05,171.65999999996475,6.282586e-06
171.67499999996474,1.528258e-05,171.67499999996474,0.002052552,171.67499999996474,5.078709e-05,171.67499999996474,6.214957e-06
171.68999999996473,1.520496e-05,171.68999999996473,0.001562288,171.68999999996473,5.073297e-05,171.68999999996473,6.338393e-06
171.7049999999647,1.475928e-05,171.7049999999647,0.001119516,171.7049999999647,4.816279e-05,171.7049999999647,5.988714e-06
171.7199999999647,1.497437e-05,171.7199999999647,0.001094091,171.7199999999647,4.673539e-05,171.7199999999647,5.969867e-06
171.73499999996469,1.408934e-05,171.73499999996469,0.0009759357,171.73499999996469,4.606842e-05,171.73499999996469,5.694519e-06
171.74999999996467,1.36351e-05,171.74999999996467,0.0007370957,171.74999999996467,4.604059e-05,171.74999999996467,5.677176e-06
171.76499999996466,1.419691e-05,171.76499999996466,0.0004698417,171.76499999996466,4.533079e-05,171.76499999996466,5.778013e-06
171.77999999996464,1.503258e-05,171.77999999996464,0.0002486979,171.77999999996464,4.506025e-05,171.77999999996464,5.594695e-06
171.79499999996463,1.578943e-05,171.79499999996463,0.0001105052,171.79499999996463,4.482706e-05,171.79499999996463,5.485359e-06
171.80999999996462,1.573491e-05,171.80999999996462,5.408992e-05,171.80999999996462,4.444932e-05,171.80999999996462,5.342249e-06
171.8249999999646,1.574744e-05,171.8249999999646,5.390444e-05,171.8249999999646,4.499925e-05,171.8249999999646,5.344885e-06
171.8399999999646,1.562802e-05,171.8399999999646,5.603852e-05,171.8399999999646,4.418518e-05,171.8399999999646,5.415577e-06
171.85499999996458,1.564603e-05,171.85499999996458,5.435984e-05,171.85499999996458,4.481638e-05,171.85499999996458,5.425972e-06
171.86999999996456,1.629435e-05,171.86999999996456,5.394545e-05,171.86999999996456,4.528727e-05,171.86999999996456,5.342249e-06
171.88499999996455,1.665433e-05,171.88499999996455,5.558345e-05,171.88499999996455,4.311962e-05,171.88499999996455,5.523745e-06
171.89999999996454,1.64595e-05,171.89999999996454,5.721665e-05,171.89999999996454,4.346647e-05,171.89999999996454,5.624828e-06
171.91499999996452,1.625107e-05,171.91499999996452,5.796002e-05,171.91499999996452,4.131854e-05,171.91499999996452,6.019215e-06
171.9299999999645,1.630472e-05,171.9299999999645,5.392377e-05,171.9299999999645,4.716265e-05,171.9299999999645,5.972226e-06
171.9449999999645,1.646207e-05,171.9449999999645,4.412105e-05,171.9449999999645,4.635709e-05,171.9449999999645,5.877121e-06
171.95999999996448,1.629348e-05,171.95999999996448,3.571956e-05,171.95999999996448,4.722503e-05,171.95999999996448,6.021555e-06
171.97499999996447,1.651589e-05,171.97499999996447,2.570012e-05,171.97499999996447,4.972249e-05,171.97499999996447,6.093644e-06
171.98999999996445,1.656273e-05,171.98999999996445,2.44248e-05,171.98999999996445,5.1406e-05,171.98999999996445,6.318359e-06
172.00499999996444,1.63582e-05,172.00499999996444,2.41353e-05,172.00499999996444,5.084004e-05,172.00499999996444,6.298262e-06
172.01999999996443,1.570803e-05,172.01999999996443,2.465785e-05,172.01999999996443,5.15961e-05,172.01999999996443,6.448557e-06
172.0349999999644,1.483069e-05,172.0349999999644,2.497008e-05,172.0349999999644,5.129957e-05,172.0349999999644,6.48993e-06
172.0499999999644,1.381981e-05,172.0499999999644,2.519025e-05,172.0499999999644,5.252743e-05,172.0499999999644,6.627389e-06
172.06499999996439,1.358542e-05,172.06499999996439,2.493734e-05,172.06499999996439,5.211442e-05,172.06499999996439,6.822199e-06
172.07999999996437,1.327177e-05,172.07999999996437,2.378845e-05,172.07999999996437,5.128612e-05,172.07999999996437,6.682424e-06
172.09499999996436,1.282922e-05,172.09499999996436,2.360058e-05,172.09499999996436,5.23041e-05,172.09499999996436,6.865424e-06
172.10999999996434,1.304805e-05,172.10999999996434,2.291065e-05,172.10999999996434,5.335653e-05,172.10999999996434,6.920602e-06
172.12499999996433,1.287416e-05,172.12499999996433,2.313338e-05,172.12499999996433,5.476337e-05,172.12499999996433,7.071614e-06
172.13999999996432,1.289493e-05,172.13999999996432,2.289774e-05,172.13999999996432,5.508039e-05,172.13999999996432,6.973323e-06
172.1549999999643,1.294291e-05,172.1549999999643,2.267705e-05,172.1549999999643,5.343883e-05,172.1549999999643,6.743279e-06
172.1699999999643,1.291458e-05,172.1699999999643,2.248052e-05,172.1699999999643,4.922392e-05,172.1699999999643,6.42229e-06
172.18499999996428,1.267234e-05,172.18499999996428,2.267953e-05,172.18499999996428,4.805328e-05,172.18499999996428,6.563313e-06
172.19999999996426,1.261887e-05,172.19999999996426,2.061815e-05,172.19999999996426,4.806207e-05,172.19999999996426,6.498606e-06
172.21499999996425,1.265009e-05,172.21499999996425,2.016009e-05,172.21499999996425,5.005567e-05,172.21499999996425,6.505105e-06
172.22999999996424,1.244011e-05,172.22999999996424,2.046385e-05,172.22999999996424,4.734777e-05,172.22999999996424,6.466009e-06
172.24499999996422,1.228629e-05,172.24499999996422,2.004235e-05,172.24499999996422,4.90545e-05,172.24499999996422,6.309435e-06
172.2599999999642,1.237995e-05,172.2599999999642,1.946617e-05,172.2599999999642,5.021751e-05,172.2599999999642,6.183143e-06
172.2749999999642,1.230119e-05,172.2749999999642,1.778252e-05,172.2749999999642,4.876476e-05,172.2749999999642,6.123622e-06
172.28999999996418,1.244464e-05,172.28999999996418,1.828479e-05,172.28999999996418,4.864212e-05,172.28999999996418,6.035575e-06
172.30499999996417,1.260435e-05,172.30499999996417,1.884028e-05,172.30499999996417,4.733617e-05,172.30499999996417,5.995767e-06
172.31999999996415,1.311159e-05,172.31999999996415,1.956434e-05,172.31999999996415,4.745564e-05,172.31999999996415,5.855509e-06
172.33499999996414,1.331204e-05,172.33499999996414,1.956146e-05,172.33499999996414,4.744318e-05,172.33499999996414,5.56946e-06
172.34999999996413,1.303077e-05,172.34999999996413,2.04893e-05,172.34999999996413,4.550448e-05,172.34999999996413,5.528843e-06
172.3649999999641,1.268789e-05,172.3649999999641,2.123807e-05,172.3649999999641,4.393131e-05,172.3649999999641,5.505864e-06
172.3799999999641,1.231149e-05,172.3799999999641,2.082616e-05,172.3799999999641,4.3436e-05,172.3799999999641,5.184341e-06
172.39499999996409,1.301995e-05,172.39499999996409,2.13591e-05,172.39499999996409,4.480537e-05,172.39499999996409,5.589657e-06
172.40999999996407,1.270121e-05,172.40999999996407,2.195684e-05,172.40999999996407,4.520944e-05,172.40999999996407,5.619817e-06
172.42499999996406,1.339853e-05,172.42499999996406,2.243724e-05,172.42499999996406,4.525179e-05,172.42499999996406,5.751133e-06
172.43999999996404,1.324521e-05,172.43999999996404,2.208988e-05,172.43999999996404,4.632274e-05,172.43999999996404,5.637336e-06
172.45499999996403,1.326965e-05,172.45499999996403,2.239451e-05,172.45499999996403,4.712081e-05,172.45499999996403,5.667242e-06
172.46999999996402,1.297226e-05,172.46999999996402,2.293892e-05,172.46999999996402,4.807057e-05,172.46999999996402,5.438937e-06
172.484999999964,1.270675e-05,172.484999999964,2.300331e-05,172.484999999964,4.942868e-05,172.484999999964,5.446701e-06
172.499999999964,1.266789e-05,172.499999999964,2.351028e-05,172.499999999964,4.812563e-05,172.499999999964,5.436346e-06
172.51499999996398,1.308148e-05,172.51499999996398,2.330869e-05,172.51499999996398,4.940445e-05,172.51499999996398,5.407768e-06
172.52999999996396,1.332156e-05,172.52999999996396,2.390718e-05,172.52999999996396,4.989162e-05,172.52999999996396,5.399948e-06
172.54499999996395,1.314807e-05,172.54499999996395,2.31285e-05,172.54499999996395,4.958035e-05,172.54499999996395,5.503306e-06
172.55999999996394,1.30286e-05,172.55999999996394,2.232458e-05,172.55999999996394,4.941158e-05,172.55999999996394,5.627332e-06
172.57499999996392,1.315236e-05,172.57499999996392,2.181136e-05,172.57499999996392,5.102589e-05,172.57499999996392,5.667242e-06
172.5899999999639,1.362684e-05,172.5899999999639,2.165385e-05,172.5899999999639,5.227446e-05,172.5899999999639,5.669728e-06
172.6049999999639,1.394362e-05,172.6049999999639,2.060653e-05,172.6049999999639,5.253252e-05,172.6049999999639,5.75603e-06
172.61999999996388,1.405932e-05,172.61999999996388,1.968064e-05,172.61999999996388,5.390836e-05,172.61999999996388,5.768253e-06
172.63499999996387,1.369695e-05,172.63499999996387,1.977489e-05,172.63499999996387,5.180046e-05,172.63499999996387,5.647323e-06
172.64999999996385,1.335008e-05,172.64999999996385,1.908469e-05,172.64999999996385,5.207224e-05,172.64999999996385,5.386888e-06
172.66499999996384,1.337644e-05,172.66499999996384,1.84237e-05,172.66499999996384,5.446055e-05,172.66499999996384,5.397339e-06
172.67999999996383,1.28993e-05,172.67999999996383,1.795124e-05,172.67999999996383,6.180591e-05,172.67999999996383,5.34752e-06
172.6949999999638,1.310944e-05,172.6949999999638,1.771187e-05,172.6949999999638,6.592331e-05,172.6949999999638,5.294573e-06
172.7099999999638,1.299396e-05,172.7099999999638,1.744663e-05,172.7099999999638,6.896541e-05,172.7099999999638,5.503306e-06
172.72499999996379,1.325053e-05,172.72499999996379,1.604432e-05,172.72499999996379,7.073128e-05,172.72499999996379,5.457037e-06
172.73999999996377,1.327177e-05,172.73999999996377,1.576443e-05,172.73999999996377,7.684159e-05,172.73999999996377,5.392116e-06
172.75499999996376,1.368152e-05,172.75499999996376,1.667547e-05,172.75499999996376,8.407923e-05,172.75499999996376,5.402556e-06
172.76999999996374,1.309654e-05,172.76999999996374,1.711322e-05,172.76999999996374,8.296304e-05,172.76999999996374,5.946224e-06
172.78499999996373,1.321966e-05,172.78499999996373,1.763376e-05,172.78499999996373,8.421417e-05,172.78499999996373,5.869926e-06
172.79999999996372,1.317697e-05,172.79999999996372,1.902407e-05,172.79999999996372,8.99177e-05,172.79999999996372,5.95096e-06
172.8149999999637,1.294726e-05,172.8149999999637,1.935805e-05,172.8149999999637,9.101113e-05,172.8149999999637,6.340615e-06
172.8299999999637,1.237312e-05,172.8299999999637,4.496073e-05,172.8299999999637,9.213089e-05,172.8299999999637,6.316129e-06
172.84499999996368,1.163741e-05,172.84499999996368,4.819407e-05,172.84499999996368,9.151879e-05,172.84499999996368,6.526725e-06
172.85999999996366,1.147406e-05,172.85999999996366,5.08525e-05,172.85999999996366,9.30112e-05,172.85999999996366,6.522406e-06
172.87499999996365,1.172304e-05,172.87499999996365,5.422881e-05,172.87499999996365,9.410521e-05,172.87499999996365,7.119262e-06
172.88999999996363,1.156821e-05,172.88999999996363,9.356613e-05,172.88999999996363,9.43695e-05,172.88999999996363,7.197973e-06
172.90499999996362,1.141992e-05,172.90499999996362,0.0002051301,172.90499999996362,9.376916e-05,172.90499999996362,7.209706e-06
172.9199999999636,1.177938e-05,172.9199999999636,0.0003217191,172.9199999999636,8.971726e-05,172.9199999999636,7.158726e-06
172.9349999999636,1.149124e-05,172.9349999999636,0.0003837656,172.9349999999636,8.623466e-05,172.9349999999636,7.051666e-06
172.94999999996358,1.143594e-05,172.94999999996358,0.0006669267,172.94999999996358,8.313198e-05,172.94999999996358,7.186222e-06
172.96499999996357,1.117301e-05,172.96499999996357,0.0007566177,172.96499999996357,8.08361e-05,172.96499999996357,7.095478e-06
172.97999999996355,1.105514e-05,172.97999999996355,0.0007601897,172.97999999996355,7.724895e-05,172.97999999996355,7.14888e-06
172.99499999996354,1.110472e-05,172.99499999996354,0.0007849183,172.99499999996354,6.955179e-05,172.99499999996354,7.113323e-06
173.00999999996353,1.100533e-05,173.00999999996353,0.0008095617,173.00999999996353,6.265163e-05,173.00999999996353,7.049668e-06
173.0249999999635,1.125967e-05,173.0249999999635,0.0008220632,173.0249999999635,6.609532e-05,173.0249999999635,6.97938e-06
173.0399999999635,1.138038e-05,173.0399999999635,0.0008252573,173.0399999999635,6.317779e-05,173.0399999999635,7.095478e-06
173.05499999996348,1.171703e-05,173.05499999996348,0.000825888,173.05499999996348,5.933251e-05,173.05499999996348,6.764137e-06
173.06999999996347,1.237426e-05,173.06999999996347,0.0008262206,173.06999999996347,6.198343e-05,173.06999999996347,6.552573e-06
173.08499999996346,1.243784e-05,173.08499999996346,0.0008253484,173.08499999996346,6.158535e-05,173.08499999996346,6.824264e-06
173.09999999996344,1.225414e-05,173.09999999996344,0.0008253361,173.09999999996344,6.141149e-05,173.09999999996344,6.610363e-06
173.11499999996343,1.218844e-05,173.11499999996343,0.0008256767,173.11499999996343,5.83348e-05,173.11499999996343,6.463831e-06
173.12999999996342,1.207232e-05,173.12999999996342,0.000825569,173.12999999996342,5.850479e-05,173.12999999996342,5.790191e-06
173.1449999999634,1.231149e-05,173.1449999999634,0.0008141178,173.1449999999634,5.848119e-05,173.1449999999634,5.831403e-06
173.1599999999634,1.243558e-05,173.1599999999634,0.0007733511,173.1599999999634,5.825602e-05,173.1599999999634,5.843468e-06
173.17499999996338,1.222191e-05,173.17499999996338,0.0007398863,173.17499999996338,5.696547e-05,173.17499999996338,5.838645e-06
173.18999999996336,1.229546e-05,173.18999999996336,0.0006814089,173.18999999996336,5.731824e-05,173.18999999996336,5.860319e-06
173.20499999996335,1.242765e-05,173.20499999996335,0.0003925946,173.20499999996335,5.736025e-05,173.20499999996335,5.929618e-06
173.21999999996333,1.23275e-05,173.21999999996333,0.0002779682,173.21999999996333,5.698401e-05,173.21999999996333,5.773135e-06
173.23499999996332,1.248532e-05,173.23499999996332,0.0002737859,173.23499999996332,5.615203e-05,173.23499999996332,5.741327e-06
173.2499999999633,1.180447e-05,173.2499999999633,0.0002179268,173.2499999999633,5.541237e-05,173.2499999999633,5.760922e-06
173.2649999999633,1.175784e-05,173.2649999999633,0.0001380564,173.2649999999633,5.549797e-05,173.2649999999633,5.521194e-06
173.27999999996328,1.164467e-05,173.27999999996328,0.0001012251,173.27999999996328,5.027498e-05,173.27999999996328,5.604757e-06
173.29499999996327,1.154139e-05,173.29499999996327,8.308436e-05,173.29499999996327,5.075296e-05,173.29499999996327,5.339611e-06
173.30999999996325,1.104111e-05,173.30999999996325,7.7062e-05,173.30999999996325,4.811099e-05,173.30999999996325,5.444114e-06
173.32499999996324,1.120449e-05,173.32499999996324,7.542223e-05,173.32499999996324,4.214955e-05,173.32499999996324,5.379038e-06
173.33999999996323,1.135311e-05,173.33999999996323,7.72938e-05,173.33999999996323,4.244993e-05,173.33999999996323,5.102175e-06
173.3549999999632,1.148265e-05,173.3549999999632,7.475795e-05,173.3549999999632,4.108228e-05,173.3549999999632,5.243778e-06
173.3699999999632,1.178297e-05,173.3699999999632,7.613846e-05,173.3699999999632,4.036172e-05,173.3699999999632,5.318464e-06
173.38499999996318,1.384629e-05,173.38499999996318,7.280846e-05,173.38499999996318,4.005447e-05,173.38499999996318,5.181623e-06
173.39999999996317,1.412329e-05,173.39999999996317,7.183065e-05,173.39999999996317,4.19754e-05,173.39999999996317,5.159829e-06
173.41499999996316,1.454489e-05,173.41499999996316,7.335031e-05,173.41499999996316,4.477612e-05,173.41499999996316,5.170737e-06
173.42999999996314,1.425237e-05,173.42999999996314,7.516142e-05,173.42999999996314,4.637471e-05,173.42999999996314,5.203327e-06
173.44499999996313,1.435871e-05,173.44499999996313,7.581938e-05,173.44499999996313,6.589745e-05,173.44499999996313,5.135199e-06
173.45999999996312,1.434301e-05,173.45999999996312,7.457004e-05,173.45999999996312,6.995468e-05,173.45999999996312,5.176183e-06
173.4749999999631,1.418301e-05,173.4749999999631,7.318593e-05,173.4749999999631,0.0001031996,173.4749999999631,5.423375e-06
173.4899999999631,1.441648e-05,173.4899999999631,7.496061e-05,173.4899999999631,0.000117361,173.4899999999631,5.523745e-06
173.50499999996308,1.455167e-05,173.50499999996308,7.660383e-05,173.50499999996308,0.0001397432,173.50499999996308,5.48279e-06
173.51999999996306,1.488758e-05,173.51999999996306,9.422444e-05,173.51999999996306,0.0002025246,173.51999999996306,5.577042e-06
173.53499999996305,1.536898e-05,173.53499999996305,9.736254e-05,173.53499999996305,0.0002295728,173.53499999996305,5.577042e-06
173.54999999996303,1.539371e-05,173.54999999996303,0.0001025288,173.54999999996303,0.0002361223,173.54999999996303,5.821732e-06
173.56499999996302,1.524474e-05,173.56499999996302,0.0001664007,173.56499999996302,0.0003164168,173.56499999996302,5.976941e-06
173.579999999963,1.511575e-05,173.579999999963,0.0002066262,173.579999999963,0.00041979,173.579999999963,6.515924e-06
173.594999999963,1.72534e-05,173.594999999963,0.0002281639,173.594999999963,0.0004356686,173.594999999963,6.633762e-06
173.60999999996298,1.738435e-05,173.60999999996298,0.0002558421,173.60999999996298,0.0004625665,173.60999999996298,6.606099e-06
173.62499999996297,1.797868e-05,173.62499999996297,0.0002678093,173.62499999996297,0.0004737228,173.62499999996297,7.489538e-06
173.63999999996295,1.757775e-05,173.63999999996295,0.000271686,173.63999999996295,0.000501582,173.63999999996295,8.289442e-06
173.65499999996294,1.756492e-05,173.65499999996294,0.0002749728,173.65499999996294,0.0005183187,173.65499999996294,8.365563e-06
173.66999999996293,2.124271e-05,173.66999999996293,0.0002778772,173.66999999996293,0.0005231937,173.66999999996293,9.47122e-06
173.6849999999629,2.114634e-05,173.6849999999629,0.0002783382,173.6849999999629,0.0005333247,173.6849999999629,9.466757e-06
173.6999999999629,2.121086e-05,173.6999999999629,0.0002787454,173.6999999999629,0.0005800106,173.6999999999629,9.532005e-06
173.71499999996288,2.219993e-05,173.71499999996288,0.0002808007,173.71499999996288,0.0006038826,173.71499999996288,9.637821e-06
173.72999999996287,2.249368e-05,173.72999999996287,0.0002811733,173.72999999996287,0.0006072542,173.72999999996287,9.771364e-06
173.74499999996286,2.300147e-05,173.74499999996286,0.0002869635,173.74499999996286,0.0006063551,173.74499999996286,1.007095e-05
173.75999999996284,2.396838e-05,173.75999999996284,0.0002865389,173.75999999996284,0.0006019855,173.75999999996284,1.013231e-05
173.77499999996283,2.362862e-05,173.77499999996283,0.0002829847,173.77499999996283,0.0005786722,173.77499999996283,1.023468e-05
173.78999999996282,2.335398e-05,173.78999999996282,0.0002833927,173.78999999996282,0.0005719023,173.78999999996282,1.035101e-05
173.8049999999628,2.555667e-05,173.8049999999628,0.0002859815,173.8049999999628,0.0005983651,173.8049999999628,1.048353e-05
173.8199999999628,2.607342e-05,173.8199999999628,0.0002386844,173.8199999999628,0.0005885919,173.8199999999628,1.007795e-05
173.83499999996278,2.555832e-05,173.83499999996278,0.0002248701,173.83499999996278,0.0005495411,173.83499999996278,9.824559e-06
173.84999999996276,2.429063e-05,173.84999999996276,0.000207682,173.84999999996276,0.000547983,173.84999999996276,1.038497e-05
173.86499999996275,2.410376e-05,173.86499999996275,0.0001762121,173.86499999996275,0.0005462558,173.86499999996275,1.09797e-05
173.87999999996273,2.34815e-05,173.87999999996273,0.0001630934,173.87999999996273,0.0005438811,173.87999999996273,1.03019e-05
173.89499999996272,2.322332e-05,173.89499999996272,0.0001638009,173.89499999996272,0.0005214231,173.89499999996272,1.17026e-05
173.9099999999627,2.073872e-05,173.9099999999627,0.0001632947,173.9099999999627,0.0005067164,173.9099999999627,1.17746e-05
173.9249999999627,2.01489e-05,173.9249999999627,0.0001641548,173.9249999999627,0.0005128177,173.9249999999627,1.151084e-05
173.93999999996268,2.032362e-05,173.93999999996268,0.0001665739,173.93999999996268,0.0005094606,173.93999999996268,1.172905e-05
173.95499999996267,2.00114e-05,173.95499999996267,0.0001667167,173.95499999996267,0.0004515846,173.95499999996267,1.173145e-05
173.96999999996265,1.924639e-05,173.96999999996265,0.0001625937,173.96999999996265,0.0004283842,173.96999999996265,1.169898e-05
173.98499999996264,1.94343e-05,173.98499999996264,0.0001671144,173.98499999996264,0.0004243941,173.98499999996264,1.172424e-05
173.99999999996263,1.863429e-05,173.99999999996263,0.000163376,173.99999999996263,0.0004278113,173.99999999996263,1.143594e-05
174.0149999999626,1.755209e-05,174.0149999999626,0.000176316,174.0149999999626,0.0004259055,174.0149999999626,1.147038e-05
174.0299999999626,1.744583e-05,174.0299999999626,0.000174714,174.0299999999626,0.0004223683,174.0299999999626,1.118561e-05
174.04499999996258,1.757054e-05,174.04499999996258,0.0001769879,174.04499999996258,0.000421934,174.04499999996258,1.121831e-05
174.05999999996257,1.66704e-05,174.05999999996257,0.0001928956,174.05999999996257,0.0003477381,174.05999999996257,1.125091e-05
174.07499999996256,1.682934e-05,174.07499999996256,0.00019276,174.07499999996256,0.0003116001,174.07499999996256,1.163499e-05
174.08999999996254,1.743856e-05,174.08999999996254,0.000187613,174.08999999996254,0.0003272212,174.08999999996254,1.178775e-05
174.10499999996253,1.766329e-05,174.10499999996253,0.0001797325,174.10499999996253,0.0003126073,174.10499999996253,1.117427e-05
174.11999999996252,1.816653e-05,174.11999999996252,0.0001777184,174.11999999996252,0.0003040018,174.11999999996252,1.050232e-05
174.1349999999625,1.806155e-05,174.1349999999625,0.0001817864,174.1349999999625,0.0003026692,174.1349999999625,1.047008e-05
174.1499999999625,1.849543e-05,174.1499999999625,0.0001850623,174.1499999999625,0.0003085822,174.1499999999625,9.330365e-06
174.16499999996248,1.83816e-05,174.16499999996248,0.0001904146,174.16499999996248,0.0003053671,174.16499999996248,9.291028e-06
174.17999999996246,1.846799e-05,174.17999999996246,0.0001905788,174.17999999996246,0.0002866144,174.17999999996246,8.763595e-06
174.19499999996245,1.840993e-05,174.19499999996245,0.0001980034,174.19499999996245,0.0002922416,174.19499999996245,8.68934e-06
174.20999999996243,1.824314e-05,174.20999999996243,0.0002080811,174.20999999996243,0.000291318,174.20999999996243,8.755555e-06
174.22499999996242,1.805921e-05,174.22499999996242,0.0002103381,174.22499999996242,0.0002899423,174.22499999996242,8.655229e-06
174.2399999999624,1.79151e-05,174.2399999999624,0.0002258491,174.2399999999624,0.0002857785,174.2399999999624,8.591521e-06
174.2549999999624,1.849315e-05,174.2549999999624,0.0002159132,174.2549999999624,0.0002803558,174.2549999999624,8.495891e-06
174.26999999996238,1.881185e-05,174.26999999996238,0.0002065497,174.26999999996238,0.0003030274,174.26999999996238,8.484277e-06
174.28499999996237,1.898626e-05,174.28499999996237,0.0002081235,174.28499999996237,0.0003058466,174.28499999996237,8.465993e-06
174.29999999996235,1.784972e-05,174.29999999996235,0.000211098,174.29999999996235,0.0003067338,174.29999999996235,8.277538e-06
174.31499999996234,1.578497e-05,174.31499999996234,0.0002066879,174.31499999996234,0.0003065663,174.31499999996234,8.207468e-06
174.32999999996233,1.560186e-05,174.32999999996233,0.0002060729,174.32999999996233,0.0002892031,174.32999999996233,7.784659e-06
174.3449999999623,1.498002e-05,174.3449999999623,0.0002102358,174.3449999999623,0.0002465261,174.3449999999623,7.640368e-06
174.3599999999623,1.46568e-05,174.3599999999623,0.0002122438,174.3599999999623,0.0002477535,174.3599999999623,8.122932e-06
174.37499999996228,1.372572e-05,174.37499999996228,0.0002154633,174.37499999996228,0.0002449543,174.37499999996228,7.869248e-06
174.38999999996227,1.361753e-05,174.38999999996227,0.0002162165,174.38999999996227,0.0002425997,174.38999999996227,7.793701e-06
174.40499999996226,1.400511e-05,174.40499999996226,0.0002064211,174.40499999996226,0.0002371333,174.40499999996226,7.817162e-06
174.41999999996224,1.360511e-05,174.41999999996224,0.0002052805,174.41999999996224,0.0002357932,174.41999999996224,8.710389e-06
174.43499999996223,1.403826e-05,174.43499999996223,0.0002064239,174.43499999996223,0.0002243576,174.43499999996223,8.530639e-06
174.44999999996222,1.428495e-05,174.44999999996222,0.0001903397,174.44999999996222,0.0002112096,174.44999999996222,8.358825e-06
174.4649999999622,1.479836e-05,174.4649999999622,0.0001854964,174.4649999999622,0.0002082923,174.4649999999622,9.520175e-06
174.4799999999622,1.489892e-05,174.4799999999622,0.0001788871,174.4799999999622,0.0001997225,174.4799999999622,9.729466e-06
174.49499999996218,1.451095e-05,174.49499999996218,0.0001589037,174.49499999996218,0.0001948489,174.49499999996218,9.801591e-06
174.50999999996216,1.425928e-05,174.50999999996216,0.0001580103,174.50999999996216,0.0001730259,174.50999999996216,9.897414e-06
174.52499999996215,1.364543e-05,174.52499999996215,0.0001606306,174.52499999996215,0.0001535581,174.52499999996215,9.755493e-06
174.53999999996213,1.379431e-05,174.53999999996213,0.0001596372,174.53999999996213,0.0001472843,174.53999999996213,9.804465e-06
174.55499999996212,1.387678e-05,174.55499999996212,0.0001477717,174.55499999996212,0.0001570703,174.55499999996212,9.639282e-06
174.5699999999621,1.397087e-05,174.5699999999621,0.0001474032,174.5699999999621,0.0001589326,174.5699999999621,9.662636e-06
174.5849999999621,1.406933e-05,174.5849999999621,0.0001501248,174.5849999999621,0.0001594275,174.5849999999621,9.639282e-06
174.59999999996208,1.38086e-05,174.59999999996208,0.0001465663,174.59999999996208,0.0001564821,174.59999999996208,9.30012e-06
174.61499999996207,1.403525e-05,174.61499999996207,0.0001478817,174.61499999996207,0.0001529259,174.61499999996207,8.813284e-06
174.62999999996205,1.425039e-05,174.62999999996205,0.0001464081,174.62999999996205,0.0001487034,174.62999999996205,8.95126e-06
174.64499999996204,1.440377e-05,174.64499999996204,0.0001366554,174.64499999996204,0.0001448881,174.64499999996204,8.757163e-06
174.65999999996203,1.354388e-05,174.65999999996203,0.0001337129,174.65999999996203,0.0001445005,174.65999999996203,8.100356e-06
174.674999999962,1.379227e-05,174.674999999962,0.0001353533,174.674999999962,0.0001439096,174.674999999962,7.645896e-06
174.689999999962,1.39072e-05,174.689999999962,0.0001293922,174.689999999962,0.0001471597,174.689999999962,7.607108e-06
174.70499999996198,1.360304e-05,174.70499999996198,0.0001299576,174.70499999996198,0.0001473302,174.70499999996198,7.480127e-06
174.71999999996197,1.312341e-05,174.71999999996197,0.0001295584,174.71999999996197,0.0001436427,174.71999999996197,5.498184e-06
174.73499999996196,1.37134e-05,174.73499999996196,0.0001272907,174.73499999996196,0.0001420409,174.73499999996196,5.265225e-06
174.74999999996194,1.360718e-05,174.74999999996194,0.0001301675,174.74999999996194,0.0001419494,174.74999999996194,5.469929e-06
174.76499999996193,1.384527e-05,174.76499999996193,0.0001286512,174.76499999996193,0.000151702,174.76499999996193,5.323759e-06
174.77999999996192,1.39416e-05,174.77999999996192,0.0001278737,174.77999999996192,0.0001543228,174.77999999996192,5.373798e-06
174.7949999999619,1.374213e-05,174.7949999999619,0.0001186986,174.7949999999619,0.0001546563,174.7949999999619,5.246463e-06
174.8099999999619,1.402119e-05,174.8099999999619,0.0001166764,174.8099999999619,0.0001636083,174.8099999999619,5.53139e-06
174.82499999996188,1.399202e-05,174.82499999996188,0.0001153474,174.82499999996188,0.0001970396,174.82499999996188,5.358047e-06
174.83999999996186,1.402822e-05,174.83999999996186,0.0001053363,174.83999999996186,0.0002088024,174.83999999996186,5.485359e-06
174.85499999996185,1.396885e-05,174.85499999996185,0.0001038157,174.85499999996185,0.0002063688,174.85499999996185,5.619817e-06
174.86999999996183,1.430269e-05,174.86999999996183,9.893727e-05,174.86999999996183,0.0002100029,174.86999999996183,6.030905e-06
174.88499999996182,1.374828e-05,174.88499999996182,0.0001013038,174.88499999996182,0.0002207823,174.88499999996182,6.11902e-06
174.8999999999618,1.403324e-05,174.8999999999618,0.0001001125,174.8999999999618,0.00022463,174.8999999999618,6.082075e-06
174.9149999999618,1.411831e-05,174.9149999999618,9.904528e-05,174.9149999999618,0.0002261538,174.9149999999618,6.13052e-06
174.92999999996178,1.426126e-05,174.92999999996178,0.000100269,174.92999999996178,0.0002282395,174.92999999996178,6.58688e-06
174.94499999996177,1.437244e-05,174.94499999996177,9.782486e-05,174.94499999996177,0.000229677,174.94499999996177,6.747456e-06
174.95999999996175,1.548222e-05,174.95999999996175,9.790763e-05,174.95999999996175,0.0002298127,174.95999999996175,6.699267e-06
174.97499999996174,1.5768e-05,174.97499999996174,9.748299e-05,174.97499999996174,0.0002277799,174.97499999996174,6.755802e-06
174.98999999996173,1.507095e-05,174.98999999996173,9.577664e-05,174.98999999996173,0.0002257336,174.98999999996173,7.203842e-06
175.0049999999617,1.480407e-05,175.0049999999617,9.32594e-05,175.0049999999617,0.0002359074,175.0049999999617,7.105398e-06
175.0199999999617,1.461253e-05,175.0199999999617,9.407917e-05,175.0199999999617,0.0002286156,175.0199999999617,7.135074e-06
175.03499999996168,1.467121e-05,175.03499999996168,9.209006e-05,175.03499999996168,0.0002295509,175.03499999996168,7.238955e-06
175.04999999996167,1.448083e-05,175.04999999996167,9.319428e-05,175.04999999996167,0.0002302537,175.04999999996167,7.375824e-06
175.06499999996166,1.434988e-05,175.06499999996166,9.008689e-05,175.06499999996166,0.0002146024,175.06499999996166,7.201887e-06
175.07999999996164,1.414522e-05,175.07999999996164,9.007219e-05,175.07999999996164,0.000184479,175.07999999996164,7.190141e-06
175.09499999996163,1.447499e-05,175.09499999996163,9.594475e-05,175.09499999996163,0.0001787965,175.09499999996163,7.156758e-06
175.10999999996162,1.445454e-05,175.10999999996162,0.0001042187,175.10999999996162,0.0001795565,175.10999999996162,6.811867e-06
175.1249999999616,1.399605e-05,175.1249999999616,0.0001026225,175.1249999999616,0.0001750087,175.1249999999616,6.567604e-06
175.1399999999616,1.41193e-05,175.1399999999616,0.0001025603,175.1399999999616,0.0001572297,175.1399999999616,6.411314e-06
175.15499999996157,1.402119e-05,175.15499999996157,0.0001004555,175.15499999996157,0.0001717709,175.15499999996157,6.457289e-06
175.16999999996156,1.373392e-05,175.16999999996156,9.988863e-05,175.16999999996156,0.0002101245,175.16999999996156,6.08439e-06
175.18499999996155,1.307825e-05,175.18499999996155,0.0001027665,175.18499999996155,0.0002068956,175.18499999996155,5.667242e-06
175.19999999996153,1.242198e-05,175.19999999996153,0.0001040696,175.19999999996153,0.0002164509,175.19999999996153,5.632336e-06
175.21499999996152,1.149859e-05,175.21499999996152,0.0001067136,175.21499999996152,0.0002274889,175.21499999996152,5.893875e-06
175.2299999999615,1.178775e-05,175.2299999999615,0.0001044881,175.2299999999615,0.0002279161,175.2299999999615,5.642331e-06
175.2449999999615,1.183426e-05,175.2449999999615,0.0001070697,175.2449999999615,0.0002259424,175.2449999999615,5.639834e-06
175.25999999996148,1.183783e-05,175.25999999996148,0.00010941,175.25999999996148,0.0002089091,175.25999999996148,5.664756e-06
175.27499999996147,1.249434e-05,175.27499999996147,0.0001083792,175.27499999996147,0.0002134116,175.27499999996147,5.619817e-06
175.28999999996145,1.253149e-05,175.28999999996145,0.0001100728,175.28999999996145,0.0002042598,175.28999999996145,5.582091e-06
175.30499999996144,1.305129e-05,175.30499999996144,0.0001117928,175.30499999996144,0.0002006309,175.30499999996144,5.687093e-06
175.31999999996142,1.294182e-05,175.31999999996142,0.0001123719,175.31999999996142,0.0002006776,175.31999999996142,5.639834e-06
175.3349999999614,1.309009e-05,175.3349999999614,0.0001106135,175.3349999999614,0.0002020471,175.3349999999614,5.634837e-06
175.3499999999614,1.2669e-05,175.3499999999614,0.0001064062,175.3499999999614,0.0001997457,175.3499999999614,5.642331e-06
175.36499999996138,1.259093e-05,175.36499999996138,9.988003e-05,175.36499999996138,0.0002006414,175.36499999996138,5.819312e-06
175.37999999996137,1.245369e-05,175.37999999996137,0.0001006971,175.37999999996137,0.0002053869,175.37999999996137,5.768253e-06
175.39499999996136,1.231149e-05,175.39499999996136,0.0001006322,175.39499999996136,0.0002030231,175.39499999996136,5.775575e-06
175.40999999996134,1.21896e-05,175.40999999996134,9.996293e-05,175.40999999996134,0.0001800411,175.40999999996134,5.850696e-06
175.42499999996133,1.290912e-05,175.42499999996133,9.843553e-05,175.42499999996133,0.0001555267,175.42499999996133,5.901041e-06
175.43999999996132,1.243784e-05,175.43999999996132,0.0001010161,175.43999999996132,0.0001522259,175.43999999996132,5.922486e-06
175.4549999999613,1.233778e-05,175.4549999999613,0.0001084581,175.4549999999613,0.0001459675,175.4549999999613,5.714275e-06
175.4699999999613,1.234576e-05,175.4699999999613,0.000108271,175.4699999999613,0.0001424094,175.4699999999613,5.564399e-06
175.48499999996127,1.213052e-05,175.48499999996127,0.000106065,175.48499999996127,0.0001444796,175.48499999996127,5.541568e-06
175.49999999996126,1.219653e-05,175.49999999996126,0.0001039107,175.49999999996126,0.0001444891,175.49999999996126,5.523745e-06
175.51499999996125,1.202321e-05,175.51499999996125,0.0001053817,175.51499999996125,0.0001475262,175.51499999996125,5.457037e-06
175.52999999996123,1.137542e-05,175.52999999996123,0.000106375,175.52999999996123,0.0001481188,175.52999999996123,5.500745e-06
175.54499999996122,1.117049e-05,175.54499999996122,0.0001077231,175.54499999996122,0.0001471575,175.54499999996122,5.299891e-06
175.5599999999612,1.100533e-05,175.5599999999612,0.0001087637,175.5599999999612,0.0001497624,175.5599999999612,5.454455e-06
175.5749999999612,1.141375e-05,175.5749999999612,0.0001084818,175.5749999999612,0.0001466765,175.5749999999612,5.716739e-06
175.58999999996118,1.130337e-05,175.58999999996118,0.0001077359,175.58999999996118,0.0001450194,175.58999999996118,5.657291e-06
175.60499999996117,1.101045e-05,175.60499999996117,0.0001099707,175.60499999996117,0.0001512037,175.60499999996117,5.787757e-06
175.61999999996115,1.140881e-05,175.61999999996115,0.0001091967,175.61999999996115,0.0001504794,175.61999999996115,5.674694e-06
175.63499999996114,1.12484e-05,175.63499999996114,0.0001126303,175.63499999996114,0.0001489675,175.63499999996114,5.619817e-06
175.64999999996112,1.094887e-05,175.64999999996112,0.0001072099,175.64999999996112,0.0001503528,175.64999999996112,5.634837e-06
175.6649999999611,1.084415e-05,175.6649999999611,0.0001062543,175.6649999999611,0.0001441065,175.6649999999611,5.833818e-06
175.6799999999611,1.098098e-05,175.6799999999611,0.000109382,175.6799999999611,0.0001422095,175.6799999999611,5.773135e-06
175.69499999996108,1.111233e-05,175.69499999996108,9.848832e-05,175.69499999996108,0.0001432977,175.69499999996108,5.814468e-06
175.70999999996107,1.113386e-05,175.70999999996107,9.568584e-05,175.70999999996107,0.0001300649,175.70999999996107,5.867525e-06
175.72499999996106,1.079337e-05,175.72499999996106,9.962683e-05,175.72499999996106,0.0001196153,175.72499999996106,5.984008e-06
175.73999999996104,1.115156e-05,175.73999999996104,0.0001019269,175.73999999996104,0.0001206131,175.73999999996104,6.054217e-06
175.75499999996103,1.204428e-05,175.75499999996103,0.0001031051,175.75499999996103,0.0001176056,175.75499999996103,5.981653e-06
175.76999999996102,1.190665e-05,175.76999999996102,9.787194e-05,175.76999999996102,0.0001047134,175.76999999996102,5.974584e-06
175.784999999961,1.21711e-05,175.784999999961,9.873731e-05,175.784999999961,0.0001039441,175.784999999961,6.19225e-06
175.799999999961,1.218498e-05,175.799999999961,9.434486e-05,175.799999999961,0.0001056435,175.799999999961,6.257873e-06
175.81499999996097,1.204077e-05,175.81499999996097,9.429722e-05,175.81499999996097,0.0001030382,175.81499999996097,6.049562e-06
175.82999999996096,1.167729e-05,175.82999999996096,9.443187e-05,175.82999999996096,0.0001010946,175.82999999996096,6.08439e-06
175.84499999996095,1.184378e-05,175.84499999996095,9.396815e-05,175.84499999996095,0.0001022239,175.84499999996095,6.280343e-06
175.85999999996093,1.229889e-05,175.85999999996093,9.563578e-05,175.85999999996093,8.886234e-05,175.85999999996093,6.289309e-06
175.87499999996092,1.226219e-05,175.87499999996092,9.565875e-05,175.87499999996092,0.0001030324,175.87499999996092,6.316129e-06
175.8899999999609,1.214909e-05,175.8899999999609,9.413604e-05,175.8899999999609,0.0001112273,175.8899999999609,6.518086e-06
175.9049999999609,1.222307e-05,175.9049999999609,9.51113e-05,175.9049999999609,0.0001072301,175.9049999999609,6.528882e-06
175.91999999996088,1.189955e-05,175.91999999996088,9.549752e-05,175.91999999996088,0.0001135309,175.91999999996088,6.331722e-06
175.93499999996087,1.193147e-05,175.93499999996087,9.279331e-05,175.93499999996087,0.0001156046,175.93499999996087,6.132817e-06
175.94999999996085,1.201266e-05,175.94999999996085,9.122989e-05,175.94999999996085,0.0001125111,175.94999999996085,6.100575e-06
175.96499999996084,1.182474e-05,175.96499999996084,8.837975e-05,175.96499999996084,0.0001147627,175.96499999996084,5.965146e-06
175.97999999996082,1.164951e-05,175.97999999996082,8.40655e-05,175.97999999996082,0.0001164744,175.97999999996082,5.953326e-06
175.9949999999608,1.07999e-05,175.9949999999608,8.621734e-05,175.9949999999608,0.0001154412,175.9949999999608,5.768253e-06
176.0099999999608,1.043234e-05,176.0099999999608,8.772704e-05,176.0099999999608,0.0001177459,176.0099999999608,5.814468e-06
176.02499999996078,1.038633e-05,176.02499999996078,8.653683e-05,176.02499999996078,0.0001182851,176.02499999996078,5.877121e-06
176.03999999996077,9.94002e-06,176.03999999996077,8.571478e-05,176.03999999996077,0.00011832,176.03999999996077,5.609782e-06
176.05499999996076,9.821691e-06,176.05499999996076,8.956782e-05,176.05499999996076,0.0001189199,176.05499999996076,5.642331e-06
176.06999999996074,1.001063e-05,176.06999999996074,8.908574e-05,176.06999999996074,0.0001194516,176.06999999996074,5.632336e-06
176.08499999996073,1.027314e-05,176.08499999996073,8.835154e-05,176.08499999996073,0.0001189387,176.08499999996073,5.521194e-06
176.09999999996072,9.971149e-06,176.09999999996072,8.908779e-05,176.09999999996072,0.000118414,176.09999999996072,5.425972e-06
176.1149999999607,9.065413e-06,176.1149999999607,8.69898e-05,176.1149999999607,0.0001129315,176.1149999999607,5.336972e-06
176.1299999999607,8.998348e-06,176.1299999999607,8.321532e-05,176.1299999999607,0.0001003789,176.1299999999607,5.397339e-06
176.14499999996067,9.291028e-06,176.14499999996067,8.507059e-05,176.14499999996067,9.275747e-05,176.14499999996067,5.342249e-06
176.15999999996066,9.426494e-06,176.15999999996066,8.780473e-05,176.15999999996066,9.340444e-05,176.15999999996066,5.438937e-06
176.17499999996065,9.165859e-06,176.17499999996065,8.985768e-05,176.17499999996065,8.704015e-05,176.17499999996065,5.433755e-06
176.18999999996063,8.805288e-06,176.18999999996063,9.073971e-05,176.18999999996063,8.272907e-05,176.18999999996063,5.649817e-06
176.20499999996062,8.8754e-06,176.20499999996062,9.084986e-05,176.20499999996062,8.269177e-05,176.20499999996062,5.838645e-06
176.2199999999606,9.138154e-06,176.2199999999606,9.079061e-05,176.2199999999606,7.816082e-05,176.2199999999606,5.797484e-06
176.2349999999606,9.105725e-06,176.2349999999606,8.724965e-05,176.2349999999606,7.968915e-05,176.2349999999606,5.768253e-06
176.24999999996058,9.205732e-06,176.24999999996058,8.659557e-05,176.24999999996058,8.110367e-05,176.24999999996058,5.946224e-06
176.26499999996057,9.09334e-06,176.26499999996057,8.693813e-05,176.26499999996057,7.96812e-05,176.26499999996057,5.81689e-06
176.27999999996055,9.596809e-06,176.27999999996055,8.821304e-05,176.27999999996055,8.176601e-05,176.27999999996055,5.901041e-06
176.29499999996054,9.767037e-06,176.29499999996054,8.80772e-05,176.29499999996054,7.607904e-05,176.29499999996054,5.627332e-06
176.30999999996052,1.008074e-05,176.30999999996052,8.688302e-05,176.30999999996052,7.428083e-05,176.30999999996052,5.706874e-06
176.3249999999605,9.840318e-06,176.3249999999605,8.796453e-05,176.3249999999605,7.702122e-05,176.3249999999605,5.736418e-06
176.3399999999605,9.707725e-06,176.3399999999605,8.587076e-05,176.3399999999605,7.799808e-05,176.3399999999605,5.778013e-06
176.35499999996048,9.945687e-06,176.35499999996048,8.471e-05,176.35499999996048,7.802697e-05,176.35499999996048,5.719203e-06
176.36999999996047,9.979622e-06,176.36999999996047,8.820681e-05,176.36999999996047,7.914016e-05,176.36999999996047,5.677176e-06
176.38499999996046,1.027588e-05,176.38499999996046,9.069794e-05,176.38499999996046,8.002431e-05,176.38499999996046,5.48022e-06
176.39999999996044,9.975386e-06,176.39999999996044,8.801624e-05,176.39999999996044,7.662791e-05,176.39999999996044,5.402556e-06
176.41499999996043,9.890295e-06,176.41499999996043,9.166874e-05,176.41499999996043,7.705213e-05,176.41499999996043,5.405162e-06
176.42999999996042,1.051037e-05,176.42999999996042,9.041934e-05,176.42999999996042,7.558511e-05,176.42999999996042,5.485359e-06
176.4449999999604,1.066866e-05,176.4449999999604,9.048817e-05,176.4449999999604,7.491625e-05,176.4449999999604,5.206033e-06
176.4599999999604,1.062102e-05,176.4599999999604,9.128483e-05,176.4599999999604,7.451051e-05,176.4599999999604,5.173461e-06
176.47499999996037,1.054515e-05,176.47499999996037,9.144148e-05,176.47499999996037,7.446323e-05,176.47499999996037,5.498184e-06
176.48999999996036,1.08012e-05,176.48999999996036,9.078394e-05,176.48999999996036,7.136574e-05,176.48999999996036,5.513535e-06
176.50499999996035,1.096172e-05,176.50499999996035,9.725469e-05,176.50499999996035,6.970656e-05,176.50499999996035,5.644828e-06
176.51999999996033,1.092439e-05,176.51999999996033,9.481863e-05,176.51999999996033,6.739058e-05,176.51999999996033,5.689569e-06
176.53499999996032,1.095915e-05,176.53499999996032,9.531591e-05,176.53499999996032,7.04667e-05,176.53499999996032,5.61731e-06
176.5499999999603,1.059048e-05,176.5499999999603,9.399557e-05,176.5499999999603,6.972232e-05,176.5499999999603,5.599728e-06
176.5649999999603,1.042964e-05,176.5649999999603,9.329746e-05,176.5649999999603,7.227075e-05,176.5649999999603,5.664756e-06
176.57999999996028,1.045392e-05,176.57999999996028,9.363656e-05,176.57999999996028,6.612706e-05,176.57999999996028,5.773135e-06
176.59499999996027,1.082205e-05,176.59499999996027,9.260442e-05,176.59499999996027,6.645113e-05,176.59499999996027,5.682137e-06
176.60999999996025,1.06356e-05,176.60999999996025,9.388116e-05,176.60999999996025,6.853574e-05,176.60999999996025,5.831403e-06
176.62499999996024,1.078162e-05,176.62499999996024,9.480541e-05,176.62499999996024,7.125848e-05,176.62499999996024,5.924864e-06
176.63999999996022,1.088823e-05,176.63999999996022,9.300802e-05,176.63999999996022,7.24895e-05,176.63999999996022,5.972226e-06
176.6549999999602,1.091665e-05,176.6549999999602,9.008595e-05,176.6549999999602,7.375232e-05,176.6549999999602,6.049562e-06
176.6699999999602,1.081814e-05,176.6699999999602,8.898812e-05,176.6699999999602,7.349708e-05,176.6699999999602,6.054217e-06
176.68499999996018,1.063428e-05,176.68499999996018,8.887598e-05,176.68499999996018,7.688283e-05,176.68499999996018,6.132817e-06
176.69999999996017,1.037004e-05,176.69999999996017,8.822294e-05,176.69999999996017,7.831638e-05,176.69999999996017,6.180865e-06
176.71499999996016,1.031693e-05,176.71499999996016,8.853025e-05,176.71499999996016,7.94787e-05,176.71499999996016,6.123622e-06
176.72999999996014,1.052644e-05,176.72999999996014,8.858736e-05,176.72999999996014,7.803744e-05,176.72999999996014,6.000464e-06
176.74499999996013,1.062633e-05,176.74499999996013,8.329957e-05,176.74499999996013,7.864521e-05,176.74499999996013,5.922486e-06
176.75999999996012,1.06581e-05,176.75999999996012,8.256801e-05,176.75999999996012,8.138525e-05,176.75999999996012,5.857914e-06
176.7749999999601,1.067262e-05,176.7749999999601,7.97646e-05,176.7749999999601,7.67082e-05,176.7749999999601,6.137409e-06
176.7899999999601,1.049158e-05,176.7899999999601,8.181699e-05,176.7899999999601,8.428472e-05,176.7899999999601,6.260124e-06
176.80499999996007,1.071741e-05,176.80499999996007,8.17829e-05,176.80499999996007,8.546395e-05,176.80499999996007,6.318359e-06
176.81999999996006,1.175184e-05,176.81999999996006,8.251544e-05,176.81999999996006,8.248044e-05,176.81999999996006,6.373853e-06
176.83499999996005,1.176502e-05,176.83499999996005,8.297968e-05,176.83499999996005,8.413333e-05,176.83499999996005,6.19907e-06
176.84999999996003,1.154383e-05,176.84999999996003,8.354527e-05,176.84999999996003,8.482683e-05,176.84999999996003,6.349495e-06
176.86499999996002,1.141745e-05,176.86499999996002,8.486617e-05,176.86499999996002,8.650182e-05,176.86499999996002,6.095956e-06
176.87999999996,1.136179e-05,176.87999999996,8.091535e-05,176.87999999996,8.343188e-05,176.87999999996,6.205884e-06
176.89499999996,1.117931e-05,176.89499999996,8.053004e-05,176.89499999996,8.284529e-05,176.89499999996,6.318359e-06
176.90999999995998,1.142115e-05,176.90999999995998,8.117988e-05,176.90999999995998,8.232881e-05,176.90999999995998,6.262374e-06
176.92499999995997,1.160347e-05,176.92499999995997,8.056746e-05,176.92499999995997,8.61065e-05,176.92499999995997,6.333946e-06
176.93999999995995,1.191848e-05,176.93999999995995,7.836672e-05,176.93999999995995,8.632772e-05,176.93999999995995,6.347276e-06
176.95499999995994,1.184021e-05,176.95499999995994,7.923693e-05,176.95499999995994,8.972166e-05,176.95499999995994,6.2781e-06
176.96999999995992,1.17746e-05,176.96999999995992,8.177997e-05,176.96999999995992,9.202594e-05,176.96999999995992,6.230803e-06
176.9849999999599,1.133697e-05,176.9849999999599,8.065798e-05,176.9849999999599,9.403408e-05,176.9849999999599,6.176305e-06
176.9999999999599,1.176143e-05,176.9999999999599,8.314977e-05,176.9999999999599,9.369686e-05,176.9999999999599,5.969867e-06
177.01499999995988,1.15816e-05,177.01499999995988,8.29678e-05,177.01499999995988,9.432291e-05,177.01499999995988,6.01219e-06
177.02999999995987,1.142238e-05,177.02999999995987,8.345602e-05,177.02999999995987,9.352095e-05,177.02999999995987,5.574516e-06
177.04499999995986,1.141992e-05,177.04499999995986,8.269791e-05,177.04499999995986,8.753318e-05,177.04499999995986,5.696992e-06
177.05999999995984,1.093084e-05,177.05999999995984,7.824908e-05,177.05999999995984,8.76427e-05,177.05999999995984,5.564399e-06
177.07499999995983,1.023192e-05,177.07499999995983,8.231684e-05,177.07499999995983,8.792224e-05,177.07499999995983,5.622323e-06
177.08999999995982,1.069899e-05,177.08999999995982,8.173138e-05,177.08999999995982,8.969214e-05,177.08999999995982,5.958057e-06
177.1049999999598,1.054248e-05,177.1049999999598,8.477699e-05,177.1049999999598,8.829875e-05,177.1049999999598,5.814468e-06
177.1199999999598,1.065016e-05,177.1199999999598,8.489472e-05,177.1199999999598,8.80764e-05,177.1199999999598,5.760922e-06
177.13499999995977,1.072266e-05,177.13499999995977,8.70958e-05,177.13499999995977,8.804569e-05,177.13499999995977,5.879517e-06
177.14999999995976,1.103601e-05,177.14999999995976,9.012067e-05,177.14999999995976,8.643372e-05,177.14999999995976,5.831403e-06
177.16499999995975,1.038633e-05,177.16499999995975,8.952425e-05,177.16499999995975,8.671683e-05,177.16499999995975,5.716739e-06
177.17999999995973,1.031966e-05,177.17999999995973,9.260899e-05,177.17999999995973,8.102547e-05,177.17999999995973,5.61731e-06
177.19499999995972,9.79584e-06,177.19499999995972,9.441367e-05,177.19499999995972,8.305859e-05,177.19499999995972,5.898653e-06
177.2099999999597,1.004995e-05,177.2099999999597,9.452207e-05,177.2099999999597,7.617231e-05,177.2099999999597,5.893875e-06
177.2249999999597,1.050634e-05,177.2249999999597,9.224885e-05,177.2249999999597,7.263199e-05,177.2249999999597,5.984008e-06
177.23999999995968,1.029232e-05,177.23999999995968,9.292756e-05,177.23999999995968,7.027734e-05,177.23999999995968,6.135114e-06
177.25499999995967,1.027725e-05,177.25499999995967,8.911514e-05,177.25499999995967,6.799552e-05,177.25499999995967,6.082075e-06
177.26999999995965,1.009889e-05,177.26999999995965,9.144965e-05,177.26999999995965,6.96538e-05,177.26999999995965,6.089019e-06
177.28499999995964,1.00961e-05,177.28499999995964,8.973077e-05,177.28499999995964,6.886832e-05,177.28499999995964,6.160319e-06
177.29999999995962,1.004715e-05,177.29999999995962,8.891036e-05,177.29999999995962,6.889347e-05,177.29999999995962,6.056544e-06
177.3149999999596,1.038497e-05,177.3149999999596,8.798615e-05,177.3149999999596,6.628515e-05,177.3149999999596,6.114414e-06
177.3299999999596,1.043504e-05,177.3299999999596,8.952425e-05,177.3299999999596,6.793354e-05,177.3299999999596,6.189974e-06
177.34499999995958,9.820256e-06,177.34499999995958,8.521866e-05,177.34499999995958,6.481633e-05,177.34499999995958,5.922486e-06
177.35999999995957,9.893143e-06,177.35999999995957,8.434219e-05,177.35999999995957,6.496612e-05,177.35999999995957,5.908198e-06
177.37499999995956,9.868907e-06,177.37499999995956,8.295812e-05,177.37499999995956,6.607869e-05,177.37499999995956,5.929618e-06
177.38999999995954,9.725122e-06,177.38999999995954,8.291328e-05,177.38999999995954,6.645728e-05,177.38999999995954,5.838645e-06
177.40499999995953,9.935768e-06,177.40499999995953,8.036456e-05,177.40499999995953,6.67983e-05,177.40499999995953,5.694519e-06
177.41999999995951,9.932932e-06,177.41999999995951,8.215084e-05,177.41999999995951,6.616625e-05,177.41999999995951,5.901041e-06
177.4349999999595,9.989498e-06,177.4349999999595,8.252484e-05,177.4349999999595,6.503979e-05,177.4349999999595,5.831403e-06
177.4499999999595,1.005556e-05,177.4499999999595,8.489472e-05,177.4499999999595,6.324287e-05,177.4499999999595,5.495621e-06
177.46499999995947,1.024156e-05,177.46499999995947,8.795749e-05,177.46499999995947,6.551928e-05,177.46499999995947,5.56693e-06
177.47999999995946,1.039717e-05,177.47999999995946,8.92292e-05,177.47999999995946,6.475284e-05,177.47999999995946,5.541568e-06
177.49499999995945,1.092955e-05,177.49499999995945,9.740594e-05,177.49499999995945,6.675084e-05,177.49499999995945,5.48279e-06
177.50999999995943,1.095015e-05,177.50999999995943,0.0001100102,177.50999999995943,6.604799e-05,177.50999999995943,5.490492e-06
177.52499999995942,1.10194e-05,177.52499999995942,0.000109887,177.52499999995942,7.105695e-05,177.52499999995942,5.477649e-06
177.5399999999594,1.117931e-05,177.5399999999594,0.0001130342,177.5399999999594,7.177552e-05,177.5399999999594,5.564399e-06
177.5549999999594,1.125717e-05,177.5549999999594,0.0001141361,177.5549999999594,7.115838e-05,177.5549999999594,5.577042e-06
177.56999999995938,1.088305e-05,177.56999999995938,0.0001172514,177.56999999995938,7.269306e-05,177.56999999995938,5.423375e-06
177.58499999995936,1.093342e-05,177.58499999995936,0.0001146896,177.58499999995936,7.363361e-05,177.58499999995936,5.464775e-06
177.59999999995935,1.095787e-05,177.59999999995935,0.0001143413,177.59999999995935,7.419829e-05,177.59999999995935,5.368553e-06
177.61499999995934,1.084285e-05,177.61499999995934,0.0001148852,177.61499999995934,7.478112e-05,177.61499999995934,5.418178e-06
177.62999999995932,1.054382e-05,177.62999999995932,0.0001143397,177.62999999995932,7.069303e-05,177.62999999995932,5.230329e-06
177.6449999999593,1.075284e-05,177.6449999999593,0.0001146386,177.6449999999593,7.060211e-05,177.6449999999593,5.323759e-06
177.6599999999593,1.068318e-05,177.6599999999593,0.0001153189,177.6599999999593,6.994844e-05,177.6599999999593,5.315815e-06
177.67499999995928,1.070162e-05,177.67499999995928,0.0001139952,177.67499999995928,6.924753e-05,177.67499999995928,5.192486e-06
177.68999999995927,1.047277e-05,177.68999999995927,0.0001066032,177.68999999995927,6.917751e-05,177.68999999995927,5.350154e-06
177.70499999995926,1.027451e-05,177.70499999995926,0.0001099382,177.70499999995926,7.288389e-05,177.70499999995926,5.336972e-06
177.71999999995924,9.706273e-06,177.71999999995924,0.0001146101,177.71999999995924,7.187025e-05,177.71999999995924,5.291911e-06
177.73499999995923,9.611476e-06,177.73499999995923,0.0001120553,177.73499999995923,7.181849e-05,177.73499999995923,5.423375e-06
177.74999999995921,8.965412e-06,177.74999999995921,0.0001064782,177.74999999995921,7.234984e-05,177.74999999995921,5.554263e-06
177.7649999999592,8.854743e-06,177.7649999999592,9.621379e-05,177.7649999999592,7.344627e-05,177.7649999999592,5.544109e-06
177.7799999999592,8.95598e-06,177.7799999999592,9.647054e-05,177.7799999999592,6.608231e-05,177.7799999999592,5.418178e-06
177.79499999995917,8.963841e-06,177.79499999995917,0.0001000659,177.79499999995917,7.167162e-05,177.79499999995917,5.469929e-06
177.80999999995916,8.91025e-06,177.80999999995916,9.674103e-05,177.80999999995916,7.014592e-05,177.80999999995916,5.402556e-06
177.82499999995915,9.336401e-06,177.82499999995915,9.614861e-05,177.82499999995915,7.99921e-05,177.82499999995915,5.599728e-06
177.83999999995913,9.410042e-06,177.83999999995913,9.713513e-05,177.83999999995913,8.018786e-05,177.83999999995913,5.724127e-06
177.85499999995912,9.342435e-06,177.85499999995912,0.0001026369,177.85499999995912,7.883091e-05,177.85499999995912,5.746233e-06
177.8699999999591,9.561515e-06,177.8699999999591,0.0001061705,177.8699999999591,8.113337e-05,177.8699999999591,5.826569e-06
177.8849999999591,9.876042e-06,177.8849999999591,0.0001121044,177.8849999999591,8.034405e-05,177.8849999999591,5.857914e-06
177.89999999995908,9.460803e-06,177.89999999995908,0.0001128707,177.89999999995908,8.056746e-05,177.89999999995908,5.946224e-06
177.91499999995906,9.560042e-06,177.91499999995906,0.0001122934,177.91499999995906,8.129485e-05,177.91499999995906,6.000464e-06
177.92999999995905,9.914478e-06,177.92999999995905,0.000109695,177.92999999995905,8.136015e-05,177.92999999995905,5.917727e-06
177.94499999995904,1.009052e-05,177.94499999995904,0.0001072445,177.94499999995904,7.951981e-05,177.94499999995904,5.960421e-06
177.95999999995902,1.02333e-05,177.95999999995902,0.0001059534,177.95999999995902,7.696213e-05,177.95999999995902,5.841057e-06
177.974999999959,1.027314e-05,177.974999999959,0.0001027368,177.974999999959,7.807228e-05,177.974999999959,5.877121e-06
177.989999999959,1.082595e-05,177.989999999959,0.0001040515,177.989999999959,7.852313e-05,177.989999999959,5.743781e-06
178.00499999995898,1.07777e-05,178.00499999995898,0.0001066917,178.00499999995898,7.848204e-05,178.00499999995898,5.544109e-06
178.01999999995897,1.062235e-05,178.01999999995897,0.0001069289,178.01999999995897,8.004596e-05,178.01999999995897,5.672212e-06
178.03499999995896,1.139151e-05,178.03499999995896,0.0001097041,178.03499999995896,7.82991e-05,178.03499999995896,5.594695e-06
178.04999999995894,1.193501e-05,178.04999999995894,0.000106326,178.04999999995894,7.412763e-05,178.04999999995894,5.659781e-06
178.06499999995893,1.191375e-05,178.06499999995893,0.0001075349,178.06499999995893,6.757469e-05,178.06499999995893,5.792623e-06
178.07999999995891,1.141251e-05,178.07999999995891,0.0001058932,178.07999999995891,6.089597e-05,178.07999999995891,5.528843e-06
178.0949999999589,1.149492e-05,178.0949999999589,0.0001046171,178.0949999999589,5.951007e-05,178.0949999999589,5.642331e-06
178.1099999999589,1.151818e-05,178.1099999999589,0.0001001506,178.1099999999589,5.837077e-05,178.1099999999589,5.654801e-06
178.12499999995887,1.137542e-05,178.12499999995887,0.0001007953,178.12499999995887,5.705689e-05,178.12499999995887,5.684616e-06
178.13999999995886,1.116544e-05,178.13999999995886,9.00154e-05,178.13999999995886,5.602068e-05,178.13999999995886,5.782887e-06
178.15499999995885,1.113133e-05,178.15499999995885,9.057407e-05,178.15499999995885,5.535311e-05,178.15499999995885,5.701935e-06
178.16999999995883,1.088952e-05,178.16999999995883,9.179297e-05,178.16999999995883,5.642182e-05,178.16999999995883,5.612292e-06
178.18499999995882,1.073711e-05,178.18499999995882,9.289147e-05,178.18499999995882,6.186856e-05,178.18499999995882,5.500745e-06
178.1999999999588,1.147161e-05,178.1999999999588,9.454488e-05,178.1999999999588,6.137409e-05,178.1999999999588,5.556798e-06
178.2149999999588,1.125091e-05,178.2149999999588,9.386781e-05,178.2149999999588,6.196684e-05,178.2149999999588,5.642331e-06
178.22999999995878,1.131832e-05,178.22999999995878,9.504418e-05,178.22999999995878,6.159084e-05,178.22999999995878,5.812045e-06
178.24499999995876,1.134318e-05,178.24499999995876,9.433978e-05,178.24499999995876,5.924555e-05,178.24499999995876,5.814468e-06
178.25999999995875,1.174465e-05,178.25999999995875,8.744511e-05,178.25999999995875,5.932206e-05,178.25999999995875,5.908198e-06
178.27499999995874,1.155359e-05,178.27499999995874,8.084132e-05,178.27499999995874,6.177536e-05,178.27499999995874,5.893875e-06
178.28999999995872,1.054382e-05,178.28999999995872,8.188274e-05,178.28999999995872,6.183371e-05,178.28999999995872,5.922486e-06
178.3049999999587,1.039988e-05,178.3049999999587,8.342479e-05,178.3049999999587,6.319607e-05,178.3049999999587,5.787757e-06
178.3199999999587,1.07476e-05,178.3199999999587,8.582712e-05,178.3199999999587,6.556893e-05,178.3199999999587,5.657291e-06
178.33499999995868,1.088952e-05,178.33499999995868,8.913143e-05,178.33499999995868,6.700549e-05,178.33499999995868,5.716739e-06
178.34999999995867,1.078815e-05,178.34999999995867,8.944648e-05,178.34999999995867,6.721749e-05,178.34999999995867,5.659781e-06
178.36499999995866,1.073579e-05,178.36499999995866,8.76562e-05,178.36499999995866,6.838822e-05,178.36499999995866,5.449287e-06
178.37999999995864,1.076855e-05,178.37999999995864,8.548801e-05,178.37999999995864,6.945714e-05,178.37999999995864,5.339611e-06
178.39499999995863,1.085194e-05,178.39499999995863,8.742948e-05,178.39499999995863,7.208515e-05,178.39499999995863,5.428567e-06
178.40999999995861,1.094243e-05,178.40999999995861,8.792016e-05,178.40999999995861,7.204761e-05,178.40999999995861,5.410373e-06
178.4249999999586,1.099637e-05,178.4249999999586,8.574846e-05,178.4249999999586,7.305955e-05,178.4249999999586,5.677176e-06
178.4399999999586,1.016285e-05,178.4399999999586,8.59093e-05,178.4399999999586,6.921843e-05,178.4399999999586,5.659781e-06
178.45499999995857,1.030873e-05,178.45499999995857,8.444401e-05,178.45499999995857,7.264693e-05,178.45499999995857,5.736418e-06
178.46999999995856,1.003452e-05,178.46999999995856,8.349027e-05,178.46999999995856,7.298857e-05,178.46999999995856,5.682137e-06
178.48499999995855,9.404052e-06,178.48499999995855,8.015271e-05,178.48499999995855,7.475004e-05,178.48499999995855,5.602244e-06
178.49999999995853,9.090241e-06,178.49999999995853,8.016379e-05,178.49999999995853,7.713362e-05,178.49999999995853,5.56946e-06
178.51499999995852,9.056085e-06,178.51499999995852,8.051342e-05,178.51499999995852,7.987349e-05,178.51499999995852,5.541568e-06
178.5299999999585,9.147398e-06,178.5299999999585,8.172759e-05,178.5299999999585,7.701555e-05,178.5299999999585,5.647323e-06
178.5449999999585,9.018676e-06,178.5449999999585,8.008045e-05,178.5449999999585,7.668322e-05,178.5449999999585,5.664756e-06
178.55999999995848,9.070073e-06,178.55999999995848,7.679043e-05,178.55999999995848,7.650833e-05,178.55999999995848,5.848288e-06
178.57499999995846,9.032722e-06,178.57499999995846,7.737395e-05,178.57499999995846,7.403046e-05,178.57499999995846,5.677176e-06
178.58999999995845,8.798887e-06,178.58999999995845,7.158155e-05,178.58999999995845,7.298934e-05,178.58999999995845,5.682137e-06
178.60499999995844,8.946537e-06,178.60499999995844,7.04695e-05,178.60499999995844,7.152131e-05,178.60499999995844,5.682137e-06
178.61999999995842,8.712006e-06,178.61999999995842,7.502842e-05,178.61999999995842,7.225905e-05,178.61999999995842,5.657291e-06
178.6349999999584,9.165859e-06,178.6349999999584,7.697933e-05,178.6349999999584,7.083397e-05,178.6349999999584,5.632336e-06
178.6499999999584,8.930779e-06,178.6499999999584,7.644368e-05,178.6499999999584,7.187476e-05,178.6499999999584,5.546649e-06
178.66499999995838,9.515735e-06,178.66499999995838,7.985056e-05,178.66499999995838,7.168067e-05,178.66499999995838,5.48022e-06
178.67999999995837,9.751159e-06,178.67999999995837,8.350563e-05,178.67999999995837,6.892332e-05,178.67999999995837,5.564399e-06
178.69499999995836,9.858911e-06,178.69499999995836,8.654366e-05,178.69499999995836,6.954167e-05,178.69499999995836,5.828986e-06
178.70999999995834,9.562988e-06,178.70999999995834,8.342074e-05,178.70999999995834,6.535266e-05,178.70999999995834,5.667242e-06
178.72499999995833,9.402554e-06,178.72499999995833,8.634959e-05,178.72499999995833,6.340926e-05,178.72499999995833,5.706874e-06
178.73999999995831,9.827426e-06,178.73999999995831,8.764302e-05,178.73999999995831,6.476436e-05,178.73999999995831,5.687093e-06
178.7549999999583,9.830293e-06,178.7549999999583,8.851258e-05,178.7549999999583,6.131163e-05,178.7549999999583,5.652309e-06
178.7699999999583,9.985267e-06,178.7699999999583,9.376991e-05,178.7699999999583,5.954155e-05,178.7699999999583,5.652309e-06
178.78499999995827,1.028684e-05,178.78499999995827,9.784027e-05,178.78499999995827,5.930354e-05,178.78499999995827,5.609782e-06
178.79999999995826,1.071083e-05,178.79999999995826,0.0001012554,178.79999999995826,5.888423e-05,178.79999999995826,5.503306e-06
178.81499999995825,1.071478e-05,178.81499999995825,0.0001021799,178.81499999995825,6.401859e-05,178.81499999995825,5.622323e-06
178.82999999995823,1.082595e-05,178.82999999995823,0.0001018856,178.82999999995823,6.47202e-05,178.82999999995823,5.741327e-06
178.84499999995822,1.110345e-05,178.84499999995822,0.0001016058,178.84499999995822,6.512918e-05,178.84499999995822,5.843468e-06
178.8599999999582,1.115661e-05,178.8599999999582,0.0001033848,178.8599999999582,6.332189e-05,178.8599999999582,5.948592e-06
178.8749999999582,1.119694e-05,178.8749999999582,0.0001008894,178.8749999999582,6.432766e-05,178.8749999999582,6.210422e-06
178.88999999995818,1.107551e-05,178.88999999995818,9.842866e-05,178.88999999995818,6.732345e-05,178.88999999995818,6.275856e-06
178.90499999995816,1.120449e-05,178.90499999995816,9.805356e-05,178.90499999995816,6.732554e-05,178.90499999995816,6.353931e-06
178.91999999995815,1.063295e-05,178.91999999995815,9.442904e-05,178.91999999995815,7.187515e-05,178.91999999995815,6.387099e-06
178.93499999995814,1.054248e-05,178.93499999995814,9.766316e-05,178.93499999995814,7.6957e-05,178.93499999995814,6.431058e-06
178.94999999995812,1.063958e-05,178.94999999995812,9.723079e-05,178.94999999995812,7.712284e-05,178.94999999995812,6.345057e-06
178.9649999999581,1.06647e-05,178.9649999999581,9.633377e-05,178.9649999999581,7.98913e-05,178.9649999999581,6.304968e-06
178.9799999999581,1.059314e-05,178.9799999999581,9.387561e-05,178.9799999999581,7.827824e-05,178.9799999999581,6.233063e-06
178.99499999995808,1.086232e-05,178.99499999995808,9.560779e-05,178.99499999995808,8.030477e-05,178.99499999995808,6.347276e-06
179.00999999995807,1.078031e-05,179.00999999995807,9.519154e-05,179.00999999995807,7.906822e-05,179.00999999995807,6.376062e-06
179.02499999995806,1.050634e-05,179.02499999995806,9.498843e-05,179.02499999995806,8.040294e-05,179.02499999995806,6.376062e-06
179.03999999995804,1.037955e-05,179.03999999995804,8.508169e-05,179.03999999995804,8.038244e-05,179.03999999995804,6.311667e-06
179.05499999995803,1.025255e-05,179.05499999995803,8.709403e-05,179.05499999995803,7.690701e-05,179.05499999995803,6.362793e-06
179.06999999995801,1.161803e-05,179.06999999995801,9.332569e-05,179.06999999995801,7.617656e-05,179.06999999995801,6.280343e-06
179.084999999958,1.158889e-05,179.084999999958,9.420605e-05,179.084999999958,7.597992e-05,179.084999999958,6.148874e-06
179.099999999958,1.145563e-05,179.099999999958,9.588982e-05,179.099999999958,7.755834e-05,179.099999999958,6.091332e-06
179.11499999995797,1.140264e-05,179.11499999995797,9.417375e-05,179.11499999995797,7.873758e-05,179.11499999995797,5.920107e-06
179.12999999995796,1.111233e-05,179.12999999995796,9.336025e-05,179.12999999995796,7.328537e-05,179.12999999995796,5.654801e-06
179.14499999995795,1.096815e-05,179.14499999995795,9.388821e-05,179.14499999995795,7.387102e-05,179.14499999995795,5.787757e-06
179.15999999995793,1.079207e-05,179.15999999995793,9.246924e-05,179.15999999995793,7.340925e-05,179.15999999995793,5.629835e-06
179.17499999995792,1.08934e-05,179.17499999995792,9.167995e-05,179.17499999995792,6.650559e-05,179.17499999995792,5.425972e-06
179.1899999999579,1.094758e-05,179.1899999999579,9.01966e-05,179.1899999999579,6.523464e-05,179.1899999999579,5.307859e-06
179.2049999999579,1.176383e-05,179.2049999999579,8.912415e-05,179.2049999999579,6.945917e-05,179.2049999999579,5.22494e-06
179.21999999995788,1.191966e-05,179.21999999995788,9.292422e-05,179.21999999995788,6.913963e-05,179.21999999995788,5.518642e-06
179.23499999995786,1.178655e-05,179.23499999995786,9.337956e-05,179.23499999995786,7.315454e-05,179.23499999995786,5.510979e-06
179.24999999995785,1.160347e-05,179.24999999995785,9.096081e-05,179.24999999995785,7.506634e-05,179.24999999995785,5.433755e-06
179.26499999995784,1.150349e-05,179.26499999995784,9.001243e-05,179.26499999995784,7.488202e-05,179.26499999995784,5.402556e-06
179.27999999995782,1.153651e-05,179.27999999995782,8.583532e-05,179.27999999995782,7.98742e-05,179.27999999995782,5.313164e-06
179.2949999999578,1.110091e-05,179.2949999999578,8.634094e-05,179.2949999999578,8.207175e-05,179.2949999999578,5.323759e-06
179.3099999999578,1.102196e-05,179.3099999999578,9.012692e-05,179.3099999999578,8.224322e-05,179.3099999999578,5.365928e-06
179.32499999995778,9.928676e-06,179.32499999995778,8.480291e-05,179.32499999995778,8.213335e-05,179.32499999995778,5.297233e-06
179.33999999995777,1.006256e-05,179.33999999995777,8.327217e-05,179.33999999995777,8.127752e-05,179.33999999995777,5.373798e-06
179.35499999995776,9.981033e-06,179.35499999995776,8.325966e-05,179.35499999995776,8.163687e-05,179.35499999995776,5.214144e-06
179.36999999995774,1.016701e-05,179.36999999995774,8.667752e-05,179.36999999995774,8.162134e-05,179.36999999995774,5.352786e-06
179.38499999995773,1.019883e-05,179.38499999995773,8.797574e-05,179.38499999995773,8.34891e-05,179.38499999995773,5.412975e-06
179.3999999999577,1.045931e-05,179.3999999999577,8.733953e-05,179.3999999999577,8.107135e-05,179.3999999999577,5.273245e-06
179.4149999999577,1.085584e-05,179.4149999999577,8.717001e-05,179.4149999999577,8.250913e-05,179.4149999999577,5.259872e-06
179.4299999999577,1.065413e-05,179.4299999999577,8.721428e-05,179.4299999999577,8.178324e-05,179.4299999999577,5.291911e-06
179.44499999995767,1.06647e-05,179.44499999995767,8.757468e-05,179.44499999995767,8.011562e-05,179.44499999995767,5.360675e-06
179.45999999995766,1.007515e-05,179.45999999995766,8.970674e-05,179.45999999995766,7.828039e-05,179.45999999995766,5.457037e-06
179.47499999995765,1.125842e-05,179.47499999995765,8.566085e-05,179.47499999995765,7.552731e-05,179.47499999995765,5.082812e-06
179.48999999995763,1.247516e-05,179.48999999995763,8.70992e-05,179.48999999995763,7.101888e-05,179.48999999995763,5.063375e-06
179.50499999995762,1.274218e-05,179.50499999995762,8.681798e-05,179.50499999995762,7.154573e-05,179.50499999995762,5.270573e-06
179.5199999999576,1.2969e-05,179.5199999999576,8.848855e-05,179.5199999999576,7.115739e-05,179.5199999999576,5.315815e-06
179.5349999999576,1.334058e-05,179.5349999999576,8.868049e-05,179.5349999999576,6.60226e-05,179.5349999999576,5.192486e-06
179.54999999995758,1.325797e-05,179.54999999995758,8.731226e-05,179.54999999995758,6.45395e-05,179.54999999995758,5.251831e-06
179.56499999995756,1.302752e-05,179.56499999995756,8.459952e-05,179.56499999995756,6.464092e-05,179.56499999995756,5.102175e-06
179.57999999995755,1.307825e-05,179.57999999995755,8.577096e-05,179.57999999995755,6.58014e-05,179.57999999995755,5.02147e-06
179.59499999995754,1.337749e-05,179.59499999995754,8.615376e-05,179.59499999995754,6.542203e-05,179.59499999995754,5.055022e-06
179.60999999995752,1.367534e-05,179.60999999995752,8.502355e-05,179.60999999995752,6.417945e-05,179.60999999995752,5.055022e-06
179.6249999999575,1.366194e-05,179.6249999999575,8.207896e-05,179.6249999999575,6.315527e-05,179.6249999999575,5.035477e-06
179.6399999999575,1.377796e-05,179.6399999999575,8.018856e-05,179.6399999999575,6.254338e-05,179.6399999999575,4.982041e-06
179.65499999995748,1.357298e-05,179.65499999995748,8.256664e-05,179.65499999995748,6.346632e-05,179.65499999995748,5.135199e-06
179.66999999995747,1.343633e-05,179.66999999995747,8.462449e-05,179.66999999995747,6.34419e-05,179.66999999995747,5.265225e-06
179.68499999995745,1.345937e-05,179.68499999995745,8.96557e-05,179.68499999995745,6.372062e-05,179.68499999995745,5.639834e-06
179.69999999995744,1.32951e-05,179.69999999995744,9.001509e-05,179.69999999995744,6.182688e-05,179.69999999995744,5.546649e-06
179.71499999995743,1.264341e-05,179.71499999995743,8.941356e-05,179.71499999995743,6.247014e-05,179.71499999995743,5.577042e-06
179.7299999999574,1.150839e-05,179.7299999999574,9.054607e-05,179.7299999999574,6.926827e-05,179.7299999999574,5.657291e-06
179.7449999999574,1.066338e-05,179.7449999999574,8.896025e-05,179.7449999999574,6.73565e-05,179.7449999999574,5.838645e-06
179.7599999999574,1.106405e-05,179.7599999999574,8.815569e-05,179.7599999999574,6.848722e-05,179.7599999999574,5.709342e-06
179.77499999995737,1.12459e-05,179.77499999995737,8.476653e-05,179.77499999995737,6.805495e-05,179.77499999995737,5.75603e-06
179.78999999995736,1.086103e-05,179.78999999995736,8.49672e-05,179.78999999995736,6.669573e-05,179.78999999995736,5.729046e-06
179.80499999995735,1.089987e-05,179.80499999995735,8.777568e-05,179.80499999995735,6.618349e-05,179.80499999995735,5.891484e-06
179.81999999995733,1.073317e-05,179.81999999995733,8.594996e-05,179.81999999995733,6.645389e-05,179.81999999995733,5.915346e-06
179.83499999995732,1.053045e-05,179.83499999995732,8.954926e-05,179.83499999995732,6.792712e-05,179.83499999995732,6.132817e-06
179.8499999999573,9.592404e-06,179.8499999999573,8.991097e-05,179.8499999999573,6.660866e-05,179.8499999999573,6.221753e-06
179.8649999999573,9.834591e-06,179.8649999999573,9.196698e-05,179.8649999999573,6.836844e-05,179.8649999999573,6.151165e-06
179.87999999995728,9.996546e-06,179.87999999995728,9.126832e-05,179.87999999995728,6.891617e-05,179.87999999995728,6.068162e-06
179.89499999995726,1.020435e-05,179.89499999995726,9.171145e-05,179.89499999995726,6.982528e-05,179.89499999995726,5.929618e-06
179.90999999995725,1.060111e-05,179.90999999995725,8.9678e-05,179.90999999995725,6.893129e-05,179.90999999995725,5.915346e-06
179.92499999995724,1.064355e-05,179.92499999995724,8.818062e-05,179.92499999995724,6.848146e-05,179.92499999995724,5.674694e-06
179.93999999995722,1.049158e-05,179.93999999995722,8.200582e-05,179.93999999995722,6.798931e-05,179.93999999995722,5.582091e-06
179.9549999999572,1.043639e-05,179.9549999999572,8.228722e-05,179.9549999999572,6.781462e-05,179.9549999999572,5.536481e-06
179.9699999999572,1.080511e-05,179.9699999999572,8.278406e-05,179.9699999999572,6.847673e-05,179.9699999999572,5.584614e-06
179.98499999995718,1.081684e-05,179.98499999995718,8.1929e-05,179.98499999995718,6.479655e-05,179.98499999995718,5.454455e-06
179.99999999995717,1.060643e-05,179.99999999995717,8.404036e-05,179.99999999995717,6.571571e-05,179.99999999995717,5.113207e-06
180.01499999995715,1.021539e-05,180.01499999995715,8.781131e-05,180.01499999995715,6.338926e-05,180.01499999995715,5.251831e-06
180.02999999995714,9.996546e-06,180.02999999995714,8.953636e-05,180.02999999995714,6.378911e-05,180.02999999995714,5.214144e-06
180.04499999995713,1.02209e-05,180.04499999995713,8.864585e-05,180.04499999995713,6.448186e-05,180.04499999995713,5.197909e-06
180.0599999999571,1.021815e-05,180.0599999999571,8.508201e-05,180.0599999999571,6.55081e-05,180.0599999999571,5.035477e-06
180.0749999999571,1.047546e-05,180.0749999999571,8.195857e-05,180.0749999999571,7.022119e-05,180.0749999999571,4.942298e-06
180.0899999999571,1.050902e-05,180.0899999999571,8.035983e-05,180.0899999999571,6.752631e-05,180.0899999999571,4.771172e-06
180.10499999995707,1.025118e-05,180.10499999995707,7.946984e-05,180.10499999995707,6.750274e-05,180.10499999995707,4.66971e-06
180.11999999995706,1.019054e-05,180.11999999995706,7.707059e-05,180.11999999995706,7.269965e-05,180.11999999995706,4.729657e-06
180.13499999995705,9.723673e-06,180.13499999995705,8.14778e-05,180.13499999995705,7.33601e-05,180.13499999995705,4.756387e-06
180.14999999995703,9.484596e-06,180.14999999995703,8.373305e-05,180.14999999995703,7.597288e-05,180.14999999995703,4.759348e-06
180.16499999995702,9.063859e-06,180.16499999995702,8.240338e-05,180.16499999995702,7.569033e-05,180.16499999995702,4.826943e-06
180.179999999957,9.272816e-06,180.179999999957,9.001494e-05,180.179999999957,8.299106e-05,180.179999999957,5.203327e-06
180.194999999957,9.451865e-06,180.194999999957,8.892668e-05,180.194999999957,8.562072e-05,180.194999999957,5.200618e-06
180.20999999995698,9.125813e-06,180.20999999995698,9.119575e-05,180.20999999995698,9.226213e-05,180.20999999995698,5.323759e-06
180.22499999995696,9.447393e-06,180.22499999995696,9.140852e-05,180.22499999995696,9.286145e-05,180.22499999995696,5.379038e-06
180.23999999995695,9.240859e-06,180.23999999995695,8.642035e-05,180.23999999995695,9.268577e-05,180.23999999995695,5.358047e-06
180.25499999995694,9.343943e-06,180.25499999995694,8.488095e-05,180.25499999995694,9.383989e-05,180.25499999995694,5.373798e-06
180.26999999995692,9.355996e-06,180.26999999995692,8.3133e-05,180.26999999995692,9.469836e-05,180.26999999995692,5.467352e-06
180.2849999999569,9.490535e-06,180.2849999999569,8.296304e-05,180.2849999999569,9.761512e-05,180.2849999999569,5.546649e-06
180.2999999999569,9.283444e-06,180.2999999999569,8.489339e-05,180.2999999999569,9.609102e-05,180.2999999999569,5.56946e-06
180.31499999995688,9.254569e-06,180.31499999995688,8.656319e-05,180.31499999995688,9.440845e-05,180.31499999995688,5.669728e-06
180.32999999995687,9.193482e-06,180.32999999995687,8.380889e-05,180.32999999995687,9.29506e-05,180.32999999995687,5.624828e-06
180.34499999995685,9.228656e-06,180.34499999995685,8.475206e-05,180.34499999995685,9.326755e-05,180.34499999995685,5.733962e-06
180.35999999995684,9.37104e-06,180.35999999995684,8.440381e-05,180.35999999995684,9.290528e-05,180.35999999995684,5.770695e-06
180.37499999995683,9.328855e-06,180.37499999995683,8.246302e-05,180.37499999995683,8.976593e-05,180.37499999995683,5.841057e-06
180.3899999999568,9.327345e-06,180.3899999999568,8.345973e-05,180.3899999999568,8.878463e-05,180.3899999999568,5.841057e-06
180.4049999999568,9.460803e-06,180.4049999999568,8.130715e-05,180.4049999999568,8.72364e-05,180.4049999999568,5.841057e-06
180.4199999999568,9.52757e-06,180.4199999999568,8.091117e-05,180.4199999999568,8.836844e-05,180.4199999999568,5.768253e-06
180.43499999995677,9.39656e-06,180.43499999995677,7.750002e-05,180.43499999995677,8.202763e-05,180.43499999995677,5.503306e-06
180.44999999995676,9.101082e-06,180.44999999995676,7.749529e-05,180.44999999995676,7.714165e-05,180.44999999995676,5.582091e-06
180.46499999995675,9.233234e-06,180.46499999995675,7.600365e-05,180.46499999995675,7.09526e-05,180.46499999995675,5.523745e-06
180.47999999995673,9.205732e-06,180.47999999995673,8.197679e-05,180.47999999995673,6.71099e-05,180.47999999995673,5.487926e-06
180.49499999995672,9.438442e-06,180.49499999995672,8.330905e-05,180.49499999995672,7.022159e-05,180.49499999995672,5.721665e-06
180.5099999999567,9.880319e-06,180.5099999999567,8.474442e-05,180.5099999999567,6.711872e-05,180.5099999999567,5.551726e-06
180.5249999999567,9.925839e-06,180.5249999999567,8.775851e-05,180.5249999999567,6.955321e-05,180.5249999999567,5.551726e-06
180.53999999995668,1.022641e-05,180.53999999995668,8.798279e-05,180.53999999995668,6.595578e-05,180.53999999995668,5.599728e-06
180.55499999995666,1.063295e-05,180.55499999995666,8.784996e-05,180.55499999995666,6.69708e-05,180.55499999995666,5.584614e-06
180.56999999995665,1.06197e-05,180.56999999995665,8.982287e-05,180.56999999995665,6.748833e-05,180.56999999995665,5.748683e-06
180.58499999995664,1.051706e-05,180.58499999995664,9.135502e-05,180.58499999995664,6.741545e-05,180.58499999995664,5.780451e-06
180.59999999995662,1.066734e-05,180.59999999995662,9.144257e-05,180.59999999995662,6.711137e-05,180.59999999995662,5.706874e-06
180.6149999999566,1.094501e-05,180.6149999999566,9.04983e-05,180.6149999999566,6.607251e-05,180.6149999999566,5.704405e-06
180.6299999999566,1.099509e-05,180.6299999999566,9.124131e-05,180.6299999999566,6.762867e-05,180.6299999999566,5.731505e-06
180.64499999995658,1.083115e-05,180.64499999995658,9.085902e-05,180.64499999995658,6.630342e-05,180.64499999995658,5.799914e-06
180.65999999995657,1.085584e-05,180.65999999995657,8.895472e-05,180.65999999995657,6.602814e-05,180.65999999995657,5.632336e-06
180.67499999995655,1.082465e-05,180.67499999995655,8.833576e-05,180.67499999995655,6.624412e-05,180.67499999995655,5.81689e-06
180.68999999995654,1.07777e-05,180.68999999995654,8.542438e-05,180.68999999995654,6.57954e-05,180.68999999995654,5.770695e-06
180.70499999995653,1.080772e-05,180.70499999995653,8.339962e-05,180.70499999995653,6.56754e-05,180.70499999995653,5.824151e-06
180.7199999999565,1.068845e-05,180.7199999999565,8.200823e-05,180.7199999999565,6.628069e-05,180.7199999999565,5.738873e-06
180.7349999999565,1.015176e-05,180.7349999999565,7.514118e-05,180.7349999999565,6.585404e-05,180.7349999999565,5.587136e-06
180.7499999999565,9.959841e-06,180.7499999999565,7.301751e-05,180.7499999999565,6.292242e-05,180.7499999999565,5.56946e-06
180.76499999995647,9.798716e-06,180.76499999995647,7.273995e-05,180.76499999995647,6.18936e-05,180.76499999995647,5.56693e-06
180.77999999995646,9.486082e-06,180.77999999995646,6.566617e-05,180.77999999995646,5.877169e-05,180.77999999995646,5.571988e-06
180.79499999995645,9.50833e-06,180.79499999995645,6.649881e-05,180.79499999995645,5.82814e-05,180.79499999995645,5.561867e-06
180.80999999995643,9.107272e-06,180.80999999995643,6.899053e-05,180.80999999995643,5.97324e-05,180.80999999995643,5.544109e-06
180.82499999995642,9.088692e-06,180.82499999995642,6.636437e-05,180.82499999995642,6.039238e-05,180.82499999995642,5.571988e-06
180.8399999999564,9.286478e-06,180.8399999999564,6.493337e-05,180.8399999999564,5.989655e-05,180.8399999999564,5.579567e-06
180.8549999999564,8.884918e-06,180.8549999999564,6.429919e-05,180.8549999999564,6.12698e-05,180.8549999999564,5.704405e-06
180.86999999995638,8.742674e-06,180.86999999995638,6.449868e-05,180.86999999995638,6.434102e-05,180.86999999995638,5.549188e-06
180.88499999995636,8.902342e-06,180.88499999995636,6.24257e-05,180.88499999995636,6.630088e-05,180.88499999995636,5.559333e-06
180.89999999995635,8.962269e-06,180.89999999995635,6.083186e-05,180.89999999995635,6.572407e-05,180.89999999995635,5.48022e-06
180.91499999995634,8.926046e-06,180.91499999995634,6.321168e-05,180.91499999995634,6.522687e-05,180.91499999995634,5.358047e-06
180.92999999995632,8.886504e-06,180.92999999995632,6.166923e-05,180.92999999995632,6.690408e-05,180.92999999995632,5.189773e-06
180.9449999999563,9.034282e-06,180.9449999999563,6.183644e-05,180.9449999999563,6.855157e-05,180.9449999999563,5.230329e-06
180.9599999999563,9.130444e-06,180.9599999999563,6.395739e-05,180.9599999999563,6.71483e-05,180.9599999999563,5.249148e-06
180.97499999995628,9.170469e-06,180.97499999995628,6.729185e-05,180.97499999995628,7.450937e-05,180.97499999995628,5.305204e-06
180.98999999995627,9.284961e-06,180.98999999995627,6.982448e-05,180.98999999995627,7.533533e-05,180.98999999995627,5.331691e-06
181.00499999995625,9.75838e-06,181.00499999995625,7.012222e-05,181.00499999995625,7.521144e-05,181.00499999995625,5.270573e-06
181.01999999995624,9.611476e-06,181.01999999995624,7.091685e-05,181.01999999995624,7.583758e-05,181.01999999995624,5.352786e-06
181.03499999995623,1.06197e-05,181.03499999995623,7.297814e-05,181.03499999995623,7.733352e-05,181.03499999995623,5.286585e-06
181.0499999999562,1.036596e-05,181.0499999999562,7.718529e-05,181.0499999999562,7.825826e-05,181.0499999999562,5.699464e-06
181.0649999999562,1.179014e-05,181.0649999999562,7.652932e-05,181.0649999999562,7.7939e-05,181.0649999999562,5.487926e-06
181.0799999999562,1.224149e-05,181.0799999999562,7.689364e-05,181.0799999999562,7.628818e-05,181.0799999999562,5.399948e-06
181.09499999995617,1.268789e-05,181.09499999995617,7.862819e-05,181.09499999995617,7.722287e-05,181.09499999995617,5.344885e-06
181.10999999995616,1.294726e-05,181.10999999995616,8.020595e-05,181.10999999995616,7.715535e-05,181.10999999995616,5.315815e-06
181.12499999995615,1.28654e-05,181.12499999995615,8.038717e-05,181.12499999995615,7.420854e-05,181.12499999995615,5.331691e-06
181.13999999995613,1.276648e-05,181.13999999995613,8.017416e-05,181.13999999995613,7.378898e-05,181.13999999995613,5.451871e-06
181.15499999995612,1.27466e-05,181.15499999995612,8.042886e-05,181.15499999995612,7.687788e-05,181.15499999995612,5.500745e-06
181.1699999999561,1.278522e-05,181.1699999999561,8.012512e-05,181.1699999999561,7.655048e-05,181.1699999999561,5.662269e-06
181.1849999999561,1.288837e-05,181.1849999999561,8.31264e-05,181.1849999999561,7.385748e-05,181.1849999999561,5.701935e-06
181.19999999995608,1.264118e-05,181.19999999995608,8.631923e-05,181.19999999995608,7.541364e-05,181.19999999995608,5.644828e-06
181.21499999995606,1.251687e-05,181.21499999995606,8.497699e-05,181.21499999995606,7.350302e-05,181.21499999995606,5.838645e-06
181.22999999995605,1.249998e-05,181.22999999995605,8.11358e-05,181.22999999995605,6.899706e-05,181.22999999995605,5.692045e-06
181.24499999995604,1.247742e-05,181.24499999995604,8.164205e-05,181.24499999995604,6.869363e-05,181.24499999995604,5.787757e-06
181.25999999995602,1.260435e-05,181.25999999995602,8.170242e-05,181.25999999995602,7.060211e-05,181.25999999995602,5.843468e-06
181.274999999956,1.286321e-05,181.274999999956,8.007165e-05,181.274999999956,7.04017e-05,181.274999999956,5.845879e-06
181.289999999956,1.192084e-05,181.289999999956,7.918553e-05,181.289999999956,6.718773e-05,181.289999999956,5.857914e-06
181.30499999995598,1.179133e-05,181.30499999995598,7.443371e-05,181.30499999995598,6.99579e-05,181.30499999995598,5.402556e-06
181.31999999995597,1.059845e-05,181.31999999995597,7.367817e-05,181.31999999995597,6.94612e-05,181.31999999995597,5.420777e-06
181.33499999995595,9.890295e-06,181.33499999995595,7.468594e-05,181.33499999995595,7.489218e-05,181.33499999995595,5.402556e-06
181.34999999995594,9.964083e-06,181.34999999995594,7.28164e-05,181.34999999995594,7.213398e-05,181.34999999995594,5.384273e-06
181.36499999995593,1.033603e-05,181.36499999995593,7.34735e-05,181.36499999995593,7.157506e-05,181.36499999995593,5.344885e-06
181.3799999999559,1.068713e-05,181.3799999999559,7.553719e-05,181.3799999999559,6.973586e-05,181.3799999999559,5.379038e-06
181.3949999999559,1.083766e-05,181.3949999999559,7.502354e-05,181.3949999999559,6.934733e-05,181.3949999999559,5.373798e-06
181.4099999999559,1.084805e-05,181.4099999999559,7.514867e-05,181.4099999999559,6.627729e-05,181.4099999999559,5.170737e-06
181.42499999995587,1.118813e-05,181.42499999995587,7.594339e-05,181.42499999995587,6.778637e-05,181.42499999995587,5.066156e-06
181.43999999995586,1.15816e-05,181.43999999995586,7.025007e-05,181.43999999995586,6.698447e-05,181.43999999995586,5.074491e-06
181.45499999995585,1.180805e-05,181.45499999995585,7.25602e-05,181.45499999995585,6.61671e-05,181.45499999995585,5.029879e-06
181.46999999995583,1.221615e-05,181.46999999995583,7.250854e-05,181.46999999995583,6.542978e-05,181.46999999995583,4.902232e-06
181.48499999995582,1.213632e-05,181.48499999995582,7.317341e-05,181.48499999995582,6.526681e-05,181.48499999995582,4.962209e-06
181.4999999999558,1.268123e-05,181.4999999999558,7.249533e-05,181.4999999999558,6.295913e-05,181.4999999999558,4.910845e-06
181.5149999999558,1.241063e-05,181.5149999999558,7.121695e-05,181.5149999999558,6.457965e-05,181.5149999999558,4.945147e-06
181.52999999995578,1.264341e-05,181.52999999995578,6.961354e-05,181.52999999995578,6.358696e-05,181.52999999995578,5.052234e-06
181.54499999995576,1.267456e-05,181.54499999995576,7.246171e-05,181.54499999995576,6.334969e-05,181.54499999995576,5.151632e-06
181.55999999995575,1.272669e-05,181.55999999995575,7.353598e-05,181.55999999995575,6.369939e-05,181.55999999995575,5.12971e-06
181.57499999995574,1.294835e-05,181.57499999995574,7.401448e-05,181.57499999995574,5.974891e-05,181.57499999995574,5.137942e-06
181.58999999995572,1.259652e-05,181.58999999995572,7.378363e-05,181.58999999995572,5.727817e-05,181.58999999995572,5.038274e-06
181.6049999999557,1.23936e-05,181.6049999999557,7.506052e-05,181.6049999999557,5.848143e-05,181.6049999999557,4.982041e-06
181.6199999999557,1.214677e-05,181.6199999999557,7.897659e-05,181.6199999999557,6.19184e-05,181.6199999999557,5.115961e-06
181.63499999995568,1.194445e-05,181.63499999995568,7.541999e-05,181.63499999995568,6.485327e-05,181.63499999995568,5.088352e-06
181.64999999995567,1.22966e-05,181.64999999995567,7.627285e-05,181.64999999995567,6.56784e-05,181.64999999995567,5.113207e-06
181.66499999995565,1.223804e-05,181.66499999995565,7.714932e-05,181.66499999995565,6.411336e-05,181.66499999995565,5.159829e-06
181.67999999995564,1.218266e-05,181.67999999995564,7.651532e-05,181.67999999995564,6.376769e-05,181.67999999995564,5.159829e-06
181.69499999995563,1.184735e-05,181.69499999995563,7.733279e-05,181.69499999995563,6.386085e-05,181.69499999995563,5.060592e-06
181.7099999999556,1.179611e-05,181.7099999999556,7.522567e-05,181.7099999999556,6.655471e-05,181.7099999999556,5.219545e-06
181.7249999999556,1.165435e-05,181.7249999999556,7.861637e-05,181.7249999999556,6.84364e-05,181.7249999999556,5.230329e-06
181.7399999999556,1.169055e-05,181.7399999999556,7.941859e-05,181.7399999999556,7.207791e-05,181.7399999999556,5.459618e-06
181.75499999995557,1.044853e-05,181.75499999995557,8.1334e-05,181.75499999995557,7.240375e-05,181.75499999995557,5.289249e-06
181.76999999995556,1.016147e-05,181.76999999995556,8.659655e-05,181.76999999995556,7.453073e-05,181.76999999995556,5.365928e-06
181.78499999995555,9.990908e-06,181.78499999995555,8.682074e-05,181.78499999995555,7.596453e-05,181.78499999995555,5.299891e-06
181.79999999995553,9.90595e-06,181.79999999995553,8.37793e-05,181.79999999995553,7.576418e-05,181.79999999995553,5.472503e-06
181.81499999995552,9.935768e-06,181.81499999995552,8.240304e-05,181.81499999995552,7.85945e-05,181.81499999995552,5.521194e-06
181.8299999999555,9.880319e-06,181.8299999999555,8.183455e-05,181.8299999999555,7.787174e-05,181.8299999999555,5.687093e-06
181.8449999999555,1.026079e-05,181.8449999999555,8.171224e-05,181.8449999999555,7.988195e-05,181.8449999999555,5.716739e-06
181.85999999995548,1.001344e-05,181.85999999995548,7.910455e-05,181.85999999995548,8.014252e-05,181.85999999995548,5.689569e-06
181.87499999995546,1.020159e-05,181.87499999995546,7.697384e-05,181.87499999995546,7.623294e-05,181.87499999995546,5.667242e-06
181.88999999995545,1.021401e-05,181.88999999995545,7.853533e-05,181.88999999995545,7.666981e-05,181.88999999995545,5.765811e-06
181.90499999995544,9.904527e-06,181.90499999995544,7.706053e-05,181.90499999995544,7.527585e-05,181.90499999995544,5.782887e-06
181.91999999995542,9.751159e-06,181.91999999995542,7.494501e-05,181.91999999995542,7.70289e-05,181.91999999995542,5.795054e-06
181.9349999999554,1.045392e-05,181.9349999999554,7.56585e-05,181.9349999999554,7.632436e-05,181.9349999999554,5.934367e-06
181.9499999999554,1.039717e-05,181.9499999999554,7.437236e-05,181.9499999999554,7.234439e-05,181.9499999999554,5.984008e-06
181.96499999995538,1.123963e-05,181.96499999995538,7.343399e-05,181.96499999995538,7.287016e-05,181.96499999995538,5.812045e-06
181.97999999995537,1.116671e-05,181.97999999995537,7.550082e-05,181.97999999995537,7.359935e-05,181.97999999995537,5.763367e-06
181.99499999995535,1.114777e-05,181.99499999995535,7.458175e-05,181.99499999995535,7.52517e-05,181.99499999995535,5.574516e-06
182.00999999995534,1.150716e-05,182.00999999995534,7.324615e-05,182.00999999995534,7.82444e-05,182.00999999995534,5.696992e-06
182.02499999995533,1.171463e-05,182.02499999995533,7.028375e-05,182.02499999995533,8.746556e-05,182.02499999995533,5.721665e-06
182.0399999999553,1.152918e-05,182.0399999999553,7.342728e-05,182.0399999999553,8.695303e-05,182.0399999999553,5.571988e-06
182.0549999999553,1.183902e-05,182.0549999999553,7.371697e-05,182.0549999999553,8.606395e-05,182.0549999999553,5.61731e-06
182.0699999999553,1.167367e-05,182.0699999999553,7.2284e-05,182.0699999999553,9.276613e-05,182.0699999999553,5.587136e-06
182.08499999995527,1.11174e-05,182.08499999995527,7.449387e-05,182.08499999995527,9.329791e-05,182.08499999995527,5.549188e-06
182.09999999995526,1.130586e-05,182.09999999995526,7.396154e-05,182.09999999995526,9.799952e-05,182.09999999995526,5.592176e-06
182.11499999995524,1.111233e-05,182.11499999995524,7.372557e-05,182.11499999995524,9.93401e-05,182.11499999995524,5.577042e-06
182.12999999995523,1.097714e-05,182.12999999995523,7.445396e-05,182.12999999995523,0.0001010381,182.12999999995523,5.592176e-06
182.14499999995522,1.114271e-05,182.14499999995522,7.313298e-05,182.14499999995522,0.0001052496,182.14499999995522,5.397339e-06
182.1599999999552,1.138161e-05,182.1599999999552,7.781998e-05,182.1599999999552,0.0001086813,182.1599999999552,5.420777e-06
182.1749999999552,1.131583e-05,182.1749999999552,7.843626e-05,182.1749999999552,0.000108221,182.1749999999552,5.669728e-06
182.18999999995518,1.05358e-05,182.18999999995518,7.909493e-05,182.18999999995518,0.0001092459,182.18999999995518,5.425972e-06
182.20499999995516,1.098098e-05,182.20499999995516,7.885556e-05,182.20499999995516,0.000113332,182.20499999995516,5.376418e-06
182.21999999995515,1.08701e-05,182.21999999995515,8.129606e-05,182.21999999995515,0.0001155532,182.21999999995515,5.438937e-06
182.23499999995514,1.122333e-05,182.23499999995514,7.816983e-05,182.23499999995514,0.0001146853,182.23499999995514,5.490492e-06
182.24999999995512,1.131334e-05,182.24999999995512,7.921115e-05,182.24999999995512,0.0001105347,182.24999999995512,5.368553e-06
182.2649999999551,1.09874e-05,182.2649999999551,7.600791e-05,182.2649999999551,0.0001024433,182.2649999999551,5.148897e-06
182.2799999999551,1.139769e-05,182.2799999999551,7.496362e-05,182.2799999999551,0.0001000867,182.2799999999551,5.318464e-06
182.29499999995508,1.130337e-05,182.29499999995508,7.553309e-05,182.29499999995508,0.0001002026,182.29499999995508,5.368553e-06
182.30999999995507,1.114777e-05,182.30999999995507,7.504119e-05,182.30999999995507,9.769807e-05,182.30999999995507,5.126963e-06
182.32499999995505,1.13878e-05,182.32499999995505,7.857586e-05,182.32499999995505,9.169547e-05,182.32499999995505,5.132455e-06
182.33999999995504,1.15974e-05,182.33999999995504,7.774301e-05,182.33999999995504,9.214006e-05,182.33999999995504,5.373798e-06
182.35499999995503,1.189955e-05,182.35499999995503,7.853963e-05,182.35499999995503,8.653601e-05,182.35499999995503,5.281253e-06
182.369999999955,1.19102e-05,182.369999999955,7.84666e-05,182.369999999955,8.684799e-05,182.369999999955,5.307859e-06
182.384999999955,1.182593e-05,182.384999999955,7.702214e-05,182.384999999955,8.83037e-05,182.384999999955,5.168013e-06
182.39999999995499,1.180447e-05,182.39999999995499,7.583331e-05,182.39999999995499,7.954071e-05,182.39999999995499,5.278585e-06
182.41499999995497,1.232978e-05,182.41499999995497,7.111521e-05,182.41499999995497,8.205579e-05,182.41499999995497,5.259872e-06
182.42999999995496,1.253149e-05,182.42999999995496,7.138192e-05,182.42999999995496,8.330819e-05,182.42999999995496,5.289249e-06
182.44499999995494,1.273997e-05,182.44499999995494,7.251301e-05,182.44499999995494,8.360763e-05,182.44499999995494,5.459618e-06
182.45999999995493,1.250449e-05,182.45999999995493,7.223702e-05,182.45999999995493,7.560467e-05,182.45999999995493,5.549188e-06
182.47499999995492,1.272337e-05,182.47499999995492,6.98045e-05,182.47499999995492,7.438127e-05,182.47499999995492,5.724127e-06
182.4899999999549,1.286431e-05,182.4899999999549,6.928413e-05,182.4899999999549,7.437691e-05,182.4899999999549,5.948592e-06
182.5049999999549,1.300263e-05,182.5049999999549,7.069403e-05,182.5049999999549,7.539515e-05,182.5049999999549,5.924864e-06
182.51999999995488,1.314807e-05,182.51999999995488,6.977544e-05,182.51999999995488,7.944289e-05,182.51999999995488,5.967507e-06
182.53499999995486,1.268567e-05,182.53499999995486,6.863351e-05,182.53499999995486,8.159597e-05,182.53499999995486,5.862722e-06
182.54999999995485,1.275102e-05,182.54999999995485,7.027653e-05,182.54999999995485,8.362716e-05,182.54999999995485,5.821732e-06
182.56499999995484,1.284677e-05,182.56499999995484,7.057317e-05,182.56499999995484,8.27587e-05,182.56499999995484,5.960421e-06
182.57999999995482,1.275765e-05,182.57999999995482,6.731843e-05,182.57999999995482,8.583647e-05,182.57999999995482,5.865124e-06
182.5949999999548,1.24129e-05,182.5949999999548,6.565481e-05,182.5949999999548,8.732969e-05,182.5949999999548,5.724127e-06
182.6099999999548,1.218151e-05,182.6099999999548,6.871392e-05,182.6099999999548,8.868652e-05,182.6099999999548,5.775575e-06
182.62499999995478,1.229775e-05,182.62499999995478,7.010494e-05,182.62499999995478,8.767645e-05,182.62499999995478,5.721665e-06
182.63999999995477,1.246274e-05,182.63999999995477,7.122565e-05,182.63999999995477,8.615066e-05,182.63999999995477,5.679657e-06
182.65499999995475,1.215256e-05,182.65499999995475,7.186143e-05,182.65499999995475,8.686421e-05,182.65499999995475,5.619817e-06
182.66999999995474,1.133448e-05,182.66999999995474,7.230991e-05,182.66999999995474,8.628464e-05,182.66999999995474,5.561867e-06
182.68499999995473,1.156456e-05,182.68499999995473,7.158608e-05,182.68499999995473,8.249069e-05,182.68499999995473,5.418178e-06
182.6999999999547,1.136799e-05,182.6999999999547,7.196956e-05,182.6999999999547,8.25361e-05,182.6999999999547,5.48279e-06
182.7149999999547,1.096815e-05,182.7149999999547,7.034426e-05,182.7149999999547,8.39748e-05,182.7149999999547,5.28392e-06
182.72999999995469,1.107042e-05,182.72999999995469,7.15471e-05,182.72999999995469,8.486485e-05,182.72999999995469,5.154366e-06
182.74499999995467,1.082335e-05,182.74499999995467,6.848702e-05,182.74499999995467,8.507241e-05,182.74499999995467,5.024275e-06
182.75999999995466,1.090762e-05,182.75999999995466,6.898584e-05,182.75999999995466,8.492458e-05,182.75999999995466,5.143422e-06
182.77499999995464,1.125717e-05,182.77499999995464,6.65401e-05,182.77499999995464,8.55613e-05,182.77499999995464,5.137942e-06
182.78999999995463,1.134194e-05,182.78999999995463,6.987268e-05,182.78999999995463,8.384603e-05,182.78999999995463,5.195198e-06
182.80499999995462,1.134194e-05,182.80499999995462,7.117164e-05,182.80499999995462,8.399727e-05,182.80499999995462,5.291911e-06
182.8199999999546,1.108568e-05,182.8199999999546,7.815018e-05,182.8199999999546,8.124753e-05,182.8199999999546,5.219545e-06
182.8349999999546,1.100917e-05,182.8349999999546,7.925915e-05,182.8349999999546,8.271256e-05,182.8349999999546,5.211442e-06
182.84999999995458,1.114524e-05,182.84999999995458,8.020559e-05,182.84999999995458,7.954602e-05,182.84999999995458,5.307859e-06
182.86499999995456,1.115029e-05,182.86499999995456,8.058651e-05,182.86499999995456,7.904167e-05,182.86499999995456,5.299891e-06
182.87999999995455,1.128841e-05,182.87999999995455,8.447037e-05,182.87999999995455,8.421149e-05,182.87999999995455,5.407768e-06
182.89499999995454,1.134691e-05,182.89499999995454,8.820458e-05,182.89499999995454,8.577737e-05,182.89499999995454,5.436346e-06
182.90999999995452,1.137914e-05,182.90999999995452,8.832061e-05,182.90999999995452,8.707073e-05,182.90999999995452,5.513535e-06
182.9249999999545,1.143841e-05,182.9249999999545,8.852978e-05,182.9249999999545,8.557777e-05,182.9249999999545,5.469929e-06
182.9399999999545,1.186636e-05,182.9399999999545,8.843346e-05,182.9399999999545,8.529269e-05,182.9399999999545,5.219545e-06
182.95499999995448,1.172785e-05,182.95499999995448,8.84376e-05,182.95499999995448,8.625606e-05,182.95499999995448,5.262549e-06
182.96999999995447,1.140881e-05,182.96999999995447,9.209158e-05,182.96999999995447,8.377578e-05,182.96999999995447,5.214144e-06
182.98499999995445,1.122584e-05,182.98499999995445,9.451835e-05,182.98499999995445,8.458069e-05,182.98499999995445,5.526294e-06
182.99999999995444,1.092697e-05,182.99999999995444,9.626969e-05,182.99999999995444,8.290886e-05,182.99999999995444,5.53139e-06
183.01499999995443,1.048621e-05,183.01499999995443,9.866024e-05,183.01499999995443,8.434838e-05,183.01499999995443,5.436346e-06
183.0299999999544,1.043369e-05,183.0299999999544,0.0001000286,183.0299999999544,7.950226e-05,183.0299999999544,5.687093e-06
183.0449999999544,1.065281e-05,183.0449999999544,9.757832e-05,183.0449999999544,8.288609e-05,183.0449999999544,5.654801e-06
183.05999999995439,1.096044e-05,183.05999999995439,9.103945e-05,183.05999999995439,8.519601e-05,183.05999999995439,5.679657e-06
183.07499999995437,1.131956e-05,183.07499999995437,9.426854e-05,183.07499999995437,8.518113e-05,183.07499999995437,5.627332e-06
183.08999999995436,1.160226e-05,183.08999999995436,9.522734e-05,183.08999999995436,8.417317e-05,183.08999999995436,5.836232e-06
183.10499999995434,1.223804e-05,183.10499999995434,9.403154e-05,183.10499999995434,8.936266e-05,183.10499999995434,5.714275e-06
183.11999999995433,1.20933e-05,183.11999999995433,9.001259e-05,183.11999999995433,8.788378e-05,183.11999999995433,5.604757e-06
183.13499999995432,1.200914e-05,183.13499999995432,9.001853e-05,183.13499999995432,8.715288e-05,183.13499999995432,5.632336e-06
183.1499999999543,1.235147e-05,183.1499999999543,8.519684e-05,183.1499999999543,8.718536e-05,183.1499999999543,5.505864e-06
183.1649999999543,1.235375e-05,183.1649999999543,8.478098e-05,183.1649999999543,8.681474e-05,183.1649999999543,5.594695e-06
183.17999999995428,1.244916e-05,183.17999999995428,8.424577e-05,183.17999999995428,8.803289e-05,183.17999999995428,5.662269e-06
183.19499999995426,1.221846e-05,183.19499999995426,8.356195e-05,183.19499999995426,9.071316e-05,183.19499999995426,5.634837e-06
183.20999999995425,1.266678e-05,183.20999999995425,8.207004e-05,183.20999999995425,8.982538e-05,183.20999999995425,5.652309e-06
183.22499999995424,1.265899e-05,183.22499999995424,7.869373e-05,183.22499999995424,8.997706e-05,183.22499999995424,5.729046e-06
