X[s],a: EMG RMS 1-1,X[s].1,a: EMG RMS 1-2,X[s].2,a: EMG RMS 1-3,X[s].3,a: EMG RMS 1-4
199.00499999993988,1.100149e-05,199.00499999993988,8.181958e-05,199.00499999993988,5.183961e-05,199.00499999993988,5.318464e-06
199.01999999993987,1.107296e-05,199.01999999993987,8.155539e-05,199.01999999993987,5.10546e-05,199.01999999993987,5.157098e-06
199.03499999993986,1.118687e-05,199.03499999993986,8.111791e-05,199.03499999993986,5.073158e-05,199.03499999993986,5.126963e-06
199.04999999993984,1.140387e-05,199.04999999993984,8.001181e-05,199.04999999993984,4.932826e-05,199.04999999993984,5.140683e-06
199.06499999993983,1.126842e-05,199.06499999993983,7.875153e-05,199.06499999993983,4.878757e-05,199.06499999993983,5.219545e-06
199.07999999993982,1.105896e-05,199.07999999993982,7.914568e-05,199.07999999993982,4.483963e-05,199.07999999993982,5.386888e-06
199.0949999999398,1.092697e-05,199.0949999999398,7.876423e-05,199.0949999999398,4.233496e-05,199.0949999999398,5.197909e-06
199.1099999999398,1.121203e-05,199.1099999999398,7.701775e-05,199.1099999999398,4.2212e-05,199.1099999999398,5.077266e-06
199.12499999993977,1.09797e-05,199.12499999993977,7.511437e-05,199.12499999993977,4.185273e-05,199.12499999993977,5.096651e-06
199.13999999993976,1.16253e-05,199.13999999993976,7.350455e-05,199.13999999993976,4.226503e-05,199.13999999993976,4.947995e-06
199.15499999993975,1.221269e-05,199.15499999993975,7.61144e-05,199.15499999993975,4.485251e-05,199.15499999993975,4.930884e-06
199.16999999993973,1.210611e-05,199.16999999993973,7.547488e-05,199.16999999993973,4.54955e-05,199.16999999993973,5.029879e-06
199.18499999993972,1.152918e-05,199.18499999993972,7.414093e-05,199.18499999993972,4.478808e-05,199.18499999993972,5.038274e-06
199.1999999999397,1.201852e-05,199.1999999999397,7.411661e-05,199.1999999999397,4.400564e-05,199.1999999999397,4.998978e-06
199.2149999999397,1.158281e-05,199.2149999999397,7.211327e-05,199.2149999999397,4.371723e-05,199.2149999999397,4.962209e-06
199.22999999993968,1.162167e-05,199.22999999993968,7.293682e-05,199.22999999993968,4.470717e-05,199.22999999993968,4.910845e-06
199.24499999993967,1.173145e-05,199.24499999993967,6.634017e-05,199.24499999993967,4.666632e-05,199.24499999993967,4.717728e-06
199.25999999993965,1.159375e-05,199.25999999993965,6.491188e-05,199.25999999993965,4.599835e-05,199.25999999993965,4.850233e-06
199.27499999993964,1.194445e-05,199.27499999993964,6.463569e-05,199.27499999993964,4.765973e-05,199.27499999993964,4.913713e-06
199.28999999993962,1.190429e-05,199.28999999993962,6.548035e-05,199.28999999993962,4.784027e-05,199.28999999993962,4.838602e-06
199.3049999999396,1.184021e-05,199.3049999999396,6.825234e-05,199.3049999999396,4.759703e-05,199.3049999999396,4.893604e-06
199.3199999999396,1.174825e-05,199.3199999999396,6.721686e-05,199.3199999999396,4.981221e-05,199.3199999999396,4.844421e-06
199.33499999993958,1.179969e-05,199.33499999993958,6.503092e-05,199.33499999993958,5.116374e-05,199.33499999993958,4.605925e-06
199.34999999993957,1.141622e-05,199.34999999993957,6.463068e-05,199.34999999993957,5.21436e-05,199.34999999993957,4.998978e-06
199.36499999993956,1.119317e-05,199.36499999993956,6.725667e-05,199.36499999993956,5.092586e-05,199.36499999993956,4.95937e-06
199.37999999993954,1.110472e-05,199.37999999993954,6.679261e-05,199.37999999993954,5.178659e-05,199.37999999993954,5.121465e-06
199.39499999993953,1.016424e-05,199.39499999993953,6.343658e-05,199.39499999993953,5.121878e-05,199.39499999993953,5.093886e-06
199.40999999993952,9.843181e-06,199.40999999993952,6.275991e-05,199.40999999993952,4.813382e-05,199.40999999993952,5.208738e-06
199.4249999999395,9.928676e-06,199.4249999999395,6.446307e-05,199.4249999999395,4.824199e-05,199.4249999999395,5.273245e-06
199.4399999999395,9.813081e-06,199.4399999999395,6.718961e-05,199.4399999999395,5.100187e-05,199.4399999999395,5.315815e-06
199.45499999993947,9.162785e-06,199.45499999993947,6.884929e-05,199.45499999993947,5.211063e-05,199.45499999993947,5.510979e-06
199.46999999993946,1.007375e-05,199.46999999993946,7.07912e-05,199.46999999993946,5.233048e-05,199.46999999993946,5.544109e-06
199.48499999993945,1.080511e-05,199.48499999993945,7.132842e-05,199.48499999993945,5.061872e-05,199.48499999993945,5.624828e-06
199.49999999993943,1.126092e-05,199.49999999993943,7.071794e-05,199.49999999993943,4.994834e-05,199.49999999993943,5.711809e-06
199.51499999993942,1.154505e-05,199.51499999993942,7.330863e-05,199.51499999993942,4.601458e-05,199.51499999993942,5.649817e-06
199.5299999999394,1.120951e-05,199.5299999999394,7.653282e-05,199.5299999999394,4.844247e-05,199.5299999999394,5.770695e-06
199.5449999999394,1.140016e-05,199.5449999999394,7.624606e-05,199.5449999999394,4.928998e-05,199.5449999999394,5.812045e-06
199.55999999993938,1.140511e-05,199.55999999993938,7.72433e-05,199.55999999993938,4.794146e-05,199.55999999993938,5.765811e-06
199.57499999993937,1.156334e-05,199.57499999993937,7.95747e-05,199.57499999993937,4.87399e-05,199.57499999993937,5.684616e-06
199.58999999993935,1.168211e-05,199.58999999993935,8.020085e-05,199.58999999993935,4.748354e-05,199.58999999993935,5.753582e-06
199.60499999993934,1.234462e-05,199.60499999993934,7.929824e-05,199.60499999993934,4.722026e-05,199.60499999993934,5.56946e-06
199.61999999993932,1.240496e-05,199.61999999993932,8.777729e-05,199.61999999993932,4.791677e-05,199.61999999993932,5.579567e-06
199.6349999999393,1.233778e-05,199.6349999999393,8.92584e-05,199.6349999999393,5.237273e-05,199.6349999999393,5.495621e-06
199.6499999999393,1.245143e-05,199.6499999999393,9.071968e-05,199.6499999999393,5.199698e-05,199.6499999999393,5.410373e-06
199.66499999993928,1.249998e-05,199.66499999993928,9.463825e-05,199.66499999993928,5.330766e-05,199.66499999993928,5.721665e-06
199.67999999993927,1.292657e-05,199.67999999993927,9.378132e-05,199.67999999993927,5.3994e-05,199.67999999993927,5.579567e-06
199.69499999993926,1.292984e-05,199.69499999993926,9.301029e-05,199.69499999993926,5.255156e-05,199.69499999993926,5.609782e-06
199.70999999993924,1.289711e-05,199.70999999993924,9.148892e-05,199.70999999993924,4.954112e-05,199.70999999993924,5.446701e-06
199.72499999993923,1.250787e-05,199.72499999993923,9.150986e-05,199.72499999993923,4.949276e-05,199.72499999993923,5.373798e-06
199.73999999993922,1.166401e-05,199.73999999993922,9.550592e-05,199.73999999993922,5.489799e-05,199.73999999993922,5.344885e-06
199.7549999999392,1.124214e-05,199.7549999999392,9.672588e-05,199.7549999999392,5.503306e-05,199.7549999999392,5.454455e-06
199.7699999999392,1.090762e-05,199.7699999999392,9.867094e-05,199.7699999999392,6.088973e-05,199.7699999999392,5.394728e-06
199.78499999993917,1.099252e-05,199.78499999993917,9.824731e-05,199.78499999993917,5.890121e-05,199.78499999993917,5.556798e-06
199.79999999993916,1.08012e-05,199.79999999993916,9.964846e-05,199.79999999993916,6.128336e-05,199.79999999993916,5.654801e-06
199.81499999993915,1.07082e-05,199.81499999993915,0.0001003098,199.81499999993915,6.86292e-05,199.81499999993915,5.699464e-06
199.82999999993913,1.051171e-05,199.82999999993913,9.912532e-05,199.82999999993913,6.8854e-05,199.82999999993913,5.965146e-06
199.84499999993912,1.017809e-05,199.84499999993912,9.870149e-05,199.84499999993912,7.009429e-05,199.84499999993912,6.002811e-06
199.8599999999391,9.801591e-06,199.8599999999391,0.0001031716,199.8599999999391,7.117738e-05,199.8599999999391,6.072803e-06
199.8749999999391,9.655344e-06,199.8749999999391,9.590275e-05,199.8749999999391,6.911904e-05,199.8749999999391,6.105191e-06
199.88999999993908,9.811646e-06,199.88999999993908,9.429513e-05,199.88999999993908,7.292601e-05,199.88999999993908,6.194524e-06
199.90499999993906,1.012258e-05,199.90499999993906,9.471845e-05,199.90499999993906,8.138231e-05,199.90499999993906,6.180865e-06
199.91999999993905,9.961255e-06,199.91999999993905,9.16051e-05,199.91999999993905,8.194327e-05,199.91999999993905,5.869926e-06
199.93499999993904,9.634898e-06,199.93499999993904,9.117305e-05,199.93499999993904,8.3581e-05,199.93499999993904,5.860319e-06
199.94999999993902,9.982445e-06,199.94999999993902,9.174309e-05,199.94999999993902,8.74778e-05,199.94999999993902,5.969867e-06
199.964999999939,9.579178e-06,199.964999999939,9.192102e-05,199.964999999939,9.471279e-05,199.964999999939,6.153455e-06
199.979999999939,9.661178e-06,199.979999999939,9.08618e-05,199.979999999939,9.657751e-05,199.979999999939,6.19225e-06
199.99499999993898,9.595341e-06,199.99499999993898,9.052382e-05,199.99499999993898,9.46384e-05,199.99499999993898,6.203613e-06
200.00999999993897,9.945687e-06,200.00999999993897,9.106637e-05,200.00999999993897,9.67435e-05,200.00999999993897,6.146583e-06
200.02499999993896,1.021952e-05,200.02499999993896,8.837195e-05,200.02499999993896,9.382067e-05,200.02499999993896,6.19225e-06
200.03999999993894,1.03142e-05,200.03999999993894,8.703044e-05,200.03999999993894,9.809607e-05,200.03999999993894,6.102884e-06
200.05499999993893,1.045123e-05,200.05499999993893,8.33905e-05,200.05499999993893,9.590862e-05,200.05499999993893,6.196798e-06
200.06999999993891,1.030736e-05,200.06999999993891,8.008678e-05,200.06999999993891,9.122185e-05,200.06999999993891,6.189974e-06
200.0849999999389,1.041748e-05,200.0849999999389,8.058704e-05,200.0849999999389,9.370243e-05,200.0849999999389,5.893875e-06
200.0999999999389,1.060244e-05,200.0999999999389,8.175275e-05,200.0999999999389,9.432485e-05,200.0999999999389,5.75603e-06
200.11499999993887,1.06356e-05,200.11499999993887,7.641806e-05,200.11499999993887,9.347244e-05,200.11499999993887,5.778013e-06
200.12999999993886,1.093599e-05,200.12999999993886,8.191456e-05,200.12999999993886,9.520618e-05,200.12999999993886,5.624828e-06
200.14499999993885,1.076855e-05,200.14499999993885,8.11002e-05,200.14499999993885,9.288844e-05,200.14499999993885,5.860319e-06
200.15999999993883,1.127967e-05,200.15999999993883,8.012916e-05,200.15999999993883,8.932025e-05,200.15999999993883,6.11902e-06
200.17499999993882,1.198213e-05,200.17499999993882,7.822693e-05,200.17499999993882,8.948789e-05,200.17499999993882,6.095956e-06
200.1899999999388,1.19173e-05,200.1899999999388,8.469154e-05,200.1899999999388,9.080163e-05,200.1899999999388,6.417902e-06
200.2049999999388,1.208631e-05,200.2049999999388,8.597388e-05,200.2049999999388,8.687589e-05,200.2049999999388,6.452925e-06
200.21999999993878,1.221846e-05,200.21999999993878,9.070027e-05,200.21999999993878,7.917433e-05,200.21999999993878,6.360578e-06
200.23499999993876,1.25135e-05,200.23499999993876,0.0001044184,200.23499999993876,9.100897e-05,200.23499999993876,6.599699e-06
200.24999999993875,1.2689e-05,200.24999999993875,0.0001087354,200.24999999993875,9.032254e-05,200.24999999993875,6.556871e-06
200.26499999993874,1.220808e-05,200.26499999993874,0.0001100795,200.26499999993874,9.307418e-05,200.26499999993874,6.606099e-06
200.27999999993872,1.218382e-05,200.27999999993872,0.0001100658,200.27999999993872,9.908594e-05,200.27999999993872,6.468188e-06
200.2949999999387,1.219307e-05,200.2949999999387,0.0001129715,200.2949999999387,9.782745e-05,200.2949999999387,6.391509e-06
200.3099999999387,1.22173e-05,200.3099999999387,0.0001174572,200.3099999999387,9.749527e-05,200.3099999999387,6.242096e-06
200.32499999993868,1.256741e-05,200.32499999993868,0.0001200767,200.32499999993868,9.484952e-05,200.32499999993868,6.275856e-06
200.33999999993867,1.300263e-05,200.33999999993867,0.0001195547,200.33999999993867,9.672617e-05,200.33999999993867,6.329497e-06
200.35499999993866,1.317162e-05,200.35499999993866,0.0001190115,200.35499999993866,9.600096e-05,200.35499999993866,6.307202e-06
200.36999999993864,1.378614e-05,200.36999999993864,0.0001201507,200.36999999993864,9.83807e-05,200.36999999993864,6.217223e-06
200.38499999993863,1.360615e-05,200.38499999993863,0.0001160425,200.38499999993863,9.771003e-05,200.38499999993863,6.146583e-06
200.39999999993861,1.384833e-05,200.39999999993861,0.0001181922,200.39999999993861,9.449122e-05,200.39999999993861,5.905813e-06
200.4149999999386,1.353452e-05,200.4149999999386,0.0001197189,200.4149999999386,9.52584e-05,200.4149999999386,5.711809e-06
200.4299999999386,1.31277e-05,200.4299999999386,0.000132396,200.4299999999386,9.238039e-05,200.4299999999386,5.824151e-06
200.44499999993857,1.27753e-05,200.44499999993857,0.0001391942,200.44499999993857,9.43974e-05,200.44499999993857,5.674694e-06
200.45999999993856,1.276206e-05,200.45999999993856,0.0001398705,200.45999999993856,9.331256e-05,200.45999999993856,5.441526e-06
200.47499999993855,1.270786e-05,200.47499999993855,0.0001405205,200.47499999993855,9.185817e-05,200.47499999993855,5.251831e-06
200.48999999993853,1.287197e-05,200.48999999993853,0.0001310564,200.48999999993853,8.26069e-05,200.48999999993853,4.993339e-06
200.50499999993852,1.262445e-05,200.50499999993852,0.0001393612,200.50499999993852,7.961753e-05,200.50499999993852,5.124215e-06
200.5199999999385,1.29983e-05,200.5199999999385,0.000137208,200.5199999999385,7.560355e-05,200.5199999999385,5.124215e-06
200.5349999999385,1.280614e-05,200.5349999999385,0.0001355254,200.5349999999385,6.819721e-05,200.5349999999385,5.115961e-06
200.54999999993848,1.259764e-05,200.54999999993848,0.0001379171,200.54999999993848,7.693613e-05,200.54999999993848,5.154366e-06
200.56499999993846,1.29983e-05,200.56499999993846,0.0001346725,200.56499999993846,8.137867e-05,200.56499999993846,5.230329e-06
200.57999999993845,1.257414e-05,200.57999999993845,0.0001356061,200.57999999993845,8.386182e-05,200.57999999993845,5.342249e-06
200.59499999993844,1.262557e-05,200.59499999993844,0.0001359694,200.59499999993844,8.908922e-05,200.59499999993844,5.323759e-06
200.60999999993842,1.262333e-05,200.60999999993842,0.000137368,200.60999999993842,9.125382e-05,200.60999999993842,5.297233e-06
200.6249999999384,1.186873e-05,200.6249999999384,0.0001384504,200.6249999999384,8.917472e-05,200.6249999999384,5.546649e-06
200.6399999999384,1.153284e-05,200.6399999999384,0.0001397276,200.6399999999384,9.248402e-05,200.6399999999384,5.778013e-06
200.65499999993838,1.128217e-05,200.65499999993838,0.0001367916,200.65499999993838,9.357787e-05,200.65499999993838,5.843468e-06
200.66999999993837,1.143225e-05,200.66999999993837,0.0001341104,200.66999999993837,9.26172e-05,200.66999999993837,5.884307e-06
200.68499999993836,1.126467e-05,200.68499999993836,0.0001248648,200.68499999993836,9.239883e-05,200.68499999993836,5.862722e-06
200.69999999993834,1.178058e-05,200.69999999993834,0.0001122706,200.69999999993834,9.280545e-05,200.69999999993834,5.898653e-06
200.71499999993833,1.175065e-05,200.71499999993833,0.0001124362,200.71499999993833,9.650981e-05,200.71499999993833,5.998116e-06
200.72999999993831,1.154871e-05,200.72999999993831,0.0001116947,200.72999999993831,9.699101e-05,200.72999999993831,6.009847e-06
200.7449999999383,1.108822e-05,200.7449999999383,0.0001079662,200.7449999999383,9.635891e-05,200.7449999999383,5.836232e-06
200.7599999999383,1.119065e-05,200.7599999999383,0.0001057257,200.7599999999383,9.534309e-05,200.7599999999383,5.753582e-06
200.77499999993827,1.098483e-05,200.77499999993827,0.0001093441,200.77499999993827,9.657168e-05,200.77499999993827,5.624828e-06
200.78999999993826,1.181282e-05,200.78999999993826,0.0001093032,200.78999999993826,9.748415e-05,200.78999999993826,5.594695e-06
200.80499999993825,1.353452e-05,200.80499999993825,0.0001062018,200.80499999993825,9.527925e-05,200.80499999993825,5.773135e-06
200.81999999993823,1.334797e-05,200.81999999993823,0.0001058537,200.81999999993823,9.211009e-05,200.81999999993823,5.845879e-06
200.83499999993822,1.329298e-05,200.83499999993822,0.0001031185,200.83499999993822,9.896616e-05,200.83499999993822,5.763367e-06
200.8499999999382,1.32792e-05,200.8499999999382,0.0001020942,200.8499999999382,9.61045e-05,200.8499999999382,5.716739e-06
200.8649999999382,1.392441e-05,200.8649999999382,0.0001080991,200.8649999999382,9.384694e-05,200.8649999999382,5.554263e-06
200.87999999993818,1.43145e-05,200.87999999993818,0.0001107986,200.87999999993818,9.32662e-05,200.87999999993818,5.556798e-06
200.89499999993816,1.464911e-05,200.89499999993816,0.000114531,200.89499999993816,0.0001027351,200.89499999993816,5.454455e-06
200.90999999993815,1.42741e-05,200.90999999993815,0.0001167701,200.90999999993815,0.0001012285,200.90999999993815,5.386888e-06
200.92499999993814,1.434006e-05,200.92499999993814,0.0001157785,200.92499999993814,0.0001068491,200.92499999993814,5.48022e-06
200.93999999993812,1.426225e-05,200.93999999993812,0.0001129612,200.93999999993812,0.0001129118,200.93999999993812,5.165286e-06
200.9549999999381,1.415219e-05,200.9549999999381,0.0001089642,200.9549999999381,0.0001266059,200.9549999999381,5.071714e-06
200.9699999999381,1.421179e-05,200.9699999999381,0.0001089058,200.9699999999381,0.0001385085,200.9699999999381,5.394728e-06
200.98499999993808,1.428889e-05,200.98499999993808,0.0001040669,200.98499999993808,0.00013927,200.98499999993808,5.334332e-06
200.99999999993807,1.402018e-05,200.99999999993807,0.0001010981,200.99999999993807,0.0001541606,200.99999999993807,5.518642e-06
201.01499999993806,1.389707e-05,201.01499999993806,9.493384e-05,201.01499999993806,0.0002148731,201.01499999993806,5.571988e-06
201.02999999993804,1.373905e-05,201.02999999993804,9.251539e-05,201.02999999993804,0.0002234391,201.02999999993804,5.602244e-06
201.04499999993803,1.275986e-05,201.04499999993803,9.775284e-05,201.04499999993803,0.0002444204,201.04499999993803,5.554263e-06
201.05999999993801,1.149001e-05,201.05999999993801,0.0001185435,201.05999999993801,0.0002555787,201.05999999993801,5.412975e-06
201.074999999938,1.122458e-05,201.074999999938,0.0001181392,201.074999999938,0.0002546474,201.074999999938,5.216845e-06
201.089999999938,1.105769e-05,201.089999999938,0.000119785,201.089999999938,0.000250469,201.089999999938,5.107694e-06
201.10499999993797,1.060244e-05,201.10499999993797,0.0001597594,201.10499999993797,0.0002510113,201.10499999993797,5.257193e-06
201.11999999993796,9.805902e-06,201.11999999993796,0.0001571319,201.11999999993796,0.0002512701,201.11999999993796,5.254512e-06
201.13499999993795,9.42201e-06,201.13499999993795,0.0001706181,201.13499999993795,0.0002507719,201.13499999993795,5.024275e-06
201.14999999993793,1.020021e-05,201.14999999993793,0.0003486951,201.14999999993793,0.0002480774,201.14999999993793,4.916579e-06
201.16499999993792,1.031966e-05,201.16499999993792,0.0004031679,201.16499999993792,0.0002501561,201.16499999993792,4.806471e-06
201.1799999999379,1.061174e-05,201.1799999999379,0.0004141562,201.1799999999379,0.0002472228,201.1799999999379,4.925167e-06
201.1949999999379,1.04889e-05,201.1949999999379,0.0005308664,201.1949999999379,0.00024474,201.1949999999379,4.928026e-06
201.20999999993788,1.029506e-05,201.20999999993788,0.0007125897,201.20999999993788,0.0002365026,201.20999999993788,4.747494e-06
201.22499999993786,1.017255e-05,201.22499999993786,0.0007892461,201.22499999993786,0.0002304132,201.22499999993786,4.747494e-06
201.23999999993785,1.033466e-05,201.23999999993785,0.0007951473,201.23999999993785,0.0002292716,201.23999999993785,4.75046e-06
201.25499999993784,1.072923e-05,201.25499999993784,0.000794255,201.25499999993784,0.000210536,201.25499999993784,4.553636e-06
201.26999999993782,1.068054e-05,201.26999999993782,0.0007966816,201.26999999993782,0.0001542855,201.26999999993782,4.633369e-06
201.2849999999378,1.064487e-05,201.2849999999378,0.000799775,201.2849999999378,0.0001415111,201.2849999999378,4.73561e-06
201.2999999999378,1.074628e-05,201.2999999999378,0.0008238051,201.2999999999378,9.297772e-05,201.2999999999378,4.672725e-06
201.31499999993778,1.063825e-05,201.31499999993778,0.0008555768,201.31499999993778,8.413132e-05,201.31499999993778,4.81818e-06
201.32999999993777,1.053446e-05,201.32999999993777,0.0008718739,201.32999999993777,8.338729e-05,201.32999999993777,4.81818e-06
201.34499999993776,1.094114e-05,201.34499999993776,0.0008738383,201.34499999993776,8.046056e-05,201.34499999993776,4.887844e-06
201.35999999993774,1.099765e-05,201.35999999993774,0.0008693476,201.35999999993774,8.316621e-05,201.35999999993774,5.024275e-06
201.37499999993773,1.10309e-05,201.37499999993773,0.0008694979,201.37499999993773,8.526758e-05,201.37499999993773,5.038274e-06
201.38999999993771,1.020435e-05,201.38999999993771,0.0008501322,201.38999999993771,8.494283e-05,201.38999999993771,5.151632e-06
201.4049999999377,9.968323e-06,201.4049999999377,0.0007744187,201.4049999999377,8.190871e-05,201.4049999999377,5.307859e-06
201.4199999999377,9.639282e-06,201.4199999999377,0.0007508441,201.4199999999377,7.852547e-05,201.4199999999377,5.392116e-06
201.43499999993767,9.756936e-06,201.43499999993767,0.0007396773,201.43499999993767,7.711097e-05,201.43499999993767,5.254512e-06
201.44999999993766,1.001766e-05,201.44999999993766,0.0006573109,201.44999999993766,7.58829e-05,201.44999999993766,5.365928e-06
201.46499999993765,1.022779e-05,201.46499999993765,0.0004526899,201.46499999993765,7.474155e-05,201.46499999993765,5.433755e-06
201.47999999993763,1.01184e-05,201.47999999993763,0.0003335169,201.47999999993763,7.547021e-05,201.47999999993763,5.528843e-06
201.49499999993762,1.015731e-05,201.49499999993762,0.0003314609,201.49499999993762,7.29486e-05,201.49499999993762,5.508422e-06
201.5099999999376,9.73815e-06,201.5099999999376,0.000329144,201.5099999999376,7.384451e-05,201.5099999999376,5.457037e-06
201.5249999999376,9.988088e-06,201.5249999999376,0.0003041104,201.5249999999376,7.493956e-05,201.5249999999376,5.544109e-06
201.53999999993758,1.070952e-05,201.53999999993758,0.0003058738,201.53999999993758,7.427836e-05,201.53999999993758,5.632336e-06
201.55499999993756,1.063163e-05,201.55499999993756,0.0002512973,201.55499999993756,7.308153e-05,201.55499999993756,5.716739e-06
201.56999999993755,1.059314e-05,201.56999999993755,0.0001626633,201.56999999993755,7.690133e-05,201.56999999993755,5.632336e-06
201.58499999993754,1.047815e-05,201.58499999993754,0.0001068961,201.58499999993754,7.67082e-05,201.58499999993754,5.706874e-06
201.59999999993752,9.993728e-06,201.59999999993752,9.044925e-05,201.59999999993752,7.628245e-05,201.59999999993752,5.684616e-06
201.6149999999375,1.021815e-05,201.6149999999375,8.784691e-05,201.6149999999375,7.0305e-05,201.6149999999375,5.556798e-06
201.6299999999375,1.051706e-05,201.6299999999375,9.23093e-05,201.6299999999375,6.870592e-05,201.6299999999375,5.495621e-06
201.64499999993748,1.078554e-05,201.64499999993748,9.545738e-05,201.64499999993748,6.82802e-05,201.64499999993748,5.365928e-06
201.65999999993747,1.212006e-05,201.65999999993747,0.0001020399,201.65999999993747,7.023543e-05,201.65999999993747,5.323759e-06
201.67499999993746,1.230691e-05,201.67499999993746,0.0001012868,201.67499999993746,6.75897e-05,201.67499999993746,5.265225e-06
201.68999999993744,1.261775e-05,201.68999999993744,0.0001025902,201.68999999993744,6.760429e-05,201.68999999993744,5.34752e-06
201.70499999993743,1.238109e-05,201.70499999993743,0.0001176562,201.70499999993743,6.578277e-05,201.70499999993743,5.407768e-06
201.71999999993741,1.296683e-05,201.71999999993741,0.0001150255,201.71999999993741,6.254946e-05,201.71999999993741,5.508422e-06
201.7349999999374,1.304481e-05,201.7349999999374,0.000116209,201.7349999999374,6.609211e-05,201.7349999999374,5.2679e-06
201.7499999999374,1.30707e-05,201.7499999999374,0.0001174335,201.7499999999374,6.379905e-05,201.7499999999374,5.289249e-06
201.76499999993737,1.318979e-05,201.76499999993737,0.0001152159,201.76499999993737,6.356812e-05,201.76499999993737,5.143422e-06
201.77999999993736,1.324415e-05,201.77999999993736,0.0001149336,201.77999999993736,6.27013e-05,201.77999999993736,5.227635e-06
201.79499999993735,1.269788e-05,201.79499999993735,0.0001165438,201.79499999993735,6.263004e-05,201.79499999993735,5.238403e-06
201.80999999993733,1.289821e-05,201.80999999993733,0.0001163337,201.80999999993733,6.307068e-05,201.80999999993733,5.436346e-06
201.82499999993732,1.282592e-05,201.82499999993732,0.0001177457,201.82499999993732,5.90641e-05,201.82499999993732,5.368553e-06
201.8399999999373,1.290257e-05,201.8399999999373,0.0001179327,201.8399999999373,5.937571e-05,201.8399999999373,5.508422e-06
201.8549999999373,1.297552e-05,201.8549999999373,0.0001144807,201.8549999999373,5.754659e-05,201.8549999999373,5.564399e-06
201.86999999993728,1.287744e-05,201.86999999993728,0.0001167372,201.86999999993728,5.774868e-05,201.86999999993728,5.624828e-06
201.88499999993726,1.262557e-05,201.88499999993726,0.0001106604,201.88499999993726,5.823038e-05,201.88499999993726,5.843468e-06
201.89999999993725,1.267456e-05,201.89999999993725,0.0001015274,201.89999999993725,5.420881e-05,201.89999999993725,5.795054e-06
201.91499999993724,1.17734e-05,201.91499999993724,0.0001040315,201.91499999993724,5.495313e-05,201.91499999993724,6.040241e-06
201.92999999993722,1.187467e-05,201.92999999993722,0.0001028237,201.92999999993722,5.439999e-05,201.92999999993722,6.098266e-06
201.9449999999372,1.129589e-05,201.9449999999372,0.0001010811,201.9449999999372,5.410242e-05,201.9449999999372,6.044903e-06
201.9599999999372,1.110853e-05,201.9599999999372,8.517964e-05,201.9599999999372,5.360438e-05,201.9599999999372,5.891484e-06
201.97499999993718,1.063295e-05,201.97499999993718,8.629981e-05,201.97499999993718,5.270279e-05,201.97499999993718,5.879517e-06
201.98999999993717,1.069241e-05,201.98999999993717,8.583007e-05,201.98999999993717,5.052429e-05,201.98999999993717,6.035575e-06
202.00499999993716,1.099124e-05,202.00499999993716,8.558814e-05,202.00499999993716,5.319179e-05,202.00499999993716,6.13052e-06
202.01999999993714,1.11982e-05,202.01999999993714,8.439847e-05,202.01999999993714,5.248933e-05,202.01999999993714,6.037908e-06
202.03499999993713,1.092439e-05,202.03499999993713,8.386115e-05,202.03499999993713,5.341036e-05,202.03499999993713,6.054217e-06
202.0499999999371,1.146424e-05,202.0499999999371,8.258814e-05,202.0499999999371,5.41451e-05,202.0499999999371,6.123622e-06
202.0649999999371,1.142485e-05,202.0649999999371,8.325677e-05,202.0649999999371,5.341774e-05,202.0649999999371,6.11211e-06
202.0799999999371,1.166039e-05,202.0799999999371,8.270336e-05,202.0799999999371,5.63881e-05,202.0799999999371,6.148874e-06
202.09499999993707,1.147406e-05,202.09499999993707,8.04138e-05,202.09499999993707,5.702331e-05,202.09499999993707,6.002811e-06
202.10999999993706,1.148633e-05,202.10999999993706,8.581333e-05,202.10999999993706,5.724693e-05,202.10999999993706,5.901041e-06
202.12499999993705,1.128092e-05,202.12499999993705,8.413149e-05,202.12499999993705,5.764955e-05,202.12499999993705,5.81689e-06
202.13999999993703,1.095015e-05,202.13999999993703,8.764592e-05,202.13999999993703,5.730743e-05,202.13999999993703,5.81689e-06
202.15499999993702,1.073186e-05,202.15499999993702,9.015223e-05,202.15499999993702,5.82988e-05,202.15499999993702,5.836232e-06
202.169999999937,1.049158e-05,202.169999999937,9.247975e-05,202.169999999937,5.825481e-05,202.169999999937,5.729046e-06
202.184999999937,1.069767e-05,202.184999999937,9.034235e-05,202.184999999937,5.8103e-05,202.184999999937,5.652309e-06
202.19999999993698,1.065677e-05,202.19999999993698,9.762234e-05,202.19999999993698,5.91082e-05,202.19999999993698,5.60727e-06
202.21499999993696,1.073448e-05,202.21499999993696,0.0001306291,202.21499999993696,6.047816e-05,202.21499999993696,5.53139e-06
202.22999999993695,1.052777e-05,202.22999999993695,0.0001324705,202.22999999993695,5.975103e-05,202.22999999993695,5.475077e-06
202.24499999993694,1.048487e-05,202.24499999993694,0.0001441334,202.24499999993694,6.619073e-05,202.24499999993694,5.379038e-06
202.25999999993692,9.962669e-06,202.25999999993692,0.000155175,202.25999999993692,6.77978e-05,202.25999999993692,5.219545e-06
202.2749999999369,9.874615e-06,202.2749999999369,0.000158407,202.2749999999369,7.054023e-05,202.2749999999369,5.278585e-06
202.2899999999369,9.833158e-06,202.2899999999369,0.0001591197,202.2899999999369,7.085386e-05,202.2899999999369,5.219545e-06
202.30499999993688,9.233234e-06,202.30499999993688,0.0001584481,202.30499999993688,7.17451e-05,202.30499999993688,5.049445e-06
202.31999999993687,9.107272e-06,202.31999999993687,0.0001581925,202.31999999993687,6.876085e-05,202.31999999993687,4.899358e-06
202.33499999993685,9.152018e-06,202.33499999993685,0.0001579724,202.33499999993685,6.906461e-05,202.33499999993685,5.001795e-06
202.34999999993684,9.23476e-06,202.34999999993684,0.0001579438,202.34999999993684,6.938714e-05,202.34999999993684,4.945147e-06
202.36499999993683,9.269777e-06,202.36499999993683,0.0001532401,202.36499999993683,7.023403e-05,202.36499999993683,4.824024e-06
202.3799999999368,9.242383e-06,202.3799999999368,0.0001537666,202.3799999999368,7.062445e-05,202.3799999999368,4.841512e-06
202.3949999999368,1.029095e-05,202.3949999999368,0.0001513224,202.3949999999368,7.088506e-05,202.3949999999368,4.774123e-06
202.4099999999368,1.062102e-05,202.4099999999368,0.0001480481,202.4099999999368,7.197034e-05,202.4099999999368,4.581393e-06
202.42499999993677,1.073579e-05,202.42499999993677,0.0001468362,202.42499999993677,7.224599e-05,202.42499999993677,4.723696e-06
202.43999999993676,1.072923e-05,202.43999999993676,0.0001462721,202.43999999993676,7.13687e-05,202.43999999993676,4.73561e-06
202.45499999993675,1.05545e-05,202.45499999993675,0.0001340754,202.45499999993675,7.145037e-05,202.45499999993675,4.882076e-06
202.46999999993673,1.047546e-05,202.46999999993673,0.0001066059,202.46999999993673,7.354728e-05,202.46999999993673,4.973552e-06
202.48499999993672,1.034692e-05,202.48499999993672,0.0001015159,202.48499999993672,7.250116e-05,202.48499999993672,5.222243e-06
202.4999999999367,1.025667e-05,202.4999999999367,8.7254e-05,202.4999999999367,6.542138e-05,202.4999999999367,5.428567e-06
202.5149999999367,1.045662e-05,202.5149999999367,6.977867e-05,202.5149999999367,6.263431e-05,202.5149999999367,5.546649e-06
202.52999999993668,1.054916e-05,202.52999999993668,6.896786e-05,202.52999999993668,6.189496e-05,202.52999999993668,5.704405e-06
202.54499999993666,1.12459e-05,202.54499999993666,6.940845e-05,202.54499999993666,6.134172e-05,202.54499999993666,5.731505e-06
202.55999999993665,1.137295e-05,202.55999999993665,7.290089e-05,202.55999999993665,6.103345e-05,202.55999999993665,5.910582e-06
202.57499999993664,1.150594e-05,202.57499999993664,7.326269e-05,202.57499999993664,5.978662e-05,202.57499999993664,5.912964e-06
202.58999999993662,1.149614e-05,202.58999999993662,7.440153e-05,202.58999999993662,6.071156e-05,202.58999999993662,5.917727e-06
202.6049999999366,1.143964e-05,202.6049999999366,7.945548e-05,202.6049999999366,6.152425e-05,202.6049999999366,6.13052e-06
202.6199999999366,1.159618e-05,202.6199999999366,7.923071e-05,202.6199999999366,5.882894e-05,202.6199999999366,6.224016e-06
202.63499999993658,1.137542e-05,202.63499999993658,7.802751e-05,202.63499999993658,5.685483e-05,202.63499999993658,6.091332e-06
202.64999999993657,1.056651e-05,202.64999999993657,8.796581e-05,202.64999999993657,5.646674e-05,202.64999999993657,6.139704e-06
202.66499999993655,1.040395e-05,202.66499999993655,8.865682e-05,202.66499999993655,5.370782e-05,202.66499999993655,6.205884e-06
202.67999999993654,1.005976e-05,202.67999999993654,9.142469e-05,202.67999999993654,5.321588e-05,202.67999999993654,6.187698e-06
202.69499999993653,1.036868e-05,202.69499999993653,9.434441e-05,202.69499999993653,5.60081e-05,202.69499999993653,6.167175e-06
202.7099999999365,1.027314e-05,202.7099999999365,9.984717e-05,202.7099999999365,5.494467e-05,202.7099999999365,5.974584e-06
202.7249999999365,1.028684e-05,202.7249999999365,0.0001162237,202.7249999999365,5.362277e-05,202.7249999999365,5.891484e-06
202.7399999999365,1.082855e-05,202.7399999999365,0.0001235252,202.7399999999365,5.298536e-05,202.7399999999365,5.629835e-06
202.75499999993647,1.101173e-05,202.75499999993647,0.0001242766,202.75499999993647,5.289302e-05,202.75499999993647,5.477649e-06
202.76999999993646,1.160468e-05,202.76999999993646,0.0001383141,202.76999999993646,5.275996e-05,202.76999999993646,5.394728e-06
202.78499999993645,1.148633e-05,202.78499999993645,0.0001424433,202.78499999993645,5.536252e-05,202.78499999993645,5.444114e-06
202.79999999993643,1.057717e-05,202.79999999993643,0.0001438084,202.79999999993643,5.436683e-05,202.79999999993643,5.386888e-06
202.81499999993642,1.055584e-05,202.81499999993642,0.0001475846,202.81499999993642,5.928477e-05,202.81499999993642,5.165286e-06
202.8299999999364,1.038497e-05,202.8299999999364,0.0001474597,202.8299999999364,5.898868e-05,202.8299999999364,5.214144e-06
202.8449999999364,1.073973e-05,202.8449999999364,0.0001468582,202.8449999999364,5.984737e-05,202.8449999999364,5.143422e-06
202.85999999993638,1.091278e-05,202.85999999993638,0.0001445783,202.85999999993638,5.914608e-05,202.85999999993638,4.936594e-06
202.87499999993636,1.1207e-05,202.87499999993636,0.0001468999,202.87499999993636,6.008745e-05,202.87499999993636,4.942298e-06
202.88999999993635,1.114903e-05,202.88999999993635,0.0001568363,202.88999999993635,6.043901e-05,202.88999999993635,4.882076e-06
202.90499999993634,1.109203e-05,202.90499999993634,0.0001521674,202.90499999993634,6.212871e-05,202.90499999993634,5.052234e-06
202.91999999993632,1.128342e-05,202.91999999993632,0.000153812,202.91999999993632,6.296092e-05,202.91999999993632,5.024275e-06
202.9349999999363,1.147038e-05,202.9349999999363,0.0001516393,202.9349999999363,6.283842e-05,202.9349999999363,4.973552e-06
202.9499999999363,1.144579e-05,202.9499999999363,0.0001531859,202.9499999999363,6.200638e-05,202.9499999999363,5.035477e-06
202.96499999993628,1.140881e-05,202.96499999993628,0.0001457044,202.96499999993628,6.383459e-05,202.96499999993628,5.015856e-06
202.97999999993627,1.134939e-05,202.97999999993627,0.0001337197,202.97999999993627,6.490146e-05,202.97999999993627,5.068936e-06
202.99499999993625,1.075284e-05,202.99499999993625,0.000133259,202.99499999993625,6.926075e-05,202.99499999993625,5.192486e-06
203.00999999993624,1.016424e-05,203.00999999993624,0.0001265214,203.00999999993624,6.791468e-05,203.00999999993624,5.178904e-06
203.02499999993623,1.007515e-05,203.02499999993623,0.0001152813,203.02499999993623,7.087731e-05,203.02499999993623,5.132455e-06
203.0399999999362,1.014204e-05,203.0399999999362,0.0001116365,203.0399999999362,6.908337e-05,203.0399999999362,5.085583e-06
203.0549999999362,1.019745e-05,203.0549999999362,0.0001083392,203.0549999999362,6.742841e-05,203.0549999999362,5.281253e-06
203.0699999999362,1.091536e-05,203.0699999999362,0.0001024111,203.0699999999362,6.768259e-05,203.0699999999362,5.286585e-06
203.08499999993617,1.05958e-05,203.08499999993617,0.000103366,203.08499999993617,6.780279e-05,203.08499999993617,5.230329e-06
203.09999999993616,1.085194e-05,203.09999999993616,0.0001026152,203.09999999993616,6.929857e-05,203.09999999993616,5.344885e-06
203.11499999993615,1.025667e-05,203.11499999993615,0.0001030413,203.11499999993615,7.05604e-05,203.11499999993615,5.379038e-06
203.12999999993613,1.015315e-05,203.12999999993613,9.442128e-05,203.12999999993613,7.178023e-05,203.12999999993613,5.462197e-06
203.14499999993612,1.058382e-05,203.14499999993612,8.949387e-05,203.14499999993612,7.409931e-05,203.14499999993612,5.477649e-06
203.1599999999361,1.118813e-05,203.1599999999361,9.030866e-05,203.1599999999361,7.632915e-05,203.1599999999361,5.582091e-06
203.1749999999361,1.05505e-05,203.1749999999361,8.640862e-05,203.1749999999361,7.677521e-05,203.1749999999361,5.574516e-06
203.18999999993608,1.099509e-05,203.18999999993608,8.801384e-05,203.18999999993608,7.542317e-05,203.18999999993608,5.632336e-06
203.20499999993606,1.126717e-05,203.20499999993606,8.014006e-05,203.20499999993606,7.443692e-05,203.20499999993606,5.637336e-06
203.21999999993605,1.144333e-05,203.21999999993605,8.129502e-05,203.21999999993605,7.308905e-05,203.21999999993605,5.746233e-06
203.23499999993604,1.146055e-05,203.23499999993604,7.965415e-05,203.23499999993604,7.253535e-05,203.23499999993604,5.674694e-06
203.24999999993602,1.152429e-05,203.24999999993602,7.900905e-05,203.24999999993602,7.079299e-05,203.24999999993602,5.556798e-06
203.264999999936,1.138904e-05,203.264999999936,8.373272e-05,203.264999999936,7.067091e-05,203.264999999936,5.729046e-06
203.279999999936,1.136799e-05,203.279999999936,8.265378e-05,203.279999999936,6.756198e-05,203.279999999936,5.642331e-06
203.29499999993598,1.11174e-05,203.29499999993598,8.340452e-05,203.29499999993598,6.713109e-05,203.29499999993598,5.619817e-06
203.30999999993597,1.099252e-05,203.30999999993597,8.273486e-05,203.30999999993597,6.629556e-05,203.30999999993597,5.407768e-06
203.32499999993595,1.067262e-05,203.32499999993595,8.293859e-05,203.32499999993595,6.283707e-05,203.32499999993595,5.386888e-06
203.33999999993594,1.033466e-05,203.33999999993594,7.946416e-05,203.33999999993594,6.257244e-05,203.33999999993594,5.273245e-06
203.35499999993593,1.043504e-05,203.35499999993593,8.079549e-05,203.35499999993593,5.873093e-05,203.35499999993593,5.278585e-06
203.3699999999359,1.064487e-05,203.3699999999359,8.208668e-05,203.3699999999359,5.768595e-05,203.3699999999359,5.405162e-06
203.3849999999359,1.081423e-05,203.3849999999359,8.096634e-05,203.3849999999359,5.639909e-05,203.3849999999359,5.302549e-06
203.3999999999359,1.07266e-05,203.3999999999359,8.482982e-05,203.3999999999359,5.264797e-05,203.3999999999359,5.394728e-06
203.41499999993587,1.051439e-05,203.41499999993587,8.371673e-05,203.41499999993587,5.098889e-05,203.41499999993587,5.451871e-06
203.42999999993586,1.107296e-05,203.42999999993586,8.948663e-05,203.42999999993586,5.617887e-05,203.42999999993586,5.425972e-06
203.44499999993585,1.024293e-05,203.44499999993585,8.949985e-05,203.44499999993585,5.832997e-05,203.44499999993585,5.505864e-06
203.45999999993583,1.162894e-05,203.45999999993583,8.77394e-05,203.45999999993583,5.92698e-05,203.45999999993583,5.299891e-06
203.47499999993582,1.220692e-05,203.47499999993582,9.664021e-05,203.47499999993582,6.257468e-05,203.47499999993582,5.505864e-06
203.4899999999358,1.281713e-05,203.4899999999358,9.590025e-05,203.4899999999358,6.434255e-05,203.4899999999358,5.662269e-06
203.5049999999358,1.304481e-05,203.5049999999358,9.478817e-05,203.5049999999358,6.444973e-05,203.5049999999358,5.682137e-06
203.51999999993578,1.304805e-05,203.51999999993578,9.30056e-05,203.51999999993578,6.777784e-05,203.51999999993578,5.428567e-06
203.53499999993576,1.291131e-05,203.53499999993576,9.480882e-05,203.53499999993576,6.940663e-05,203.53499999993576,5.425972e-06
203.54999999993575,1.292112e-05,203.54999999993575,9.637544e-05,203.54999999993575,6.946546e-05,203.54999999993575,5.526294e-06
203.56499999993574,1.326965e-05,203.56499999993574,9.854123e-05,203.56499999993574,7.049208e-05,203.56499999993574,5.493057e-06
203.57999999993572,1.3547e-05,203.57999999993572,0.0001002598,203.57999999993572,7.121755e-05,203.57999999993572,5.706874e-06
203.5949999999357,1.407133e-05,203.5949999999357,0.0001002763,203.5949999999357,7.209354e-05,203.5949999999357,5.869926e-06
203.6099999999357,1.403224e-05,203.6099999999357,0.0001025228,203.6099999999357,7.133908e-05,203.6099999999357,5.972226e-06
203.62499999993568,1.393957e-05,203.62499999993568,0.000109197,203.62499999993568,7.053304e-05,203.62499999993568,5.765811e-06
203.63999999993567,1.388287e-05,203.63999999993567,0.000114626,203.63999999993567,6.96273e-05,203.63999999993567,5.965146e-06
203.65499999993565,1.389605e-05,203.65499999993565,0.0001127727,203.65499999993565,7.105635e-05,203.65499999993565,5.701935e-06
203.66999999993564,1.34667e-05,203.66999999993564,0.0001117294,203.66999999993564,7.29204e-05,203.66999999993564,5.714275e-06
203.68499999993563,1.333108e-05,203.68499999993563,0.0001238135,203.68499999993563,6.523767e-05,203.68499999993563,5.812045e-06
203.6999999999356,1.268567e-05,203.6999999999356,0.0001403159,203.6999999999356,6.469647e-05,203.6999999999356,5.775575e-06
203.7149999999356,1.211541e-05,203.7149999999356,0.0001497606,203.7149999999356,6.311422e-05,203.7149999999356,6.014533e-06
203.7299999999356,1.136675e-05,203.7299999999356,0.0001707186,203.7299999999356,5.792502e-05,203.7299999999356,5.984008e-06
203.74499999993557,1.106533e-05,203.74499999993557,0.0001868839,203.74499999993557,5.69625e-05,203.74499999993557,6.023894e-06
203.75999999993556,1.115661e-05,203.75999999993556,0.0001907993,203.75999999993556,5.497851e-05,203.75999999993556,6.093644e-06
203.77499999993555,1.123587e-05,203.77499999993555,0.0001915443,203.77499999993555,5.309637e-05,203.77499999993555,6.201342e-06
203.78999999993553,1.132329e-05,203.78999999993553,0.0002014643,203.78999999993553,5.243966e-05,203.78999999993553,6.452925e-06
203.80499999993552,1.142978e-05,203.80499999993552,0.0002427187,203.80499999993552,5.25167e-05,203.80499999993552,6.338393e-06
203.8199999999355,1.107296e-05,203.8199999999355,0.0002434444,203.8199999999355,5.143011e-05,203.8199999999355,6.19907e-06
203.8349999999355,1.105896e-05,203.8349999999355,0.0002476151,203.8349999999355,5.099911e-05,203.8349999999355,6.061194e-06
203.84999999993548,1.05745e-05,203.84999999993548,0.0002525931,203.84999999993548,4.963686e-05,203.84999999993548,6.030905e-06
203.86499999993546,1.132205e-05,203.86499999993546,0.0002619109,203.86499999993546,5.057e-05,203.86499999993546,5.967507e-06
203.87999999993545,1.165072e-05,203.87999999993545,0.0002682261,203.87999999993545,4.953117e-05,203.87999999993545,5.979298e-06
203.89499999993544,1.134815e-05,203.89499999993544,0.0002659215,203.89499999993544,5.064126e-05,203.89499999993544,5.726587e-06
203.90999999993542,1.126842e-05,203.90999999993542,0.0002657726,203.90999999993542,4.752239e-05,203.90999999993542,5.95096e-06
203.9249999999354,1.155968e-05,203.9249999999354,0.0002650085,203.9249999999354,4.831085e-05,203.9249999999354,5.891484e-06
203.9399999999354,1.131458e-05,203.9399999999354,0.0002543069,203.9399999999354,4.917038e-05,203.9399999999354,5.731505e-06
203.95499999993538,1.161924e-05,203.95499999993538,0.0002445354,203.95499999993538,4.879537e-05,203.95499999993538,5.536481e-06
203.96999999993537,1.159011e-05,203.96999999993537,0.0002410346,203.96999999993537,4.993056e-05,203.96999999993537,5.516089e-06
203.98499999993535,1.147897e-05,203.98499999993535,0.0002279358,203.98499999993535,4.670041e-05,203.98499999993535,5.433755e-06
203.99999999993534,1.162045e-05,203.99999999993534,0.0002215743,203.99999999993534,4.723696e-05,203.99999999993534,5.315815e-06
204.01499999993533,1.133448e-05,204.01499999993533,0.0002195492,204.01499999993533,4.76065e-05,204.01499999993533,5.214144e-06
204.0299999999353,1.176861e-05,204.0299999999353,0.0002171863,204.0299999999353,4.851395e-05,204.0299999999353,5.099414e-06
204.0449999999353,1.195506e-05,204.0449999999353,0.0001994606,204.0449999999353,4.852759e-05,204.0449999999353,5.055022e-06
204.0599999999353,1.168332e-05,204.0599999999353,0.0001460004,204.0599999999353,5.025368e-05,204.0599999999353,5.363302e-06
204.07499999993527,1.21711e-05,204.07499999993527,0.0001454046,204.07499999993527,5.080428e-05,204.07499999993527,5.523745e-06
204.08999999993526,1.210029e-05,204.08999999993526,0.0001410453,204.08999999993526,5.390104e-05,204.08999999993526,5.619817e-06
204.10499999993525,1.213052e-05,204.10499999993525,0.0001374986,204.10499999993525,5.566449e-05,204.10499999993525,5.704405e-06
204.11999999993523,1.100021e-05,204.11999999993523,0.0001471743,204.11999999993523,5.646549e-05,204.11999999993523,5.662269e-06
204.13499999993522,1.09347e-05,204.13499999993522,0.000141062,204.13499999993522,5.859261e-05,204.13499999993522,5.763367e-06
204.1499999999352,1.087917e-05,204.1499999999352,0.0001452158,204.1499999999352,5.991607e-05,204.1499999999352,5.692045e-06
204.1649999999352,1.066206e-05,204.1649999999352,0.0001523426,204.1649999999352,5.66856e-05,204.1649999999352,5.561867e-06
204.17999999993518,1.096172e-05,204.17999999993518,0.00015811,204.17999999993518,5.816842e-05,204.17999999993518,5.587136e-06
204.19499999993516,1.163136e-05,204.19499999993516,0.0001569823,204.19499999993516,5.910749e-05,204.19499999993516,5.694519e-06
204.20999999993515,1.141251e-05,204.20999999993515,0.0001545547,204.20999999993515,6.118859e-05,204.20999999993515,5.56946e-06
204.22499999993514,1.139275e-05,204.22499999993514,0.0001543403,204.22499999993514,6.156934e-05,204.22499999993514,5.612292e-06
204.23999999993512,1.149859e-05,204.23999999993512,0.0001494329,204.23999999993512,6.326313e-05,204.23999999993512,5.587136e-06
204.2549999999351,1.131209e-05,204.2549999999351,0.000143579,204.2549999999351,6.549047e-05,204.2549999999351,5.637336e-06
204.2699999999351,1.136923e-05,204.2699999999351,0.0001436087,204.2699999999351,6.636501e-05,204.2699999999351,5.56693e-06
204.28499999993508,1.111993e-05,204.28499999993508,0.0001449636,204.28499999993508,6.571657e-05,204.28499999993508,5.554263e-06
204.29999999993507,1.157795e-05,204.29999999993507,0.000145241,204.29999999993507,6.460233e-05,204.29999999993507,5.503306e-06
204.31499999993505,1.193147e-05,204.31499999993505,0.0001429306,204.31499999993505,6.475392e-05,204.31499999993505,5.402556e-06
204.32999999993504,1.16253e-05,204.32999999993504,0.0001399043,204.32999999993504,6.373985e-05,204.32999999993504,5.286585e-06
204.34499999993503,1.143717e-05,204.34499999993503,0.0001395314,204.34499999993503,6.202047e-05,204.34499999993503,5.043863e-06
204.359999999935,1.141745e-05,204.359999999935,0.0001327459,204.359999999935,6.141081e-05,204.359999999935,5.024275e-06
204.374999999935,1.148265e-05,204.374999999935,0.0001025621,204.374999999935,6.020689e-05,204.374999999935,5.195198e-06
204.389999999935,1.12909e-05,204.389999999935,0.0001026475,204.389999999935,5.78335e-05,204.389999999935,5.219545e-06
204.40499999993497,1.145071e-05,204.40499999993497,9.860039e-05,204.40499999993497,6.011347e-05,204.40499999993497,5.181623e-06
204.41999999993496,1.129963e-05,204.41999999993496,9.128823e-05,204.41999999993496,6.067999e-05,204.41999999993496,5.249148e-06
204.43499999993494,1.095915e-05,204.43499999993494,8.731307e-05,204.43499999993494,6.019683e-05,204.43499999993494,5.233022e-06
204.44999999993493,1.05358e-05,204.44999999993493,9.519731e-05,204.44999999993493,6.280658e-05,204.44999999993493,5.099414e-06
204.46499999993492,1.072004e-05,204.46499999993492,0.0001049102,204.46499999993492,6.265927e-05,204.46499999993492,5.132455e-06
204.4799999999349,1.075677e-05,204.4799999999349,0.0001118748,204.4799999999349,6.302555e-05,204.4799999999349,4.947995e-06
204.4949999999349,1.064752e-05,204.4949999999349,0.0001180516,204.4949999999349,6.229966e-05,204.4949999999349,5.001795e-06
204.50999999993488,1.053981e-05,204.50999999993488,0.0001235703,204.50999999993488,6.589104e-05,204.50999999993488,4.976383e-06
204.52499999993486,1.015592e-05,204.52499999993486,0.0001288208,204.52499999993486,6.405225e-05,204.52499999993486,4.965048e-06
204.53999999993485,9.858911e-06,204.53999999993485,0.0001321534,204.53999999993485,6.493423e-05,204.53999999993485,4.930884e-06
204.55499999993484,9.059196e-06,204.55499999993484,0.0001318162,204.55499999993484,6.688303e-05,204.55499999993484,4.939447e-06
204.56999999993482,8.62425e-06,204.56999999993482,0.0001294873,204.56999999993482,6.53201e-05,204.56999999993482,5.013047e-06
204.5849999999348,9.722225e-06,204.5849999999348,0.0001311578,204.5849999999348,6.795967e-05,204.5849999999348,4.887844e-06
204.5999999999348,1.009052e-05,204.5999999999348,0.0001319359,204.5999999999348,6.85269e-05,204.5999999999348,5.104936e-06
204.61499999993478,1.014621e-05,204.61499999993478,0.000134773,204.61499999993478,7.034765e-05,204.61499999993478,5.085583e-06
204.62999999993477,1.016285e-05,204.62999999993477,0.000134947,204.62999999993477,7.230679e-05,204.62999999993477,5.063375e-06
204.64499999993475,1.080381e-05,204.64499999993475,0.0001358777,204.64499999993475,7.239032e-05,204.64499999993475,5.238403e-06
204.65999999993474,1.095915e-05,204.65999999993474,0.0001431289,204.65999999993474,7.028455e-05,204.65999999993474,5.241091e-06
204.67499999993473,1.083895e-05,204.67499999993473,0.0001401084,204.67499999993473,7.05534e-05,204.67499999993473,5.379038e-06
204.6899999999347,1.112247e-05,204.6899999999347,0.0001368947,204.6899999999347,7.02603e-05,204.6899999999347,5.639834e-06
204.7049999999347,1.077901e-05,204.7049999999347,0.0001339914,204.7049999999347,6.940419e-05,204.7049999999347,5.743781e-06
204.71999999993469,1.10309e-05,204.71999999993469,0.0001269621,204.71999999993469,7.256913e-05,204.71999999993469,5.804769e-06
204.73499999993467,1.190074e-05,204.73499999993467,0.0001179302,204.73499999993467,7.135508e-05,204.73499999993467,5.802342e-06
204.74999999993466,1.198448e-05,204.74999999993466,0.0001113965,204.74999999993466,6.846069e-05,204.74999999993466,5.692045e-06
204.76499999993464,1.205714e-05,204.76499999993464,0.0001082456,204.76499999993464,6.807109e-05,204.76499999993464,5.738873e-06
204.77999999993463,1.361132e-05,204.77999999993463,0.0001043476,204.77999999993463,7.097166e-05,204.77999999993463,5.657291e-06
204.79499999993462,1.387576e-05,204.79499999993462,0.0001016658,204.79499999993462,6.951046e-05,204.79499999993462,5.780451e-06
204.8099999999346,1.395573e-05,204.8099999999346,0.0001038303,204.8099999999346,6.884602e-05,204.8099999999346,5.741327e-06
204.8249999999346,1.30804e-05,204.8249999999346,0.0001061077,204.8249999999346,6.996737e-05,204.8249999999346,5.551726e-06
204.83999999993458,1.341849e-05,204.83999999993458,0.0001026351,204.83999999993458,6.77581e-05,204.83999999993458,5.523745e-06
204.85499999993456,1.318231e-05,204.85499999993456,9.73569e-05,204.85499999993456,6.931625e-05,204.85499999993456,5.451871e-06
204.86999999993455,1.354804e-05,204.86999999993455,9.726961e-05,204.86999999993455,6.740814e-05,204.86999999993455,5.505864e-06
204.88499999993454,1.338065e-05,204.88499999993454,9.500312e-05,204.88499999993454,6.542138e-05,204.88499999993454,5.310512e-06
204.89999999993452,1.274439e-05,204.89999999993452,8.828886e-05,204.89999999993452,6.566317e-05,204.89999999993452,5.181623e-06
204.9149999999345,1.27001e-05,204.9149999999345,8.208772e-05,204.9149999999345,6.70952e-05,204.9149999999345,5.093886e-06
204.9299999999345,1.31545e-05,204.9299999999345,8.205442e-05,204.9299999999345,6.605353e-05,204.9299999999345,4.824024e-06
204.94499999993448,1.336274e-05,204.94499999993448,8.374197e-05,204.94499999993448,6.478067e-05,204.94499999993448,4.572159e-06
204.95999999993447,1.387069e-05,204.95999999993447,8.007693e-05,204.95999999993447,6.156316e-05,204.95999999993447,4.491339e-06
204.97499999993445,1.415119e-05,204.97499999993445,7.261997e-05,204.97499999993445,5.932016e-05,204.97499999993445,4.386617e-06
204.98999999993444,1.356467e-05,204.98999999993444,7.58556e-05,204.98999999993444,5.924531e-05,204.98999999993444,4.559819e-06
205.00499999993443,1.35116e-05,205.00499999993443,7.600625e-05,205.00499999993443,5.837993e-05,205.00499999993443,4.642481e-06
205.0199999999344,1.354076e-05,205.0199999999344,7.786975e-05,205.0199999999344,5.749615e-05,205.0199999999344,4.605925e-06
205.0349999999344,1.238109e-05,205.0349999999344,7.766578e-05,205.0349999999344,5.634437e-05,205.0349999999344,4.544346e-06
205.04999999993439,1.199741e-05,205.04999999993439,7.485493e-05,205.04999999993439,5.622248e-05,205.04999999993439,4.510119e-06
205.06499999993437,1.247968e-05,205.06499999993437,7.273588e-05,205.06499999993437,5.494057e-05,205.06499999993437,4.488202e-06
205.07999999993436,1.286212e-05,205.07999999993436,7.061787e-05,205.07999999993436,5.577067e-05,205.07999999993436,4.531929e-06
205.09499999993434,1.231378e-05,205.09499999993434,7.1314e-05,205.09499999993434,5.582243e-05,205.09499999993434,4.559819e-06
205.10999999993433,1.21896e-05,205.10999999993433,7.198228e-05,205.10999999993433,5.267178e-05,205.10999999993433,4.562907e-06
205.12499999993432,1.204311e-05,205.12499999993432,6.883702e-05,205.12499999993432,5.17278e-05,205.12499999993432,4.491339e-06
205.1399999999343,1.215256e-05,205.1399999999343,6.924997e-05,205.1399999999343,4.997907e-05,205.1399999999343,4.472482e-06
205.1549999999343,1.230119e-05,205.1549999999343,6.786654e-05,205.1549999999343,5.133553e-05,205.1549999999343,4.584466e-06
205.16999999993428,1.244464e-05,205.16999999993428,6.603006e-05,205.16999999993428,5.04498e-05,205.16999999993428,4.581393e-06
205.18499999993426,1.218613e-05,205.18499999993426,6.288816e-05,205.18499999993426,4.957012e-05,205.18499999993426,4.503868e-06
205.19999999993425,1.176143e-05,205.19999999993425,6.225352e-05,205.19999999993425,4.948679e-05,205.19999999993425,4.741556e-06
205.21499999993424,1.095787e-05,205.21499999993424,6.520592e-05,205.21499999993424,4.81309e-05,205.21499999993424,5.015856e-06
205.22999999993422,1.070426e-05,205.22999999993422,6.364917e-05,205.22999999993422,4.789207e-05,205.22999999993422,5.029879e-06
205.2449999999342,1.075284e-05,205.2449999999342,6.508786e-05,205.2449999999342,4.851337e-05,205.2449999999342,4.996159e-06
205.2599999999342,1.096943e-05,205.2599999999342,6.461433e-05,205.2599999999342,5.032427e-05,205.2599999999342,5.113207e-06
205.27499999993418,1.095787e-05,205.27499999993418,6.344368e-05,205.27499999993418,4.822125e-05,205.27499999993418,5.415577e-06
205.28999999993417,1.052777e-05,205.28999999993417,6.731298e-05,205.28999999993417,4.884384e-05,205.28999999993417,5.513535e-06
205.30499999993415,1.066206e-05,205.30499999993415,6.962831e-05,205.30499999993415,5.100988e-05,205.30499999993415,5.433755e-06
205.31999999993414,9.992318e-06,205.31999999993414,7.632436e-05,205.31999999993414,5.124353e-05,205.31999999993414,5.523745e-06
205.33499999993413,9.714977e-06,205.33499999993413,8.269143e-05,205.33499999993413,4.968649e-05,205.33499999993413,5.444114e-06
205.3499999999341,9.890295e-06,205.3499999999341,8.383074e-05,205.3499999999341,4.826242e-05,205.3499999999341,5.420777e-06
205.3649999999341,9.986677e-06,205.3649999999341,8.840191e-05,205.3649999999341,4.868004e-05,205.3649999999341,5.446701e-06
205.37999999993409,9.866052e-06,205.37999999993409,8.884998e-05,205.37999999993409,5.06699e-05,205.37999999993409,5.594695e-06
205.39499999993407,9.607078e-06,205.39499999993407,9.073629e-05,205.39499999993407,5.000443e-05,205.39499999993407,5.647323e-06
205.40999999993406,9.330365e-06,205.40999999993406,9.281198e-05,205.40999999993406,4.748917e-05,205.40999999993406,5.56946e-06
205.42499999993404,9.343943e-06,205.42499999993404,9.224762e-05,205.42499999993404,4.716414e-05,205.42499999993404,5.826569e-06
205.43999999993403,8.873813e-06,205.43999999993403,9.579237e-05,205.43999999993403,4.736234e-05,205.43999999993403,5.807196e-06
205.45499999993402,8.790878e-06,205.45499999993402,9.775399e-05,205.45499999993402,4.994382e-05,205.45499999993402,5.639834e-06
205.469999999934,8.902342e-06,205.469999999934,9.716036e-05,205.469999999934,4.973212e-05,205.469999999934,5.457037e-06
205.484999999934,8.733001e-06,205.484999999934,9.640875e-05,205.484999999934,4.911735e-05,205.484999999934,5.571988e-06
205.49999999993398,9.198077e-06,205.49999999993398,9.634897e-05,205.49999999993398,4.81622e-05,205.49999999993398,5.230329e-06
205.51499999993396,9.475681e-06,205.51499999993396,9.390861e-05,205.51499999993396,4.6761e-05,205.51499999993396,5.257193e-06
205.52999999993395,9.690296e-06,205.52999999993395,9.291498e-05,205.52999999993395,4.688735e-05,205.52999999993395,5.074491e-06
205.54499999993394,9.739596e-06,205.54499999993394,9.050826e-05,205.54499999993394,4.625183e-05,205.54499999993394,4.936594e-06
205.55999999993392,9.927257e-06,205.55999999993392,8.76734e-05,205.55999999993392,4.395119e-05,205.55999999993392,4.858938e-06
205.5749999999339,9.911636e-06,205.5749999999339,8.133019e-05,205.5749999999339,4.341751e-05,205.5749999999339,4.942298e-06
205.5899999999339,9.983855e-06,205.5899999999339,7.504212e-05,205.5899999999339,4.217728e-05,205.5899999999339,5.018664e-06
205.60499999993388,1.01337e-05,205.60499999993388,6.99577e-05,205.60499999993388,4.305783e-05,205.60499999993388,5.135199e-06
205.61999999993387,1.023468e-05,205.61999999993387,6.759762e-05,205.61999999993387,4.095177e-05,205.61999999993387,4.953686e-06
205.63499999993385,1.056651e-05,205.63499999993385,6.677025e-05,205.63499999993385,4.400884e-05,205.63499999993385,4.93374e-06
205.64999999993384,1.087917e-05,205.64999999993384,6.653502e-05,205.64999999993384,4.441571e-05,205.64999999993384,5.038274e-06
205.66499999993383,1.168814e-05,205.66499999993383,6.445695e-05,205.66499999993383,4.542827e-05,205.66499999993383,5.096651e-06
205.6799999999338,1.174105e-05,205.6799999999338,6.158535e-05,205.6799999999338,4.546391e-05,205.6799999999338,4.867628e-06
205.6949999999338,1.177101e-05,205.6949999999338,5.637936e-05,205.6949999999338,4.393228e-05,205.6949999999338,4.873412e-06
205.70999999993379,1.170139e-05,205.70999999993379,5.567613e-05,205.70999999993379,4.171687e-05,205.70999999993379,4.945147e-06
205.72499999993377,1.196213e-05,205.72499999993377,5.438134e-05,205.72499999993377,4.13366e-05,205.72499999993377,5.113207e-06
205.73999999993376,1.278522e-05,205.73999999993376,5.35039e-05,205.73999999993376,4.087017e-05,205.73999999993376,5.077266e-06
205.75499999993374,1.229546e-05,205.75499999993374,5.369576e-05,205.75499999993374,4.153548e-05,205.75499999993374,5.063375e-06
205.76999999993373,1.231492e-05,205.76999999993373,5.427477e-05,205.76999999993373,4.225936e-05,205.76999999993373,4.996159e-06
205.78499999993372,1.281054e-05,205.78499999993372,5.378697e-05,205.78499999993372,4.241242e-05,205.78499999993372,4.928026e-06
205.7999999999337,1.299071e-05,205.7999999999337,5.4281e-05,205.7999999999337,4.441318e-05,205.7999999999337,5.052234e-06
205.8149999999337,1.316199e-05,205.8149999999337,5.304009e-05,205.8149999999337,4.389217e-05,205.8149999999337,5.08004e-06
205.82999999993368,1.324627e-05,205.82999999993368,5.398435e-05,205.82999999993368,4.556388e-05,205.82999999993368,5.032679e-06
205.84499999993366,1.316734e-05,205.84499999993366,5.412741e-05,205.84499999993366,4.581331e-05,205.84499999993366,5.007424e-06
205.85999999993365,1.315557e-05,205.85999999993365,5.729391e-05,205.85999999993365,4.659139e-05,205.85999999993365,4.984868e-06
205.87499999993364,1.292221e-05,205.87499999993364,5.846529e-05,205.87499999993364,4.643118e-05,205.87499999993364,5.041069e-06
205.88999999993362,1.350848e-05,205.88999999993362,5.695533e-05,205.88999999993362,4.371788e-05,205.88999999993362,4.945147e-06
205.9049999999336,1.331733e-05,205.9049999999336,6.362571e-05,205.9049999999336,4.183758e-05,205.9049999999336,5.091119e-06
205.9199999999336,1.301021e-05,205.9199999999336,6.423365e-05,205.9199999999336,4.420717e-05,205.9199999999336,5.082812e-06
205.93499999993358,1.287525e-05,205.93499999993358,6.456024e-05,205.93499999993358,5.014565e-05,205.93499999993358,5.428567e-06
205.94999999993357,1.307178e-05,205.94999999993357,6.653312e-05,205.94999999993357,4.989331e-05,205.94999999993357,5.363302e-06
205.96499999993355,1.304589e-05,205.96499999993355,6.643226e-05,205.96499999993355,5.006777e-05,205.96499999993355,5.352786e-06
205.97999999993354,1.283032e-05,205.97999999993354,6.675041e-05,205.97999999993354,5.055049e-05,205.97999999993354,5.275916e-06
205.99499999993353,1.170741e-05,205.99499999993353,6.875819e-05,205.99499999993353,5.046096e-05,205.99499999993353,5.368553e-06
206.0099999999335,1.216762e-05,206.0099999999335,7.008103e-05,206.0099999999335,5.046794e-05,206.0099999999335,5.433755e-06
206.0249999999335,1.232635e-05,206.0249999999335,7.199539e-05,206.0249999999335,5.15248e-05,206.0249999999335,5.599728e-06
206.03999999993349,1.163862e-05,206.03999999993349,7.162699e-05,206.03999999993349,5.013581e-05,206.03999999993349,5.614802e-06
206.05499999993347,1.153773e-05,206.05499999993347,7.125452e-05,206.05499999993347,4.958518e-05,206.05499999993347,5.533936e-06
206.06999999993346,1.130088e-05,206.06999999993346,7.297273e-05,206.06999999993346,4.866586e-05,206.06999999993346,5.556798e-06
206.08499999993344,1.161682e-05,206.08499999993344,7.155695e-05,206.08499999993344,4.840785e-05,206.08499999993344,5.579567e-06
206.09999999993343,1.145071e-05,206.09999999993343,7.415955e-05,206.09999999993343,4.902175e-05,206.09999999993343,5.647323e-06
206.11499999993342,1.17734e-05,206.11499999993342,7.464348e-05,206.11499999993342,4.935424e-05,206.11499999993342,5.604757e-06
206.1299999999334,1.147161e-05,206.1299999999334,8.243448e-05,206.1299999999334,5.18608e-05,206.1299999999334,5.692045e-06
206.1449999999334,1.103218e-05,206.1449999999334,8.293604e-05,206.1449999999334,5.193246e-05,206.1449999999334,5.632336e-06
206.15999999993338,1.081163e-05,206.15999999993338,8.076531e-05,206.15999999993338,5.307647e-05,206.15999999993338,5.451871e-06
206.17499999993336,1.078423e-05,206.17499999993336,8.163809e-05,206.17499999993336,5.381865e-05,206.17499999993336,5.405162e-06
206.18999999993335,1.066866e-05,206.18999999993335,8.149923e-05,206.18999999993335,4.949646e-05,206.18999999993335,5.093886e-06
206.20499999993334,1.068582e-05,206.20499999993334,7.862407e-05,206.20499999993334,4.946828e-05,206.20499999993334,5.046655e-06
206.21999999993332,1.094114e-05,206.21999999993332,7.953539e-05,206.21999999993332,4.981759e-05,206.21999999993332,5.038274e-06
206.2349999999333,1.116418e-05,206.2349999999333,7.809266e-05,206.2349999999333,5.008381e-05,206.2349999999333,4.996159e-06
206.2499999999333,1.104494e-05,206.2499999999333,7.703933e-05,206.2499999999333,4.967459e-05,206.2499999999333,5.007424e-06
206.26499999993328,1.088176e-05,206.26499999993328,7.551519e-05,206.26499999993328,5.026265e-05,206.26499999993328,5.063375e-06
206.27999999993327,1.047546e-05,206.27999999993327,9.056691e-05,206.27999999993327,4.833417e-05,206.27999999993327,5.197909e-06
206.29499999993325,1.059712e-05,206.29499999993325,9.197924e-05,206.29499999993325,4.895273e-05,206.29499999993325,5.197909e-06
206.30999999993324,1.045931e-05,206.30999999993324,9.284764e-05,206.30999999993324,4.864675e-05,206.30999999993324,5.178904e-06
206.32499999993323,1.037955e-05,206.32499999993323,9.342706e-05,206.32499999993323,4.888161e-05,206.32499999993323,5.238403e-06
206.3399999999332,1.040801e-05,206.3399999999332,9.471799e-05,206.3399999999332,4.947112e-05,206.3399999999332,5.187057e-06
206.3549999999332,1.003592e-05,206.3549999999332,9.1946e-05,206.3549999999332,4.771319e-05,206.3549999999332,5.113207e-06
206.36999999993319,1.002469e-05,206.36999999993319,9.529551e-05,206.36999999993319,4.668503e-05,206.36999999993319,5.018664e-06
206.38499999993317,1.000077e-05,206.38499999993317,8.773652e-05,206.38499999993317,4.445059e-05,206.38499999993317,5.052234e-06
206.39999999993316,1.016424e-05,206.39999999993316,8.547994e-05,206.39999999993316,4.356003e-05,206.39999999993316,5.071714e-06
206.41499999993314,1.026079e-05,206.41499999993314,8.460884e-05,206.41499999993314,4.250167e-05,206.41499999993314,5.110451e-06
206.42999999993313,1.03809e-05,206.42999999993313,8.429843e-05,206.42999999993313,4.203912e-05,206.42999999993313,5.126963e-06
206.44499999993312,1.039446e-05,206.44499999993312,8.505519e-05,206.44499999993312,4.24506e-05,206.44499999993312,5.126963e-06
206.4599999999331,1.002188e-05,206.4599999999331,8.705293e-05,206.4599999999331,4.216759e-05,206.4599999999331,5.121465e-06
206.4749999999331,1.034147e-05,206.4749999999331,8.649107e-05,206.4749999999331,4.584712e-05,206.4749999999331,5.200618e-06
206.48999999993308,1.051439e-05,206.48999999993308,8.729613e-05,206.48999999993308,4.606139e-05,206.48999999993308,5.227635e-06
206.50499999993306,1.099252e-05,206.50499999993306,8.681035e-05,206.50499999993306,4.664216e-05,206.50499999993306,5.350154e-06
206.51999999993305,1.100277e-05,206.51999999993305,8.509427e-05,206.51999999993305,4.806383e-05,206.51999999993305,5.368553e-06
206.53499999993304,1.154383e-05,206.53499999993304,7.588772e-05,206.53499999993304,4.75769e-05,206.53499999993304,5.187057e-06
206.54999999993302,1.146547e-05,206.54999999993302,7.387159e-05,206.54999999993302,4.796525e-05,206.54999999993302,5.2679e-06
206.564999999933,1.222768e-05,206.564999999933,7.410729e-05,206.564999999933,4.829014e-05,206.564999999933,5.299891e-06
206.579999999933,1.305237e-05,206.579999999933,7.289529e-05,206.579999999933,4.789913e-05,206.579999999933,5.249148e-06
206.59499999993298,1.425138e-05,206.59499999993298,7.351451e-05,206.59499999993298,4.874626e-05,206.59499999993298,5.181623e-06
206.60999999993297,1.424446e-05,206.60999999993297,7.240064e-05,206.60999999993297,4.829189e-05,206.60999999993297,5.334332e-06
206.62499999993295,1.412529e-05,206.62499999993295,7.14269e-05,206.62499999993295,5.07077e-05,206.62499999993295,5.438937e-06
206.63999999993294,1.438224e-05,206.63999999993294,7.143104e-05,206.63999999993294,5.082563e-05,206.63999999993294,5.490492e-06
206.65499999993293,1.454295e-05,206.65499999993293,7.601218e-05,206.65499999993293,5.065433e-05,206.65499999993293,5.692045e-06
206.6699999999329,1.436852e-05,206.6699999999329,7.578704e-05,206.6699999999329,5.363302e-05,206.6699999999329,5.619817e-06
206.6849999999329,1.451872e-05,206.6849999999329,7.776784e-05,206.6849999999329,5.38668e-05,206.6849999999329,5.604757e-06
206.69999999993288,1.454973e-05,206.69999999993288,7.990329e-05,206.69999999993288,5.454455e-05,206.69999999993288,5.667242e-06
206.71499999993287,1.50082e-05,206.71499999993287,7.850555e-05,206.71499999993287,5.583454e-05,206.71499999993287,5.561867e-06
206.72999999993286,1.455167e-05,206.72999999993286,7.567376e-05,206.72999999993286,5.228928e-05,206.72999999993286,5.602244e-06
206.74499999993284,1.431352e-05,206.74499999993284,7.513555e-05,206.74499999993284,5.155513e-05,206.74499999993284,5.544109e-06
206.75999999993283,1.382899e-05,206.75999999993283,7.655122e-05,206.75999999993283,5.277304e-05,206.75999999993283,5.28392e-06
206.77499999993282,1.352203e-05,206.77499999993282,7.571396e-05,206.77499999993282,5.147365e-05,206.77499999993282,5.358047e-06
206.7899999999328,1.345519e-05,206.7899999999328,7.669755e-05,206.7899999999328,5.32532e-05,206.7899999999328,5.323759e-06
206.8049999999328,1.346042e-05,206.8049999999328,7.838685e-05,206.8049999999328,5.228982e-05,206.8049999999328,5.2679e-06
206.81999999993278,1.323883e-05,206.81999999993278,7.878908e-05,206.81999999993278,5.209739e-05,206.81999999993278,5.176183e-06
206.83499999993276,1.240041e-05,206.83499999993276,7.790755e-05,206.83499999993276,5.127513e-05,206.83499999993276,5.162558e-06
206.84999999993275,1.256517e-05,206.84999999993275,8.161513e-05,206.84999999993275,5.285839e-05,206.84999999993275,5.270573e-06
206.86499999993273,1.244916e-05,206.86499999993273,8.106632e-05,206.86499999993273,5.331427e-05,206.86499999993273,5.096651e-06
206.87999999993272,1.240041e-05,206.87999999993272,7.82534e-05,206.87999999993272,5.06938e-05,206.87999999993272,5.132455e-06
206.8949999999327,1.173865e-05,206.8949999999327,7.769553e-05,206.8949999999327,4.981561e-05,206.8949999999327,4.708762e-06
206.9099999999327,1.171583e-05,206.9099999999327,7.515954e-05,206.9099999999327,5.009787e-05,206.9099999999327,4.684768e-06
206.92499999993268,1.147161e-05,206.92499999993268,7.258834e-05,206.92499999993268,4.559757e-05,206.92499999993268,4.741556e-06
206.93999999993267,1.185686e-05,206.93999999993267,7.192688e-05,206.93999999993267,4.445407e-05,206.93999999993267,4.768218e-06
206.95499999993265,1.225759e-05,206.95499999993265,7.129148e-05,206.95499999993265,4.295957e-05,206.95499999993265,4.696781e-06
206.96999999993264,1.164104e-05,206.96999999993264,7.212305e-05,206.96999999993264,4.339674e-05,206.96999999993264,4.774123e-06
206.98499999993263,1.185567e-05,206.98499999993263,7.343208e-05,206.98499999993263,4.393035e-05,206.98499999993263,4.4218e-06
206.9999999999326,1.173745e-05,206.9999999999326,7.295942e-05,206.9999999999326,4.285681e-05,206.9999999999326,4.456705e-06
207.0149999999326,1.235489e-05,207.0149999999326,7.679502e-05,207.0149999999326,4.539073e-05,207.0149999999326,4.503868e-06
207.02999999993258,1.249322e-05,207.02999999993258,7.860973e-05,207.02999999993258,4.360722e-05,207.02999999993258,4.651575e-06
207.04499999993257,1.303833e-05,207.04499999993257,7.627155e-05,207.04499999993257,4.171518e-05,207.04499999993257,4.771172e-06
207.05999999993256,1.309332e-05,207.05999999993256,7.56138e-05,207.05999999993256,5.761925e-05,207.05999999993256,4.850233e-06
207.07499999993254,1.271008e-05,207.07499999993254,7.452808e-05,207.07499999993254,5.820909e-05,207.07499999993254,4.899358e-06
207.08999999993253,1.284129e-05,207.08999999993253,7.364222e-05,207.08999999993253,6.074264e-05,207.08999999993253,4.945147e-06
207.10499999993252,1.274439e-05,207.10499999993252,7.917522e-05,207.10499999993252,5.954793e-05,207.10499999993252,5.148897e-06
207.1199999999325,1.282043e-05,207.1199999999325,9.162124e-05,207.1199999999325,6.08446e-05,207.1199999999325,5.334332e-06
207.1349999999325,1.278522e-05,207.1349999999325,9.36898e-05,207.1349999999325,6.431868e-05,207.1349999999325,5.405162e-06
207.14999999993248,1.301129e-05,207.14999999993248,9.968761e-05,207.14999999993248,6.432459e-05,207.14999999993248,5.464775e-06
207.16499999993246,1.31395e-05,207.16499999993246,0.0001041001,207.16499999993246,6.516054e-05,207.16499999993246,5.561867e-06
207.17999999993245,1.309224e-05,207.17999999993245,0.000105725,207.17999999993245,6.561703e-05,207.17999999993245,5.541568e-06
207.19499999993243,1.240155e-05,207.19499999993243,0.0001055489,207.19499999993243,6.54399e-05,207.19499999993243,5.721665e-06
207.20999999993242,1.235261e-05,207.20999999993242,0.0001054552,207.20999999993242,6.606313e-05,207.20999999993242,5.624828e-06
207.2249999999324,1.279183e-05,207.2249999999324,0.0001050991,207.2249999999324,6.566017e-05,207.2249999999324,5.731505e-06
207.2399999999324,1.271673e-05,207.2399999999324,0.0001043085,207.2399999999324,6.652867e-05,207.2399999999324,5.738873e-06
207.25499999993238,1.294617e-05,207.25499999993238,0.0001019377,207.25499999993238,6.607847e-05,207.25499999993238,5.687093e-06
207.26999999993237,1.242651e-05,207.26999999993237,9.98116e-05,207.26999999993237,6.64577e-05,207.26999999993237,5.536481e-06
207.28499999993235,1.24729e-05,207.28499999993235,9.827799e-05,207.28499999993235,6.693082e-05,207.28499999993235,5.454455e-06
207.29999999993234,1.214793e-05,207.29999999993234,9.937355e-05,207.29999999993234,6.794039e-05,207.29999999993234,5.402556e-06
207.31499999993233,1.155237e-05,207.31499999993233,9.850477e-05,207.31499999993233,5.866325e-05,207.31499999993233,5.392116e-06
207.3299999999323,1.145932e-05,207.3299999999323,9.756604e-05,207.3299999999323,6.103946e-05,207.3299999999323,5.444114e-06
207.3449999999323,1.003733e-05,207.3449999999323,9.582207e-05,207.3449999999323,5.837004e-05,207.3449999999323,5.286585e-06
207.35999999993228,1.031556e-05,207.35999999993228,8.586814e-05,207.35999999993228,5.866997e-05,207.35999999993228,5.001795e-06
207.37499999993227,1.06779e-05,207.37499999993227,7.925151e-05,207.37499999993227,5.406752e-05,207.37499999993227,4.962209e-06
207.38999999993226,1.080642e-05,207.38999999993226,7.898372e-05,207.38999999993226,5.389033e-05,207.38999999993226,4.919443e-06
207.40499999993224,1.215488e-05,207.40499999993224,7.047629e-05,207.40499999993224,5.68293e-05,207.40499999993224,4.867628e-06
207.41999999993223,1.232178e-05,207.41999999993223,6.615922e-05,207.41999999993223,5.609882e-05,207.41999999993223,4.774123e-06
207.43499999993222,1.248983e-05,207.43499999993222,6.343346e-05,207.43499999993222,5.750717e-05,207.43499999993222,4.791795e-06
207.4499999999322,1.25225e-05,207.4499999999322,6.396003e-05,207.4499999999322,6.226144e-05,207.4499999999322,4.702775e-06
207.4649999999322,1.258757e-05,207.4649999999322,6.824326e-05,207.4649999999322,6.66894e-05,207.4649999999322,5.052234e-06
207.47999999993218,1.233207e-05,207.47999999993218,6.909295e-05,207.47999999993218,6.86175e-05,207.47999999993218,4.993339e-06
207.49499999993216,1.239246e-05,207.49499999993216,6.932946e-05,207.49499999993216,6.766594e-05,207.49499999993216,5.140683e-06
207.50999999993215,1.256629e-05,207.50999999993215,7.173665e-05,207.50999999993215,6.716151e-05,207.50999999993215,5.137942e-06
207.52499999993213,1.283471e-05,207.52499999993213,7.286823e-05,207.52499999993213,6.849463e-05,207.52499999993213,5.428567e-06
207.53999999993212,1.280394e-05,207.53999999993212,7.530372e-05,207.53999999993212,7.201026e-05,207.53999999993212,5.407768e-06
207.5549999999321,1.276868e-05,207.5549999999321,7.752709e-05,207.5549999999321,7.01387e-05,207.5549999999321,5.373798e-06
207.5699999999321,1.291349e-05,207.5699999999321,7.967996e-05,207.5699999999321,8.378654e-05,207.5699999999321,5.415577e-06
207.58499999993208,1.308255e-05,207.58499999993208,8.458286e-05,207.58499999993208,9.464301e-05,207.58499999993208,5.286585e-06
207.59999999993207,1.307394e-05,207.59999999993207,8.889594e-05,207.59999999993207,9.970061e-05,207.59999999993207,5.305204e-06
207.61499999993205,1.248419e-05,207.61499999993205,8.582892e-05,207.61499999993205,0.0001169985,207.61499999993205,5.14616e-06
207.62999999993204,1.428692e-05,207.62999999993204,8.649107e-05,207.62999999993204,0.0001229105,207.62999999993204,5.088352e-06
207.64499999993203,1.487811e-05,207.64499999993203,9.080225e-05,207.64499999993203,0.0001244293,207.64499999993203,5.077266e-06
207.659999999932,1.450221e-05,207.659999999932,8.874496e-05,207.659999999932,0.0001288822,207.659999999932,5.068936e-06
207.674999999932,1.518178e-05,207.674999999932,9.012113e-05,207.674999999932,0.0001361549,207.674999999932,5.132455e-06
207.68999999993198,1.612402e-05,207.68999999993198,9.003544e-05,207.68999999993198,0.0001595854,207.68999999993198,4.990517e-06
207.70499999993197,1.637971e-05,207.70499999993197,8.958905e-05,207.70499999993197,0.0001843925,207.70499999993197,4.708762e-06
207.71999999993196,1.645522e-05,207.71999999993196,9.065786e-05,207.71999999993196,0.0002091317,207.71999999993196,4.723696e-06
207.73499999993194,1.722153e-05,207.73499999993194,9.168164e-05,207.73499999993194,0.0002156509,207.73499999993194,4.612038e-06
207.74999999993193,1.817816e-05,207.74999999993193,9.747446e-05,207.74999999993193,0.0002161481,207.74999999993193,4.788854e-06
207.76499999993192,1.835169e-05,207.76499999993192,0.000126808,207.76499999993192,0.0002204321,207.76499999993192,4.841512e-06
207.7799999999319,1.832557e-05,207.7799999999319,0.0001464891,207.7799999999319,0.0002456322,207.7799999999319,5.018664e-06
207.7949999999319,1.976919e-05,207.7949999999319,0.0001540556,207.7949999999319,0.0002563695,207.7949999999319,5.302549e-06
207.80999999993188,2.018034e-05,207.80999999993188,0.0001819319,207.80999999993188,0.000259745,207.80999999993188,5.649817e-06
207.82499999993186,2.011251e-05,207.82499999993186,0.0001980738,207.82499999993186,0.0002585754,207.82499999993186,6.11211e-06
207.83999999993185,2.061405e-05,207.83999999993185,0.0001969732,207.83999999993185,0.0002611273,207.83999999993185,6.183143e-06
207.85499999993183,2.078893e-05,207.85499999993183,0.0001954082,207.85499999993183,0.0002645217,207.85499999993183,6.282586e-06
207.86999999993182,2.017685e-05,207.86999999993182,0.0001991765,207.86999999993182,0.000266564,207.86999999993182,6.846933e-06
207.8849999999318,2.055451e-05,207.8849999999318,0.0001987192,207.8849999999318,0.000266548,207.8849999999318,6.997522e-06
207.8999999999318,2.081737e-05,207.8999999999318,0.0001972346,207.8999999999318,0.000283534,207.8999999999318,7.099447e-06
207.91499999993178,2.016288e-05,207.91499999993178,0.0001973345,207.91499999993178,0.000284264,207.91499999993178,7.043671e-06
207.92999999993177,2.062634e-05,207.92999999993177,0.0001968742,207.92999999993177,0.0002793659,207.92999999993177,7.095478e-06
207.94499999993175,2.088627e-05,207.94499999993175,0.0001987446,207.94499999993175,0.0002655234,207.94499999993175,7.184261e-06
207.95999999993174,2.060243e-05,207.95999999993174,0.0002050568,207.95999999993174,0.0002393236,207.95999999993174,7.370092e-06
207.97499999993173,2.06359e-05,207.97499999993173,0.0002051675,207.97499999993173,0.0002273096,207.97499999993173,7.358615e-06
207.9899999999317,2.000577e-05,207.9899999999317,0.0002044326,207.9899999999317,0.0002204118,207.9899999999317,7.295169e-06
208.0049999999317,1.888062e-05,208.0049999999317,0.0001975513,208.0049999999317,0.0002204303,208.0049999999317,7.2409e-06
208.01999999993168,1.862446e-05,208.01999999993168,0.000167998,208.01999999993168,0.000213301,208.01999999993168,6.871577e-06
208.03499999993167,1.857447e-05,208.03499999993167,0.0001566777,208.03499999993167,0.0001896196,208.03499999993167,6.851046e-06
208.04999999993166,1.706128e-05,208.04999999993166,0.0001420685,208.04999999993166,0.0001798138,208.04999999993166,6.629514e-06
208.06499999993164,1.665518e-05,208.06499999993164,0.0001114626,208.06499999993164,0.0001827,208.06499999993164,6.141998e-06
208.07999999993163,1.611527e-05,208.07999999993163,0.0001016759,208.07999999993163,0.0001783019,208.07999999993163,5.929618e-06
208.09499999993162,1.606011e-05,208.09499999993162,9.898011e-05,208.09499999993162,0.0001779002,208.09499999993162,5.901041e-06
208.1099999999316,1.576979e-05,208.1099999999316,0.0001085367,208.1099999999316,0.0001707467,208.1099999999316,6.246608e-06
208.1249999999316,1.574029e-05,208.1249999999316,0.0001071156,208.1249999999316,0.0001587648,208.1249999999316,5.792623e-06
208.13999999993158,1.326221e-05,208.13999999993158,0.0001226444,208.13999999993158,0.0001537905,208.13999999993158,6.028569e-06
208.15499999993156,1.337328e-05,208.15499999993156,0.0001534023,208.15499999993156,0.0001294792,208.15499999993156,6.246608e-06
208.16999999993155,1.334692e-05,208.16999999993155,0.0001661231,208.16999999993155,0.0001274938,208.16999999993155,6.709772e-06
208.18499999993153,1.16156e-05,208.18499999993153,0.0001666599,208.18499999993153,0.0001320775,208.18499999993153,6.58688e-06
208.19999999993152,1.143717e-05,208.19999999993152,0.0001645336,208.19999999993152,0.0001424013,208.19999999993152,6.576178e-06
208.2149999999315,1.292439e-05,208.2149999999315,0.0001628864,208.2149999999315,0.0001416676,208.2149999999315,6.716067e-06
208.2299999999315,1.292766e-05,208.2299999999315,0.0001716986,208.2299999999315,0.0001576974,208.2299999999315,6.973323e-06
208.24499999993148,1.295487e-05,208.24499999993148,0.0001750226,208.24499999993148,0.0001740457,208.24499999993148,6.969281e-06
208.25999999993147,1.273665e-05,208.25999999993147,0.0001804604,208.25999999993147,0.0001744181,208.25999999993147,7.135074e-06
208.27499999993145,1.274439e-05,208.27499999993145,0.0001954753,208.27499999993145,0.000175597,208.27499999993145,7.184261e-06
208.28999999993144,1.291131e-05,208.28999999993144,0.0001975149,208.28999999993144,0.0001781882,208.28999999993144,7.302889e-06
208.30499999993143,1.316841e-05,208.30499999993143,0.000200942,208.30499999993143,0.0001811803,208.30499999993143,7.289374e-06
208.3199999999314,1.330463e-05,208.3199999999314,0.000219223,208.3199999999314,0.0001761882,208.3199999999314,7.375824e-06
208.3349999999314,1.342374e-05,208.3349999999314,0.0002190959,208.3349999999314,0.0001795241,208.3349999999314,7.425313e-06
208.34999999993138,1.37175e-05,208.34999999993138,0.0002201313,208.34999999993138,0.0001790083,208.34999999993138,7.38918e-06
208.36499999993137,1.358542e-05,208.36499999993137,0.0002139521,208.36499999993137,0.0001722545,208.36499999993137,7.093493e-06
208.37999999993136,1.364543e-05,208.37999999993136,0.0002148506,208.37999999993136,0.0001734774,208.37999999993136,7.019631e-06
208.39499999993134,1.395775e-05,208.39499999993134,0.0002009915,208.39499999993134,0.0001815515,208.39499999993134,6.871577e-06
208.40999999993133,1.382185e-05,208.40999999993133,0.0001719286,208.40999999993133,0.000179639,208.40999999993133,6.550423e-06
208.42499999993132,1.360304e-05,208.42499999993132,0.0001675206,208.42499999993132,0.0001852239,208.42499999993132,6.123622e-06
208.4399999999313,1.327495e-05,208.4399999999313,0.0001697615,208.4399999999313,0.0001894025,208.4399999999313,6.233063e-06
208.4549999999313,1.318765e-05,208.4549999999313,0.0001726741,208.4549999999313,0.0001825849,208.4549999999313,6.075122e-06
208.46999999993128,1.196448e-05,208.46999999993128,0.0001724451,208.46999999993128,0.00018406,208.46999999993128,5.881913e-06
208.48499999993126,1.135559e-05,208.48499999993126,0.000164408,208.48499999993126,0.000168585,208.48499999993126,5.589657e-06
208.49999999993125,1.155115e-05,208.49999999993125,0.0001590248,208.49999999993125,0.0001509334,208.49999999993125,5.521194e-06
208.51499999993123,1.16797e-05,208.51499999993123,0.0001424595,208.51499999993123,0.0001499947,208.51499999993123,5.592176e-06
208.52999999993122,1.25461e-05,208.52999999993122,0.0001311705,208.52999999993122,0.0001495694,208.52999999993122,5.418178e-06
208.5449999999312,1.268678e-05,208.5449999999312,0.0001360457,208.5449999999312,0.0001455674,208.5449999999312,5.195198e-06
208.5599999999312,1.241631e-05,208.5599999999312,0.0001490789,208.5599999999312,0.0001349409,208.5599999999312,5.066156e-06
208.57499999993118,1.217688e-05,208.57499999993118,0.0001381072,208.57499999993118,0.0001334499,208.57499999993118,4.882076e-06
208.58999999993117,1.186873e-05,208.58999999993117,0.0001394347,208.58999999993117,0.0001272194,208.58999999993117,4.864733e-06
208.60499999993115,1.188652e-05,208.60499999993115,0.0001512781,208.60499999993115,0.0001404242,208.60499999993115,4.624239e-06
208.61999999993114,1.205714e-05,208.61999999993114,0.0001599069,208.61999999993114,0.0001429789,208.61999999993114,4.711753e-06
208.63499999993113,1.207115e-05,208.63499999993113,0.000157325,208.63499999993113,0.0001527354,208.63499999993113,4.756387e-06
208.6499999999311,1.215836e-05,208.6499999999311,0.0001600964,208.6499999999311,0.0001561951,208.6499999999311,4.882076e-06
208.6649999999311,1.199623e-05,208.6649999999311,0.0001641569,208.6649999999311,0.0001606209,208.6649999999311,5.015856e-06
208.67999999993108,1.198683e-05,208.67999999993108,0.0001650387,208.67999999993108,0.0001532501,208.67999999993108,5.135199e-06
208.69499999993107,1.185211e-05,208.69499999993107,0.0001619067,208.69499999993107,0.0001558342,208.69499999993107,5.066156e-06
208.70999999993106,1.212587e-05,208.70999999993106,0.000158866,208.70999999993106,0.0001557002,208.70999999993106,5.121465e-06
208.72499999993104,1.206064e-05,208.72499999993104,0.0001618398,208.72499999993104,0.0001597875,208.72499999993104,5.467352e-06
208.73999999993103,1.199506e-05,208.73999999993103,0.0001645301,208.73999999993103,0.0001640508,208.73999999993103,5.459618e-06
208.75499999993102,1.212936e-05,208.75499999993102,0.0001620435,208.75499999993102,0.0001644164,208.75499999993102,5.444114e-06
208.769999999931,1.225759e-05,208.769999999931,0.0001620672,208.769999999931,0.0001665528,208.769999999931,5.549188e-06
208.784999999931,1.132703e-05,208.784999999931,0.0001583477,208.784999999931,0.0001664301,208.784999999931,5.694519e-06
208.79999999993098,1.146424e-05,208.79999999993098,0.000144713,208.79999999993098,0.0001667118,208.79999999993098,5.667242e-06
208.81499999993096,1.152673e-05,208.81499999993096,0.0001280304,208.81499999993096,0.0001656385,208.81499999993096,5.622323e-06
208.82999999993095,1.173385e-05,208.82999999993095,0.0001221139,208.82999999993095,0.0001648514,208.82999999993095,5.677176e-06
208.84499999993093,1.170019e-05,208.84499999993093,0.0001167867,208.84499999993093,0.0001621274,208.84499999993093,5.724127e-06
208.85999999993092,1.195742e-05,208.85999999993092,0.0001011807,208.85999999993092,0.0001463687,208.85999999993092,5.701935e-06
208.8749999999309,1.229889e-05,208.8749999999309,8.744124e-05,208.8749999999309,0.0001460394,208.8749999999309,5.743781e-06
208.8899999999309,1.287306e-05,208.8899999999309,8.782558e-05,208.8899999999309,0.0001258784,208.8899999999309,5.733962e-06
208.90499999993088,1.371956e-05,208.90499999993088,8.216542e-05,208.90499999993088,0.0001128135,208.90499999993088,5.602244e-06
208.91999999993087,1.377591e-05,208.91999999993087,6.978351e-05,208.91999999993087,0.0001095789,208.91999999993087,5.475077e-06
208.93499999993085,1.396078e-05,208.93499999993085,7.06408e-05,208.93499999993085,0.0001001177,208.93499999993085,5.275916e-06
208.94999999993084,1.381472e-05,208.94999999993084,7.03875e-05,208.94999999993084,8.490517e-05,208.94999999993084,5.329048e-06
208.96499999993082,1.386358e-05,208.96499999993082,6.684742e-05,208.96499999993082,8.283322e-05,208.96499999993082,5.143422e-06
208.9799999999308,1.408234e-05,208.9799999999308,6.336592e-05,208.9799999999308,7.332227e-05,208.9799999999308,4.939447e-06
208.9949999999308,1.403424e-05,208.9949999999308,6.186514e-05,208.9949999999308,6.449322e-05,208.9949999999308,4.81818e-06
209.00999999993078,1.446915e-05,209.00999999993078,6.051518e-05,209.00999999993078,6.410369e-05,209.00999999993078,4.876302e-06
209.02499999993077,1.412928e-05,209.02499999993077,6.021298e-05,209.02499999993077,5.872733e-05,209.02499999993077,4.636408e-06
209.03999999993076,1.429678e-05,209.03999999993076,6.118306e-05,209.03999999993076,5.594116e-05,209.03999999993076,4.544346e-06
209.05499999993074,1.438714e-05,209.05499999993074,6.033124e-05,209.05499999993074,5.72036e-05,209.05499999993074,4.768218e-06
209.06999999993073,1.564873e-05,209.06999999993073,6.005697e-05,209.06999999993073,5.682137e-05,209.06999999993073,4.973552e-06
209.08499999993072,1.550586e-05,209.08499999993072,6.342503e-05,209.08499999993072,5.794738e-05,209.08499999993072,4.930884e-06
209.0999999999307,1.588727e-05,209.0999999999307,6.055776e-05,209.0999999999307,5.898558e-05,209.0999999999307,4.913713e-06
209.1149999999307,1.577426e-05,209.1149999999307,6.068464e-05,209.1149999999307,5.740321e-05,209.1149999999307,4.838602e-06
209.12999999993067,1.550404e-05,209.12999999993067,6.032797e-05,209.12999999993067,5.833552e-05,209.12999999993067,4.812329e-06
209.14499999993066,1.518734e-05,209.14499999993066,6.017975e-05,209.14499999993066,5.896862e-05,209.14499999993066,4.768218e-06
209.15999999993065,1.434988e-05,209.15999999993065,5.903619e-05,209.15999999993065,5.918703e-05,209.15999999993065,4.759348e-06
209.17499999993063,1.39628e-05,209.17499999993063,6.127992e-05,209.17499999993063,5.962193e-05,209.17499999993063,4.75046e-06
209.18999999993062,1.388794e-05,209.18999999993062,6.039588e-05,209.18999999993062,5.927122e-05,209.18999999993062,4.654602e-06
209.2049999999306,1.368563e-05,209.2049999999306,6.030928e-05,209.2049999999306,6.041897e-05,209.2049999999306,4.675739e-06
209.2199999999306,1.358231e-05,209.2199999999306,6.186104e-05,209.2199999999306,5.676234e-05,209.2199999999306,4.844421e-06
209.23499999993058,1.346565e-05,209.23499999993058,5.972202e-05,209.23499999993058,5.695385e-05,209.23499999993058,4.925167e-06
209.24999999993057,1.352098e-05,209.24999999993057,5.626456e-05,209.24999999993057,5.647522e-05,209.24999999993057,5.074491e-06
209.26499999993055,1.327177e-05,209.26499999993055,5.82478e-05,209.26499999993055,5.716838e-05,209.26499999993055,5.195198e-06
209.27999999993054,1.313735e-05,209.27999999993054,6.048002e-05,209.27999999993054,5.931399e-05,209.27999999993054,5.265225e-06
209.29499999993052,1.314486e-05,209.29499999993052,5.941152e-05,209.29499999993052,5.886844e-05,209.29499999993052,5.091119e-06
209.3099999999305,1.218729e-05,209.3099999999305,6.23993e-05,209.3099999999305,5.77777e-05,209.3099999999305,5.013047e-06
209.3249999999305,1.119065e-05,209.3249999999305,6.14876e-05,209.3249999999305,5.868774e-05,209.3249999999305,4.919443e-06
209.33999999993048,1.140264e-05,209.33999999993048,5.769645e-05,209.33999999993048,5.677995e-05,209.33999999993048,4.945147e-06
209.35499999993047,1.0972e-05,209.35499999993047,5.856111e-05,209.35499999993047,5.615253e-05,209.35499999993047,5.265225e-06
209.36999999993046,1.100533e-05,209.36999999993046,6.02934e-05,209.36999999993046,5.672634e-05,209.36999999993046,5.307859e-06
209.38499999993044,1.038497e-05,209.38499999993044,6.023426e-05,209.38499999993044,5.372434e-05,209.38499999993044,5.307859e-06
209.39999999993043,1.059712e-05,209.39999999993043,6.130887e-05,209.39999999993043,5.224886e-05,209.39999999993043,5.344885e-06
209.41499999993042,1.180805e-05,209.41499999993042,6.200229e-05,209.41499999993042,5.245148e-05,209.41499999993042,5.436346e-06
209.4299999999304,1.260435e-05,209.4299999999304,6.107891e-05,209.4299999999304,5.182602e-05,209.4299999999304,5.523745e-06
209.4449999999304,1.278742e-05,209.4449999999304,5.888136e-05,209.4449999999304,5.277838e-05,209.4449999999304,5.441526e-06
209.45999999993037,1.29233e-05,209.45999999993037,5.846095e-05,209.45999999993037,5.092669e-05,209.45999999993037,5.475077e-06
209.47499999993036,1.321113e-05,209.47499999993036,6.07897e-05,209.47499999993036,5.122208e-05,209.47499999993036,5.402556e-06
209.48999999993035,1.374315e-05,209.48999999993035,6.373256e-05,209.48999999993035,5.22777e-05,209.48999999993035,5.307859e-06
209.50499999993033,1.380145e-05,209.50499999993033,6.352933e-05,209.50499999993033,5.222512e-05,209.50499999993033,5.208738e-06
209.51999999993032,1.369181e-05,209.51999999993032,6.387937e-05,209.51999999993032,5.166459e-05,209.51999999993032,5.170737e-06
209.5349999999303,1.37892e-05,209.5349999999303,6.22931e-05,209.5349999999303,4.96743e-05,209.5349999999303,5.126963e-06
209.5499999999303,1.37452e-05,209.5499999999303,5.911487e-05,209.5499999999303,5.03696e-05,209.5499999999303,5.206033e-06
209.56499999993028,1.340169e-05,209.56499999993028,5.99572e-05,209.56499999993028,5.025676e-05,209.56499999993028,5.151632e-06
209.57999999993027,1.361856e-05,209.57999999993027,6.088556e-05,209.57999999993027,5.131659e-05,209.57999999993027,5.154366e-06
209.59499999993025,1.400309e-05,209.59499999993025,6.251793e-05,209.59499999993025,5.294546e-05,209.59499999993025,5.113207e-06
209.60999999993024,1.418401e-05,209.60999999993024,6.196434e-05,209.60999999993024,5.207629e-05,209.60999999993024,4.824024e-06
209.62499999993022,1.418301e-05,209.62499999993022,6.055427e-05,209.62499999993022,5.167004e-05,209.62499999993022,4.853136e-06
209.6399999999302,1.449152e-05,209.6399999999302,6.072293e-05,209.6399999999302,5.224967e-05,209.6399999999302,4.809401e-06
209.6549999999302,1.387272e-05,209.6549999999302,5.95122e-05,209.6549999999302,5.318888e-05,209.6549999999302,4.717728e-06
209.66999999993018,1.377796e-05,209.66999999993018,5.703887e-05,209.66999999993018,5.274153e-05,209.66999999993018,4.587538e-06
209.68499999993017,1.367122e-05,209.68499999993017,5.783423e-05,209.68499999993017,5.431317e-05,209.68499999993017,4.52882e-06
209.69999999993016,1.357194e-05,209.69999999993016,5.7871e-05,209.69999999993016,5.556875e-05,209.69999999993016,4.648545e-06
209.71499999993014,1.358439e-05,209.71499999993014,5.834832e-05,209.71499999993014,5.688183e-05,209.71499999993014,4.559819e-06
209.72999999993013,1.360407e-05,209.72999999993013,5.773965e-05,209.72999999993013,5.548731e-05,209.72999999993013,4.513241e-06
209.74499999993012,1.327177e-05,209.74499999993012,5.636561e-05,209.74499999993012,5.755393e-05,209.74499999993012,4.596741e-06
209.7599999999301,1.346984e-05,209.7599999999301,5.841781e-05,209.7599999999301,5.668336e-05,209.7599999999301,4.970719e-06
209.7749999999301,1.346147e-05,209.7749999999301,5.627032e-05,209.7749999999301,5.653156e-05,209.7749999999301,4.922306e-06
209.78999999993007,1.318979e-05,209.78999999993007,5.589909e-05,209.78999999993007,5.541466e-05,209.78999999993007,4.939447e-06
209.80499999993006,1.328662e-05,209.80499999993006,5.69103e-05,209.80499999993006,5.525122e-05,209.80499999993006,4.873412e-06
209.81999999993005,1.289821e-05,209.81999999993005,5.706677e-05,209.81999999993005,5.362094e-05,209.81999999993005,5.035477e-06
209.83499999993003,1.280174e-05,209.83499999993003,5.620344e-05,209.83499999993003,5.305125e-05,209.83499999993003,5.024275e-06
209.84999999993002,1.275875e-05,209.84999999993002,5.43448e-05,209.84999999993002,5.54995e-05,209.84999999993002,5.118714e-06
209.86499999993,1.258198e-05,209.86499999993,5.479166e-05,209.86499999993,5.677747e-05,209.86499999993,5.099414e-06
209.87999999993,1.323883e-05,209.87999999993,5.731406e-05,209.87999999993,5.68293e-05,209.87999999993,5.124215e-06
209.89499999992998,1.375545e-05,209.89499999992998,5.749026e-05,209.89499999992998,5.723708e-05,209.89499999992998,5.093886e-06
209.90999999992997,1.472871e-05,209.90999999992997,5.895739e-05,209.90999999992997,5.616633e-05,209.90999999992997,5.222243e-06
209.92499999992995,1.459516e-05,209.92499999992995,5.943451e-05,209.92499999992995,5.567183e-05,209.92499999992995,5.381656e-06
209.93999999992994,1.527244e-05,209.93999999992994,6.038212e-05,209.93999999992994,5.205221e-05,209.93999999992994,5.281253e-06
209.95499999992992,1.547312e-05,209.95499999992992,5.91956e-05,209.95499999992992,5.044533e-05,209.95499999992992,5.420777e-06
209.9699999999299,1.552401e-05,209.9699999999299,5.961224e-05,209.9699999999299,4.926568e-05,209.9699999999299,5.510979e-06
209.9849999999299,1.507936e-05,209.9849999999299,6.106322e-05,209.9849999999299,4.817741e-05,209.9849999999299,5.539025e-06
209.99999999992988,1.50943e-05,209.99999999992988,6.159427e-05,209.99999999992988,4.567258e-05,209.99999999992988,5.433755e-06
210.01499999992987,1.525398e-05,210.01499999992987,6.099444e-05,210.01499999992987,4.527482e-05,210.01499999992987,5.230329e-06
210.02999999992986,1.528166e-05,210.02999999992986,6.248389e-05,210.02999999992986,4.43389e-05,210.02999999992986,5.170737e-06
210.04499999992984,1.562621e-05,210.04499999992984,6.273724e-05,210.04499999992984,4.325433e-05,210.04499999992984,5.230329e-06
210.05999999992983,1.652015e-05,210.05999999992983,5.867213e-05,210.05999999992983,4.413541e-05,210.05999999992983,5.057808e-06
210.07499999992982,1.685611e-05,210.07499999992982,6.080106e-05,210.07499999992982,4.432873e-05,210.07499999992982,5.032679e-06
210.0899999999298,1.720598e-05,210.0899999999298,6.160639e-05,210.0899999999298,4.01272e-05,210.0899999999298,5.063375e-06
210.1049999999298,1.762817e-05,210.1049999999298,6.326603e-05,210.1049999999298,4.001154e-05,210.1049999999298,5.010237e-06
210.11999999992977,1.780468e-05,210.11999999992977,6.369011e-05,210.11999999992977,3.790049e-05,210.11999999992977,5.104936e-06
210.13499999992976,1.726483e-05,210.13499999992976,6.211533e-05,210.13499999992976,3.798291e-05,210.13499999992976,5.032679e-06
210.14999999992975,1.569817e-05,210.14999999992975,6.461302e-05,210.14999999992975,3.699924e-05,210.14999999992975,4.890725e-06
210.16499999992973,1.519847e-05,210.16499999992973,6.490428e-05,210.16499999992973,3.795063e-05,210.16499999992973,4.788854e-06
210.17999999992972,1.467889e-05,210.17999999992972,6.421786e-05,210.17999999992972,3.828104e-05,210.17999999992972,4.777073e-06
210.1949999999297,1.354388e-05,210.1949999999297,6.466249e-05,210.1949999999297,3.805443e-05,210.1949999999297,4.79767e-06
210.2099999999297,1.362994e-05,210.2099999999297,6.837977e-05,210.2099999999297,3.813467e-05,210.2099999999297,4.663672e-06
210.22499999992968,1.33659e-05,210.22499999992968,6.716487e-05,210.22499999992968,3.721411e-05,210.22499999992968,4.575239e-06
210.23999999992967,1.361132e-05,210.23999999992967,6.697458e-05,210.23999999992967,3.754086e-05,210.23999999992967,4.690778e-06
210.25499999992965,1.310944e-05,210.25499999992965,6.740772e-05,210.25499999992965,3.865856e-05,210.25499999992965,4.645514e-06
210.26999999992964,1.364543e-05,210.26999999992964,6.884745e-05,210.26999999992964,4.022713e-05,210.26999999992964,4.599804e-06
210.28499999992962,1.350743e-05,210.28499999992962,6.979239e-05,210.28499999992962,4.054836e-05,210.28499999992962,4.584466e-06
210.2999999999296,1.305345e-05,210.2999999999296,6.974171e-05,210.2999999999296,4.125986e-05,210.2999999999296,4.905105e-06
210.3149999999296,1.194327e-05,210.3149999999296,6.840613e-05,210.3149999999296,4.037952e-05,210.3149999999296,5.001795e-06
210.32999999992958,1.216762e-05,210.32999999992958,6.830557e-05,210.32999999992958,3.960353e-05,210.32999999992958,5.102175e-06
210.34499999992957,1.13096e-05,210.34499999992957,7.661725e-05,210.34499999992957,4.513272e-05,210.34499999992957,4.962209e-06
210.35999999992956,1.116292e-05,210.35999999992956,7.534692e-05,210.35999999992956,4.431919e-05,210.35999999992956,4.984868e-06
210.37499999992954,1.100149e-05,210.37499999992954,7.827392e-05,210.37499999992954,4.679864e-05,210.37499999992954,5.151632e-06
210.38999999992953,1.146301e-05,210.38999999992953,8.069011e-05,210.38999999992953,4.69807e-05,210.38999999992953,5.14616e-06
210.40499999992952,1.187467e-05,210.40499999992952,7.683206e-05,210.40499999992952,4.822125e-05,210.40499999992952,5.057808e-06
210.4199999999295,1.210494e-05,210.4199999999295,7.908745e-05,210.4199999999295,4.865631e-05,210.4199999999295,5.085583e-06
210.4349999999295,1.238564e-05,210.4349999999295,7.871592e-05,210.4349999999295,5.130589e-05,210.4349999999295,5.262549e-06
210.44999999992947,1.345519e-05,210.44999999992947,7.768736e-05,210.44999999992947,5.144052e-05,210.44999999992947,5.297233e-06
210.46499999992946,1.416115e-05,210.46499999992946,7.724166e-05,210.46499999992946,5.232564e-05,210.46499999992946,5.475077e-06
210.47999999992945,1.429776e-05,210.47999999992945,7.753182e-05,210.47999999992945,5.24547e-05,210.47999999992945,5.490492e-06
210.49499999992943,1.425138e-05,210.49499999992943,7.669719e-05,210.49499999992943,5.130891e-05,210.49499999992943,5.270573e-06
210.50999999992942,1.417009e-05,210.50999999992942,7.342114e-05,210.50999999992942,5.039588e-05,210.50999999992942,5.323759e-06
210.5249999999294,1.38849e-05,210.5249999999294,7.356815e-05,210.5249999999294,5.008831e-05,210.5249999999294,5.275916e-06
210.5399999999294,1.399806e-05,210.5399999999294,7.355953e-05,210.5399999999294,5.001457e-05,210.5399999999294,5.189773e-06
210.55499999992938,1.419096e-05,210.55499999992938,7.385042e-05,210.55499999992938,4.974741e-05,210.55499999992938,5.115961e-06
210.56999999992937,1.421674e-05,210.56999999992937,7.393811e-05,210.56999999992937,5.07102e-05,210.56999999992937,5.010237e-06
210.58499999992935,1.391429e-05,210.58499999992935,7.332246e-05,210.58499999992935,5.000809e-05,210.58499999992935,4.982041e-06
210.59999999992934,1.423753e-05,210.59999999992934,6.110934e-05,210.59999999992934,4.459676e-05,210.59999999992934,5.024275e-06
210.61499999992932,1.422368e-05,210.61499999992932,6.395078e-05,210.61499999992932,4.59527e-05,210.61499999992932,5.233022e-06
210.6299999999293,1.424446e-05,210.6299999999293,6.258684e-05,210.6299999999293,4.58717e-05,210.6299999999293,5.049445e-06
210.6449999999293,1.41492e-05,210.6449999999293,6.352512e-05,210.6449999999293,4.768662e-05,210.6449999999293,5.386888e-06
210.65999999992928,1.409434e-05,210.65999999992928,6.126268e-05,210.65999999992928,4.550634e-05,210.65999999992928,5.355417e-06
210.67499999992927,1.421971e-05,210.67499999992927,5.999384e-05,210.67499999992927,4.822651e-05,210.67499999992927,5.302549e-06
210.68999999992926,1.374828e-05,210.68999999992926,6.253212e-05,210.68999999992926,4.74595e-05,210.68999999992926,5.454455e-06
210.70499999992924,1.28369e-05,210.70499999992924,6.405576e-05,210.70499999992924,4.742892e-05,210.70499999992924,5.389503e-06
210.71999999992923,1.243784e-05,210.71999999992923,6.606313e-05,210.71999999992923,4.815167e-05,210.71999999992923,5.412975e-06
210.73499999992922,1.256293e-05,210.73499999992922,6.418231e-05,210.73499999992922,4.867049e-05,210.73499999992922,5.441526e-06
210.7499999999292,1.256405e-05,210.7499999999292,6.459928e-05,210.7499999999292,5.030159e-05,210.7499999999292,5.358047e-06
210.7649999999292,1.265009e-05,210.7649999999292,6.428757e-05,210.7649999999292,4.943353e-05,210.7649999999292,5.495621e-06
210.77999999992917,1.283471e-05,210.77999999992917,6.361951e-05,210.77999999992917,4.963487e-05,210.77999999992917,5.546649e-06
210.79499999992916,1.272559e-05,210.79499999992916,6.213098e-05,210.79499999992916,4.831522e-05,210.79499999992916,5.602244e-06
210.80999999992915,1.274328e-05,210.80999999992915,6.27141e-05,210.80999999992915,4.852266e-05,210.80999999992915,5.785323e-06
210.82499999992913,1.235261e-05,210.82499999992913,6.195842e-05,210.82499999992913,4.896971e-05,210.82499999992913,5.969867e-06
210.83999999992912,1.19031e-05,210.83999999992912,6.079503e-05,210.83999999992912,4.968536e-05,210.83999999992912,5.969867e-06
210.8549999999291,1.155237e-05,210.8549999999291,6.057963e-05,210.8549999999291,4.934825e-05,210.8549999999291,5.967507e-06
210.8699999999291,1.139275e-05,210.8699999999291,5.669281e-05,210.8699999999291,4.982494e-05,210.8699999999291,5.797484e-06
210.88499999992908,1.123337e-05,210.88499999992908,5.592957e-05,210.88499999992908,4.88147e-05,210.88499999992908,5.743781e-06
210.89999999992907,1.158403e-05,210.89999999992907,5.569636e-05,210.89999999992907,4.621649e-05,210.89999999992907,5.619817e-06
210.91499999992905,1.113765e-05,210.91499999992905,5.451794e-05,210.91499999992905,4.499831e-05,210.91499999992905,5.669728e-06
210.92999999992904,1.149369e-05,210.92999999992904,5.421115e-05,210.92999999992904,4.434461e-05,210.92999999992904,5.594695e-06
210.94499999992902,1.196919e-05,210.94499999992902,5.136461e-05,210.94499999992902,4.12503e-05,210.94499999992902,5.431162e-06
210.959999999929,1.205363e-05,210.959999999929,4.694771e-05,210.959999999929,4.113197e-05,210.959999999929,5.454455e-06
210.974999999929,1.116166e-05,210.974999999929,4.579917e-05,210.974999999929,3.897863e-05,210.974999999929,5.402556e-06
210.98999999992898,1.198801e-05,210.98999999992898,4.528042e-05,210.98999999992898,3.788934e-05,210.98999999992898,5.425972e-06
211.00499999992897,1.173745e-05,211.00499999992897,4.478714e-05,211.00499999992897,3.690279e-05,211.00499999992897,5.431162e-06
211.01999999992896,1.159254e-05,211.01999999992896,4.856474e-05,211.01999999992896,4.316272e-05,211.01999999992896,5.289249e-06
211.03499999992894,1.135807e-05,211.03499999992894,5.063319e-05,211.03499999992894,4.325628e-05,211.03499999992894,5.206033e-06
211.04999999992893,1.133697e-05,211.04999999992893,5.434947e-05,211.04999999992893,4.459928e-05,211.04999999992893,4.896482e-06
211.06499999992892,1.127092e-05,211.06499999992892,5.60345e-05,211.06499999992892,4.457812e-05,211.06499999992892,4.753424e-06
211.0799999999289,1.103473e-05,211.0799999999289,5.811706e-05,211.0799999999289,4.393548e-05,211.0799999999289,4.672725e-06
211.0949999999289,1.108314e-05,211.0949999999289,5.908866e-05,211.0949999999289,4.479154e-05,211.0949999999289,4.690778e-06
211.10999999992887,1.123838e-05,211.10999999992887,5.982454e-05,211.10999999992887,4.422151e-05,211.10999999992887,4.541245e-06
211.12499999992886,1.155603e-05,211.12499999992886,5.98276e-05,211.12499999992886,4.440429e-05,211.12499999992886,4.565993e-06
211.13999999992885,1.157065e-05,211.13999999992885,5.724816e-05,211.13999999992885,4.431283e-05,211.13999999992885,4.633369e-06
211.15499999992883,1.170139e-05,211.15499999992883,5.800569e-05,211.15499999992883,4.57684e-05,211.15499999992883,4.672725e-06
211.16999999992882,1.257414e-05,211.16999999992882,5.94101e-05,211.16999999992882,4.728227e-05,211.16999999992882,4.67875e-06
211.1849999999288,1.254834e-05,211.1849999999288,5.933251e-05,211.1849999999288,4.691919e-05,211.1849999999288,4.602866e-06
211.1999999999288,1.357401e-05,211.1999999999288,5.992077e-05,211.1999999999288,4.829218e-05,211.1999999999288,4.500739e-06
211.21499999992878,1.398195e-05,211.21499999992878,5.983984e-05,211.21499999992878,4.86288e-05,211.21499999992878,4.38019e-06
211.22999999992876,1.3988e-05,211.22999999992876,6.039028e-05,211.22999999992876,4.940873e-05,211.22999999992876,4.714741e-06
211.24499999992875,1.369284e-05,211.24499999992875,6.138465e-05,211.24499999992875,5.140025e-05,211.24499999992875,4.815255e-06
211.25999999992874,1.366915e-05,211.25999999992874,6.170988e-05,211.25999999992874,5.026602e-05,211.25999999992874,4.922306e-06
211.27499999992872,1.386358e-05,211.27499999992872,6.018115e-05,211.27499999992872,4.624544e-05,211.27499999992872,4.913713e-06
211.2899999999287,1.387069e-05,211.2899999999287,6.090176e-05,211.2899999999287,4.650242e-05,211.2899999999287,4.870521e-06
211.3049999999287,1.418996e-05,211.3049999999287,5.753239e-05,211.3049999999287,4.974316e-05,211.3049999999287,4.864733e-06
211.31999999992868,1.437636e-05,211.31999999992868,5.672112e-05,211.31999999992868,4.868496e-05,211.31999999992868,4.928026e-06
211.33499999992867,1.443699e-05,211.33499999992867,5.877193e-05,211.33499999992867,4.847648e-05,211.33499999992867,4.976383e-06
211.34999999992866,1.521607e-05,211.34999999992866,5.916323e-05,211.34999999992866,4.835864e-05,211.34999999992866,4.930884e-06
211.36499999992864,1.49819e-05,211.36499999992864,6.007104e-05,211.36499999992864,4.814729e-05,211.36499999992864,4.93374e-06
211.37999999992863,1.516228e-05,211.37999999992863,6.016734e-05,211.37999999992863,4.832863e-05,211.37999999992863,4.87919e-06
211.39499999992861,1.477836e-05,211.39499999992861,5.98949e-05,211.39499999992861,4.785087e-05,211.39499999992861,4.81818e-06
211.4099999999286,1.43842e-05,211.4099999999286,5.941507e-05,211.4099999999286,4.939732e-05,211.4099999999286,5.093886e-06
211.4249999999286,1.378818e-05,211.4249999999286,5.996401e-05,211.4249999999286,4.851366e-05,211.4249999999286,5.157098e-06
211.43999999992857,1.43695e-05,211.43999999992857,6.03268e-05,211.43999999992857,4.649303e-05,211.43999999992857,5.216845e-06
211.45499999992856,1.384324e-05,211.45499999992856,6.33837e-05,211.45499999992856,4.689517e-05,211.45499999992856,5.539025e-06
211.46999999992855,1.330357e-05,211.46999999992855,6.334013e-05,211.46999999992855,4.948024e-05,211.46999999992855,5.505864e-06
211.48499999992853,1.367946e-05,211.48499999992853,6.363257e-05,211.48499999992853,5.242273e-05,211.48499999992853,5.350154e-06
211.49999999992852,1.351786e-05,211.49999999992852,6.321546e-05,211.49999999992852,5.203245e-05,211.49999999992852,5.299891e-06
211.5149999999285,1.355532e-05,211.5149999999285,6.202705e-05,211.5149999999285,5.219437e-05,211.5149999999285,5.219545e-06
211.5299999999285,1.382491e-05,211.5299999999285,6.352379e-05,211.5299999999285,5.559232e-05,211.5299999999285,5.137942e-06
211.54499999992848,1.424742e-05,211.54499999992848,6.153409e-05,211.54499999992848,5.472657e-05,211.54499999992848,5.121465e-06
211.55999999992846,1.438518e-05,211.55999999992846,5.971377e-05,211.55999999992846,5.334993e-05,211.55999999992846,5.082812e-06
211.57499999992845,1.435185e-05,211.57499999992845,5.942266e-05,211.57499999992845,5.321906e-05,211.57499999992845,5.066156e-06
211.58999999992844,1.449736e-05,211.58999999992844,5.584261e-05,211.58999999992844,5.376942e-05,211.58999999992844,5.077266e-06
211.60499999992842,1.43842e-05,211.60499999992842,5.517085e-05,211.60499999992842,5.427919e-05,211.60499999992842,5.032679e-06
211.6199999999284,1.408934e-05,211.6199999999284,5.459721e-05,211.6199999999284,5.404328e-05,211.6199999999284,5.049445e-06
211.6349999999284,1.458551e-05,211.6349999999284,5.414823e-05,211.6349999999284,5.371333e-05,211.6349999999284,5.085583e-06
211.64999999992838,1.452939e-05,211.64999999992838,5.526396e-05,211.64999999992838,5.388065e-05,211.64999999992838,4.993339e-06
211.66499999992837,1.477169e-05,211.66499999992837,5.418749e-05,211.66499999992837,5.225506e-05,211.66499999992837,4.936594e-06
211.67999999992836,1.510736e-05,211.67999999992836,5.254432e-05,211.67999999992836,5.271722e-05,211.67999999992836,4.905105e-06
211.69499999992834,1.486674e-05,211.69499999992834,5.390862e-05,211.69499999992834,5.29098e-05,211.69499999992834,4.876302e-06
211.70999999992833,1.467505e-05,211.70999999992833,5.096042e-05,211.70999999992833,5.165422e-05,211.70999999992833,4.506994e-06
211.72499999992831,1.474878e-05,211.72499999992831,5.035449e-05,211.72499999992831,4.916951e-05,211.72499999992831,4.393035e-06
211.7399999999283,1.429678e-05,211.7399999999283,5.167222e-05,211.7399999999283,5.019338e-05,211.7399999999283,4.553636e-06
211.7549999999283,1.494518e-05,211.7549999999283,5.19018e-05,211.7549999999283,4.871591e-05,211.7549999999283,4.708762e-06
211.76999999992827,1.533595e-05,211.76999999992827,5.11001e-05,211.76999999992827,4.737989e-05,211.76999999992827,4.902232e-06
211.78499999992826,1.569906e-05,211.78499999992826,5.310114e-05,211.78499999992826,4.465989e-05,211.78499999992826,4.873412e-06
211.79999999992825,1.575013e-05,211.79999999992825,5.531645e-05,211.79999999992825,4.542051e-05,211.79999999992825,4.922306e-06
211.81499999992823,1.554215e-05,211.81499999992823,5.649343e-05,211.81499999992823,4.54986e-05,211.81499999992823,4.996159e-06
211.82999999992822,1.554396e-05,211.82999999992822,5.794106e-05,211.82999999992822,4.532302e-05,211.82999999992822,5.203327e-06
211.8449999999282,1.466065e-05,211.8449999999282,5.835797e-05,211.8449999999282,4.79582e-05,211.8449999999282,5.154366e-06
211.8599999999282,1.616851e-05,211.8599999999282,6.448033e-05,211.8599999999282,4.859489e-05,211.8599999999282,5.331691e-06
211.87499999992818,1.610303e-05,211.87499999992818,6.659745e-05,211.87499999992818,5.023574e-05,211.87499999992818,5.384273e-06
211.88999999992816,1.550222e-05,211.88999999992816,7.512767e-05,211.88999999992816,5.132593e-05,211.88999999992816,5.699464e-06
211.90499999992815,1.547585e-05,211.90499999992815,7.633377e-05,211.90499999992815,5.119374e-05,211.90499999992815,5.696992e-06
211.91999999992814,1.485916e-05,211.91999999992814,7.996216e-05,211.91999999992814,5.161821e-05,211.91999999992814,5.704405e-06
211.93499999992812,1.485632e-05,211.93499999992812,7.878301e-05,211.93499999992812,5.104328e-05,211.93499999992812,5.741327e-06
211.9499999999281,1.427212e-05,211.9499999999281,7.838667e-05,211.9499999999281,5.1324e-05,211.9499999999281,5.814468e-06
211.9649999999281,1.466929e-05,211.9649999999281,7.786161e-05,211.9649999999281,5.108907e-05,211.9649999999281,5.898653e-06
211.97999999992808,1.476596e-05,211.97999999992808,8.083227e-05,211.97999999992808,4.731056e-05,211.97999999992808,5.8867e-06
211.99499999992807,1.514462e-05,211.99499999992807,8.061797e-05,211.99499999992807,4.737632e-05,211.99499999992807,5.850696e-06
212.00999999992806,1.412828e-05,212.00999999992806,8.090177e-05,212.00999999992806,4.660228e-05,212.00999999992806,5.775575e-06
212.02499999992804,1.402822e-05,212.02499999992804,8.133954e-05,212.02499999992804,4.688675e-05,212.02499999992804,5.632336e-06
212.03999999992803,1.241744e-05,212.03999999992803,8.136049e-05,212.03999999992803,4.578225e-05,212.03999999992803,5.667242e-06
212.05499999992801,1.242084e-05,212.05499999992801,8.233258e-05,212.05499999992801,4.576347e-05,212.05499999992801,5.726587e-06
212.069999999928,1.246274e-05,212.069999999928,8.232333e-05,212.069999999928,4.6358e-05,212.069999999928,5.629835e-06
212.084999999928,1.249547e-05,212.084999999928,8.170379e-05,212.084999999928,4.616068e-05,212.084999999928,5.587136e-06
212.09999999992797,1.219884e-05,212.09999999992797,8.057393e-05,212.09999999992797,4.388158e-05,212.09999999992797,5.485359e-06
212.11499999992796,1.061439e-05,212.11499999992796,7.858536e-05,212.11499999992796,4.556419e-05,212.11499999992796,5.464775e-06
212.12999999992795,1.29233e-05,212.12999999992795,7.384298e-05,212.12999999992795,4.452215e-05,212.12999999992795,5.34752e-06
212.14499999992793,1.387982e-05,212.14499999992793,7.422145e-05,212.14499999992793,4.639202e-05,212.14499999992793,5.206033e-06
212.15999999992792,1.430466e-05,212.15999999992792,6.914839e-05,212.15999999992792,4.548745e-05,212.15999999992792,5.046655e-06
212.1749999999279,1.446623e-05,212.1749999999279,6.819535e-05,212.1749999999279,4.959966e-05,212.1749999999279,5.140683e-06
212.1899999999279,1.435283e-05,212.1899999999279,6.825234e-05,212.1899999999279,4.996497e-05,212.1899999999279,5.159829e-06
212.20499999992788,1.458937e-05,212.20499999992788,6.861935e-05,212.20499999992788,5.035841e-05,212.20499999992788,5.124215e-06
212.21999999992786,1.451678e-05,212.21999999992786,6.54175e-05,212.21999999992786,5.100159e-05,212.21999999992786,5.035477e-06
212.23499999992785,1.450513e-05,212.23499999992785,6.525041e-05,212.23499999992785,5.113758e-05,212.23499999992785,4.956529e-06
212.24999999992784,1.463757e-05,212.24999999992784,6.623647e-05,212.24999999992784,5.30701e-05,212.24999999992784,4.990517e-06
212.26499999992782,1.478694e-05,212.26499999992782,7.400096e-05,212.26499999992782,5.329471e-05,212.26499999992782,5.055022e-06
212.2799999999278,1.443211e-05,212.2799999999278,7.534113e-05,212.2799999999278,5.429372e-05,212.2799999999278,5.038274e-06
212.2949999999278,1.441844e-05,212.2949999999278,7.195429e-05,212.2949999999278,5.546751e-05,212.2949999999278,4.973552e-06
212.30999999992778,1.473349e-05,212.30999999992778,7.202434e-05,212.30999999992778,5.593008e-05,212.30999999992778,5.068936e-06
212.32499999992777,1.615195e-05,212.32499999992777,7.149885e-05,212.32499999992777,5.6963e-05,212.32499999992777,5.203327e-06
212.33999999992776,1.600652e-05,212.33999999992776,7.490366e-05,212.33999999992776,5.510928e-05,212.33999999992776,5.208738e-06
212.35499999992774,1.615107e-05,212.35499999992774,7.509598e-05,212.35499999992774,5.47343e-05,212.35499999992774,5.222243e-06
212.36999999992773,1.61981e-05,212.36999999992773,7.698646e-05,212.36999999992773,5.177653e-05,212.36999999992773,5.365928e-06
212.38499999992771,1.410133e-05,212.38499999992771,8.222643e-05,212.38499999992771,5.106756e-05,212.38499999992771,5.412975e-06
212.3999999999277,1.364337e-05,212.3999999999277,8.148298e-05,212.3999999999277,5.091451e-05,212.3999999999277,5.498184e-06
212.4149999999277,1.341639e-05,212.4149999999277,8.308029e-05,212.4149999999277,4.969443e-05,212.4149999999277,5.56946e-06
212.42999999992767,1.31994e-05,212.42999999992767,8.355083e-05,212.42999999992767,5.307381e-05,212.42999999992767,5.360675e-06
212.44499999992766,1.354284e-05,212.44499999992766,8.494714e-05,212.44499999992766,5.331189e-05,212.44499999992766,5.384273e-06
212.45999999992765,1.339433e-05,212.45999999992765,8.471749e-05,212.45999999992765,5.956638e-05,212.45999999992765,5.334332e-06
212.47499999992763,1.3892e-05,212.47499999992763,8.458353e-05,212.47499999992763,6.44375e-05,212.47499999992763,5.386888e-06
212.48999999992762,1.378716e-05,212.48999999992762,8.616783e-05,212.48999999992762,6.588805e-05,212.48999999992762,5.433755e-06
212.5049999999276,1.398397e-05,212.5049999999276,8.345703e-05,212.5049999999276,6.774563e-05,212.5049999999276,5.331691e-06
212.5199999999276,1.393149e-05,212.5199999999276,8.048787e-05,212.5199999999276,6.969383e-05,212.5199999999276,5.376418e-06
212.53499999992758,1.379227e-05,212.53499999992758,8.36957e-05,212.53499999992758,6.876597e-05,212.53499999992758,5.594695e-06
212.54999999992756,1.415219e-05,212.54999999992756,8.663785e-05,212.54999999992756,6.802017e-05,212.54999999992756,5.694519e-06
212.56499999992755,1.408934e-05,212.56499999992755,8.501311e-05,212.56499999992755,6.775498e-05,212.56499999992755,5.549188e-06
212.57999999992754,1.243218e-05,212.57999999992754,8.581103e-05,212.57999999992754,6.879792e-05,212.57999999992754,5.498184e-06
212.59499999992752,1.241063e-05,212.59499999992752,8.361639e-05,212.59499999992752,6.888346e-05,212.59499999992752,5.485359e-06
212.6099999999275,1.215836e-05,212.6099999999275,8.507175e-05,212.6099999999275,6.956637e-05,212.6099999999275,5.433755e-06
212.6249999999275,1.213981e-05,212.6249999999275,7.803004e-05,212.6249999999275,6.994079e-05,212.6249999999275,5.099414e-06
212.63999999992748,1.260547e-05,212.63999999992748,7.4809e-05,212.63999999992748,6.976938e-05,212.63999999992748,5.099414e-06
212.65499999992747,1.248871e-05,212.65499999992747,7.397183e-05,212.65499999992747,6.652253e-05,212.65499999992747,5.102175e-06
212.66999999992746,1.251912e-05,212.66999999992746,7.460517e-05,212.66999999992746,6.544915e-05,212.66999999992746,5.197909e-06
212.68499999992744,1.259317e-05,212.68499999992744,7.305319e-05,212.68499999992744,6.269186e-05,212.68499999992744,5.344885e-06
212.69999999992743,1.23412e-05,212.69999999992743,7.261706e-05,212.69999999992743,6.357189e-05,212.69999999992743,5.331691e-06
212.71499999992741,1.198213e-05,212.71499999992741,7.338353e-05,212.71499999992741,5.5483e-05,212.71499999992741,5.355417e-06
212.7299999999274,1.162288e-05,212.7299999999274,7.503931e-05,212.7299999999274,5.172699e-05,212.7299999999274,5.318464e-06
212.7449999999274,1.139769e-05,212.7449999999274,7.076652e-05,212.7449999999274,4.92754e-05,212.7449999999274,5.392116e-06
212.75999999992737,1.14802e-05,212.75999999992737,7.053244e-05,212.75999999992737,4.743991e-05,212.75999999992737,5.318464e-06
212.77499999992736,1.175784e-05,212.77499999992736,6.76597e-05,212.77499999992736,4.492625e-05,212.77499999992736,5.140683e-06
212.78999999992735,1.186636e-05,212.78999999992735,6.843043e-05,212.78999999992735,4.412041e-05,212.78999999992735,5.428567e-06
212.80499999992733,1.140016e-05,212.80499999992733,6.826988e-05,212.80499999992733,4.32413e-05,212.80499999992733,5.259872e-06
212.81999999992732,1.138038e-05,212.81999999992732,6.886975e-05,212.81999999992732,4.444013e-05,212.81999999992732,5.238403e-06
212.8349999999273,1.13878e-05,212.8349999999273,6.556184e-05,212.8349999999273,4.199386e-05,212.8349999999273,5.246463e-06
212.8499999999273,1.176383e-05,212.8499999999273,6.764241e-05,212.8499999999273,4.414659e-05,212.8499999999273,5.415577e-06
212.86499999992728,1.187822e-05,212.86499999992728,6.66932e-05,212.86499999992728,4.35293e-05,212.86499999992728,5.490492e-06
212.87999999992726,1.14667e-05,212.87999999992726,6.704711e-05,212.87999999992726,4.363951e-05,212.87999999992726,5.609782e-06
212.89499999992725,1.143594e-05,212.89499999992725,6.850121e-05,212.89499999992725,4.363628e-05,212.89499999992725,5.536481e-06
212.90999999992724,1.155115e-05,212.90999999992724,6.658687e-05,212.90999999992724,4.425685e-05,212.90999999992724,5.334332e-06
212.92499999992722,1.172665e-05,212.92499999992722,6.766261e-05,212.92499999992722,4.547723e-05,212.92499999992722,5.278585e-06
212.9399999999272,1.268234e-05,212.9399999999272,6.592096e-05,212.9399999999272,4.578501e-05,212.9399999999272,5.203327e-06
212.9549999999272,1.249209e-05,212.9549999999272,6.613025e-05,212.9549999999272,4.464506e-05,212.9549999999272,5.151632e-06
212.96999999992718,1.27466e-05,212.96999999992718,6.827566e-05,212.96999999992718,4.341719e-05,212.96999999992718,5.339611e-06
212.98499999992717,1.267901e-05,212.98499999992717,6.990493e-05,212.98499999992717,4.31836e-05,212.98499999992717,5.342249e-06
212.99999999992716,1.303617e-05,212.99999999992716,6.692219e-05,212.99999999992716,4.29202e-05,212.99999999992716,5.259872e-06
213.01499999992714,1.296031e-05,213.01499999992714,6.726651e-05,213.01499999992714,4.268555e-05,213.01499999992714,5.315815e-06
213.02999999992713,1.325371e-05,213.02999999992713,6.698362e-05,213.02999999992713,4.249007e-05,213.02999999992713,5.195198e-06
213.04499999992711,1.298311e-05,213.04499999992711,6.676961e-05,213.04499999992711,4.490807e-05,213.04499999992711,4.858938e-06
213.0599999999271,1.306855e-05,213.0599999999271,6.652634e-05,213.0599999999271,4.518918e-05,213.0599999999271,5.00461e-06
213.0749999999271,1.301238e-05,213.0749999999271,6.607571e-05,213.0749999999271,4.43916e-05,213.0749999999271,5.066156e-06
213.08999999992707,1.316734e-05,213.08999999992707,6.44871e-05,213.08999999992707,4.082983e-05,213.08999999992707,4.858938e-06
213.10499999992706,1.428297e-05,213.10499999992706,6.478589e-05,213.10499999992706,4.063269e-05,213.10499999992706,4.945147e-06
213.11999999992705,1.461445e-05,213.11999999992705,6.556098e-05,213.11999999992705,4.040393e-05,213.11999999992705,4.771172e-06
213.13499999992703,1.506628e-05,213.13499999992703,6.53811e-05,213.13499999992703,4.095384e-05,213.13499999992703,4.947995e-06
213.14999999992702,1.596951e-05,213.14999999992702,6.987993e-05,213.14999999992702,4.3196e-05,213.14999999992702,4.905105e-06
213.164999999927,1.620158e-05,213.164999999927,6.948695e-05,213.164999999927,4.171923e-05,213.164999999927,5.001795e-06
213.179999999927,1.562892e-05,213.179999999927,6.878932e-05,213.179999999927,4.247846e-05,213.179999999927,4.945147e-06
213.19499999992698,1.487811e-05,213.19499999992698,6.774667e-05,213.19499999992698,4.040393e-05,213.19499999992698,4.979213e-06
213.20999999992696,1.462698e-05,213.20999999992696,6.67635e-05,213.20999999992696,4.013563e-05,213.20999999992696,5.001795e-06
213.22499999992695,1.464527e-05,213.22499999992695,6.399482e-05,213.22499999992695,4.054072e-05,213.22499999992695,4.777073e-06
