X[s],a: EMG RMS 1-1,X[s].1,a: EMG RMS 1-2,X[s].2,a: EMG RMS 1-3,X[s].3,a: EMG RMS 1-4
534.0149999996353,0.004199012,534.0149999996353,4.951467e-05,534.0149999996353,0.0004869681,534.0149999996353,4.097894e-05
534.0299999996353,0.004212814,534.0299999996353,4.959455e-05,534.0299999996353,0.0004931518,534.0299999996353,4.119254e-05
534.0449999996353,0.004186885,534.0449999996353,5.018131e-05,534.0449999996353,0.0004953456,534.0449999996353,4.154396e-05
534.0599999996352,0.004311485,534.0599999996352,5.15483e-05,534.0599999996352,0.0005125082,534.0599999996352,4.204146e-05
534.0749999996352,0.00428292,534.0749999996352,4.978449e-05,534.0749999996352,0.0005197281,534.0749999996352,4.056052e-05
534.0899999996352,0.004401761,534.0899999996352,4.90341e-05,534.0899999996352,0.0005124494,534.0899999996352,4.054975e-05
534.1049999996352,0.004369509,534.1049999996352,4.935738e-05,534.1049999996352,0.0005044106,534.1049999996352,4.114909e-05
534.1199999996352,0.004366667,534.1199999996352,4.738286e-05,534.1199999996352,0.0004761564,534.1199999996352,4.018508e-05
534.1349999996352,0.00420288,534.1349999996352,4.604365e-05,534.1349999996352,0.0004212195,534.1349999996352,3.872846e-05
534.1499999996352,0.004067456,534.1499999996352,4.794675e-05,534.1499999996352,0.0004194502,534.1499999996352,3.870154e-05
534.1649999996351,0.003677937,534.1649999996351,4.773474e-05,534.1649999996351,0.0003803968,534.1649999996351,3.33315e-05
534.1799999996351,0.003158067,534.1799999996351,4.735104e-05,534.1799999996351,0.0003641516,534.1799999996351,3.264787e-05
534.1949999996351,0.00305494,534.1949999996351,4.245657e-05,534.1949999996351,0.0003392978,534.1949999996351,3.128802e-05
534.2099999996351,0.003539631,534.2099999996351,3.849607e-05,534.2099999996351,0.0003390015,534.2099999996351,2.957102e-05
534.2249999996351,0.003849886,534.2249999996351,3.615155e-05,534.2249999996351,0.0003381931,534.2249999996351,2.892954e-05
534.2399999996351,0.004060564,534.2399999996351,3.592288e-05,534.2399999996351,0.0003391899,534.2399999996351,2.836602e-05
534.2549999996351,0.004033301,534.2549999996351,3.195137e-05,534.2549999996351,0.000337453,534.2549999996351,2.764676e-05
534.269999999635,0.004027973,534.269999999635,2.944929e-05,534.269999999635,0.0003338081,534.269999999635,2.68889e-05
534.284999999635,0.004113276,534.284999999635,2.829592e-05,534.284999999635,0.0003346547,534.284999999635,2.610312e-05
534.299999999635,0.00409748,534.299999999635,2.733625e-05,534.299999999635,0.0003297015,534.299999999635,2.64036e-05
534.314999999635,0.003992543,534.314999999635,2.530129e-05,534.314999999635,0.0002857665,534.314999999635,2.467726e-05
534.329999999635,0.004020496,534.329999999635,2.58673e-05,534.329999999635,0.0002540187,534.329999999635,2.288358e-05
534.344999999635,0.004105065,534.344999999635,2.627792e-05,534.344999999635,0.0002489946,534.344999999635,2.390364e-05
534.359999999635,0.004210433,534.359999999635,3.029156e-05,534.359999999635,0.0003111322,534.359999999635,2.691299e-05
534.374999999635,0.004098544,534.374999999635,4.135193e-05,534.374999999635,0.0005323542,534.374999999635,4.398771e-05
534.3899999996349,0.004197355,534.3899999996349,6.283909e-05,534.3899999996349,0.0009574738,534.3899999996349,6.558847e-05
534.4049999996349,0.004346548,534.4049999996349,6.193046e-05,534.4049999996349,0.0009821345,534.4049999996349,6.600126e-05
534.4199999996349,0.004521145,534.4199999996349,6.132105e-05,534.4199999996349,0.0009806944,534.4199999996349,6.711263e-05
534.4349999996349,0.004670912,534.4349999996349,6.271612e-05,534.4349999996349,0.0009954908,534.4349999996349,6.933718e-05
534.4499999996349,0.004695858,534.4499999996349,7.553197e-05,534.4499999996349,0.001208868,534.4499999996349,7.729015e-05
534.4649999996349,0.004695868,534.4649999996349,8.042326e-05,534.4649999996349,0.001378604,534.4649999996349,7.874599e-05
534.4799999996349,0.004653397,534.4799999996349,8.355858e-05,534.4799999996349,0.00140468,534.4799999996349,8.426985e-05
534.4949999996348,0.004659673,534.4949999996348,8.72561e-05,534.4949999996348,0.001491016,534.4949999996348,8.770536e-05
534.5099999996348,0.004721103,534.5099999996348,8.768111e-05,534.5099999996348,0.001519543,534.5099999996348,8.795605e-05
534.5249999996348,0.004668508,534.5249999996348,8.790318e-05,534.5249999996348,0.001532354,534.5249999996348,8.80028e-05
534.5399999996348,0.004649544,534.5399999996348,8.834357e-05,534.5399999996348,0.001533501,534.5399999996348,8.805145e-05
534.5549999996348,0.004707286,534.5549999996348,8.854632e-05,534.5549999996348,0.001537554,534.5549999996348,8.913269e-05
534.5699999996348,0.004697651,534.5699999996348,8.86897e-05,534.5699999996348,0.001549672,534.5699999996348,8.960477e-05
534.5849999996348,0.004474979,534.5849999996348,8.950788e-05,534.5849999996348,0.001563511,534.5849999996348,8.953856e-05
534.5999999996347,0.004188891,534.5999999996347,8.897451e-05,534.5999999996347,0.001564471,534.5999999996347,9.240951e-05
534.6149999996347,0.004068136,534.6149999996347,8.674152e-05,534.6149999996347,0.001534104,534.6149999996347,9.055603e-05
534.6299999996347,0.004285301,534.6299999996347,7.349708e-05,534.6299999996347,0.001382177,534.6299999996347,7.983203e-05
534.6449999996347,0.004416927,534.6449999996347,6.653439e-05,534.6449999996347,0.00124195,534.6449999996347,7.872612e-05
534.6599999996347,0.004360467,534.6599999996347,6.901931e-05,534.6599999996347,0.001246164,534.6599999996347,7.911328e-05
534.6749999996347,0.004299047,534.6749999996347,7.053604e-05,534.6749999996347,0.001274225,534.6749999996347,7.922431e-05
534.6899999996347,0.004362697,534.6899999996347,6.714158e-05,534.6899999996347,0.001245761,534.6899999996347,8.019488e-05
534.7049999996347,0.004331045,534.7049999996347,5.070242e-05,534.7049999996347,0.0009739426,534.7049999996347,7.654385e-05
534.7199999996346,0.004107776,534.7199999996346,4.799931e-05,534.7199999996346,0.0008072632,534.7199999996346,7.553048e-05
534.7349999996346,0.004094478,534.7349999996346,4.284859e-05,534.7349999996346,0.0007696584,534.7349999996346,7.070399e-05
534.7499999996346,0.003958545,534.7499999996346,3.649245e-05,534.7499999996346,0.0005955613,534.7499999996346,6.859882e-05
534.7649999996346,0.003925418,534.7649999996346,3.598439e-05,534.7649999996346,0.0005620951,534.7649999996346,6.873708e-05
534.7799999996346,0.004029651,534.7799999996346,3.524674e-05,534.7799999996346,0.0005453356,534.7799999996346,6.874999e-05
534.7949999996346,0.00406719,534.7949999996346,3.474885e-05,534.7949999996346,0.0005402851,534.7949999996346,6.845925e-05
534.8099999996346,0.004103456,534.8099999996346,3.412338e-05,534.8099999996346,0.0005266651,534.8099999996346,6.702609e-05
534.8249999996345,0.004133868,534.8249999996345,3.205876e-05,534.8249999996345,0.0004899482,534.8249999996345,6.642187e-05
534.8399999996345,0.004112768,534.8399999996345,3.018348e-05,534.8399999996345,0.0004512385,534.8399999996345,6.538282e-05
534.8549999996345,0.004222999,534.8549999996345,3.917761e-05,534.8549999996345,0.000528068,534.8549999996345,7.069224e-05
534.8699999996345,0.004239964,534.8699999996345,4.09559e-05,534.8699999996345,0.0005459687,534.8699999996345,7.448839e-05
534.8849999996345,0.004239959,534.8849999996345,4.292447e-05,534.8849999996345,0.0005472535,534.8849999996345,7.075995e-05
534.8999999996345,0.004055066,534.8999999996345,4.343503e-05,534.8999999996345,0.0005722982,534.8999999996345,6.786487e-05
534.9149999996345,0.003985764,534.9149999996345,4.019244e-05,534.9149999996345,0.0005420276,534.9149999996345,6.791239e-05
534.9299999996344,0.003880187,534.9299999996344,3.899886e-05,534.9299999996344,0.0005045796,534.9299999996344,6.688176e-05
534.9449999996344,0.003745094,534.9449999996344,3.899163e-05,534.9449999996344,0.0005036801,534.9449999996344,6.070738e-05
534.9599999996344,0.003612145,534.9599999996344,3.863633e-05,534.9599999996344,0.0005035223,534.9599999996344,5.573707e-05
534.9749999996344,0.003506733,534.9749999996344,3.711177e-05,534.9749999996344,0.0004866895,534.9749999996344,5.56217e-05
534.9899999996344,0.003489572,534.9899999996344,3.693522e-05,534.9899999996344,0.0004851764,534.9899999996344,5.546878e-05
535.0049999996344,0.003498676,535.0049999996344,3.689668e-05,535.0049999996344,0.0004848585,535.0049999996344,5.456417e-05
535.0199999996344,0.003431596,535.0199999996344,3.605752e-05,535.0199999996344,0.0004647566,535.0199999996344,5.451044e-05
535.0349999996344,0.003302101,535.0349999996344,3.583493e-05,535.0349999996344,0.0004653886,535.0349999996344,5.459514e-05
535.0499999996343,0.003193163,535.0499999996343,3.600787e-05,535.0499999996343,0.0004688456,535.0499999996343,5.46511e-05
535.0649999996343,0.003148923,535.0649999996343,3.607939e-05,535.0649999996343,0.000469357,535.0649999996343,5.439818e-05
535.0799999996343,0.003099834,535.0799999996343,3.608134e-05,535.0799999996343,0.0004677299,535.0799999996343,5.429475e-05
535.0949999996343,0.003042106,535.0949999996343,3.574204e-05,535.0949999996343,0.0004659165,535.0949999996343,5.374453e-05
535.1099999996343,0.002794034,535.1099999996343,2.079367e-05,535.1099999996343,0.0003068071,535.1099999996343,2.781997e-05
535.1249999996343,0.002455085,535.1249999996343,1.83862e-05,535.1249999996343,0.0002794425,535.1249999996343,2.248553e-05
535.1399999996343,0.002034692,535.1399999996343,1.255283e-05,535.1399999996343,0.0002165174,535.1399999996343,1.620245e-05
535.1549999996342,0.001976367,535.1549999996342,1.062235e-05,535.1549999996342,0.0001401869,535.1549999996342,1.028547e-05
535.1699999996342,0.001916801,535.1699999996342,1.069241e-05,535.1699999996342,0.0001454373,535.1699999996342,1.019745e-05
535.1849999996342,0.001815416,535.1849999996342,1.057717e-05,535.1849999996342,0.0001469858,535.1849999996342,1.000077e-05
535.1999999996342,0.001787059,535.1999999996342,1.049964e-05,535.1999999996342,0.0001343048,535.1999999996342,9.730914e-06
535.2149999996342,0.001795643,535.2149999996342,1.18628e-05,535.2149999996342,0.0001327438,535.2149999996342,9.811646e-06
535.2299999996342,0.001776288,535.2299999996342,1.189955e-05,535.2299999996342,0.0001349344,535.2299999996342,9.53496e-06
535.2449999996342,0.001681541,535.2449999996342,1.190784e-05,535.2449999996342,0.0001408424,535.2449999996342,9.268258e-06
535.2599999996341,0.001596177,535.2599999996341,1.203141e-05,535.2599999996341,0.0001596886,535.2599999996341,1.00961e-05
535.2749999996341,0.001647427,535.2749999996341,1.200562e-05,535.2749999996341,0.0001607785,535.2749999996341,1.059845e-05
535.2899999996341,0.001688037,535.2899999996341,1.11174e-05,535.2899999996341,0.0001599744,535.2899999996341,9.719326e-06
535.3049999996341,0.001562325,535.3049999996341,1.076724e-05,535.3049999996341,0.0001599582,535.3049999996341,1.106405e-05
535.3199999996341,0.001330459,535.3199999996341,1.03442e-05,535.3199999996341,0.0001590475,535.3199999996341,1.253374e-05
535.3349999996341,0.001199834,535.3349999996341,1.087269e-05,535.3349999996341,0.0001625377,535.3349999996341,1.397187e-05
535.3499999996341,0.001680549,535.3499999996341,1.301671e-05,535.3499999996341,0.000229692,535.3499999996341,1.965198e-05
535.364999999634,0.001770011,535.364999999634,1.449638e-05,535.364999999634,0.0002472539,535.364999999634,2.415922e-05
535.379999999634,0.002018384,535.379999999634,1.623459e-05,535.379999999634,0.0002755963,535.379999999634,2.565624e-05
535.394999999634,0.002085915,535.394999999634,1.772062e-05,535.394999999634,0.0002783185,535.394999999634,2.595049e-05
535.409999999634,0.002137235,535.409999999634,1.831634e-05,535.409999999634,0.000279243,535.409999999634,3.287318e-05
535.424999999634,0.002200497,535.424999999634,1.914364e-05,535.424999999634,0.0003040113,535.424999999634,4.374236e-05
535.439999999634,0.002602677,535.439999999634,2.421687e-05,535.439999999634,0.0006595148,535.439999999634,6.075911e-05
535.454999999634,0.002911841,535.454999999634,2.632291e-05,535.454999999634,0.000767601,535.454999999634,6.288794e-05
535.469999999634,0.003164753,535.469999999634,2.933331e-05,535.469999999634,0.0007757126,535.469999999634,7.244323e-05
535.4849999996339,0.003368956,535.4849999996339,3.046591e-05,535.4849999996339,0.0008251764,535.4849999996339,7.526219e-05
535.4999999996339,0.003418945,535.4999999996339,3.134469e-05,535.4999999996339,0.0008780534,535.4999999996339,7.61033e-05
535.5149999996339,0.003738187,535.5149999996339,4.325433e-05,535.5149999996339,0.001039149,535.5149999996339,7.850232e-05
535.5299999996339,0.004005329,535.5299999996339,4.567597e-05,535.5299999996339,0.001060018,535.5299999996339,7.862819e-05
535.5449999996339,0.004167376,535.5449999996339,5.614877e-05,535.5449999996339,0.001096899,535.5449999996339,8.110054e-05
535.5599999996339,0.00431226,535.5599999996339,5.798335e-05,535.5599999996339,0.001129311,535.5599999996339,8.266469e-05
535.5749999996339,0.00438707,535.5749999996339,6.004735e-05,535.5749999996339,0.001131885,535.5749999996339,8.289136e-05
535.5899999996338,0.004401828,535.5899999996338,6.151394e-05,535.5899999996338,0.00113195,535.5899999996338,8.279546e-05
535.6049999996338,0.004346739,535.6049999996338,6.132197e-05,535.6049999996338,0.001120598,535.6049999996338,8.156454e-05
535.6199999996338,0.004344388,535.6199999996338,6.115519e-05,535.6199999996338,0.001121372,535.6199999996338,8.160149e-05
535.6349999996338,0.004320235,535.6349999996338,6.083093e-05,535.6349999996338,0.001114183,535.6349999996338,8.181527e-05
535.6499999996338,0.004504972,535.6499999996338,6.129623e-05,535.6499999996338,0.001113997,535.6499999996338,8.279648e-05
535.6649999996338,0.004671903,535.6649999996338,6.157437e-05,535.6649999996338,0.001117293,535.6649999996338,8.056222e-05
535.6799999996338,0.00460883,535.6799999996338,6.048934e-05,535.6799999996338,0.001070917,535.6799999996338,6.984808e-05
535.6949999996338,0.004409184,535.6949999996338,6.03212e-05,535.6949999996338,0.0008997784,535.6949999996338,6.102953e-05
535.7099999996337,0.004240084,535.7099999996337,5.887801e-05,535.7099999996337,0.0008491509,535.7099999996337,5.804575e-05
535.7249999996337,0.004038891,535.7249999996337,5.802148e-05,535.7249999996337,0.0008409683,535.7249999996337,5.016558e-05
535.7399999996337,0.003761176,535.7399999996337,5.734527e-05,535.7399999996337,0.0008140575,535.7399999996337,4.797846e-05
535.7549999996337,0.003779154,535.7549999996337,5.481479e-05,535.7549999996337,0.0007228226,535.7549999996337,4.510431e-05
535.7699999996337,0.003884565,535.7699999996337,4.687233e-05,535.7699999996337,0.0004754142,535.7699999996337,4.037045e-05
535.7849999996337,0.003876817,535.7849999996337,4.303885e-05,535.7849999996337,0.0004654086,535.7849999996337,3.990649e-05
535.7999999996337,0.003654825,535.7999999996337,3.219469e-05,535.7999999996337,0.0003947923,535.7999999996337,3.665844e-05
535.8149999996336,0.00351448,535.8149999996336,3.15967e-05,535.8149999996336,0.0003678038,535.8149999996336,3.632414e-05
535.8299999996336,0.003637994,535.8299999996336,2.565953e-05,535.8299999996336,0.0003993412,535.8299999996336,3.55785e-05
535.8449999996336,0.003801171,535.8449999996336,2.436012e-05,535.8449999996336,0.0004289967,535.8449999996336,3.540983e-05
535.8599999996336,0.003817967,535.8599999996336,2.450024e-05,535.8599999996336,0.0004317668,535.8599999996336,3.429017e-05
535.8749999996336,0.003762224,535.8749999996336,2.391484e-05,535.8749999996336,0.0004225365,535.8749999996336,3.16933e-05
535.8899999996336,0.003779933,535.8899999996336,2.398835e-05,535.8899999996336,0.0004216779,535.8899999996336,3.037468e-05
535.9049999996336,0.003803219,535.9049999996336,2.09065e-05,535.9049999996336,0.000410404,535.9049999996336,2.619954e-05
535.9199999996335,0.003681619,535.9199999996335,2.069589e-05,535.9199999996335,0.0004062894,535.9199999996335,2.512866e-05
535.9349999996335,0.003757584,535.9349999996335,2.353843e-05,535.9349999996335,0.0004224218,535.9349999996335,2.631382e-05
535.9499999996335,0.003965791,535.9499999996335,2.366436e-05,535.9499999996335,0.0004147796,535.9499999996335,2.631328e-05
535.9649999996335,0.004111005,535.9649999996335,2.473371e-05,535.9649999996335,0.0004152486,535.9649999996335,2.609502e-05
535.9799999996335,0.004143849,535.9799999996335,2.862359e-05,535.9799999996335,0.0004080836,535.9799999996335,2.618717e-05
535.9949999996335,0.004183212,535.9949999996335,3.101625e-05,535.9949999996335,0.0004113893,535.9949999996335,2.710181e-05
536.0099999996335,0.004235272,536.0099999996335,3.20236e-05,536.0099999996335,0.0004294234,536.0099999996335,2.736149e-05
536.0249999996335,0.004110807,536.0249999996335,3.097444e-05,536.0249999996335,0.0004064297,536.0249999996335,2.673971e-05
536.0399999996334,0.003859828,536.0399999996334,3.312206e-05,536.0399999996334,0.0003960673,536.0399999996334,2.682124e-05
536.0549999996334,0.003760066,536.0549999996334,3.380402e-05,536.0549999996334,0.0004011915,536.0549999996334,2.548546e-05
536.0699999996334,0.003730647,536.0699999996334,3.416217e-05,536.0699999996334,0.00038352,536.0699999996334,2.465213e-05
536.0849999996334,0.00368541,536.0849999996334,3.457491e-05,536.0849999996334,0.0003526005,536.0849999996334,2.413763e-05
536.0999999996334,0.003640534,536.0999999996334,3.457002e-05,536.0999999996334,0.0003170576,536.0999999996334,2.397425e-05
536.1149999996334,0.003680804,536.1149999996334,3.456391e-05,536.1149999996334,0.0003115064,536.1149999996334,2.33811e-05
536.1299999996334,0.003746893,536.1299999996334,3.447617e-05,536.1299999996334,0.0003088026,536.1299999996334,2.345029e-05
536.1449999996333,0.003654337,536.1449999996333,3.414072e-05,536.1449999996333,0.0003096339,536.1449999996333,2.234098e-05
536.1599999996333,0.003463194,536.1599999996333,3.421779e-05,536.1599999996333,0.0003113657,536.1599999996333,2.173696e-05
536.1749999996333,0.00342059,536.1749999996333,3.570221e-05,536.1749999996333,0.0003091472,536.1749999996333,2.177387e-05
536.1899999996333,0.003271677,536.1899999996333,3.310334e-05,536.1899999996333,0.000275016,536.1899999996333,1.850533e-05
536.2049999996333,0.002968148,536.2049999996333,3.182592e-05,536.2049999996333,0.0002409992,536.2049999996333,1.637799e-05
536.2199999996333,0.002637113,536.2199999996333,3.157083e-05,536.2199999996333,0.000235054,536.2199999996333,1.617548e-05
536.2349999996333,0.002622912,536.2349999996333,2.726866e-05,536.2349999996333,0.0002344659,536.2349999996333,1.460288e-05
536.2499999996332,0.002549984,536.2499999996332,2.430571e-05,536.2499999996332,0.0001924776,536.2499999996332,1.186873e-05
536.2649999996332,0.002206301,536.2649999996332,2.324152e-05,536.2649999996332,0.00014157,536.2649999996332,1.001344e-05
536.2799999996332,0.001731168,536.2799999996332,2.352945e-05,536.2799999996332,0.000130801,536.2799999996332,1.000922e-05
536.2949999996332,0.001354333,536.2949999996332,2.066455e-05,536.2949999996332,0.0001334798,536.2949999996332,1.000641e-05
536.3099999996332,0.001495194,536.3099999996332,1.953624e-05,536.3099999996332,0.000131643,536.3099999996332,1.076855e-05
536.3249999996332,0.001878886,536.3249999996332,1.835629e-05,536.3249999996332,0.0001354392,536.3249999996332,1.186042e-05
536.3399999996332,0.002056296,536.3399999996332,1.778727e-05,536.3399999996332,0.0001360721,536.3399999996332,1.446428e-05
536.3549999996332,0.00229482,536.3549999996332,2.249493e-05,536.3549999996332,0.0002316365,536.3549999996332,3.880695e-05
536.3699999996331,0.002615988,536.3699999996331,2.262979e-05,536.3699999996331,0.0002459471,536.3699999996331,4.113539e-05
536.3849999996331,0.002874007,536.3849999996331,2.261609e-05,536.3849999996331,0.0002486305,536.3849999996331,4.1403e-05
536.3999999996331,0.002896822,536.3999999996331,2.431266e-05,536.3999999996331,0.0002702754,536.3999999996331,4.467345e-05
536.4149999996331,0.003096213,536.4149999996331,2.239262e-05,536.4149999996331,0.0002922138,536.4149999996331,4.730878e-05
536.4299999996331,0.003262322,536.4299999996331,2.285032e-05,536.4299999996331,0.000293942,536.4299999996331,4.766771e-05
536.4449999996331,0.003270368,536.4449999996331,2.319358e-05,536.4449999996331,0.0002984177,536.4449999996331,4.839184e-05
536.459999999633,0.003295383,536.459999999633,2.31023e-05,536.459999999633,0.0003013204,536.459999999633,4.866499e-05
536.474999999633,0.003316736,536.474999999633,2.31279e-05,536.474999999633,0.000302172,536.474999999633,4.867888e-05
536.489999999633,0.003304935,536.489999999633,2.295733e-05,536.489999999633,0.0003008034,536.489999999633,4.871446e-05
536.504999999633,0.003271057,536.504999999633,2.237437e-05,536.504999999633,0.0002979767,536.504999999633,4.873499e-05
536.519999999633,0.003260868,536.519999999633,2.18913e-05,536.519999999633,0.0002988671,536.519999999633,4.876158e-05
536.534999999633,0.003258682,536.534999999633,2.1575e-05,536.534999999633,0.0002990169,536.534999999633,4.871649e-05
536.549999999633,0.003231262,536.549999999633,2.141246e-05,536.549999999633,0.0002968737,536.549999999633,4.85302e-05
536.564999999633,0.003126866,536.564999999633,2.141904e-05,536.564999999633,0.0002951149,536.564999999633,4.810982e-05
536.579999999633,0.002923049,536.579999999633,2.104819e-05,536.579999999633,0.0002899146,536.579999999633,4.73894e-05
536.5949999996329,0.00279214,536.5949999996329,2.001422e-05,536.5949999996329,0.0002768559,536.5949999996329,4.489614e-05
536.6099999996329,0.002510019,536.6099999996329,1.525028e-05,536.6099999996329,0.0002024613,536.6099999996329,2.701069e-05
536.6249999996329,0.002094,536.6249999996329,1.515206e-05,536.6249999996329,0.0001917375,536.6249999996329,2.576964e-05
536.6399999996329,0.00163992,536.6399999996329,1.40503e-05,536.6399999996329,0.000185509,536.6399999996329,2.401828e-05
536.6549999996329,0.00161781,536.6549999996329,1.221846e-05,536.6549999996329,0.0001521473,536.6549999996329,1.951604e-05
536.6699999996329,0.001134256,536.6699999996329,1.063295e-05,536.6699999996329,0.0001056983,536.6699999996329,1.275323e-05
536.6849999996329,0.0008793316,536.6849999996329,7.827967e-06,536.6849999996329,0.0001013005,536.6849999996329,1.18414e-05
536.6999999996328,0.0008383323,536.6999999996328,6.697164e-06,536.6999999996328,8.708674e-05,536.6999999996328,8.500864e-06
536.7149999996328,0.0007336725,536.7149999996328,7.366268e-06,536.7149999996328,8.229219e-05,536.7149999996328,7.42721e-06
536.7299999996328,0.0006722923,536.7299999996328,7.784659e-06,536.7299999996328,8.199087e-05,536.7299999996328,7.337527e-06
536.7449999996328,0.0006554141,536.7449999996328,7.669811e-06,536.7449999996328,8.13198e-05,536.7449999996328,7.188182e-06
536.7599999996328,0.0006638743,536.7599999996328,7.779228e-06,536.7599999996328,8.028564e-05,536.7599999996328,7.001547e-06
536.7749999996328,0.0006968144,536.7749999996328,7.786468e-06,536.7749999996328,7.758867e-05,536.7749999996328,6.989465e-06
536.7899999996328,0.0007122375,536.7899999996328,7.790086e-06,536.7899999996328,7.805513e-05,536.7899999996328,7.00758e-06
536.8049999996327,0.0007499714,536.8049999996327,7.8585e-06,536.8049999996327,8.48768e-05,536.8049999996327,7.231167e-06
536.8199999996327,0.0007698206,536.8199999996327,7.938755e-06,536.8199999996327,8.623303e-05,536.8199999996327,7.425313e-06
536.8349999996327,0.0007108703,536.8349999996327,7.977696e-06,536.8349999996327,8.225726e-05,536.8349999996327,7.213613e-06
536.8499999996327,0.0006761276,536.8499999996327,7.961788e-06,536.8499999996327,8.759962e-05,536.8499999996327,7.262268e-06
536.8649999996327,0.0006684586,536.8649999996327,7.885342e-06,536.8649999996327,8.73721e-05,536.8649999996327,7.125195e-06
536.8799999996327,0.0006655044,536.8799999996327,7.8585e-06,536.8799999996327,8.984059e-05,536.8799999996327,7.065636e-06
536.8949999996327,0.0006778096,536.8949999996327,7.897837e-06,536.8949999996327,8.89715e-05,536.8949999996327,6.818068e-06
536.9099999996326,0.0006820423,536.9099999996326,7.610811e-06,536.9099999996326,8.857479e-05,536.9099999996326,6.452925e-06
536.9249999996326,0.0006612614,536.9249999996326,7.824367e-06,536.9249999996326,8.672821e-05,536.9249999996326,6.642251e-06
536.9399999996326,0.0006262548,536.9399999996326,8.124666e-06,536.9399999996326,8.72716e-05,536.9399999996326,6.669763e-06
536.9549999996326,0.0006268137,536.9549999996326,8.016449e-06,536.9549999996326,8.739064e-05,536.9549999996326,7.573703e-06
536.9699999996326,0.0006116662,536.9699999996326,7.237009e-06,536.9699999996326,8.732195e-05,536.9699999996326,8.253678e-06
536.9849999996326,0.0005872988,536.9849999996326,6.983416e-06,536.9849999996326,8.798439e-05,536.9849999996326,8.737838e-06
536.9999999996326,0.0006407828,536.9999999996326,6.892046e-06,536.9999999996326,9.181323e-05,536.9999999996326,8.92131e-06
537.0149999996326,0.0006778631,537.0149999996326,6.64861e-06,537.0149999996326,9.086428e-05,537.0149999996326,9.481625e-06
537.0299999996325,0.0006885822,537.0299999996325,7.417721e-06,537.0299999996325,9.492242e-05,537.0299999996325,9.751159e-06
537.0449999996325,0.0007913229,537.0449999996325,7.929877e-06,537.0449999996325,9.903532e-05,537.0449999996325,9.785769e-06
537.0599999996325,0.0009865894,537.0599999996325,8.446003e-06,537.0599999996325,0.000106075,537.0599999996325,9.343943e-06
537.0749999996325,0.001131273,537.0749999996325,8.664989e-06,537.0749999996325,0.0001073924,537.0749999996325,9.254569e-06
537.0899999996325,0.001185534,537.0899999996325,9.824559e-06,537.0899999996325,0.0001435763,537.0899999996325,1.327177e-05
537.1049999996325,0.00179144,537.1049999996325,2.099995e-05,537.1049999996325,0.000256613,537.1049999996325,1.75304e-05
537.1199999996325,0.002016211,537.1199999996325,2.261547e-05,537.1199999996325,0.0002826909,537.1199999996325,2.104016e-05
537.1349999996324,0.002099649,537.1349999996324,2.498756e-05,537.1349999996324,0.0003628485,537.1349999996324,2.745913e-05
537.1499999996324,0.002150748,537.1499999996324,2.743039e-05,537.1499999996324,0.0003771454,537.1499999996324,2.941196e-05
537.1649999996324,0.002218334,537.1649999996324,2.780325e-05,537.1649999996324,0.0003807003,537.1649999996324,3.30927e-05
537.1799999996324,0.00225125,537.1799999996324,2.838092e-05,537.1799999996324,0.0003820428,537.1799999996324,3.448066e-05
537.1949999996324,0.002390663,537.1949999996324,2.84622e-05,537.1949999996324,0.000383439,537.1949999996324,3.449578e-05
537.2099999996324,0.002601717,537.2099999996324,2.863835e-05,537.2099999996324,0.0003838183,537.2099999996324,3.434763e-05
537.2249999996324,0.002630445,537.2249999996324,3.201303e-05,537.2249999996324,0.0003958565,537.2249999996324,3.509735e-05
537.2399999996323,0.002718236,537.2399999996323,3.220694e-05,537.2399999996323,0.000399906,537.2399999996323,3.514668e-05
537.2549999996323,0.002765236,537.2549999996323,3.30049e-05,537.2549999996323,0.0004043436,537.2549999996323,3.545872e-05
537.2699999996323,0.00282786,537.2699999996323,3.515911e-05,537.2699999996323,0.0004275017,537.2699999996323,3.657997e-05
537.2849999996323,0.002874987,537.2849999996323,3.55016e-05,537.2849999996323,0.0004333483,537.2849999996323,3.66742e-05
537.2999999996323,0.002995292,537.2999999996323,3.65183e-05,537.2999999996323,0.0004524629,537.2999999996323,3.822064e-05
537.3149999996323,0.003149884,537.3149999996323,3.721789e-05,537.3149999996323,0.0004727987,537.3149999996323,3.89985e-05
537.3299999996323,0.003145984,537.3299999996323,3.721108e-05,537.3299999996323,0.0004735535,537.3299999996323,3.92552e-05
537.3449999996323,0.003162018,537.3449999996323,3.754236e-05,537.3449999996323,0.0004731416,537.3449999996323,3.890375e-05
537.3599999996322,0.003250306,537.3599999996322,3.995411e-05,537.3599999996322,0.0005794109,537.3599999996322,4.432491e-05
537.3749999996322,0.003409618,537.3749999996322,4.01984e-05,537.3749999996322,0.0005641745,537.3749999996322,4.204247e-05
537.3899999996322,0.003418204,537.3899999996322,4.354063e-05,537.3899999996322,0.0005922682,537.3899999996322,4.396657e-05
537.4049999996322,0.003410585,537.4049999996322,4.26773e-05,537.4049999996322,0.0006032304,537.4049999996322,4.178671e-05
537.4199999996322,0.003431301,537.4199999996322,4.261156e-05,537.4199999996322,0.0006072058,537.4199999996322,4.048543e-05
537.4349999996322,0.0035196,537.4349999996322,4.222534e-05,537.4349999996322,0.0006076743,537.4349999996322,3.966111e-05
537.4499999996322,0.003536543,537.4499999996322,4.265551e-05,537.4499999996322,0.0006107854,537.4499999996322,3.957827e-05
537.4649999996321,0.003442579,537.4649999996321,4.09239e-05,537.4649999996321,0.0006092407,537.4649999996321,3.949882e-05
537.4799999996321,0.003459628,537.4799999996321,4.067046e-05,537.4799999996321,0.0006023645,537.4799999996321,3.898658e-05
537.4949999996321,0.00357066,537.4949999996321,4.10816e-05,537.4949999996321,0.0006079819,537.4949999996321,3.904651e-05
537.5099999996321,0.003693112,537.5099999996321,4.046873e-05,537.5099999996321,0.0006073031,537.5099999996321,3.852533e-05
537.5249999996321,0.003660681,537.5249999996321,3.89573e-05,537.5249999996321,0.0005920815,537.5249999996321,3.759411e-05
537.5399999996321,0.00364003,537.5399999996321,3.902775e-05,537.5399999996321,0.000589959,537.5399999996321,3.728596e-05
537.5549999996321,0.003454476,537.5549999996321,3.761172e-05,537.5549999996321,0.000564614,537.5549999996321,3.526113e-05
537.569999999632,0.003218522,537.569999999632,3.717207e-05,537.569999999632,0.0005512868,537.569999999632,3.469367e-05
537.584999999632,0.003158028,537.584999999632,3.70962e-05,537.584999999632,0.0005506174,537.584999999632,3.434312e-05
537.599999999632,0.003023712,537.599999999632,3.12664e-05,537.599999999632,0.0004796694,537.599999999632,2.695692e-05
537.614999999632,0.002725957,537.614999999632,2.626613e-05,537.614999999632,0.0003087163,537.614999999632,2.022287e-05
537.629999999632,0.002512086,537.629999999632,2.252247e-05,537.629999999632,0.0002964308,537.629999999632,1.62068e-05
537.644999999632,0.002572833,537.644999999632,1.89922e-05,537.644999999632,0.000245769,537.644999999632,1.123963e-05
537.659999999632,0.002544874,537.659999999632,1.81316e-05,537.659999999632,0.000208442,537.659999999632,1.007515e-05
537.674999999632,0.002448581,537.674999999632,1.866149e-05,537.674999999632,0.0002084118,537.674999999632,1.016147e-05
537.6899999996319,0.00226714,537.6899999996319,1.858509e-05,537.6899999996319,0.0002123993,537.6899999996319,1.033875e-05
537.7049999996319,0.001902917,537.7049999996319,1.736246e-05,537.7049999996319,0.0002020717,537.7049999996319,1.043909e-05
537.7199999996319,0.001794668,537.7199999996319,1.710663e-05,537.7199999996319,0.0002034448,537.7199999996319,1.03442e-05
537.7349999996319,0.001758002,537.7349999996319,1.538364e-05,537.7349999996319,0.0001980524,537.7349999996319,9.640744e-06
537.7499999996319,0.001549097,537.7499999996319,1.480788e-05,537.7499999996319,0.0001803666,537.7499999996319,9.624658e-06
537.7649999996319,0.001440507,537.7649999996319,1.446038e-05,537.7649999996319,0.0001825309,537.7649999996319,9.820256e-06
537.7799999996319,0.001418908,537.7799999996319,1.421179e-05,537.7799999996319,0.0001845801,537.7799999996319,1.003873e-05
537.7949999996318,0.001472515,537.7949999996318,1.419989e-05,537.7949999996318,0.0001968271,537.7949999996318,1.09347e-05
537.8099999996318,0.001579744,537.8099999996318,1.412529e-05,537.8099999996318,0.0001982541,537.8099999996318,1.10933e-05
537.8249999996318,0.001640282,537.8249999996318,1.403926e-05,537.8249999996318,0.0001977421,537.8249999996318,1.113386e-05
537.8399999996318,0.001651765,537.8399999996318,1.373495e-05,537.8399999996318,0.0001972753,537.8399999996318,1.117931e-05
537.8549999996318,0.001648922,537.8549999996318,1.35116e-05,537.8549999996318,0.0001958435,537.8549999996318,1.095787e-05
537.8699999996318,0.001606344,537.8699999996318,1.29527e-05,537.8699999996318,0.0001913991,537.8699999996318,1.078031e-05
537.8849999996318,0.001527821,537.8849999996318,1.258422e-05,537.8849999996318,0.0001897812,537.8849999996318,1.097842e-05
537.8999999996317,0.001472644,537.8999999996317,1.195742e-05,537.8999999996317,0.0001897745,537.8999999996317,1.084285e-05
537.9149999996317,0.001471427,537.9149999996317,1.131707e-05,537.9149999996317,0.0001929723,537.9149999996317,1.119317e-05
537.9299999996317,0.001551525,537.9299999996317,1.111106e-05,537.9299999996317,0.0001824707,537.9299999996317,1.133573e-05
537.9449999996317,0.001544255,537.9449999996317,1.133946e-05,537.9449999996317,0.0001792128,537.9449999996317,1.113006e-05
537.9599999996317,0.001538616,537.9599999996317,1.216067e-05,537.9599999996317,0.0001834753,537.9599999996317,1.137171e-05
537.9749999996317,0.001573884,537.9749999996317,1.2397e-05,537.9749999996317,0.0001887314,537.9749999996317,1.138656e-05
537.9899999996317,0.001576658,537.9899999996317,1.22507e-05,537.9899999996317,0.0001858542,537.9899999996317,1.125216e-05
538.0049999996317,0.001495734,538.0049999996317,1.179253e-05,538.0049999996317,0.0001764705,538.0049999996317,1.105131e-05
538.0199999996316,0.001329742,538.0199999996316,1.140016e-05,538.0199999996316,0.0001738734,538.0199999996316,1.105131e-05
538.0349999996316,0.001311989,538.0349999996316,1.092568e-05,538.0349999996316,0.0001702987,538.0349999996316,1.135559e-05
538.0499999996316,0.001252603,538.0499999996316,9.993728e-06,538.0499999996316,0.0001561267,538.0499999996316,1.059978e-05
538.0649999996316,0.001173463,538.0649999996316,1.040124e-05,538.0649999996316,0.0001514649,538.0649999996316,1.055183e-05
538.0799999996316,0.001136845,538.0799999996316,1.101045e-05,538.0799999996316,0.0001514882,538.0799999996316,1.077378e-05
538.0949999996316,0.001126728,538.0949999996316,1.323883e-05,538.0949999996316,0.0001513521,538.0949999996316,1.093084e-05
538.1099999996316,0.001130953,538.1099999996316,1.385544e-05,538.1099999996316,0.000154621,538.1099999996316,1.160468e-05
538.1249999996315,0.001322133,538.1249999996315,1.754888e-05,538.1249999996315,0.0001653214,538.1249999996315,1.361029e-05
538.1399999996315,0.001638752,538.1399999996315,2.549983e-05,538.1399999996315,0.0002304206,538.1399999996315,2.02368e-05
538.1549999996315,0.002069772,538.1549999996315,4.248973e-05,538.1549999996315,0.0004972367,538.1549999996315,3.414484e-05
538.1699999996315,0.002437303,538.1699999996315,4.731325e-05,538.1699999996315,0.0005420236,538.1699999996315,3.703996e-05
538.1849999996315,0.002610209,538.1849999996315,5.232591e-05,538.1849999996315,0.0006117286,538.1849999996315,4.217728e-05
538.1999999996315,0.002877805,538.1999999996315,5.955408e-05,538.1999999996315,0.0007408136,538.1999999996315,4.319795e-05
538.2149999996315,0.002933263,538.2149999996315,5.983419e-05,538.2149999996315,0.0007457702,538.2149999996315,4.526736e-05
538.2299999996314,0.002931683,538.2299999996314,6.020526e-05,538.2299999996314,0.0007457068,538.2299999996314,4.752505e-05
538.2449999996314,0.003107627,538.2449999996314,6.124635e-05,538.2449999996314,0.0007465422,538.2449999996314,4.849884e-05
538.2599999996314,0.003290675,538.2599999996314,6.190816e-05,538.2599999996314,0.0007473949,538.2599999996314,4.864154e-05
538.2749999996314,0.003374912,538.2749999996314,6.243902e-05,538.2749999996314,0.0007486427,538.2749999996314,4.854443e-05
538.2899999996314,0.003382702,538.2899999996314,6.259764e-05,538.2899999996314,0.0007636995,538.2899999996314,4.860706e-05
538.3049999996314,0.003526849,538.3049999996314,6.263408e-05,538.3049999996314,0.0007786273,538.3049999996314,5.086469e-05
538.3199999996314,0.00379316,538.3199999996314,6.277382e-05,538.3199999996314,0.0007894528,538.3199999996314,5.420413e-05
538.3349999996313,0.004061693,538.3349999996313,6.33977e-05,538.3349999996313,0.0008000337,538.3349999996313,5.473121e-05
538.3499999996313,0.00426666,538.3499999996313,6.311756e-05,538.3499999996313,0.0007996429,538.3499999996313,5.473764e-05
538.3649999996313,0.004349751,538.3649999996313,6.338571e-05,538.3649999996313,0.0007988735,538.3649999996313,5.556545e-05
538.3799999996313,0.004207966,538.3799999996313,6.159495e-05,538.3799999996313,0.0007941196,538.3799999996313,5.616633e-05
538.3949999996313,0.004072113,538.3949999996313,5.975999e-05,538.3949999996313,0.0007654176,538.3949999996313,5.220489e-05
538.4099999996313,0.003922519,538.4099999996313,4.937279e-05,538.4099999996313,0.0006377294,538.4099999996313,4.689336e-05
538.4249999996313,0.003730836,538.4249999996313,4.966296e-05,538.4249999996313,0.0006223409,538.4249999996313,4.391945e-05
538.4399999996313,0.003609389,538.4399999996313,4.236955e-05,538.4399999996313,0.0005220837,538.4399999996313,4.072065e-05
538.4549999996312,0.003403692,538.4549999996312,3.949454e-05,538.4549999996312,0.0003898503,538.4549999996312,3.9005e-05
538.4699999996312,0.003483084,538.4699999996312,4.379965e-05,538.4699999996312,0.0004122154,538.4699999996312,3.963269e-05
538.4849999996312,0.003696628,538.4849999996312,5.286825e-05,538.4849999996312,0.0005529,538.4849999996312,4.374236e-05
538.4999999996312,0.003670417,538.4999999996312,5.710946e-05,538.4999999996312,0.0005821669,538.4999999996312,4.673961e-05
538.5149999996312,0.003608131,538.5149999996312,6.313497e-05,538.5149999996312,0.0007088919,538.5149999996312,5.351759e-05
538.5299999996312,0.003667157,538.5299999996312,6.386769e-05,538.5299999996312,0.0007336607,538.5299999996312,5.381368e-05
538.5449999996312,0.003745555,538.5449999996312,6.477284e-05,538.5449999996312,0.0007220017,538.5449999996312,5.374427e-05
538.5599999996311,0.003719999,538.5599999996311,6.742485e-05,538.5599999996311,0.000712112,538.5599999996311,5.111306e-05
538.5749999996311,0.003588551,538.5749999996311,6.724682e-05,538.5749999996311,0.0006960004,538.5749999996311,4.814143e-05
538.5899999996311,0.003415563,538.5899999996311,6.782293e-05,538.5899999996311,0.0006834915,538.5899999996311,4.780817e-05
538.6049999996311,0.003232522,538.6049999996311,6.772108e-05,538.6049999996311,0.0006806881,538.6049999996311,4.807203e-05
538.6199999996311,0.003240767,538.6199999996311,6.765615e-05,538.6199999996311,0.0006787087,538.6199999996311,4.657144e-05
538.6349999996311,0.003258515,538.6349999996311,6.751713e-05,538.6349999996311,0.0006739941,538.6349999996311,4.526425e-05
538.6499999996311,0.00332338,538.6499999996311,6.738096e-05,538.6499999996311,0.0006666722,538.6499999996311,4.514271e-05
538.664999999631,0.003395021,538.664999999631,6.587308e-05,538.664999999631,0.000657153,538.664999999631,4.518856e-05
538.679999999631,0.003446652,538.679999999631,6.505538e-05,538.679999999631,0.0006554004,538.679999999631,4.508088e-05
538.694999999631,0.003462671,538.694999999631,6.56533e-05,538.694999999631,0.0006597225,538.694999999631,4.529069e-05
538.709999999631,0.003549829,538.709999999631,6.401595e-05,538.709999999631,0.0006632384,538.709999999631,4.555399e-05
538.724999999631,0.003572587,538.724999999631,5.799549e-05,538.724999999631,0.000617778,538.724999999631,4.022818e-05
538.739999999631,0.003431155,538.739999999631,5.103749e-05,538.739999999631,0.000493544,538.739999999631,3.458306e-05
538.754999999631,0.003175552,538.754999999631,4.280255e-05,538.754999999631,0.0004372208,538.754999999631,2.760903e-05
538.769999999631,0.00313881,538.769999999631,3.677623e-05,538.769999999631,0.0002390857,538.769999999631,1.992322e-05
538.7849999996309,0.003206333,538.7849999996309,3.673637e-05,538.7849999996309,0.0002194665,538.7849999996309,2.115167e-05
538.7999999996309,0.003316615,538.7999999996309,3.394043e-05,538.7999999996309,0.0002255616,538.7999999996309,2.139666e-05
538.8149999996309,0.003318327,538.8149999996309,3.065122e-05,538.8149999996309,0.0002260047,538.8149999996309,2.227088e-05
538.8299999996309,0.003189669,538.8299999996309,2.967373e-05,538.8299999996309,0.0002285333,538.8299999996309,2.531743e-05
538.8449999996309,0.003400357,538.8449999996309,2.863638e-05,538.8449999996309,0.0002443728,538.8449999996309,2.824858e-05
538.8599999996309,0.003714396,538.8599999996309,2.818618e-05,538.8599999996309,0.00025248,538.8599999996309,2.778906e-05
538.8749999996309,0.003869348,538.8749999996309,2.710233e-05,538.8749999996309,0.0002596565,538.8749999996309,2.80459e-05
538.8899999996308,0.003863891,538.8899999996308,2.591301e-05,538.8899999996308,0.0002578144,538.8899999996308,2.841465e-05
538.9049999996308,0.003777501,538.9049999996308,2.691456e-05,538.9049999996308,0.0002516976,538.9049999996308,2.845676e-05
538.9199999996308,0.003641893,538.9199999996308,2.791702e-05,538.9199999996308,0.0002456601,538.9199999996308,2.862359e-05
538.9349999996308,0.003603571,538.9349999996308,2.733831e-05,538.9349999996308,0.000250017,538.9349999996308,2.835659e-05
538.9499999996308,0.003617141,538.9499999996308,2.916812e-05,538.9499999996308,0.000237633,538.9499999996308,2.791752e-05
538.9649999996308,0.00352631,538.9649999996308,2.899228e-05,538.9649999996308,0.0002216727,538.9649999996308,2.717396e-05
538.9799999996308,0.003329594,538.9799999996308,2.950091e-05,538.9799999996308,0.0002104981,538.9799999996308,2.67713e-05
538.9949999996307,0.003195295,538.9949999996307,3.175457e-05,538.9949999996307,0.0002078192,538.9949999996307,2.650849e-05
539.0099999996307,0.003273271,539.0099999996307,3.167685e-05,539.0099999996307,0.0002042627,539.0099999996307,2.589833e-05
539.0249999996307,0.003265678,539.0249999996307,3.239316e-05,539.0249999996307,0.000194807,539.0249999996307,2.367626e-05
539.0399999996307,0.003113131,539.0399999996307,3.563665e-05,539.0399999996307,0.0001868658,539.0399999996307,2.454619e-05
539.0549999996307,0.002941995,539.0549999996307,3.725308e-05,539.0549999996307,0.0002981398,539.0549999996307,2.527957e-05
539.0699999996307,0.003064197,539.0699999996307,4.383405e-05,539.0699999996307,0.0004252144,539.0699999996307,3.67145e-05
539.0849999996307,0.003322657,539.0849999996307,4.401556e-05,539.0849999996307,0.0004802478,539.0849999996307,3.653296e-05
539.0999999996307,0.003373769,539.0999999996307,4.875378e-05,539.0999999996307,0.0004906951,539.0999999996307,3.808366e-05
539.1149999996306,0.003379975,539.1149999996306,5.755516e-05,539.1149999996306,0.0006507011,539.1149999996306,4.759022e-05
539.1299999996306,0.003524331,539.1299999996306,6.28736e-05,539.1299999996306,0.0007454696,539.1299999996306,5.890241e-05
539.1449999996306,0.003736944,539.1449999996306,8.030301e-05,539.1449999996306,0.001291283,539.1449999996306,8.825918e-05
539.1599999996306,0.003947425,539.1599999996306,8.097313e-05,539.1599999996306,0.00138635,539.1599999996306,9.030134e-05
539.1749999996306,0.004122175,539.1749999996306,8.168707e-05,539.1749999996306,0.001399342,539.1749999996306,9.389661e-05
539.1899999996306,0.004268106,539.1899999996306,8.27054e-05,539.1899999996306,0.001424785,539.1899999996306,9.445782e-05
539.2049999996306,0.004349506,539.2049999996306,8.393754e-05,539.2049999996306,0.001462336,539.2049999996306,9.500593e-05
539.2199999996305,0.00438905,539.2199999996305,8.502024e-05,539.2199999996305,0.001481036,539.2199999996305,9.538387e-05
539.2349999996305,0.004463543,539.2349999996305,8.482567e-05,539.2349999996305,0.001496732,539.2349999996305,9.742387e-05
539.2499999996305,0.00469135,539.2499999996305,8.449805e-05,539.2499999996305,0.001505864,539.2499999996305,9.859697e-05
539.2649999996305,0.004799369,539.2649999996305,8.498511e-05,539.2649999996305,0.001506825,539.2649999996305,9.970146e-05
539.2799999996305,0.004813267,539.2799999996305,8.640406e-05,539.2799999996305,0.001523645,539.2799999996305,0.000104396
539.2949999996305,0.004789338,539.2949999996305,8.77675e-05,539.2949999996305,0.001542602,539.2949999996305,0.0001048637
539.3099999996305,0.004757799,539.3099999996305,8.712443e-05,539.3099999996305,0.001522944,539.3099999996305,0.000104035
539.3249999996304,0.004752467,539.3249999996304,8.513366e-05,539.3249999996304,0.001491481,539.3249999996304,0.0001015876
539.3399999996304,0.004752463,539.3399999996304,8.43133e-05,539.3399999996304,0.001481479,539.3399999996304,0.0001007329
539.3549999996304,0.00474859,539.3549999996304,8.198882e-05,539.3549999996304,0.001459147,539.3549999996304,9.915856e-05
539.3699999996304,0.004698915,539.3699999996304,7.594172e-05,539.3699999996304,0.001387544,539.3699999996304,9.525559e-05
539.3849999996304,0.004590872,539.3849999996304,6.738661e-05,539.3849999996304,0.001257284,539.3849999996304,8.049592e-05
539.3999999996304,0.004444515,539.3999999996304,0.000113199,539.3999999996304,0.001012344,539.3999999996304,0.0001217425
539.4149999996304,0.004397231,539.4149999996304,0.000212071,539.4149999996304,0.001432342,539.4149999996304,0.000208873
539.4299999996304,0.004345628,539.4299999996304,0.0002166231,539.4299999996304,0.001492833,539.4299999996304,0.000211391
539.4449999996303,0.004377183,539.4449999996303,0.0002184866,539.4449999996303,0.00155266,539.4449999996303,0.0002133417
539.4599999996303,0.004487409,539.4599999996303,0.0002179335,539.4599999996303,0.001538003,539.4599999996303,0.0002131827
539.4749999996303,0.004429208,539.4749999996303,0.0002177478,539.4749999996303,0.001533556,539.4749999996303,0.0002130021
539.4899999996303,0.004478776,539.4899999996303,0.0002175951,539.4899999996303,0.001523837,539.4899999996303,0.0002116419
539.5049999996303,0.004453148,539.5049999996303,0.0002174948,539.5049999996303,0.001521725,539.5049999996303,0.0002112733
539.5199999996303,0.004565267,539.5199999996303,0.0002178198,539.5199999996303,0.001542798,539.5199999996303,0.0002106828
539.5349999996303,0.004677241,539.5349999996303,0.0002168739,539.5349999996303,0.001524003,539.5349999996303,0.0002090325
539.5499999996302,0.004625231,539.5499999996302,0.000216479,539.5499999996302,0.001508707,539.5499999996302,0.0002089769
539.5649999996302,0.004596318,539.5649999996302,0.0002164287,539.5649999996302,0.001509055,539.5649999996302,0.000208743
539.5799999996302,0.004490537,539.5799999996302,0.0002162055,539.5799999996302,0.001510106,539.5799999996302,0.0002086156
539.5949999996302,0.004291422,539.5949999996302,0.000216051,539.5949999996302,0.001510592,539.5949999996302,0.0002086092
539.6099999996302,0.004051511,539.6099999996302,0.0002160924,539.6099999996302,0.001510417,539.6099999996302,0.0002086147
539.6249999996302,0.003860608,539.6249999996302,0.0002160165,539.6249999996302,0.001510002,539.6249999996302,0.0002086156
539.6399999996302,0.003735029,539.6399999996302,0.000215846,539.6399999996302,0.001508046,539.6399999996302,0.0002083873
539.6549999996301,0.003623021,539.6549999996301,0.0001059964,539.6549999996301,0.001059773,539.6549999996301,0.0001036148
539.6699999996301,0.003418835,539.6699999996301,4.89513e-05,539.6699999996301,0.000690286,539.6699999996301,4.192637e-05
539.6849999996301,0.003294861,539.6849999996301,3.829502e-05,539.6849999996301,0.0005804498,539.6849999996301,3.083176e-05
539.6999999996301,0.003176931,539.6999999996301,2.99431e-05,539.6999999996301,0.0003976605,539.6999999996301,2.416563e-05
539.7149999996301,0.003032721,539.7149999996301,2.963193e-05,539.7149999996301,0.000375804,539.7149999996301,2.384405e-05
539.7299999996301,0.002816332,539.7299999996301,2.818818e-05,539.7299999996301,0.0003306411,539.7299999996301,2.350429e-05
539.7449999996301,0.002413987,539.7449999996301,2.77434e-05,539.7449999996301,0.000324638,539.7449999996301,2.324515e-05
539.75999999963,0.002168053,539.75999999963,2.51578e-05,539.75999999963,0.0002945356,539.75999999963,2.041836e-05
539.77499999963,0.00180822,539.77499999963,2.098988e-05,539.77499999963,0.0001832917,539.77499999963,1.726809e-05
539.78999999963,0.001697104,539.78999999963,1.854107e-05,539.78999999963,0.0001750297,539.78999999963,1.56172e-05
539.80499999963,0.001650281,539.80499999963,1.666532e-05,539.80499999963,0.0001573875,539.80499999963,1.440866e-05
539.81999999963,0.001605491,539.81999999963,1.531113e-05,539.81999999963,0.0001518312,539.81999999963,1.379941e-05
539.83499999963,0.001470903,539.83499999963,1.445844e-05,539.83499999963,0.0001436174,539.83499999963,1.256517e-05
539.84999999963,0.001472084,539.84999999963,1.467505e-05,539.84999999963,0.0001432683,539.84999999963,1.309869e-05
539.86499999963,0.001476602,539.86499999963,1.544852e-05,539.86499999963,0.00014151,539.86499999963,1.24729e-05
539.87999999963,0.001473341,539.87999999963,1.576354e-05,539.87999999963,0.0001438855,539.87999999963,1.205831e-05
539.8949999996299,0.001399368,539.8949999996299,1.567482e-05,539.8949999996299,0.0001386967,539.8949999996299,1.165797e-05
539.9099999996299,0.001223015,539.9099999996299,1.616764e-05,539.9099999996299,0.0001295811,539.9099999996299,1.174225e-05
539.9249999996299,0.00121993,539.9249999996299,1.620941e-05,539.9249999996299,0.0001314822,539.9249999996299,1.168573e-05
539.9399999996299,0.001192978,539.9399999996299,1.609166e-05,539.9399999996299,0.0001164444,539.9399999996299,1.068054e-05
539.9549999996299,0.001182145,539.9549999996299,1.622938e-05,539.9549999996299,0.0001096722,539.9549999996299,1.036868e-05
539.9699999996299,0.001102154,539.9699999996299,1.618244e-05,539.9699999996299,0.0001078359,539.9699999996299,1.019883e-05
539.9849999996298,0.001089707,539.9849999996298,1.678157e-05,539.9849999996298,0.0001033521,539.9849999996298,9.890295e-06
539.9999999996298,0.001199848,539.9999999996298,1.749823e-05,539.9999999996298,0.0001241962,539.9999999996298,1.06197e-05
540.0149999996298,0.0014275,540.0149999996298,1.825626e-05,540.0149999996298,0.0001488973,540.0149999996298,1.174105e-05
540.0299999996298,0.001521612,540.0299999996298,1.905218e-05,540.0299999996298,0.000151204,540.0299999996298,1.180089e-05
540.0449999996298,0.001580866,540.0449999996298,1.977917e-05,540.0449999996298,0.0001666744,540.0449999996298,1.343004e-05
540.0599999996298,0.001751005,540.0599999996298,2.022496e-05,540.0599999996298,0.0001824079,540.0599999996298,1.397691e-05
540.0749999996298,0.001788582,540.0749999996298,2.024933e-05,540.0749999996298,0.0001830538,540.0749999996298,1.398598e-05
540.0899999996298,0.001764544,540.0899999996298,2.147487e-05,540.0899999996298,0.0001846517,540.0899999996298,1.396683e-05
540.1049999996297,0.001757634,540.1049999996297,2.187585e-05,540.1049999996297,0.0001892579,540.1049999996297,1.381676e-05
540.1199999996297,0.001764465,540.1199999996297,2.206946e-05,540.1199999996297,0.0001894393,540.1199999996297,1.387982e-05
540.1349999996297,0.001783958,540.1349999996297,2.332561e-05,540.1349999996297,0.0001912735,540.1349999996297,1.402521e-05
540.1499999996297,0.001751596,540.1499999996297,2.319176e-05,540.1499999996297,0.0001920818,540.1499999996297,1.391631e-05
540.1649999996297,0.001742853,540.1649999996297,2.238759e-05,540.1649999996297,0.00019233,540.1649999996297,1.300155e-05
540.1799999996297,0.001740051,540.1799999996297,2.360595e-05,540.1799999996297,0.0001906179,540.1799999996297,1.313843e-05
540.1949999996297,0.00170731,540.1949999996297,2.35456e-05,540.1949999996297,0.0001881775,540.1949999996297,1.330993e-05
540.2099999996296,0.001670873,540.2099999996296,2.474225e-05,540.2099999996296,0.0001889314,540.2099999996296,1.343843e-05
540.2249999996296,0.001649152,540.2249999996296,2.468012e-05,540.2249999996296,0.0001878849,540.2249999996296,1.337644e-05
540.2399999996296,0.001638654,540.2399999996296,2.400303e-05,540.2399999996296,0.0001823591,540.2399999996296,1.322925e-05
540.2549999996296,0.001510288,540.2549999996296,2.34076e-05,540.2549999996296,0.0001690691,540.2549999996296,1.226334e-05
540.2699999996296,0.001265587,540.2699999996296,2.298616e-05,540.2699999996296,0.0001504089,540.2699999996296,1.131085e-05
540.2849999996296,0.001171923,540.2849999996296,2.216373e-05,540.2849999996296,0.0001496219,540.2849999996296,1.093213e-05
540.2999999996296,0.001081372,540.2999999996296,2.154232e-05,540.2999999996296,0.0001336884,540.2999999996296,9.070073e-06
540.3149999996295,0.0009149734,540.3149999996295,2.092939e-05,540.3149999996295,0.000118242,540.3149999996295,8.89601e-06
540.3299999996295,0.0008879146,540.3299999996295,2.072853e-05,540.3299999996295,0.0001203706,540.3299999996295,8.826061e-06
540.3449999996295,0.0008989485,540.3449999996295,1.978344e-05,540.3449999996295,0.0001129738,540.3449999996295,8.049767e-06
540.3599999996295,0.0009102573,540.3599999996295,1.845731e-05,540.3599999996295,0.0001118879,540.3599999996295,7.961788e-06
540.3749999996295,0.0008648291,540.3749999996295,1.581884e-05,540.3749999996295,0.0001079607,540.3749999996295,7.50457e-06
540.3899999996295,0.0007694156,540.3899999996295,1.552764e-05,540.3899999996295,0.0001012573,540.3899999996295,7.375824e-06
540.4049999996295,0.0007635924,540.4049999996295,1.642266e-05,540.4049999996295,0.0001013155,540.4049999996295,7.616361e-06
540.4199999996295,0.0008266866,540.4199999996295,1.591738e-05,540.4199999996295,0.0001007161,540.4199999996295,7.781039e-06
540.4349999996294,0.0007953841,540.4349999996294,1.42098e-05,540.4349999996294,9.727714e-05,540.4349999996294,7.817162e-06
540.4499999996294,0.000750604,540.4499999996294,1.15974e-05,540.4499999996294,9.278647e-05,540.4499999996294,7.117283e-06
540.4649999996294,0.0007079503,540.4649999996294,1.081944e-05,540.4649999996294,9.153556e-05,540.4649999996294,7.237009e-06
540.4799999996294,0.0008153251,540.4799999996294,1.336168e-05,540.4799999996294,0.0001106458,540.4799999996294,7.302889e-06
540.4949999996294,0.001048863,540.4949999996294,1.388287e-05,540.4949999996294,0.0001243615,540.4949999996294,7.693649e-06
540.5099999996294,0.001064364,540.5099999996294,1.599331e-05,540.5099999996294,0.0001277299,540.5099999996294,8.03926e-06
540.5249999996294,0.001122263,540.5249999996294,1.685026e-05,540.5249999996294,0.0001392598,540.5249999996294,8.019962e-06
540.5399999996293,0.001115398,540.5399999996293,1.683269e-05,540.5399999996293,0.0001379056,540.5399999996293,8.253678e-06
540.5549999996293,0.001104103,540.5549999996293,1.704558e-05,540.5549999996293,0.0001379093,540.5549999996293,8.355453e-06
540.5699999996293,0.001150448,540.5699999996293,1.795046e-05,540.5699999996293,0.0001441135,540.5699999996293,1.045527e-05
540.5849999996293,0.001371501,540.5849999996293,1.776984e-05,540.5849999996293,0.0001524131,540.5849999996293,1.126967e-05
540.5999999996293,0.001438643,540.5999999996293,1.868035e-05,540.5999999996293,0.0001517602,540.5999999996293,1.159618e-05
540.6149999996293,0.001423128,540.6149999996293,1.972782e-05,540.6149999996293,0.0001552686,540.6149999996293,1.163257e-05
540.6299999996293,0.001456577,540.6299999996293,2.051815e-05,540.6299999996293,0.0001597425,540.6299999996293,1.188297e-05
540.6449999996292,0.001540385,540.6449999996292,2.03866e-05,540.6449999996292,0.0001663009,540.6449999996292,1.188652e-05
540.6599999996292,0.001535114,540.6599999996292,1.991685e-05,540.6599999996292,0.0001634553,540.6599999996292,1.170621e-05
540.6749999996292,0.001542239,540.6749999996292,2.036794e-05,540.6749999996292,0.0001654431,540.6749999996292,1.155968e-05
540.6899999996292,0.001599252,540.6899999996292,2.188229e-05,540.6899999996292,0.0001694486,540.6899999996292,1.171583e-05
540.7049999996292,0.001885033,540.7049999996292,2.369589e-05,540.7049999996292,0.0001797205,540.7049999996292,1.2015e-05
540.7199999996292,0.002099315,540.7199999996292,2.564086e-05,540.7199999996292,0.0001920899,540.7199999996292,1.2015e-05
540.7349999996292,0.002153304,540.7349999996292,2.801625e-05,540.7349999996292,0.0001929945,540.7349999996292,1.460385e-05
540.7499999996292,0.002516867,540.7499999996292,3.457287e-05,540.7499999996292,0.0003519609,540.7499999996292,2.367269e-05
540.7649999996291,0.002851064,540.7649999996291,3.73392e-05,540.7649999996291,0.0004526115,540.7649999996291,2.547607e-05
540.7799999996291,0.003119799,540.7799999996291,3.753448e-05,540.7799999996291,0.0004722767,540.7799999996291,2.923036e-05
540.7949999996291,0.003292641,540.7949999996291,4.348656e-05,540.7949999996291,0.0005885437,540.7949999996291,3.305394e-05
540.8099999996291,0.003575831,540.8099999996291,4.869306e-05,540.8099999996291,0.0007719556,540.8099999996291,4.655147e-05
540.8249999996291,0.003714027,540.8249999996291,5.040846e-05,540.8249999996291,0.000800441,540.8249999996291,4.855893e-05
540.8399999996291,0.003636748,540.8399999996291,5.180753e-05,540.8399999996291,0.0007997541,540.8399999996291,6.315304e-05
540.8549999996291,0.003671845,540.8549999996291,5.427399e-05,540.8549999996291,0.000801968,540.8549999996291,7.038969e-05
540.869999999629,0.003831101,540.869999999629,5.451871e-05,540.869999999629,0.0008085951,540.869999999629,7.874956e-05
540.884999999629,0.00392369,540.884999999629,5.527569e-05,540.884999999629,0.0008505313,540.884999999629,7.94872e-05
540.899999999629,0.003966609,540.899999999629,5.689842e-05,540.899999999629,0.0008721065,540.899999999629,8.120677e-05
540.914999999629,0.003983306,540.914999999629,6.082491e-05,540.914999999629,0.0008846148,540.914999999629,8.248471e-05
540.929999999629,0.004222495,540.929999999629,6.266534e-05,540.929999999629,0.0008970004,540.929999999629,8.270097e-05
540.944999999629,0.004476592,540.944999999629,6.286329e-05,540.944999999629,0.0008954139,540.944999999629,8.279613e-05
540.959999999629,0.004578606,540.959999999629,6.461978e-05,540.959999999629,0.0008930667,540.959999999629,8.292704e-05
540.974999999629,0.00454942,540.974999999629,6.427684e-05,540.974999999629,0.0008975741,540.974999999629,8.334404e-05
540.9899999996289,0.004489975,540.9899999996289,6.198093e-05,540.9899999996289,0.00089422,540.9899999996289,8.252586e-05
541.0049999996289,0.00431312,541.0049999996289,5.961059e-05,541.0049999996289,0.0008309803,541.0049999996289,8.043728e-05
541.0199999996289,0.004254888,541.0199999996289,5.848215e-05,541.0199999996289,0.0007949743,541.0199999996289,8.201681e-05
541.0349999996289,0.00425488,541.0349999996289,5.966303e-05,541.0349999996289,0.0008128374,541.0349999996289,8.50214e-05
541.0499999996289,0.004287644,541.0499999996289,5.51711e-05,541.0499999996289,0.0006858695,541.0499999996289,8.219336e-05
541.0649999996289,0.004115703,541.0649999996289,5.300343e-05,541.0649999996289,0.0005164434,541.0649999996289,7.679575e-05
541.0799999996289,0.004165047,541.0799999996289,0.0001852289,541.0799999996289,0.001071592,541.0799999996289,0.0002012598
541.0949999996288,0.004376004,541.0949999996288,0.0002274487,541.0949999996288,0.001434291,541.0949999996288,0.0002305139
541.1099999996288,0.004418129,541.1099999996288,0.0002314718,541.1099999996288,0.001498756,541.1099999996288,0.0002329273
541.1249999996288,0.004437416,541.1249999996288,0.0002326942,541.1249999996288,0.001535141,541.1249999996288,0.0002323614
541.1399999996288,0.004529089,541.1399999996288,0.0002328292,541.1399999996288,0.001524361,541.1399999996288,0.0002325146
541.1549999996288,0.004562264,541.1549999996288,0.0002328451,541.1549999996288,0.001533728,541.1549999996288,0.00023202
541.1699999996288,0.004613209,541.1699999996288,0.0002322864,541.1699999996288,0.001552031,541.1699999996288,0.0002318826
541.1849999996288,0.004615076,541.1849999996288,0.0002319905,541.1849999996288,0.001551402,541.1849999996288,0.0002318334
541.1999999996287,0.004600233,541.1999999996287,0.0002317001,541.1999999996287,0.001554686,541.1999999996287,0.0002317966
541.2149999996287,0.004490121,541.2149999996287,0.0002313653,541.2149999996287,0.001562231,541.2149999996287,0.0002317351
541.2299999996287,0.00456403,541.2299999996287,0.0002318973,541.2299999996287,0.001582533,541.2299999996287,0.0002319666
541.2449999996287,0.004766055,541.2449999996287,0.0002327716,541.2449999996287,0.001627993,541.2449999996287,0.0002327695
541.2599999996287,0.004964855,541.2599999996287,0.0002327611,541.2599999996287,0.001634586,541.2599999996287,0.0002326733
541.2749999996287,0.004956518,541.2749999996287,0.0002326845,541.2749999996287,0.001631397,541.2749999996287,0.0002313516
541.2899999996287,0.004756799,541.2899999996287,0.0002325851,541.2899999996287,0.001629703,541.2899999996287,0.0002304399
541.3049999996286,0.004600195,541.3049999996286,0.0002323931,541.3049999996286,0.001628212,541.3049999996286,0.0002300886
541.3199999996286,0.004535944,541.3199999996286,0.0002322437,541.3199999996286,0.001624513,541.3199999996286,0.000229877
541.3349999996286,0.004530846,541.3349999996286,0.0001183565,541.3349999996286,0.001082786,541.3349999996286,0.0001110574
541.3499999996286,0.004396365,541.3499999996286,5.912679e-05,541.3499999996286,0.0008541947,541.3499999996286,5.077877e-05
541.3649999996286,0.004284998,541.3649999996286,4.608768e-05,541.3649999996286,0.0007330159,541.3649999996286,3.441646e-05
541.3799999996286,0.004162346,541.3799999996286,4.462265e-05,541.3799999996286,0.0007090203,541.3799999996286,3.115221e-05
541.3949999996286,0.003959753,541.3949999996286,4.490116e-05,541.3949999996286,0.0007010379,541.3949999996286,3.089156e-05
541.4099999996286,0.003832405,541.4099999996286,4.051743e-05,541.4099999996286,0.0006322936,541.4099999996286,2.893489e-05
541.4249999996285,0.003580107,541.4249999996285,3.847447e-05,541.4249999996285,0.0005697106,541.4249999996285,2.859306e-05
541.4399999996285,0.003271044,541.4399999996285,3.81834e-05,541.4399999996285,0.0005607688,541.4399999996285,2.867423e-05
541.4549999996285,0.002980525,541.4549999996285,3.789194e-05,541.4549999996285,0.0005560542,541.4549999996285,2.863638e-05
541.4699999996285,0.002930547,541.4699999996285,3.734598e-05,541.4699999996285,0.0005370769,541.4699999996285,2.858862e-05
541.4849999996285,0.002819287,541.4849999996285,3.050519e-05,541.4849999996285,0.0004379138,541.4849999996285,2.260176e-05
541.4999999996285,0.002660142,541.4999999996285,2.478662e-05,541.4999999996285,0.0002778862,541.4999999996285,1.630645e-05
541.5149999996285,0.002539695,541.5149999996285,2.466984e-05,541.5149999996285,0.0002745462,541.5149999996285,2.693078e-05
541.5299999996284,0.002486052,541.5299999996284,2.52595e-05,541.5299999996284,0.0002641639,541.5299999996284,3.806775e-05
541.5449999996284,0.002681776,541.5449999996284,2.594017e-05,541.5449999996284,0.0002452425,541.5449999996284,4.795115e-05
541.5599999996284,0.00261049,541.5599999996284,2.483148e-05,541.5599999996284,0.0002223068,541.5599999996284,4.796261e-05
541.5749999996284,0.002771464,541.5749999996284,2.518746e-05,541.5749999996284,0.0002231731,541.5749999996284,4.963004e-05
541.5899999996284,0.002967305,541.5899999996284,2.51225e-05,541.5899999996284,0.000226753,541.5899999996284,5.079069e-05
541.6049999996284,0.003094019,541.6049999996284,2.442711e-05,541.6049999996284,0.0002146395,541.6049999996284,5.088518e-05
541.6199999996284,0.002933842,541.6199999996284,2.50208e-05,541.6199999996284,0.0002028376,541.6199999996284,5.197069e-05
541.6349999996283,0.002946719,541.6349999996283,2.449391e-05,541.6349999996283,0.0002031894,541.6349999996283,5.251616e-05
541.6499999996283,0.002984309,541.6499999996283,2.569574e-05,541.6499999996283,0.0001971949,541.6499999996283,5.24598e-05
541.6649999996283,0.002976201,541.6649999996283,2.588092e-05,541.6649999996283,0.0001989063,541.6649999996283,5.267311e-05
541.6799999996283,0.00298541,541.6799999996283,2.587003e-05,541.6799999996283,0.0002000833,541.6799999996283,5.264743e-05
541.6949999996283,0.002952423,541.6949999996283,2.605018e-05,541.6949999996283,0.0002022741,541.6949999996283,5.273165e-05
541.7099999996283,0.002941282,541.7099999996283,2.624037e-05,541.7099999996283,0.0002055663,541.7099999996283,5.278051e-05
541.7249999996283,0.002982561,541.7249999996283,2.666215e-05,541.7249999996283,0.0002064246,541.7249999996283,5.291486e-05
541.7399999996283,0.003095608,541.7399999996283,2.63705e-05,541.7399999996283,0.0002078461,541.7399999996283,5.272818e-05
541.7549999996282,0.003136082,541.7549999996282,2.64553e-05,541.7549999996282,0.0002082816,541.7549999996282,5.236762e-05
541.7699999996282,0.002911828,541.7699999996282,2.478378e-05,541.7699999996282,0.0001881948,541.7699999996282,4.339869e-05
541.7849999996282,0.002740759,541.7849999996282,2.237878e-05,541.7849999996282,0.0001619034,541.7849999996282,3.38236e-05
541.7999999996282,0.00260753,541.7999999996282,2.128776e-05,541.7999999996282,0.0001435105,541.7999999996282,2.820167e-05
541.8149999996282,0.002599741,541.8149999996282,2.147814e-05,541.8149999996282,0.0001502529,541.8149999996282,2.779312e-05
541.8299999996282,0.002276598,541.8299999996282,2.095697e-05,541.8299999996282,0.0001506026,541.8299999996282,2.311388e-05
541.8449999996282,0.001813402,541.8449999996282,2.092199e-05,541.8449999996282,0.0001455537,541.8449999996282,2.198248e-05
541.8599999996281,0.001600348,541.8599999996281,2.049342e-05,541.8599999996281,0.0001524403,541.8599999996281,2.145649e-05
541.8749999996281,0.001589796,541.8749999996281,2.07618e-05,541.8749999996281,0.0001565671,541.8749999996281,1.998675e-05
541.8899999996281,0.001561074,541.8899999996281,1.934276e-05,541.8899999996281,0.0001561171,541.8899999996281,1.95283e-05
541.9049999996281,0.00171631,541.9049999996281,1.855323e-05,541.9049999996281,0.0001551017,541.9049999996281,1.940311e-05
541.9199999996281,0.001915639,541.9199999996281,2.301066e-05,541.9199999996281,0.0001776656,541.9199999996281,1.950232e-05
541.9349999996281,0.002001673,541.9349999996281,2.644305e-05,541.9349999996281,0.000190914,541.9349999996281,2.003884e-05
541.9499999996281,0.002065108,541.9499999996281,3.088153e-05,541.9499999996281,0.0002636698,541.9499999996281,2.443345e-05
541.964999999628,0.002567073,541.964999999628,3.798514e-05,541.964999999628,0.0003229892,541.964999999628,2.607936e-05
541.979999999628,0.002714684,541.979999999628,3.860678e-05,541.979999999628,0.0003789141,541.979999999628,3.144431e-05
541.994999999628,0.002771406,541.994999999628,4.188301e-05,541.994999999628,0.0004920424,541.994999999628,3.351105e-05
542.009999999628,0.002966421,542.009999999628,4.254837e-05,542.009999999628,0.0005044155,542.009999999628,3.704909e-05
542.024999999628,0.003300532,542.024999999628,4.254837e-05,542.024999999628,0.0005158035,542.024999999628,4.26152e-05
542.039999999628,0.003499876,542.039999999628,4.307745e-05,542.039999999628,0.0005172576,542.039999999628,4.34548e-05
542.054999999628,0.003578017,542.054999999628,4.528634e-05,542.054999999628,0.0005187397,542.054999999628,4.932341e-05
542.069999999628,0.003760002,542.069999999628,4.665726e-05,542.069999999628,0.0005168212,542.069999999628,5.088795e-05
542.0849999996279,0.003867376,542.0849999996279,4.782231e-05,542.0849999996279,0.0005275987,542.0849999996279,5.845397e-05
542.0999999996279,0.003882793,542.0999999996279,4.888939e-05,542.0999999996279,0.0005448947,542.0999999996279,6.051076e-05
542.1149999996279,0.003958344,542.1149999996279,4.894266e-05,542.1149999996279,0.0005547309,542.1149999996279,6.072594e-05
542.1299999996279,0.003987018,542.1299999996279,4.870145e-05,542.1299999996279,0.0005569078,542.1299999996279,6.372416e-05
542.1449999996279,0.004028756,542.1449999996279,4.938848e-05,542.1449999996279,0.0005659033,542.1449999996279,6.772067e-05
542.1599999996279,0.004002732,542.1599999996279,4.943723e-05,542.1599999996279,0.0005664077,542.1599999996279,6.883476e-05
542.1749999996279,0.004137441,542.1749999996279,4.747256e-05,542.1749999996279,0.0005701143,542.1749999996279,7.544427e-05
542.1899999996278,0.004253255,542.1899999996278,4.761449e-05,542.1899999996278,0.0005805792,542.1899999996278,7.979832e-05
542.2049999996278,0.004384523,542.2049999996278,4.416604e-05,542.2049999996278,0.0005538234,542.2049999996278,7.995916e-05
542.2199999996278,0.004408037,542.2199999996278,4.170539e-05,542.2199999996278,0.000544087,542.2199999996278,8.013198e-05
542.2349999996278,0.004365581,542.2349999996278,4.2707e-05,542.2349999996278,0.0004934893,542.2349999996278,8.114569e-05
542.2499999996278,0.00444463,542.2499999996278,6.965541e-05,542.2499999996278,0.0008181453,542.2499999996278,0.0001033059
542.2649999996278,0.004559988,542.2649999996278,0.0001039242,542.2649999996278,0.001243989,542.2649999996278,0.0001263036
542.2799999996278,0.004467557,542.2799999996278,0.0001164207,542.2799999996278,0.001370526,542.2799999996278,0.0001348362
542.2949999996277,0.004467887,542.2949999996277,0.0001176775,542.2949999996277,0.001437069,542.2949999996277,0.0001353897
542.3099999996277,0.004332095,542.3099999996277,0.0001172254,542.3099999996277,0.001442549,542.3099999996277,0.0001332001
542.3249999996277,0.00412949,542.3249999996277,0.0001165727,542.3249999996277,0.001442383,542.3249999996277,0.0001324486
542.3399999996277,0.004105786,542.3399999996277,0.0001164308,542.3399999996277,0.001440565,542.3399999996277,0.0001300722
542.3549999996277,0.004150315,542.3549999996277,0.0001162603,542.3549999996277,0.001432504,542.3549999996277,0.0001294537
542.3699999996277,0.004196315,542.3699999996277,0.0001164453,542.3699999996277,0.001433984,542.3699999996277,0.0001292679
542.3849999996277,0.004333887,542.3849999996277,0.0001163764,542.3849999996277,0.001436765,542.3849999996277,0.0001277177
542.3999999996277,0.004300711,542.3999999996277,0.0001162148,542.3999999996277,0.001437867,542.3999999996277,0.0001260273
542.4149999996276,0.004218683,542.4149999996276,0.0001156243,542.4149999996276,0.001435514,542.4149999996276,0.0001248352
542.4299999996276,0.004027866,542.4299999996276,0.0001146959,542.4299999996276,0.001426472,542.4299999996276,0.0001200306
542.4449999996276,0.003800077,542.4449999996276,0.000114251,542.4449999996276,0.001419105,542.4449999996276,0.000117194
542.4599999996276,0.003570487,542.4599999996276,0.0001142231,542.4599999996276,0.001416321,542.4599999996276,0.0001167865
542.4749999996276,0.003222569,542.4749999996276,0.0001140911,542.4749999996276,0.001414068,542.4749999996276,0.0001162047
542.4899999996276,0.003048345,542.4899999996276,0.0001129403,542.4899999996276,0.001401976,542.4899999996276,0.0001133007
542.5049999996276,0.002891732,542.5049999996276,7.440324e-05,542.5049999996276,0.0009132624,542.5049999996276,7.225457e-05
542.5199999996275,0.002807251,542.5199999996275,3.835052e-05,542.5199999996275,0.000601155,542.5199999996275,3.839971e-05
542.5349999996275,0.002628312,542.5349999996275,2.639719e-05,542.5349999996275,0.0004409803,542.5349999996275,2.608315e-05
542.5499999996275,0.002598355,542.5499999996275,2.100665e-05,542.5499999996275,0.0002434641,542.5499999996275,1.99663e-05
542.5649999996275,0.002771399,542.5649999996275,2.190481e-05,542.5649999996275,0.0002481109,542.5649999996275,2.030351e-05
542.5799999996275,0.00292319,542.5799999996275,2.12818e-05,542.5799999996275,0.000251825,542.5799999996275,2.099525e-05
542.5949999996275,0.002671645,542.5949999996275,2.148929e-05,542.5949999996275,0.0002427684,542.5949999996275,1.991332e-05
542.6099999996275,0.002661721,542.6099999996275,2.351987e-05,542.6099999996275,0.0002768591,542.6099999996275,2.282688e-05
542.6249999996274,0.002802654,542.6249999996274,2.31285e-05,542.6249999996274,0.0002731798,542.6249999996274,2.094756e-05
542.6399999996274,0.002847104,542.6399999996274,2.372381e-05,542.6399999996274,0.0002619845,542.6399999996274,2.01531e-05
542.6549999996274,0.002939633,542.6549999996274,2.331292e-05,542.6549999996274,0.0002442191,542.6549999996274,2.004657e-05
542.6699999996274,0.003046267,542.6699999996274,2.349949e-05,542.6699999996274,0.0002435017,542.6699999996274,1.979127e-05
542.6849999996274,0.003089096,542.6849999996274,2.367269e-05,542.6849999996274,0.0002397964,542.6849999996274,1.984458e-05
542.6999999996274,0.003089458,542.6999999996274,2.386353e-05,542.6999999996274,0.0002387149,542.6999999996274,1.997618e-05
542.7149999996274,0.003024797,542.7149999996274,2.414113e-05,542.7149999996274,0.0002430035,542.7149999996274,2.069044e-05
542.7299999996274,0.003258809,542.7299999996274,2.374696e-05,542.7299999996274,0.0002657914,542.7299999996274,2.133733e-05
542.7449999996273,0.003540055,542.7449999996273,2.412187e-05,542.7449999996273,0.0002756717,542.7449999996273,2.149257e-05
542.7599999996273,0.003643496,542.7599999996273,2.378904e-05,542.7599999996273,0.0002731637,542.7599999996273,2.226455e-05
542.7749999996273,0.003586137,542.7749999996273,2.430629e-05,542.7749999996273,0.000270982,542.7749999996273,2.24184e-05
542.7899999996273,0.003531232,542.7899999996273,2.397425e-05,542.7899999996273,0.0002727739,542.7899999996273,2.244729e-05
542.8049999996273,0.003516763,542.8049999996273,2.317049e-05,542.8049999996273,0.0002666624,542.8049999996273,2.1881e-05
542.8199999996273,0.003388199,542.8199999996273,2.389539e-05,542.8199999996273,0.0002537245,542.8199999996273,2.038453e-05
542.8349999996273,0.003166095,542.8349999996273,2.365067e-05,542.8349999996273,0.0002291246,542.8349999996273,1.872027e-05
542.8499999996272,0.003034972,542.8499999996272,2.226898e-05,542.8499999996272,0.0002198759,542.8499999996272,1.774921e-05
542.8649999996272,0.002925063,542.8649999996272,2.205925e-05,542.8649999996272,0.0001873335,542.8649999996272,1.50999e-05
542.8799999996272,0.002824987,542.8799999996272,2.095495e-05,542.8799999996272,0.0001773367,542.8799999996272,1.454876e-05
542.8949999996272,0.002692454,542.8949999996272,2.120355e-05,542.8949999996272,0.000167149,542.8949999996272,1.396078e-05
542.9099999996272,0.002534203,542.9099999996272,2.118561e-05,542.9099999996272,0.0001628997,542.9099999996272,1.407033e-05
542.9249999996272,0.002381952,542.9249999996272,2.101805e-05,542.9249999996272,0.000161694,542.9249999996272,1.39749e-05
542.9399999996272,0.002295696,542.9399999996272,2.076859e-05,542.9399999996272,0.0001604256,542.9399999996272,1.395775e-05
542.9549999996271,0.002276455,542.9549999996271,2.065023e-05,542.9549999996271,0.0001590592,542.9549999996271,1.351473e-05
542.9699999996271,0.002192358,542.9699999996271,1.98055e-05,542.9699999996271,0.0001412555,542.9699999996271,1.120197e-05
542.9849999996271,0.001860759,542.9849999996271,2.004657e-05,542.9849999996271,9.869278e-05,542.9849999996271,1.055317e-05
542.9999999996271,0.001339453,542.9999999996271,1.971353e-05,542.9999999996271,7.925844e-05,542.9999999996271,1.019192e-05
543.0149999996271,0.0009054425,543.0149999996271,1.940239e-05,543.0149999996271,8.170363e-05,543.0149999996271,8.77805e-06
543.0299999996271,0.0006681628,543.0299999996271,1.87007e-05,543.0299999996271,8.251578e-05,543.0299999996271,8.728161e-06
543.0449999996271,0.0008573665,543.0449999996271,1.861008e-05,543.0449999996271,8.006673e-05,543.0449999996271,8.930779e-06
543.059999999627,0.001078648,543.059999999627,1.881335e-05,543.059999999627,8.013233e-05,543.059999999627,9.158172e-06
543.074999999627,0.001069578,543.074999999627,1.850305e-05,543.074999999627,7.965291e-05,543.074999999627,9.49202e-06
543.089999999627,0.001200278,543.089999999627,1.701249e-05,543.089999999627,8.056029e-05,543.089999999627,1.033194e-05
543.104999999627,0.001538553,543.104999999627,1.603817e-05,543.104999999627,8.312131e-05,543.104999999627,1.176861e-05
543.119999999627,0.001630401,543.119999999627,1.643809e-05,543.119999999627,8.44235e-05,543.119999999627,1.194091e-05
543.134999999627,0.001622016,543.134999999627,1.664418e-05,543.134999999627,8.786759e-05,543.134999999627,1.177819e-05
543.149999999627,0.001579365,543.149999999627,1.579746e-05,543.149999999627,8.839394e-05,543.149999999627,1.204428e-05
543.164999999627,0.001622689,543.164999999627,1.626233e-05,543.164999999627,9.255329e-05,543.164999999627,1.259988e-05
543.179999999627,0.001807615,543.179999999627,1.639003e-05,543.179999999627,9.527097e-05,543.179999999627,1.309654e-05
543.1949999996269,0.002064638,543.1949999996269,1.676561e-05,543.1949999996269,0.0001046478,543.1949999996269,1.347297e-05
543.2099999996269,0.002335381,543.2099999996269,1.726891e-05,543.2099999996269,0.0001036057,543.2099999996269,1.399706e-05
543.2249999996269,0.002500009,543.2249999996269,1.741997e-05,543.2249999996269,0.0001032862,543.2249999996269,1.431942e-05
543.2399999996269,0.00250612,543.2399999996269,1.76601e-05,543.2399999996269,0.0001132143,543.2399999996269,1.602587e-05
543.2549999996269,0.002737577,543.2549999996269,1.924492e-05,543.2549999996269,0.0001437584,543.2549999996269,2.043078e-05
543.2699999996269,0.002960509,543.2699999996269,1.934494e-05,543.2699999996269,0.0001521873,543.2699999996269,2.098585e-05
543.2849999996268,0.003036494,543.2849999996268,2.023193e-05,543.2849999996268,0.0001566358,543.2849999996268,2.252684e-05
543.2999999996268,0.003317043,543.2999999996268,2.16213e-05,543.2999999996268,0.0001857761,543.2999999996268,3.021986e-05
543.3149999996268,0.003561649,543.3149999996268,2.162847e-05,543.3149999996268,0.0001920041,543.3149999996268,3.038488e-05
543.3299999996268,0.003770424,543.3299999996268,2.128313e-05,543.3299999996268,0.0001958163,543.3299999996268,3.035474e-05
543.3449999996268,0.00378466,543.3449999996268,2.388419e-05,543.3449999996268,0.0002106322,543.3449999996268,3.598517e-05
543.3599999996268,0.003923016,543.3599999996268,2.649573e-05,543.3599999996268,0.0002446486,543.3599999996268,4.435637e-05
543.3749999996268,0.004124677,543.3749999996268,2.704353e-05,543.3749999996268,0.0002488607,543.3749999996268,4.579117e-05
543.3899999996268,0.004180267,543.3899999996268,2.85472e-05,543.3899999996268,0.0002546188,543.3899999996268,5.295318e-05
543.4049999996267,0.004268567,543.4049999996267,2.877966e-05,543.4049999996267,0.0002543037,543.4049999996267,5.416774e-05
543.4199999996267,0.004262792,543.4199999996267,2.899034e-05,543.4199999996267,0.0002560319,543.4199999996267,5.446313e-05
543.4349999996267,0.004224203,543.4349999996267,2.946937e-05,543.4349999996267,0.0002610628,543.4349999996267,5.45523e-05
543.4499999996267,0.004218251,543.4499999996267,3.115763e-05,543.4499999996267,0.0002850042,543.4499999996267,5.445382e-05
543.4649999996267,0.004169618,543.4649999996267,3.079885e-05,543.4649999996267,0.0002920054,543.4649999996267,5.420283e-05
543.4799999996267,0.004147818,543.4799999996267,3.092711e-05,543.4799999996267,0.0002918619,543.4799999996267,5.423635e-05
543.4949999996267,0.004104474,543.4949999996267,3.027016e-05,543.4949999996267,0.0002825791,543.4949999996267,5.36388e-05
543.5099999996266,0.003915051,543.5099999996266,3.034499e-05,543.5099999996266,0.0002791951,543.5099999996266,5.224859e-05
543.5249999996266,0.003954114,543.5249999996266,3.168263e-05,543.5249999996266,0.0002945156,543.5249999996266,5.226126e-05
543.5399999996266,0.004134623,543.5399999996266,3.225327e-05,543.5399999996266,0.0003012593,543.5399999996266,5.004779e-05
543.5549999996266,0.00401312,543.5549999996266,3.02534e-05,543.5549999996266,0.0002855743,543.5549999996266,4.706279e-05
543.5699999996266,0.003782836,543.5699999996266,2.999293e-05,543.5699999996266,0.0002807004,543.5699999996266,4.696331e-05
543.5849999996266,0.003516368,543.5849999996266,3.024176e-05,543.5849999996266,0.0002823624,543.5849999996266,4.667386e-05
543.5999999996266,0.003404761,543.5999999996266,2.727847e-05,543.5999999996266,0.000266,543.5999999996266,3.933335e-05
543.6149999996265,0.003175665,543.6149999996265,2.622587e-05,543.6149999996265,0.0002441405,543.6149999996265,3.272199e-05
543.6299999996265,0.002933137,543.6299999996265,2.524723e-05,543.6299999996265,0.000241946,543.6299999996265,2.911398e-05
543.6449999996265,0.002802186,543.6449999996265,2.418194e-05,543.6449999996265,0.0002383176,543.6449999996265,1.537539e-05
543.6599999996265,0.002706248,543.6599999996265,2.42221e-05,543.6599999996265,0.0002439232,543.6599999996265,1.31545e-05
543.6749999996265,0.002783924,543.6749999996265,2.42651e-05,543.6749999996265,0.0002444539,543.6749999996265,1.196213e-05
543.6899999996265,0.002735669,543.6899999996265,2.195748e-05,543.6899999996265,0.0002281958,543.6899999996265,1.210494e-05
543.7049999996265,0.002540951,543.7049999996265,2.104484e-05,543.7049999996265,0.0002048032,543.7049999996265,1.21189e-05
543.7199999996265,0.002369351,543.7199999996265,2.129305e-05,543.7199999996265,0.0001987611,543.7199999996265,1.215488e-05
543.7349999996264,0.002283045,543.7349999996264,2.185523e-05,543.7349999996264,0.0001984342,543.7349999996264,1.201969e-05
543.7499999996264,0.0022669,543.7499999996264,2.155997e-05,543.7499999996264,0.0001957979,543.7499999996264,1.147161e-05
543.7649999996264,0.002156785,543.7649999996264,1.972068e-05,543.7649999996264,0.0001792295,543.7649999996264,1.248871e-05
543.7799999996264,0.001798811,543.7799999996264,1.788284e-05,543.7799999996264,0.0001503709,543.7799999996264,1.273333e-05
543.7949999996264,0.001374756,543.7949999996264,1.915615e-05,543.7949999996264,0.0001301704,543.7949999996264,1.242765e-05
543.8099999996264,0.00116985,543.8099999996264,1.901666e-05,543.8099999996264,0.0001261404,543.8099999996264,1.247403e-05
543.8249999996264,0.001105565,543.8249999996264,1.890299e-05,543.8249999996264,0.000123501,543.8249999996264,1.235831e-05
543.8399999996263,0.001108018,543.8399999996263,1.867808e-05,543.8399999996263,0.0001178657,543.8399999996263,1.286212e-05
543.8549999996263,0.0011101,543.8549999996263,1.865771e-05,543.8549999996263,0.0001156867,543.8549999996263,1.294617e-05
543.8699999996263,0.001100716,543.8699999996263,1.839539e-05,543.8699999996263,0.0001123023,543.8699999996263,1.216067e-05
543.8849999996263,0.001096957,543.8849999996263,1.787259e-05,543.8849999996263,0.0001119743,543.8849999996263,1.182116e-05
543.8999999996263,0.001035637,543.8999999996263,1.922515e-05,543.8999999996263,0.000108743,543.8999999996263,1.14802e-05
543.9149999996263,0.0008605785,543.9149999996263,1.906105e-05,543.9149999996263,8.548257e-05,543.9149999996263,1.145194e-05
543.9299999996263,0.0006661203,543.9299999996263,1.912524e-05,543.9299999996263,7.528371e-05,543.9299999996263,1.135311e-05
543.9449999996262,0.0006410248,543.9449999996262,2.058396e-05,543.9449999996262,7.321652e-05,543.9449999996262,1.09347e-05
543.9599999996262,0.0006448823,543.9599999996262,2.096436e-05,543.9599999996262,6.721435e-05,543.9599999996262,1.141992e-05
543.9749999996262,0.0006239615,543.9749999996262,2.022496e-05,543.9749999996262,5.79148e-05,543.9749999996262,1.147652e-05
543.9899999996262,0.0005459433,543.9899999996262,2.034164e-05,543.9899999996262,5.207791e-05,543.9899999996262,1.138285e-05
544.0049999996262,0.000533222,544.0049999996262,2.084239e-05,544.0049999996262,4.995849e-05,544.0049999996262,1.146178e-05
544.0199999996262,0.0005677064,544.0199999996262,2.056068e-05,544.0199999996262,5.415603e-05,544.0199999996262,1.074235e-05
544.0349999996262,0.0005723814,544.0349999996262,2.070949e-05,544.0349999996262,5.908556e-05,544.0349999996262,1.132827e-05
544.0499999996262,0.0005990777,544.0499999996262,2.038453e-05,544.0499999996262,6.085872e-05,544.0499999996262,1.191611e-05
544.0649999996261,0.000619626,544.0649999996261,2.093411e-05,544.0649999996261,5.839055e-05,544.0649999996261,1.223919e-05
544.0799999996261,0.0008805737,544.0799999996261,2.154232e-05,544.0799999996261,5.943996e-05,544.0799999996261,1.415518e-05
544.0949999996261,0.0009324633,544.0949999996261,2.17415e-05,544.0949999996261,6.63979e-05,544.0949999996261,1.398497e-05
544.1099999996261,0.00115578,544.1099999996261,2.357012e-05,544.1099999996261,9.475026e-05,544.1099999996261,1.760978e-05
544.1249999996261,0.001301049,544.1249999996261,2.524667e-05,544.1249999996261,0.0001055954,544.1249999996261,1.839309e-05
544.1399999996261,0.001780363,544.1399999996261,3.016994e-05,544.1399999996261,0.0001919186,544.1399999996261,2.44248e-05
544.154999999626,0.001990862,544.154999999626,3.589698e-05,544.154999999626,0.0004468033,544.154999999626,3.050565e-05
544.169999999626,0.00230628,544.169999999626,5.742382e-05,544.169999999626,0.0006905062,544.169999999626,5.62305e-05
544.184999999626,0.002725413,544.184999999626,6.293652e-05,544.184999999626,0.0009286319,544.184999999626,6.197047e-05
544.199999999626,0.003057508,544.199999999626,6.353842e-05,544.199999999626,0.0009523235,544.199999999626,6.570371e-05
544.214999999626,0.003313064,544.214999999626,6.574208e-05,544.214999999626,0.0009927746,544.214999999626,6.710947e-05
544.229999999626,0.00353215,544.229999999626,7.601032e-05,544.229999999626,0.001201234,544.229999999626,7.312546e-05
544.244999999626,0.003782736,544.244999999626,7.986185e-05,544.244999999626,0.001353032,544.244999999626,7.809031e-05
544.259999999626,0.003995795,544.259999999626,8.029161e-05,544.259999999626,0.001356673,544.259999999626,7.869964e-05
544.274999999626,0.00416053,544.274999999626,8.140654e-05,544.274999999626,0.001365818,544.274999999626,8.232881e-05
544.2899999996259,0.004244664,544.2899999996259,8.722106e-05,544.2899999996259,0.001442006,544.2899999996259,8.862567e-05
544.3049999996259,0.004302268,544.3049999996259,8.782558e-05,544.3049999996259,0.001482275,544.3049999996259,9.04452e-05
544.3199999996259,0.004400711,544.3199999996259,8.858338e-05,544.3199999996259,0.001487708,544.3199999996259,9.038475e-05
544.3349999996259,0.004427698,544.3349999996259,8.872496e-05,544.3349999996259,0.001488571,544.3349999996259,9.043742e-05
544.3499999996259,0.004562541,544.3499999996259,9.066438e-05,544.3499999996259,0.001489397,544.3499999996259,9.042775e-05
544.3649999996259,0.004702471,544.3649999996259,9.055478e-05,544.3649999996259,0.001489098,544.3649999996259,9.028792e-05
544.3799999996259,0.004785459,544.3799999996259,9.102708e-05,544.3799999996259,0.001491579,544.3799999996259,9.028323e-05
544.3949999996258,0.004800671,544.3949999996258,8.790927e-05,544.3949999996258,0.00145907,544.3949999996258,8.795493e-05
544.4099999996258,0.004804674,544.4099999996258,8.436909e-05,544.4099999996258,0.001406739,544.4099999996258,8.392092e-05
544.4249999996258,0.004761351,544.4249999996258,7.185869e-05,544.4249999996258,0.001265133,544.4249999996258,6.938856e-05
544.4399999996258,0.00465484,544.4399999996258,6.891065e-05,544.4399999996258,0.001149994,544.4399999996258,6.814927e-05
544.4549999996258,0.004541975,544.4549999996258,6.839831e-05,544.4549999996258,0.001137449,544.4549999996258,6.613942e-05
544.4699999996258,0.004454342,544.4699999996258,6.49416e-05,544.4699999996258,0.001087962,544.4699999996258,6.547821e-05
544.4849999996258,0.004430141,544.4849999996258,0.0001428835,544.4849999996258,0.001190656,544.4849999996258,0.0001433221
544.4999999996257,0.004391612,544.4999999996257,0.0001810564,544.4999999996257,0.001436843,544.4999999996257,0.0001746499
544.5149999996257,0.004335937,544.5149999996257,0.0001832888,544.5149999996257,0.001499784,544.5149999996257,0.0001759661
544.5299999996257,0.004416669,544.5299999996257,0.0001826004,544.5299999996257,0.001509995,544.5299999996257,0.0001745981
544.5449999996257,0.004559291,544.5449999996257,0.00018216,544.5449999996257,0.001463416,544.5449999996257,0.0001733702
544.5599999996257,0.004585132,544.5599999996257,0.0001822264,544.5599999996257,0.00144945,544.5599999996257,0.0001731207
544.5749999996257,0.004610021,544.5749999996257,0.0001828021,544.5749999996257,0.001460223,544.5749999996257,0.0001736931
544.5899999996257,0.004650177,544.5899999996257,0.0001824875,544.5899999996257,0.001459536,544.5899999996257,0.0001736033
544.6049999996256,0.004677948,544.6049999996256,0.0001817931,544.6049999996256,0.001459539,544.6049999996256,0.0001735904
544.6199999996256,0.004633522,544.6199999996256,0.0001815854,544.6199999996256,0.001458525,544.6199999996256,0.0001733391
544.6349999996256,0.004704506,544.6349999996256,0.0001827914,544.6349999996256,0.001485132,544.6349999996256,0.000174286
544.6499999996256,0.004718234,544.6499999996256,0.0001833289,544.6499999996256,0.00150635,544.6499999996256,0.0001745885
544.6649999996256,0.004630711,544.6649999996256,0.0001835565,544.6649999996256,0.001506979,544.6649999996256,0.0001747706
544.6799999996256,0.00453921,544.6799999996256,0.0001836319,544.6799999996256,0.001504418,544.6799999996256,0.0001747888
544.6949999996256,0.004537105,544.6949999996256,0.0001836215,544.6949999996256,0.001499304,544.6949999996256,0.0001746401
544.7099999996256,0.004572729,544.7099999996256,0.0001836268,544.7099999996256,0.001499479,544.7099999996256,0.0001746468
544.7249999996255,0.004510696,544.7249999996255,0.0001832618,544.7249999996255,0.001494141,544.7249999996255,0.0001737991
544.7399999996255,0.004405207,544.7399999996255,0.0001064909,544.7399999996255,0.001010079,544.7399999996255,9.854623e-05
544.7549999996255,0.004230174,544.7549999996255,5.241172e-05,544.7549999996255,0.0006821962,544.7549999996255,4.564543e-05
544.7699999996255,0.004064262,544.7699999996255,4.626127e-05,544.7699999996255,0.0005400598,544.7699999996255,3.918731e-05
544.7849999996255,0.003884431,544.7849999996255,4.280518e-05,544.7849999996255,0.0005096923,544.7849999996255,3.552818e-05
544.7999999996255,0.00369239,544.7999999996255,4.085604e-05,544.7999999996255,0.0004934431,544.7999999996255,3.271726e-05
544.8149999996255,0.003561603,544.8149999996255,3.726556e-05,544.8149999996255,0.0004601552,544.8149999996255,3.082445e-05
544.8299999996254,0.003267236,544.8299999996254,3.424248e-05,544.8299999996254,0.0004260917,544.8299999996254,2.831035e-05
544.8449999996254,0.002984756,544.8449999996254,3.364739e-05,544.8449999996254,0.000423312,544.8449999996254,2.914203e-05
544.8599999996254,0.00293958,544.8599999996254,3.356481e-05,544.8599999996254,0.000422725,544.8599999996254,3.040481e-05
544.8749999996254,0.003125519,544.8749999996254,3.191387e-05,544.8749999996254,0.0004151339,544.8749999996254,3.010965e-05
544.8899999996254,0.00292601,544.8899999996254,1.820449e-05,544.8899999996254,0.0002529599,544.8899999996254,1.871049e-05
544.9049999996254,0.002593407,544.9049999996254,1.596157e-05,544.9049999996254,0.0001837965,544.9049999996254,1.764015e-05
544.9199999996254,0.002294831,544.9199999996254,1.50204e-05,544.9199999996254,0.0001857554,544.9199999996254,1.670079e-05
544.9349999996253,0.002314904,544.9349999996253,1.498472e-05,544.9349999996253,0.0001810574,544.9349999996253,1.652868e-05
544.9499999996253,0.00237403,544.9499999996253,1.586863e-05,544.9499999996253,0.0001780998,544.9499999996253,1.638573e-05
544.9649999996253,0.002468167,544.9649999996253,1.516785e-05,544.9649999996253,0.0001417216,544.9649999996253,1.566223e-05
544.9799999996253,0.002400271,544.9799999996253,1.490271e-05,544.9799999996253,0.0001274863,544.9799999996253,1.545763e-05
544.9949999996253,0.002407419,544.9949999996253,1.582241e-05,544.9949999996253,0.0001424598,544.9949999996253,1.551312e-05
545.0099999996253,0.002446256,545.0099999996253,1.596775e-05,545.0099999996253,0.0001450966,545.0099999996253,1.543574e-05
545.0249999996253,0.002453153,545.0249999996253,1.580815e-05,545.0249999996253,0.0001421859,545.0249999996253,1.553671e-05
545.0399999996253,0.00245867,545.0399999996253,1.592092e-05,545.0399999996253,0.0001391388,545.0399999996253,1.592181e-05
545.0549999996252,0.002419816,545.0549999996252,1.581172e-05,545.0549999996252,0.0001366094,545.0549999996252,1.602411e-05
545.0699999996252,0.002353228,545.0699999996252,1.561269e-05,545.0699999996252,0.0001410762,545.0699999996252,1.577872e-05
545.0849999996252,0.002355308,545.0849999996252,1.519291e-05,545.0849999996252,0.0001424856,545.0849999996252,1.58482e-05
545.0999999996252,0.002262482,545.0999999996252,1.507095e-05,545.0999999996252,0.000139101,545.0999999996252,1.37175e-05
545.1149999996252,0.001960473,545.1149999996252,1.457778e-05,545.1149999996252,0.0001333384,545.1149999996252,1.154993e-05
545.1299999996252,0.001755453,545.1299999996252,1.436264e-05,545.1299999996252,0.0001319456,545.1299999996252,1.127717e-05
545.1449999996252,0.001688908,545.1449999996252,1.427508e-05,545.1449999996252,0.0001287633,545.1449999996252,1.130711e-05
545.1599999996251,0.001685243,545.1599999996251,1.382593e-05,545.1599999996251,0.0001272399,545.1599999996251,1.066734e-05
545.1749999996251,0.001741184,545.1749999996251,1.35418e-05,545.1749999996251,0.0001219399,545.1749999996251,9.857482e-06
545.1899999996251,0.001763933,545.1899999996251,1.254048e-05,545.1899999996251,0.0001146477,545.1899999996251,8.982679e-06
545.2049999996251,0.001638481,545.2049999996251,1.199388e-05,545.2049999996251,0.0001142459,545.2049999996251,9.568879e-06
545.2199999996251,0.001514313,545.2199999996251,1.253037e-05,545.2199999996251,0.000114221,545.2199999996251,9.649507e-06
545.2349999996251,0.001550988,545.2349999996251,1.547858e-05,545.2349999996251,0.0001218577,545.2349999996251,1.039446e-05
545.2499999996251,0.001601301,545.2499999996251,2.040456e-05,545.2499999996251,0.0001122491,545.2499999996251,1.039446e-05
545.264999999625,0.001734495,545.264999999625,2.45657e-05,545.264999999625,0.0001308245,545.264999999625,1.274328e-05
545.279999999625,0.001808572,545.279999999625,3.298782e-05,545.279999999625,0.0001950927,545.279999999625,1.693116e-05
545.294999999625,0.002109362,545.294999999625,4.114019e-05,545.294999999625,0.000298515,545.294999999625,3.105846e-05
545.309999999625,0.002524758,545.309999999625,4.641236e-05,545.309999999625,0.0004922816,545.309999999625,4.049378e-05
545.324999999625,0.002882701,545.324999999625,5.346545e-05,545.324999999625,0.0006041726,545.324999999625,4.997061e-05
545.339999999625,0.003137543,545.339999999625,7.184751e-05,545.339999999625,0.000856474,545.339999999625,8.857845e-05
545.354999999625,0.003370377,545.354999999625,9.136304e-05,545.354999999625,0.001162803,545.354999999625,0.0001093138
545.369999999625,0.003621295,545.369999999625,9.343265e-05,545.369999999625,0.00118714,545.369999999625,0.0001360258
545.3849999996249,0.003811072,545.3849999996249,9.482027e-05,545.3849999996249,0.001190151,545.3849999996249,0.0001400667
545.3999999996249,0.004009528,545.3999999996249,0.0001011596,545.3999999996249,0.001228487,545.3999999996249,0.000165815
545.4149999996249,0.004232525,545.4149999996249,0.0001065901,545.4149999996249,0.001255399,545.4149999996249,0.0001809557
545.4299999996249,0.004390207,545.4299999996249,0.0001136492,545.4299999996249,0.00129516,545.4299999996249,0.0001998844
545.4449999996249,0.004476139,545.4449999996249,0.00012396,545.4449999996249,0.00136029,545.4449999996249,0.0002112001
545.4599999996249,0.004613637,545.4599999996249,0.0001283661,545.4599999996249,0.001410713,545.4599999996249,0.0002134239
545.4749999996249,0.00483036,545.4749999996249,0.0001285913,545.4749999996249,0.001466126,545.4749999996249,0.0002137202
545.4899999996248,0.005007883,545.4899999996248,0.0001351027,545.4899999996248,0.00147732,545.4899999996248,0.0002175737
545.5049999996248,0.005044534,545.5049999996248,0.0001410304,545.5049999996248,0.001532267,545.5049999996248,0.0002212517
545.5199999996248,0.005109549,545.5199999996248,0.0001405355,545.5199999996248,0.001563777,545.5199999996248,0.0002213443
545.5349999996248,0.005099672,545.5349999996248,0.0001388231,545.5349999996248,0.001562401,545.5349999996248,0.0002210821
545.5499999996248,0.004971019,545.5499999996248,0.0001371083,545.5499999996248,0.001528156,545.5499999996248,0.0002186308
545.5649999996248,0.004786269,545.5649999996248,0.0001352855,545.5649999996248,0.001474156,545.5649999996248,0.0002159419
545.5799999996248,0.004585094,545.5799999996248,0.000132848,545.5799999996248,0.001432914,545.5799999996248,0.0002142102
545.5949999996247,0.004429607,545.5949999996247,0.000116125,545.5949999996247,0.001192917,545.5949999996247,0.0001957282
545.6099999996247,0.004265823,545.6099999996247,0.0001102045,545.6099999996247,0.001052244,545.6099999996247,0.0001882204
545.6249999996247,0.004041507,545.6249999996247,0.0001097507,545.6249999996247,0.001037187,545.6249999996247,0.0001723258
545.6399999996247,0.003907775,545.6399999996247,0.0001093328,545.6399999996247,0.001039281,545.6399999996247,0.0001695153
545.6549999996247,0.003907775,545.6549999996247,9.973734e-05,545.6549999996247,0.0009685832,545.6549999996247,0.0001331419
545.6699999996247,0.003898184,545.6699999996247,9.674511e-05,545.6699999996247,0.0009496741,545.6699999996247,0.000121391
545.6849999996247,0.003831383,545.6849999996247,8.648537e-05,545.6849999996247,0.000895332,545.6849999996247,8.416146e-05
545.6999999996247,0.003772229,545.6999999996247,7.333168e-05,545.6999999996247,0.0008320362,545.6999999996247,6.753654e-05
545.7149999996246,0.003541174,545.7149999996246,6.328162e-05,545.7149999996246,0.0006787408,545.7149999996246,5.724447e-05
545.7299999996246,0.003128391,545.7299999996246,6.536085e-05,545.7299999996246,0.000588946,545.7299999996246,5.717601e-05
545.7449999996246,0.002648473,545.7449999996246,4.975846e-05,545.7449999996246,0.0006447836,545.7449999996246,3.981319e-05
545.7599999996246,0.003080696,545.7599999996246,4.424762e-05,545.7599999996246,0.0006457425,545.7599999996246,4.084328e-05
545.7749999996246,0.00334199,545.7749999996246,4.620734e-05,545.7749999996246,0.0006382156,545.7749999996246,5.717922e-05
545.7899999996246,0.003636429,545.7899999996246,4.556295e-05,545.7899999996246,0.0006417805,545.7899999996246,6.109897e-05
545.8049999996246,0.003837069,545.8049999996246,5.192486e-05,545.8049999996246,0.0006911952,545.8049999996246,7.516704e-05
545.8199999996245,0.003946604,545.8199999996245,5.578481e-05,545.8199999996245,0.0007377212,545.8199999996245,8.25953e-05
545.8349999996245,0.003994067,545.8349999996245,5.671417e-05,545.8349999996245,0.0007555131,545.8349999996245,8.339219e-05
545.8499999996245,0.004122624,545.8499999996245,5.698154e-05,545.8499999996245,0.0007618627,545.8499999996245,8.361302e-05
545.8649999996245,0.004232201,545.8649999996245,6.606099e-05,545.8649999996245,0.0008895691,545.8649999996245,9.196148e-05
545.8799999996245,0.004333524,545.8799999996245,7.319574e-05,545.8799999996245,0.0009743662,545.8799999996245,9.751795e-05
545.8949999996245,0.004309925,545.8949999996245,8.413467e-05,545.8949999996245,0.001088659,545.8949999996245,0.000106449
545.9099999996245,0.004207966,545.9099999996245,8.464529e-05,545.9099999996245,0.001107501,545.9099999996245,0.0001067117
545.9249999996244,0.004073708,545.9249999996244,8.466875e-05,545.9249999996244,0.001107938,545.9249999996244,0.0001069002
545.9399999996244,0.004075611,545.9399999996244,8.452005e-05,545.9399999996244,0.001093946,545.9399999996244,0.0001063091
545.9549999996244,0.004192283,545.9549999996244,8.420463e-05,545.9549999996244,0.001082617,545.9549999996244,0.0001062594
545.9699999996244,0.004153202,545.9699999996244,8.399123e-05,545.9699999996244,0.00108148,545.9699999996244,0.0001062665
545.9849999996244,0.004090537,545.9849999996244,8.254361e-05,545.9849999996244,0.001085568,545.9849999996244,0.0001063023
545.9999999996244,0.004039602,545.9999999996244,8.035948e-05,545.9999999996244,0.001166267,545.9999999996244,0.0001057164
546.0149999996244,0.003891579,546.0149999996244,7.682014e-05,546.0149999996244,0.001200112,546.0149999996244,9.855252e-05
546.0299999996244,0.003754543,546.0299999996244,7.493354e-05,546.0299999996244,0.001169671,546.0299999996244,8.750968e-05
546.0449999996243,0.003758537,546.0449999996243,7.405519e-05,546.0449999996243,0.00117025,546.0449999996243,8.55883e-05
546.0599999996243,0.003648742,546.0599999996243,7.086678e-05,546.0599999996243,0.001152873,546.0599999996243,7.578704e-05
546.0749999996243,0.003650714,546.0749999996243,6.928109e-05,546.0749999996243,0.001134535,546.0749999996243,7.221127e-05
546.0899999996243,0.003691987,546.0899999996243,6.926156e-05,546.0899999996243,0.00113006,546.0899999996243,7.270779e-05
546.1049999996243,0.003610165,546.1049999996243,6.815692e-05,546.1049999996243,0.001118025,546.1049999996243,7.119875e-05
546.1199999996243,0.003422275,546.1199999996243,5.332668e-05,546.1199999996243,0.0009392059,546.1199999996243,5.370546e-05
546.1349999996243,0.003132552,546.1349999996243,3.941063e-05,546.1349999996243,0.0008800762,546.1349999996243,4.047395e-05
546.1499999996242,0.00311508,546.1499999996242,2.451863e-05,546.1499999996242,0.0007703067,546.1499999996242,2.416446e-05
546.1649999996242,0.003204944,546.1649999996242,2.397543e-05,546.1649999996242,0.0007626445,546.1649999996242,2.443461e-05
546.1799999996242,0.003265294,546.1799999996242,2.314677e-05,546.1799999996242,0.0007615901,546.1799999996242,2.369351e-05
546.1949999996242,0.003068923,546.1949999996242,2.080857e-05,546.1949999996242,0.0007541648,546.1949999996242,2.254435e-05
546.2099999996242,0.002814086,546.2099999996242,2.068091e-05,546.2099999996242,0.0007528948,546.2099999996242,2.25712e-05
546.2249999996242,0.002793401,546.2249999996242,2.024098e-05,546.2249999996242,0.0007536887,546.2249999996242,2.22031e-05
546.2399999996242,0.002778499,546.2399999996242,1.98772e-05,546.2399999996242,0.0005587608,546.2399999996242,2.20886e-05
546.2549999996241,0.002723911,546.2549999996241,2.078079e-05,546.2549999996241,0.0004029508,546.2549999996241,2.183202e-05
546.2699999996241,0.002654947,546.2699999996241,2.071766e-05,546.2699999996241,0.000218432,546.2699999996241,2.163758e-05
546.2849999996241,0.002542362,546.2849999996241,2.003813e-05,546.2849999996241,0.0002068728,546.2849999996241,1.979625e-05
546.2999999996241,0.002232161,546.2999999996241,1.817196e-05,546.2999999996241,0.0001588242,546.2999999996241,1.656783e-05
546.3149999996241,0.001813499,546.3149999996241,1.937914e-05,546.3149999996241,0.0001110222,546.3149999996241,1.600212e-05
546.3299999996241,0.001721292,546.3299999996241,1.805609e-05,546.3299999996241,9.612898e-05,546.3299999996241,1.433319e-05
546.3449999996241,0.001657946,546.3449999996241,1.721989e-05,546.3449999996241,0.0001003761,546.3449999996241,1.121203e-05
546.359999999624,0.001550977,546.359999999624,1.73015e-05,546.359999999624,0.0001050467,546.359999999624,1.143964e-05
546.374999999624,0.00154586,546.374999999624,1.770471e-05,546.374999999624,0.0001263132,546.374999999624,1.307394e-05
546.389999999624,0.001776244,546.389999999624,2.883296e-05,546.389999999624,0.0002283182,546.389999999624,2.02688e-05
546.404999999624,0.0020657,546.404999999624,3.601765e-05,546.404999999624,0.0003353708,546.404999999624,3.332431e-05
546.419999999624,0.002133131,546.419999999624,4.068916e-05,546.419999999624,0.0003629579,546.419999999624,3.462987e-05
546.434999999624,0.002458696,546.434999999624,5.114364e-05,546.434999999624,0.0005091188,546.434999999624,4.488422e-05
546.449999999624,0.002804882,546.449999999624,5.705319e-05,546.449999999624,0.0006272084,546.449999999624,4.799784e-05
546.464999999624,0.003072751,546.464999999624,5.951031e-05,546.464999999624,0.0006749639,546.464999999624,6.312894e-05
546.4799999996239,0.003298216,546.4799999996239,6.934469e-05,546.4799999996239,0.0008320213,546.4799999996239,7.106468e-05
546.4949999996239,0.003518103,546.4949999996239,7.543493e-05,546.4949999996239,0.0008883546,546.4949999996239,7.742763e-05
546.5099999996239,0.003748999,546.5099999996239,7.695115e-05,546.5099999996239,0.000892937,546.5099999996239,8.209767e-05
546.5249999996239,0.003948472,546.5249999996239,7.900441e-05,546.5249999996239,0.0009004595,546.5249999996239,8.547219e-05
546.5399999996239,0.004142974,546.5399999996239,8.021877e-05,546.5399999996239,0.0009020738,546.5399999996239,9.746724e-05
546.5549999996239,0.004368532,546.5549999996239,8.943026e-05,546.5549999996239,0.001001469,546.5549999996239,0.0001322621
546.5699999996239,0.004545133,546.5699999996239,9.352803e-05,546.5699999996239,0.001030955,546.5699999996239,0.0001373803
546.5849999996238,0.004698164,546.5849999996238,0.0001027394,546.5849999996238,0.001130764,546.5849999996238,0.00017052
546.5999999996238,0.004785555,546.5999999996238,0.0001144412,546.5999999996238,0.001260831,546.5999999996238,0.0001862873
546.6149999996238,0.004813372,546.6149999996238,0.0001165392,546.6149999996238,0.001302068,546.6149999996238,0.0001870818
546.6299999996238,0.004835539,546.6299999996238,0.0001157902,546.6299999996238,0.001300422,546.6299999996238,0.0001877373
546.6449999996238,0.0049457,546.6449999996238,0.0001143762,546.6449999996238,0.001273817,546.6449999996238,0.000188563
546.6599999996238,0.005015936,546.6599999996238,0.0001151824,546.6599999996238,0.001265027,546.6599999996238,0.0001874276
546.6749999996238,0.005076019,546.6749999996238,0.0001139238,546.6749999996238,0.00125621,546.6749999996238,0.0001868853
546.6899999996238,0.005076033,546.6899999996238,0.0001097294,546.6899999996238,0.001196193,546.6899999996238,0.0001845611
546.7049999996237,0.005057274,546.7049999996237,0.0001054398,546.7049999996237,0.001135014,546.7049999996237,0.0001841005
546.7199999996237,0.005034647,546.7199999996237,0.0001042096,546.7199999996237,0.001118941,546.7199999996237,0.0001785803
546.7349999996237,0.005034647,546.7349999996237,9.884212e-05,546.7349999996237,0.00102133,546.7349999996237,0.0001772048
546.7499999996237,0.005010852,546.7499999996237,9.563593e-05,546.7499999996237,0.001005687,546.7499999996237,0.0001735099
546.7649999996237,0.004944723,546.7649999996237,9.435322e-05,546.7649999996237,0.001000045,546.7649999996237,0.0001726634
546.7799999996237,0.004893309,546.7799999996237,9.453504e-05,546.7799999996237,0.001014441,546.7799999996237,0.0001717301
546.7949999996237,0.004908716,546.7949999996237,0.0002491259,546.7949999996237,0.001430483,546.7949999996237,0.0002797306
546.8099999996236,0.00493634,546.8099999996236,0.0002821849,546.8099999996236,0.001650469,546.8099999996236,0.0002949084
546.8249999996236,0.004915286,546.8249999996236,0.000282049,546.8249999996236,0.001666667,546.8249999996236,0.0002918746
546.8399999996236,0.004934875,546.8399999996236,0.0002798123,546.8399999996236,0.001634194,546.8399999996236,0.0002764261
546.8549999996236,0.005002271,546.8549999996236,0.0002780799,546.8549999996236,0.001588124,546.8549999996236,0.0002721082
546.8699999996236,0.005024077,546.8699999996236,0.0002801961,546.8699999996236,0.001616809,546.8699999996236,0.0002742277
546.8849999996236,0.005102778,546.8849999996236,0.0002807137,546.8849999996236,0.00163209,546.8849999996236,0.0002748568
546.8999999996236,0.005102784,546.8999999996236,0.0002802742,546.8999999996236,0.001630409,546.8999999996236,0.0002739761
546.9149999996235,0.005102781,546.9149999996235,0.0002794934,546.9149999996235,0.001627551,546.9149999996235,0.0002738766
546.9299999996235,0.005101204,546.9299999996235,0.000279357,546.9299999996235,0.001627516,546.9299999996235,0.0002738712
546.9449999996235,0.005057737,546.9449999996235,0.0002794146,546.9449999996235,0.001622864,546.9449999996235,0.0002738777
546.9599999996235,0.005028102,546.9599999996235,0.000279749,546.9599999996235,0.001617052,546.9599999996235,0.0002740808
546.9749999996235,0.005071094,546.9749999996235,0.0002847204,546.9749999996235,0.001730778,546.9749999996235,0.0002784822
546.9899999996235,0.005071094,546.9899999996235,0.0002860781,546.9899999996235,0.001778857,546.9899999996235,0.000279696
547.0049999996235,0.005172679,547.0049999996235,0.0002885765,547.0049999996235,0.001798358,547.0049999996235,0.0002814042
547.0199999996235,0.00510484,547.0199999996235,0.0002888852,547.0199999996235,0.00180303,547.0199999996235,0.0002814917
547.0349999996234,0.005081816,547.0349999996234,0.0002873823,547.0349999996234,0.001777117,547.0349999996234,0.0002796932
547.0499999996234,0.005051245,547.0499999996234,0.0001559206,547.0499999996234,0.001382895,547.0499999996234,0.0001427642
547.0649999996234,0.005071613,547.0649999996234,9.859811e-05,547.0649999996234,0.001054021,547.0649999996234,9.61927e-05
547.0799999996234,0.00506367,547.0799999996234,9.560853e-05,547.0799999996234,0.001034562,547.0799999996234,9.102429e-05
547.0949999996234,0.004958087,547.0949999996234,9.307327e-05,547.0949999996234,0.000985282,547.0949999996234,8.579067e-05
547.1099999996234,0.004724694,547.1099999996234,8.406633e-05,547.1099999996234,0.0009472584,547.1099999996234,7.983045e-05
547.1249999996234,0.004688213,547.1249999996234,7.876852e-05,547.1249999996234,0.0008740889,547.1249999996234,7.501077e-05
547.1399999996233,0.004719775,547.1399999996233,7.813684e-05,547.1399999996233,0.0008550215,547.1399999996233,7.356432e-05
547.1549999996233,0.004662398,547.1549999996233,7.832357e-05,547.1549999996233,0.0008523436,547.1549999996233,7.334666e-05
547.1699999996233,0.004503545,547.1699999996233,7.783682e-05,547.1699999996233,0.0008521259,547.1699999996233,7.340368e-05
547.1849999996233,0.00430985,547.1849999996233,7.790067e-05,547.1849999996233,0.0008519947,547.1849999996233,7.330478e-05
547.1999999996233,0.004118811,547.1999999996233,7.757414e-05,547.1999999996233,0.0008514382,547.1999999996233,7.336241e-05
547.2149999996233,0.004002445,547.2149999996233,7.183888e-05,547.2149999996233,0.0008082673,547.2149999996233,6.726379e-05
547.2299999996233,0.003979228,547.2299999996233,4.935681e-05,547.2299999996233,0.0004829591,547.2299999996233,4.652756e-05
547.2449999996232,0.003929952,547.2449999996232,3.736484e-05,547.2449999996232,0.0004029364,547.2449999996232,3.774033e-05
547.2599999996232,0.003839651,547.2599999996232,2.757738e-05,547.2599999996232,0.0003243537,547.2599999996232,3.054948e-05
547.2749999996232,0.003919265,547.2749999996232,2.930015e-05,547.2749999996232,0.0003335693,547.2749999996232,3.184273e-05
547.2899999996232,0.004115617,547.2899999996232,2.945694e-05,547.2899999996232,0.0003510118,547.2899999996232,3.252683e-05
547.3049999996232,0.00415146,547.3049999996232,2.719313e-05,547.3049999996232,0.000347882,547.3049999996232,2.920673e-05
547.3199999996232,0.004008006,547.3199999996232,2.543511e-05,547.3199999996232,0.0003278889,547.3199999996232,2.486153e-05
547.3349999996232,0.003713999,547.3349999996232,2.536524e-05,547.3349999996232,0.0003257554,547.3349999996232,2.498925e-05
547.3499999996232,0.003508925,547.3499999996232,2.218596e-05,547.3499999996232,0.000305202,547.3499999996232,2.459321e-05
547.3649999996231,0.00355682,547.3649999996231,2.213065e-05,547.3649999996231,0.000303978,547.3649999996231,2.457201e-05
547.3799999996231,0.003589733,547.3799999996231,2.198377e-05,547.3799999996231,0.0003022636,547.3799999996231,2.449277e-05
547.3949999996231,0.00353705,547.3949999996231,2.199402e-05,547.3949999996231,0.000296893,547.3949999996231,2.407979e-05
547.4099999996231,0.003528228,547.4099999996231,2.156324e-05,547.4099999996231,0.0002974924,547.4099999996231,2.375171e-05
547.4249999996231,0.003511044,547.4249999996231,2.119624e-05,547.4249999996231,0.0002975384,547.4249999996231,2.293585e-05
547.4399999996231,0.003515706,547.4399999996231,2.092805e-05,547.4399999996231,0.0002983815,547.4399999996231,2.325e-05
547.454999999623,0.003711993,547.454999999623,2.15763e-05,547.454999999623,0.00030636,547.454999999623,2.448011e-05
547.469999999623,0.003783094,547.469999999623,2.095563e-05,547.469999999623,0.0003003515,547.469999999623,2.444441e-05
547.484999999623,0.003548649,547.484999999623,2.041698e-05,547.484999999623,0.0002803793,547.484999999623,2.353364e-05
547.499999999623,0.003358427,547.499999999623,2.046109e-05,547.499999999623,0.0002795741,547.499999999623,2.319905e-05
547.514999999623,0.003292693,547.514999999623,1.887987e-05,547.514999999623,0.0002723949,547.514999999623,2.233341e-05
547.529999999623,0.003144627,547.529999999623,1.560456e-05,547.529999999623,0.0002267386,547.529999999623,1.973567e-05
547.544999999623,0.002894782,547.544999999623,1.458165e-05,547.544999999623,0.0001885357,547.544999999623,1.800374e-05
547.559999999623,0.002570555,547.559999999623,1.473158e-05,547.559999999623,0.000172384,547.559999999623,1.730557e-05
547.574999999623,0.002519615,547.574999999623,1.43891e-05,547.574999999623,0.000165887,547.574999999623,1.671597e-05
547.5899999996229,0.002512191,547.5899999996229,1.431844e-05,547.5899999996229,0.0001645313,547.5899999996229,1.586863e-05
547.6049999996229,0.002347297,547.6049999996229,1.402621e-05,547.6049999996229,0.0001580881,547.6049999996229,1.645351e-05
547.6199999996229,0.002237714,547.6199999996229,1.514555e-05,547.6199999996229,0.0001572085,547.6199999996229,1.701912e-05
547.6349999996229,0.00202656,547.6349999996229,1.505693e-05,547.6349999996229,0.0001714889,547.6349999996229,1.693032e-05
547.6499999996229,0.001948524,547.6499999996229,1.502602e-05,547.6499999996229,0.0002110068,547.6499999996229,1.746036e-05
547.6649999996229,0.001960221,547.6649999996229,1.572238e-05,547.6649999996229,0.0002577223,547.6649999996229,1.754647e-05
547.6799999996229,0.002000894,547.6799999996229,1.572865e-05,547.6799999996229,0.0002651134,547.6799999996229,1.777063e-05
547.6949999996228,0.00194774,547.6949999996228,1.60408e-05,547.6949999996228,0.0002979851,547.6949999996228,1.781813e-05
547.7099999996228,0.001923413,547.7099999996228,1.623025e-05,547.7099999996228,0.0003322975,547.7099999996228,1.75553e-05
547.7249999996228,0.00185729,547.7249999996228,1.617896e-05,547.7249999996228,0.0003324955,547.7249999996228,1.75553e-05
547.7399999996228,0.001863197,547.7399999996228,1.574744e-05,547.7399999996228,0.0003332754,547.7399999996228,1.713543e-05
547.7549999996228,0.001874477,547.7549999996228,1.559824e-05,547.7549999996228,0.0003366939,547.7549999996228,1.716992e-05
547.7699999996228,0.001865858,547.7699999996228,1.579567e-05,547.7699999996228,0.0003449979,547.7699999996228,1.771823e-05
547.7849999996228,0.001887774,547.7849999996228,1.562531e-05,547.7849999996228,0.0003505536,547.7849999996228,1.82099e-05
547.7999999996227,0.00200412,547.7999999996227,1.678912e-05,547.7999999996227,0.0003512069,547.7999999996227,2.188937e-05
547.8149999996227,0.002121902,547.8149999996227,1.697934e-05,547.8149999996227,0.0003485051,547.8149999996227,2.367745e-05
547.8299999996227,0.002196659,547.8299999996227,1.775715e-05,547.8299999996227,0.0003491678,547.8299999996227,2.584279e-05
547.8449999996227,0.00220142,547.8449999996227,1.771426e-05,547.8449999996227,0.0003603352,547.8449999996227,2.581988e-05
547.8599999996227,0.0021646,547.8599999996227,1.716335e-05,547.8599999996227,0.0003597094,547.8599999996227,2.502474e-05
547.8749999996227,0.002356264,547.8749999996227,1.78978e-05,547.8749999996227,0.000365398,547.8749999996227,2.730789e-05
547.8899999996227,0.002716925,547.8899999996227,1.819365e-05,547.8899999996227,0.0003593392,547.8899999996227,2.920432e-05
547.9049999996226,0.002900467,547.9049999996226,1.809972e-05,547.9049999996226,0.0003245056,547.9049999996226,2.953717e-05
547.9199999996226,0.002853607,547.9199999996226,1.728603e-05,547.9199999996226,0.0002971128,547.9199999996226,3.01031e-05
547.9349999996226,0.002829089,547.9349999996226,1.861235e-05,547.9349999996226,0.0002937961,547.9349999996226,2.993887e-05
547.9499999996226,0.00293925,547.9499999996226,1.737949e-05,547.9499999996226,0.0002438785,547.9499999996226,2.836255e-05
547.9649999996226,0.002754773,547.9649999996226,1.762737e-05,547.9649999996226,0.0002019471,547.9649999996226,2.814066e-05
547.9799999996226,0.002792901,547.9799999996226,2.024724e-05,547.9799999996226,0.0002099825,547.9799999996226,2.996003e-05
547.9949999996226,0.003073656,547.9949999996226,2.407627e-05,547.9949999996226,0.0002335672,547.9949999996226,3.256102e-05
548.0099999996226,0.003349961,548.0099999996226,2.629132e-05,548.0099999996226,0.0002644001,548.0099999996226,3.307354e-05
548.0249999996225,0.003566841,548.0249999996225,3.181131e-05,548.0249999996225,0.0002901305,548.0249999996225,3.327736e-05
548.0399999996225,0.003668542,548.0399999996225,4.116928e-05,548.0399999996225,0.00030926,548.0399999996225,3.432261e-05
548.0549999996225,0.003785934,548.0549999996225,5.809815e-05,548.0549999996225,0.000729384,548.0549999996225,5.401147e-05
548.0699999996225,0.003961905,548.0699999996225,6.210808e-05,548.0699999996225,0.0008770203,548.0699999996225,5.48654e-05
548.0849999996225,0.004125729,548.0849999996225,7.962549e-05,548.0849999996225,0.0009298433,548.0849999996225,5.56569e-05
548.0999999996225,0.004229351,548.0999999996225,9.865395e-05,548.0999999996225,0.001041103,548.0999999996225,8.129069e-05
548.1149999996225,0.004435345,548.1149999996225,0.0001167665,548.1149999996225,0.00116033,548.1149999996225,8.569834e-05
548.1299999996224,0.004465766,548.1299999996224,0.0001173676,548.1299999996224,0.001158565,548.1299999996224,9.814934e-05
548.1449999996224,0.004461235,548.1449999996224,0.0001188502,548.1449999996224,0.001169556,548.1449999996224,0.0001050166
548.1599999996224,0.004606562,548.1599999996224,0.0001297265,548.1599999996224,0.001329014,548.1599999996224,0.0001509498
548.1749999996224,0.004769824,548.1749999996224,0.0001360656,548.1749999996224,0.001542851,548.1749999996224,0.0001723956
548.1899999996224,0.004827176,548.1899999996224,0.0001483875,548.1899999996224,0.001566257,548.1899999996224,0.0001855453
548.2049999996224,0.004718098,548.2049999996224,0.0001653819,548.2049999996224,0.001734407,548.2049999996224,0.0002056878
548.2199999996224,0.004803008,548.2199999996224,0.0001721754,548.2199999996224,0.002070379,548.2199999996224,0.0002162565
548.2349999996223,0.005040963,548.2349999996223,0.0001734046,548.2349999996223,0.002276115,548.2349999996223,0.0002172824
548.2499999996223,0.005130738,548.2499999996223,0.0001762744,548.2499999996223,0.002282113,548.2499999996223,0.0002208361
548.2649999996223,0.005062072,548.2649999996223,0.0001790582,548.2649999996223,0.002320444,548.2649999996223,0.0002235151
548.2799999996223,0.00490841,548.2799999996223,0.0001785951,548.2799999996223,0.002350714,548.2799999996223,0.0002242282
548.2949999996223,0.004893477,548.2949999996223,0.0001753083,548.2949999996223,0.002341237,548.2949999996223,0.0002236441
548.3099999996223,0.004870238,548.3099999996223,0.0001723343,548.3099999996223,0.002237194,548.3099999996223,0.0002213342
548.3249999996223,0.00479048,548.3249999996223,0.0001696781,548.3249999996223,0.002201808,548.3249999996223,0.0002218898
548.3399999996223,0.004833964,548.3399999996223,0.0001629996,548.3399999996223,0.002180982,548.3399999996223,0.000221489
548.3549999996222,0.004866356,548.3549999996222,0.0001494335,548.3549999996222,0.002111153,548.3549999996222,0.0002138542
548.3699999996222,0.004892932,548.3699999996222,0.0001426902,548.3699999996222,0.002094978,548.3699999996222,0.0002129591
548.3849999996222,0.004802011,548.3849999996222,0.0001432721,548.3849999996222,0.00210676,548.3849999996222,0.0002059672
548.3999999996222,0.00486702,548.3999999996222,0.0001422479,548.3999999996222,0.002096018,548.3999999996222,0.0002033786
548.4149999996222,0.004809421,548.4149999996222,0.0001239331,548.4149999996222,0.001918476,548.4149999996222,0.0001544954
548.4299999996222,0.004804889,548.4299999996222,0.0002930769,548.4299999996222,0.002063745,548.4299999996222,0.0003067641
548.4449999996222,0.004762838,548.4449999996222,0.0003152012,548.4449999996222,0.002181874,548.4449999996222,0.0003193242
548.4599999996221,0.004860227,548.4599999996221,0.0003100745,548.4599999996221,0.002067567,548.4599999996221,0.000309755
548.4749999996221,0.004945566,548.4749999996221,0.0003058845,548.4749999996221,0.001724812,548.4749999996221,0.0003039532
548.4899999996221,0.004897022,548.4899999996221,0.000309739,548.4899999996221,0.001580841,548.4899999996221,0.0003063926
548.5049999996221,0.004896999,548.5049999996221,0.0003093219,548.5049999996221,0.001626392,548.5049999996221,0.0003056468
548.5199999996221,0.005038724,548.5199999996221,0.0003084688,548.5199999996221,0.001586444,548.5199999996221,0.0003044693
548.5349999996221,0.005170915,548.5349999996221,0.0003083198,548.5349999996221,0.001559193,548.5349999996221,0.0003040635
548.5499999996221,0.005164566,548.5499999996221,0.0003081984,548.5499999996221,0.001559352,548.5499999996221,0.0003031279
548.564999999622,0.005168296,548.564999999622,0.000311349,548.564999999622,0.001631902,548.564999999622,0.0003056772
548.579999999622,0.005231313,548.579999999622,0.0003112555,548.579999999622,0.001659294,548.579999999622,0.0003053896
548.594999999622,0.005229124,548.594999999622,0.0003116487,548.594999999622,0.001650565,548.594999999622,0.0003053065
548.609999999622,0.005229023,548.609999999622,0.0003116963,548.609999999622,0.001648977,548.609999999622,0.0003052333
548.624999999622,0.005215649,548.624999999622,0.000311331,548.624999999622,0.001650861,548.624999999622,0.0003050013
548.639999999622,0.0051177,548.639999999622,0.0003107403,548.639999999622,0.001639023,548.639999999622,0.0003042362
548.654999999622,0.005173754,548.654999999622,0.0003109846,548.654999999622,0.00164339,548.654999999622,0.0003042115
548.669999999622,0.005257708,548.669999999622,0.0002891502,548.669999999622,0.001555788,548.669999999622,0.000276347
548.6849999996219,0.00514219,548.6849999996219,0.0001055942,548.6849999996219,0.001077978,548.6849999996219,9.1484e-05
548.6999999996219,0.005102528,548.6999999996219,8.944696e-05,548.6999999996219,0.0009686574,548.6999999996219,8.103225e-05
548.7149999996219,0.005102528,548.7149999996219,8.792016e-05,548.7149999996219,0.0009509024,548.7149999996219,7.866813e-05
548.7299999996219,0.00510256,548.7299999996219,8.350529e-05,548.7299999996219,0.0009157773,548.7299999996219,7.552358e-05
548.7449999996219,0.004982969,548.7449999996219,6.869937e-05,548.7449999996219,0.0008517907,548.7449999996219,6.373676e-05
548.7599999996219,0.004846237,548.7599999996219,6.707315e-05,548.7599999996219,0.0007826674,548.7599999996219,6.07329e-05
