X[s],a: EMG RMS 1-1,X[s].1,a: EMG RMS 1-2,X[s].2,a: EMG RMS 1-3,X[s].3,a: EMG RMS 1-4
444.0149999997171,0.003982795,444.0149999997171,7.197328e-05,444.0149999997171,0.003992982,444.0149999997171,4.458254e-05
444.02999999971706,0.00418527,444.02999999971706,7.228614e-05,444.02999999971706,0.004060884,444.02999999971706,4.687954e-05
444.04499999971705,0.004430803,444.04499999971705,7.528389e-05,444.04499999971705,0.004117555,444.04499999971705,4.905766e-05
444.05999999971704,0.004497589,444.05999999971704,7.595748e-05,444.05999999971704,0.004154145,444.05999999971704,4.912624e-05
444.074999999717,0.004441708,444.074999999717,7.7422e-05,444.074999999717,0.004110042,444.074999999717,4.984388e-05
444.089999999717,0.004541614,444.089999999717,8.090734e-05,444.089999999717,0.003913946,444.089999999717,6.721309e-05
444.104999999717,0.004657543,444.104999999717,8.264986e-05,444.104999999717,0.003857216,444.104999999717,7.179181e-05
444.119999999717,0.004613635,444.119999999717,0.000118803,444.119999999717,0.003625027,444.119999999717,7.205622e-05
444.13499999971697,0.004534473,444.13499999971697,0.0001290753,444.13499999971697,0.003522299,444.13499999971697,9.669457e-05
444.14999999971695,0.00465729,444.14999999971695,0.0001358399,444.14999999971695,0.003339256,444.14999999971695,0.0001273824
444.16499999971694,0.004792662,444.16499999971694,0.0001521599,444.16499999971694,0.003090038,444.16499999971694,0.0001295292
444.1799999997169,0.004775135,444.1799999997169,0.000162986,444.1799999997169,0.003031316,444.1799999997169,0.000130355
444.1949999997169,0.004860826,444.1949999997169,0.0001641311,444.1949999997169,0.002834982,444.1949999997169,0.0001315835
444.2099999997169,0.004958909,444.2099999997169,0.0001682178,444.2099999997169,0.002850179,444.2099999997169,0.0001347201
444.2249999997169,0.005062942,444.2249999997169,0.0001797592,444.2249999997169,0.00274182,444.2249999997169,0.0001362079
444.2399999997169,0.005083335,444.2399999997169,0.0001828351,444.2399999997169,0.002612244,444.2399999997169,0.0001358449
444.25499999971686,0.005164419,444.25499999971686,0.0001828947,444.25499999971686,0.002589102,444.25499999971686,0.0001356962
444.26999999971684,0.005148827,444.26999999971684,0.0001824049,444.26999999971684,0.00257029,444.26999999971684,0.0001358073
444.28499999971683,0.005029076,444.28499999971683,0.0001822578,444.28499999971683,0.002503068,444.28499999971683,0.0001354302
444.2999999997168,0.004839959,444.2999999997168,0.0001812187,444.2999999997168,0.00240441,444.2999999997168,0.0001348399
444.3149999997168,0.004600293,444.3149999997168,0.0001804586,444.3149999997168,0.002363854,444.3149999997168,0.0001348449
444.3299999997168,0.004522026,444.3299999997168,0.0001791724,444.3299999997168,0.002348361,444.3299999997168,0.0001333895
444.3449999997168,0.004387754,444.3449999997168,0.0001780483,444.3449999997168,0.002279875,444.3449999997168,0.0001239158
444.35999999971676,0.004240486,444.35999999971676,0.0001750335,444.35999999971676,0.0021457,444.35999999971676,0.0001230341
444.37499999971675,0.004148348,444.37499999971675,0.0001503319,444.37499999971675,0.002079012,444.37499999971675,0.0001232037
444.38999999971674,0.003979985,444.38999999971674,0.0001470502,444.38999999971674,0.001982739,444.38999999971674,9.096036e-05
444.4049999997167,0.003782014,444.4049999997167,0.00014012,444.4049999997167,0.001964191,444.4049999997167,6.147294e-05
444.4199999997167,0.003781988,444.4199999997167,0.0001210107,444.4199999997167,0.001936417,444.4199999997167,6.235662e-05
444.4349999997167,0.003756651,444.4349999997167,0.000110158,444.4349999997167,0.001660092,444.4349999997167,6.113101e-05
444.4499999997167,0.003553729,444.4499999997167,0.0001091677,444.4499999997167,0.001614008,444.4499999997167,5.75199e-05
444.46499999971667,0.003498345,444.46499999971667,9.951946e-05,444.46499999971667,0.00144861,444.46499999971667,5.00582e-05
444.47999999971665,0.003369828,444.47999999971665,8.005423e-05,444.47999999971665,0.001060215,444.47999999971665,4.189007e-05
444.49499999971664,0.003183072,444.49499999971664,7.669939e-05,444.49499999971664,0.0008767079,444.49499999971664,3.982628e-05
444.5099999997166,0.003050284,444.5099999997166,7.541009e-05,444.5099999997166,0.0008728379,444.5099999997166,3.976681e-05
444.5249999997166,0.003053494,444.5249999997166,7.305569e-05,444.5249999997166,0.0008746198,444.5249999997166,3.869972e-05
444.5399999997166,0.002982659,444.5399999997166,7.514043e-05,444.5399999997166,0.0008894854,444.5399999997166,3.765476e-05
444.5549999997166,0.003059163,444.5549999997166,7.582124e-05,444.5549999997166,0.0008829606,444.5549999997166,3.697029e-05
444.5699999997166,0.003222939,444.5699999997166,7.631734e-05,444.5699999997166,0.0009209257,444.5699999997166,3.625233e-05
444.58499999971656,0.003337014,444.58499999971656,7.385042e-05,444.58499999971656,0.0009739526,444.58499999971656,3.62601e-05
444.59999999971654,0.003366238,444.59999999971654,6.82414e-05,444.59999999971654,0.0009932619,444.59999999971654,3.527471e-05
444.61499999971653,0.003326973,444.61499999971653,7.014552e-05,444.61499999971653,0.0009912543,444.61499999971653,3.058497e-05
444.6299999997165,0.003328181,444.6299999997165,7.017222e-05,444.6299999997165,0.000945404,444.6299999997165,2.738413e-05
444.6449999997165,0.003369527,444.6449999997165,6.961637e-05,444.6449999997165,0.0008225897,444.6449999997165,2.659815e-05
444.6599999997165,0.003321985,444.6599999997165,6.278638e-05,444.6599999997165,0.0008047305,444.6599999997165,1.835322e-05
444.6749999997165,0.003064065,444.6749999997165,5.44251e-05,444.6749999997165,0.0008344046,444.6749999997165,1.698515e-05
444.68999999971646,0.00314038,444.68999999971646,5.531467e-05,444.68999999971646,0.0008304064,444.68999999971646,2.473884e-05
444.70499999971645,0.003227171,444.70499999971645,5.005539e-05,444.70499999971645,0.0008014876,444.70499999971645,2.729241e-05
444.71999999971644,0.003270336,444.71999999971644,4.686512e-05,444.71999999971644,0.0008150335,444.71999999971644,3.086008e-05
444.7349999997164,0.003279874,444.7349999997164,4.512086e-05,444.7349999997164,0.000817424,444.7349999997164,3.133346e-05
444.7499999997164,0.003366021,444.7499999997164,4.318425e-05,444.7499999997164,0.0008209446,444.7499999997164,3.147072e-05
444.7649999997164,0.003546364,444.7649999997164,4.331844e-05,444.7649999997164,0.0007905707,444.7649999997164,3.24631e-05
444.7799999997164,0.003693484,444.7799999997164,4.29776e-05,444.7799999997164,0.0007765607,444.7799999997164,3.545157e-05
444.79499999971637,0.003853799,444.79499999971637,3.980364e-05,444.79499999971637,0.0007684866,444.79499999971637,3.622317e-05
444.80999999971635,0.003891804,444.80999999971635,3.944171e-05,444.80999999971635,0.0008592526,444.80999999971635,3.991249e-05
444.82499999971634,0.004024566,444.82499999971634,4.150121e-05,444.82499999971634,0.0008518015,444.82499999971634,4.317055e-05
444.8399999997163,0.004193711,444.8399999997163,4.192604e-05,444.8399999997163,0.0008093194,444.8399999997163,4.396529e-05
444.8549999997163,0.004370837,444.8549999997163,3.75221e-05,444.8549999997163,0.00081941,444.8549999997163,4.399539e-05
444.8699999997163,0.00445171,444.8699999997163,3.742022e-05,444.8699999997163,0.0008505862,444.8699999997163,4.392843e-05
444.8849999997163,0.004405496,444.8849999997163,3.724892e-05,444.8849999997163,0.00084765,444.8849999997163,4.374558e-05
444.8999999997163,0.004335647,444.8999999997163,3.610203e-05,444.8999999997163,0.0008711775,444.8999999997163,4.370821e-05
444.91499999971626,0.004248498,444.91499999971626,3.557691e-05,444.91499999971626,0.0009165605,444.91499999971626,4.372304e-05
444.92999999971624,0.00418365,444.92999999971624,3.337542e-05,444.92999999971624,0.0008553384,444.92999999971624,4.033903e-05
444.94499999971623,0.003984324,444.94499999971623,3.297885e-05,444.94499999971623,0.0008193256,444.94499999971623,3.747363e-05
444.9599999997162,0.003927762,444.9599999997162,3.111601e-05,444.9599999997162,0.0008355444,444.9599999997162,3.476141e-05
444.9749999997162,0.003812424,444.9749999997162,3.255237e-05,444.9749999997162,0.0008525976,444.9749999997162,3.33712e-05
444.9899999997162,0.003881361,444.9899999997162,3.203063e-05,444.9899999997162,0.00085941,444.9899999997162,3.394914e-05
445.0049999997162,0.003852526,445.0049999997162,3.142504e-05,445.0049999997162,0.0008501213,445.0049999997162,3.390804e-05
445.01999999971616,0.003696756,445.01999999971616,3.077734e-05,445.01999999971616,0.0008477056,445.01999999971616,3.235052e-05
445.03499999971615,0.003600227,445.03499999971615,2.963668e-05,445.03499999971615,0.0008115231,445.03499999971615,2.739801e-05
445.04999999971614,0.003600225,445.04999999971614,2.904325e-05,445.04999999971614,0.0007828462,445.04999999971614,2.658066e-05
445.0649999997161,0.003673398,445.0649999997161,2.592388e-05,445.0649999997161,0.0006565468,445.0649999997161,2.147946e-05
445.0799999997161,0.003530611,445.0799999997161,2.956673e-05,445.0799999997161,0.0006512384,445.0799999997161,2.537412e-05
445.0949999997161,0.003530611,445.0949999997161,3.007735e-05,445.0949999997161,0.0006499568,445.0949999997161,3.397859e-05
445.1099999997161,0.003530611,445.1099999997161,2.99995e-05,445.1099999997161,0.0006023166,445.1099999997161,3.616441e-05
445.12499999971607,0.003654106,445.12499999971607,3.658883e-05,445.12499999971607,0.0005804203,445.12499999971607,4.21121e-05
445.13999999971605,0.003862032,445.13999999971605,4.065765e-05,445.13999999971605,0.0006106811,445.13999999971605,4.476259e-05
445.15499999971604,0.003880874,445.15499999971604,4.078668e-05,445.15499999971604,0.0006230185,445.15499999971604,4.488987e-05
445.169999999716,0.003893259,445.169999999716,4.231432e-05,445.169999999716,0.0007120379,445.169999999716,4.498078e-05
445.184999999716,0.003922883,445.184999999716,4.429789e-05,445.184999999716,0.000733185,445.184999999716,4.50246e-05
445.199999999716,0.003979336,445.199999999716,4.414722e-05,445.199999999716,0.0008115566,445.199999999716,4.503586e-05
445.214999999716,0.003991721,445.214999999716,4.428358e-05,445.214999999716,0.0008763582,445.214999999716,4.474119e-05
445.229999999716,0.003987681,445.229999999716,4.329925e-05,445.229999999716,0.0008668448,445.229999999716,4.48613e-05
445.24499999971596,0.003910433,445.24499999971596,4.374977e-05,445.24499999971596,0.0008710034,445.24499999971596,4.664367e-05
445.25999999971594,0.00398665,445.25999999971594,4.578225e-05,445.25999999971594,0.000889392,445.25999999971594,4.912079e-05
445.27499999971593,0.004148702,445.27499999971593,4.673931e-05,445.27499999971593,0.0008871799,445.27499999971593,4.931798e-05
445.2899999997159,0.004094306,445.2899999997159,4.669589e-05,445.2899999997159,0.000890233,445.2899999997159,4.972504e-05
445.3049999997159,0.003891299,445.3049999997159,4.723428e-05,445.3049999997159,0.0009069044,445.3049999997159,5.129298e-05
445.3199999997159,0.003833127,445.3199999997159,4.604212e-05,445.3199999997159,0.000914267,445.3199999997159,5.141149e-05
445.3349999997159,0.003708701,445.3349999997159,4.337791e-05,445.3349999997159,0.0009128348,445.3349999997159,4.659048e-05
445.34999999971586,0.003540877,445.34999999971586,4.235825e-05,445.34999999971586,0.0009120049,445.34999999971586,4.037568e-05
445.36499999971585,0.003475558,445.36499999971585,4.249371e-05,445.36499999971585,0.0009115995,445.36499999971585,3.89479e-05
445.37999999971584,0.003270217,445.37999999971584,3.626087e-05,445.37999999971584,0.000894129,445.37999999971584,3.312461e-05
445.3949999997158,0.00327065,445.3949999997158,3.425276e-05,445.3949999997158,0.0008801974,445.3949999997158,3.257357e-05
445.4099999997158,0.003374771,445.4099999997158,3.654144e-05,445.4099999997158,0.0008088005,445.4099999997158,3.275942e-05
445.4249999997158,0.003366395,445.4249999997158,3.459079e-05,445.4249999997158,0.0006985008,445.4249999997158,3.393213e-05
445.4399999997158,0.003530904,445.4399999997158,3.466117e-05,445.4399999997158,0.0006833657,445.4399999997158,3.747852e-05
445.45499999971577,0.003494289,445.45499999971577,3.53202e-05,445.45499999971577,0.0005676384,445.45499999971577,3.765551e-05
445.46999999971575,0.003475287,445.46999999971575,3.560937e-05,445.46999999971575,0.0004987064,445.46999999971575,3.756187e-05
445.48499999971574,0.003513476,445.48499999971574,3.652023e-05,445.48499999971574,0.0004903254,445.48499999971574,3.696687e-05
445.4999999997157,0.003675125,445.4999999997157,3.6366e-05,445.4999999997157,0.0004613868,445.4999999997157,3.371932e-05
445.5149999997157,0.003513373,445.5149999997157,3.410563e-05,445.5149999997157,0.0004644578,445.5149999997157,3.109608e-05
445.5299999997157,0.00331033,445.5299999997157,3.407588e-05,445.5299999997157,0.0005219165,445.5299999997157,3.109291e-05
445.5449999997157,0.003233122,445.5449999997157,3.450394e-05,445.5449999997157,0.0005359279,445.5449999997157,3.023197e-05
445.55999999971567,0.003267756,445.55999999971567,3.386605e-05,445.55999999971567,0.0005912677,445.55999999971567,2.748374e-05
445.57499999971566,0.003319158,445.57499999971566,3.355012e-05,445.57499999971566,0.0006202584,445.57499999971566,2.639613e-05
445.58999999971564,0.003424875,445.58999999971564,3.374271e-05,445.58999999971564,0.0006152201,445.58999999971564,2.662409e-05
445.60499999971563,0.003421164,445.60499999971563,3.359376e-05,445.60499999971563,0.0006121543,445.60499999971563,2.686479e-05
445.6199999997156,0.003307543,445.6199999997156,3.410232e-05,445.6199999997156,0.0006144479,445.6199999997156,2.725419e-05
445.6349999997156,0.003465036,445.6349999997156,3.358327e-05,445.6349999997156,0.0007330161,445.6349999997156,2.603017e-05
445.6499999997156,0.003493032,445.6499999997156,3.155655e-05,445.6499999997156,0.0007810175,445.6499999997156,2.574448e-05
445.6649999997156,0.003487687,445.6649999997156,3.138556e-05,445.6649999997156,0.0008280766,445.6649999997156,2.548436e-05
445.67999999971556,0.003545773,445.67999999971556,3.161631e-05,445.67999999971556,0.0009422721,445.67999999971556,2.253185e-05
445.69499999971555,0.003739364,445.69499999971555,3.651753e-05,445.69499999971555,0.0009752264,445.69499999971555,2.405345e-05
445.70999999971554,0.003987943,445.70999999971554,4.188536e-05,445.70999999971554,0.000980382,445.70999999971554,2.584279e-05
445.7249999997155,0.004193586,445.7249999997155,4.155345e-05,445.7249999997155,0.001012408,445.7249999997155,2.748426e-05
445.7399999997155,0.004146849,445.7399999997155,4.0676e-05,445.7399999997155,0.001085333,445.7399999997155,3.163101e-05
445.7549999997155,0.004227513,445.7549999997155,4.209738e-05,445.7549999997155,0.001133337,445.7549999997155,3.321931e-05
445.7699999997155,0.004393237,445.7699999997155,4.258842e-05,445.7699999997155,0.001105767,445.7699999997155,3.316244e-05
445.78499999971547,0.004566193,445.78499999971547,4.226769e-05,445.78499999971547,0.001082507,445.78499999971547,3.317348e-05
445.79999999971545,0.004607063,445.79999999971545,4.195694e-05,445.79999999971545,0.001086469,445.79999999971545,3.313227e-05
445.81499999971544,0.004555671,445.81499999971544,4.247083e-05,445.81499999971544,0.001063723,445.81499999971544,3.312164e-05
445.8299999997154,0.00444681,445.8299999997154,4.366533e-05,445.8299999997154,0.001053571,445.8299999997154,3.282086e-05
445.8449999997154,0.004470963,445.8449999997154,4.550231e-05,445.8449999997154,0.00104899,445.8449999997154,3.402458e-05
445.8599999997154,0.004575668,445.8599999997154,4.603508e-05,445.8599999997154,0.001046859,445.8599999997154,3.470504e-05
445.8749999997154,0.00463146,445.8749999997154,4.521661e-05,445.8749999997154,0.001043016,445.8749999997154,3.451863e-05
445.88999999971537,0.004441268,445.88999999971537,4.483994e-05,445.88999999971537,0.0009755021,445.88999999971537,3.473141e-05
445.90499999971536,0.004180534,445.90499999971536,4.414084e-05,445.90499999971536,0.0009311997,445.90499999971536,3.438329e-05
445.91999999971534,0.003984497,445.91999999971534,4.33555e-05,445.91999999971534,0.0008774134,445.91999999971534,3.418195e-05
445.93499999971533,0.003958483,445.93499999971533,4.228535e-05,445.93499999971533,0.0007723503,445.93499999971533,3.169552e-05
445.9499999997153,0.003857049,445.9499999997153,3.549327e-05,445.9499999997153,0.0006986604,445.9499999997153,2.806598e-05
445.9649999997153,0.003889104,445.9649999997153,3.24631e-05,445.9649999997153,0.0006901136,445.9649999997153,2.779363e-05
445.9799999997153,0.00382728,445.9799999997153,3.256362e-05,445.9799999997153,0.0006487594,445.9799999997153,2.668222e-05
445.9949999997153,0.003728074,445.9949999997153,3.185335e-05,445.9949999997153,0.0005685139,445.9949999997153,2.309498e-05
446.00999999971526,0.003503366,446.00999999971526,3.172306e-05,446.00999999971526,0.0004907439,446.00999999971526,2.327785e-05
446.02499999971525,0.003371466,446.02499999971525,3.775713e-05,446.02499999971525,0.0005699009,446.02499999971525,3.138646e-05
446.03999999971523,0.003129071,446.03999999971523,4.180457e-05,446.03999999971523,0.0006254104,446.03999999971523,3.565759e-05
446.0549999997152,0.003363721,446.0549999997152,4.273964e-05,446.0549999997152,0.0006322314,446.0549999997152,3.633965e-05
446.0699999997152,0.003705401,446.0699999997152,4.387613e-05,446.0699999997152,0.0006651041,446.0699999997152,3.740892e-05
446.0849999997152,0.003931767,446.0849999997152,4.261818e-05,446.0849999997152,0.0006684492,446.0849999997152,3.711291e-05
446.0999999997152,0.004005447,446.0999999997152,4.095693e-05,446.0999999997152,0.0006664176,446.0999999997152,3.623445e-05
446.11499999971517,0.003945627,446.11499999971517,4.174151e-05,446.11499999971517,0.0006557897,446.11499999971517,3.592876e-05
446.12999999971515,0.00386144,446.12999999971515,4.262908e-05,446.12999999971515,0.00067941,446.12999999971515,3.777354e-05
446.14499999971514,0.00402151,446.14499999971514,4.309511e-05,446.14499999971514,0.0007632377,446.14499999971514,4.115388e-05
446.1599999997151,0.00421125,446.1599999997151,4.494882e-05,446.1599999997151,0.0008769431,446.1599999997151,4.680166e-05
446.1749999997151,0.004297857,446.1749999997151,4.505619e-05,446.1749999997151,0.0008970918,446.1749999997151,4.706638e-05
446.1899999997151,0.004447308,446.1899999997151,4.489991e-05,446.1899999997151,0.0009207446,446.1899999997151,4.884211e-05
446.2049999997151,0.004634417,446.2049999997151,4.419538e-05,446.2049999997151,0.001024115,446.2049999997151,5.043639e-05
446.21999999971507,0.004667989,446.21999999971507,4.511087e-05,446.21999999971507,0.001203956,446.21999999971507,5.290527e-05
446.23499999971506,0.004796808,446.23499999971506,5.12394e-05,446.23499999971506,0.001247528,446.23499999971506,5.391568e-05
446.24999999971504,0.004888433,446.24999999971504,5.634212e-05,446.24999999971504,0.001241317,446.24999999971504,5.329233e-05
446.26499999971503,0.00488716,446.26499999971503,6.068209e-05,446.26499999971503,0.001240928,446.26499999971503,5.247189e-05
446.279999999715,0.004712379,446.279999999715,5.607722e-05,446.279999999715,0.001206115,446.279999999715,4.696571e-05
446.294999999715,0.004734162,446.294999999715,5.509931e-05,446.294999999715,0.001247898,446.294999999715,4.544687e-05
446.309999999715,0.00481864,446.309999999715,5.917203e-05,446.309999999715,0.001234132,446.309999999715,4.48324e-05
446.324999999715,0.00484229,446.324999999715,6.705278e-05,446.324999999715,0.001213856,446.324999999715,4.376683e-05
446.33999999971496,0.00471478,446.33999999971496,7.092539e-05,446.33999999971496,0.001212595,446.33999999971496,4.374139e-05
446.35499999971495,0.004535662,446.35499999971495,7.260038e-05,446.35499999971495,0.001203359,446.35499999971495,4.344443e-05
446.36999999971493,0.004398115,446.36999999971493,7.284483e-05,446.36999999971493,0.001201816,446.36999999971493,4.29871e-05
446.3849999997149,0.004377008,446.3849999997149,7.274537e-05,446.3849999997149,0.001184605,446.3849999997149,4.145605e-05
446.3999999997149,0.004336743,446.3999999997149,7.240803e-05,446.3999999997149,0.001123109,446.3999999997149,3.642638e-05
446.4149999997149,0.00426616,446.4149999997149,7.189984e-05,446.4149999997149,0.0009984713,446.4149999997149,2.949422e-05
446.4299999997149,0.004173705,446.4299999997149,7.305801e-05,446.4299999997149,0.0009837786,446.4299999997149,2.965664e-05
446.44499999971487,0.004142286,446.44499999971487,7.366497e-05,446.44499999971487,0.0009947926,446.44499999971487,2.725936e-05
446.45999999971485,0.004317001,446.45999999971485,7.385176e-05,446.45999999971485,0.0009164657,446.45999999971485,2.398072e-05
446.47499999971484,0.004317027,446.47499999971484,7.268105e-05,446.47499999971484,0.0006813497,446.47499999971484,1.830249e-05
446.4899999997148,0.004317016,446.4899999997148,6.911558e-05,446.4899999997148,0.0006630217,446.4899999997148,1.66501e-05
446.5049999997148,0.004316527,446.5049999997148,6.343014e-05,446.5049999997148,0.0006789498,446.5049999997148,1.695859e-05
446.5199999997148,0.004402178,446.5199999997148,5.749908e-05,446.5199999997148,0.000675668,446.5199999997148,1.640635e-05
446.5349999997148,0.004606425,446.5349999997148,5.527518e-05,446.5349999997148,0.0005855249,446.5349999997148,1.739164e-05
446.54999999971477,0.004655288,446.54999999971477,5.577042e-05,446.54999999971477,0.0006207692,446.54999999971477,1.767286e-05
446.56499999971476,0.004639545,446.56499999971476,5.216224e-05,446.56499999971476,0.0007740966,446.56499999971476,2.021312e-05
446.57999999971474,0.004683495,446.57999999971474,4.407761e-05,446.57999999971474,0.0008112757,446.57999999971474,2.477298e-05
446.59499999971473,0.004784295,446.59499999971473,4.002351e-05,446.59499999971473,0.0008703403,446.59499999971473,2.782908e-05
446.6099999997147,0.004849618,446.6099999997147,3.704338e-05,446.6099999997147,0.0009366747,446.6099999997147,2.814767e-05
446.6249999997147,0.0048683,446.6249999997147,3.996363e-05,446.6249999997147,0.00108405,446.6249999997147,2.86413e-05
446.6399999997147,0.004857957,446.6399999997147,4.390597e-05,446.6399999997147,0.001739893,446.6399999997147,3.099717e-05
446.6549999997147,0.00481094,446.6549999997147,4.761892e-05,446.6549999997147,0.002163258,446.6549999997147,3.147341e-05
446.66999999971466,0.004852081,446.66999999971466,5.353602e-05,446.66999999971466,0.002189481,446.66999999971466,3.434804e-05
446.68499999971465,0.004946406,446.68499999971465,6.340548e-05,446.68499999971465,0.002382107,446.68499999971465,4.617471e-05
446.69999999971463,0.005014371,446.69999999971463,7.738251e-05,446.69999999971463,0.002532014,446.69999999971463,5.103583e-05
446.7149999997146,0.005056248,446.7149999997146,8.965428e-05,446.7149999997146,0.002910527,446.7149999997146,5.612769e-05
446.7299999997146,0.005098389,446.7299999997146,9.154387e-05,446.7299999997146,0.003235876,446.7299999997146,5.81013e-05
446.7449999997146,0.005055035,446.7449999997146,9.234912e-05,446.7449999997146,0.003422423,446.7449999997146,6.047885e-05
446.7599999997146,0.004922091,446.7599999997146,0.0001054841,446.7599999997146,0.003658896,446.7599999997146,7.686414e-05
446.77499999971457,0.00492206,446.77499999971457,0.0001134584,446.77499999971457,0.003736333,446.77499999971457,8.887106e-05
446.78999999971455,0.004955227,446.78999999971455,0.0001192716,446.78999999971455,0.003749477,446.78999999971455,9.666251e-05
446.80499999971454,0.005085122,446.80499999971454,0.0001273339,446.80499999971454,0.003761157,446.80499999971454,9.92632e-05
446.8199999997145,0.005191862,446.8199999997145,0.0001291492,446.8199999997145,0.003764875,446.8199999997145,0.0001115792
446.8349999997145,0.005138772,446.8349999997145,0.0001350109,446.8349999997145,0.003793493,446.8349999997145,0.0001259364
446.8499999997145,0.005004912,446.8499999997145,0.0001655194,446.8499999997145,0.003949444,446.8499999997145,0.0001477178
446.8649999997145,0.005004912,446.8649999997145,0.0002130172,446.8649999997145,0.004157691,446.8649999997145,0.0001883041
446.87999999971447,0.005021461,446.87999999971447,0.0002246541,446.87999999971447,0.004105697,446.87999999971447,0.0001937872
446.89499999971446,0.005101543,446.89499999971446,0.0002367156,446.89499999971446,0.003938976,446.89499999971446,0.0002058003
446.90999999971444,0.005159424,446.90999999971444,0.0002417729,446.90999999971444,0.003869665,446.90999999971444,0.0002132392
446.92499999971443,0.005151791,446.92499999971443,0.0002398355,446.92499999971443,0.003859885,446.92499999971443,0.0002124301
446.9399999997144,0.005045374,446.9399999997144,0.0002361024,446.9399999997144,0.003649062,446.9399999997144,0.0002099551
446.9549999997144,0.004974489,446.9549999997144,0.0002334494,446.9549999997144,0.00351986,446.9549999997144,0.0002091934
446.9699999997144,0.004757882,446.9699999997144,0.0002281137,446.9699999997144,0.003299683,446.9699999997144,0.0002086284
446.9849999997144,0.004495903,446.9849999997144,0.0002276278,446.9849999997144,0.003029796,446.9849999997144,0.0002083084
446.99999999971436,0.004229115,446.99999999971436,0.0002265509,446.99999999971436,0.002829544,446.99999999971436,0.0002065048
447.01499999971435,0.004265987,447.01499999971435,0.0002222715,447.01499999971435,0.002511125,447.01499999971435,0.0002003086
447.02999999971433,0.004241231,447.02999999971433,0.0002181909,447.02999999971433,0.002466162,447.02999999971433,0.0001957183
447.0449999997143,0.004118789,447.0449999997143,0.000211661,447.0449999997143,0.002392115,447.0449999997143,0.0001882591
447.0599999997143,0.004024487,447.0599999997143,0.0002073058,447.0599999997143,0.002272674,447.0599999997143,0.0001869276
447.0749999997143,0.003953893,447.0749999997143,0.0002058105,447.0749999997143,0.002265882,447.0749999997143,0.0001793117
447.0899999997143,0.0038639,447.0899999997143,0.0002030129,447.0899999997143,0.002204051,447.0899999997143,0.0001737131
447.10499999971427,0.003763515,447.10499999971427,0.0001400661,447.10499999971427,0.001886723,447.10499999971427,0.0001185155
447.11999999971425,0.003646698,447.11999999971425,0.0001115945,447.11999999971425,0.001423395,447.11999999971425,9.386901e-05
447.13499999971424,0.003695468,447.13499999971424,9.027715e-05,447.13499999971424,0.001424757,447.13499999971424,8.556394e-05
447.1499999997142,0.003821013,447.1499999997142,5.091368e-05,447.1499999997142,0.001080451,447.1499999997142,4.532738e-05
447.1649999997142,0.003821028,447.1649999997142,3.871245e-05,447.1649999997142,0.0008606835,447.1649999997142,2.3906e-05
447.1799999997142,0.003787612,447.1799999997142,3.5323e-05,447.1799999997142,0.0007841466,447.1799999997142,2.442307e-05
447.1949999997142,0.003779727,447.1949999997142,3.391178e-05,447.1949999997142,0.0007742205,447.1949999997142,2.483148e-05
447.20999999971417,0.003653402,447.20999999971417,3.500774e-05,447.20999999971417,0.0007952435,447.20999999971417,2.385113e-05
447.22499999971416,0.003674155,447.22499999971416,3.6414e-05,447.22499999971416,0.0007711764,447.22499999971416,2.149978e-05
447.23999999971414,0.003798808,447.23999999971414,3.923043e-05,447.23999999971414,0.001173367,447.23999999971414,2.246172e-05
447.25499999971413,0.00386551,447.25499999971413,3.961313e-05,447.25499999971413,0.001400931,447.25499999971413,2.26727e-05
447.2699999997141,0.003897234,447.2699999997141,4.05626e-05,447.2699999997141,0.001585992,447.2699999997141,2.458175e-05
447.2849999997141,0.003946364,447.2849999997141,4.451962e-05,447.2849999997141,0.002081801,447.2849999997141,3.259907e-05
447.2999999997141,0.004241639,447.2999999997141,4.563493e-05,447.2999999997141,0.002211061,447.2999999997141,3.380277e-05
447.3149999997141,0.004212171,447.3149999997141,4.680526e-05,447.3149999997141,0.002294196,447.3149999997141,3.382152e-05
447.32999999971406,0.004070637,447.32999999971406,4.918069e-05,447.32999999971406,0.002336096,447.32999999971406,3.335262e-05
447.34499999971405,0.003958327,447.34499999971405,5.45523e-05,447.34499999971405,0.002340977,447.34499999971405,3.347362e-05
447.35999999971403,0.003954041,447.35999999971403,5.500899e-05,447.35999999971403,0.002339473,447.35999999971403,3.342898e-05
447.374999999714,0.004069917,447.374999999714,5.533783e-05,447.374999999714,0.002352601,447.374999999714,3.31446e-05
447.389999999714,0.004068671,447.389999999714,5.734699e-05,447.389999999714,0.002357452,447.389999999714,3.272759e-05
447.404999999714,0.003986049,447.404999999714,6.185558e-05,447.404999999714,0.002381589,447.404999999714,3.361891e-05
447.419999999714,0.004059996,447.419999999714,6.303717e-05,447.419999999714,0.002420458,447.419999999714,3.481163e-05
447.43499999971397,0.004198351,447.43499999971397,6.844772e-05,447.43499999971397,0.002424435,447.43499999971397,3.391967e-05
447.44999999971395,0.004341393,447.44999999971395,6.860395e-05,447.44999999971395,0.002474502,447.44999999971395,3.38186e-05
447.46499999971394,0.004468313,447.46499999971394,7.008846e-05,447.46499999971394,0.002441715,447.46499999971394,3.420337e-05
447.4799999997139,0.004463586,447.4799999997139,8.200084e-05,447.4799999997139,0.002417257,447.4799999997139,3.654568e-05
447.4949999997139,0.00444037,447.4949999997139,8.20017e-05,447.4949999997139,0.002211397,447.4949999997139,4.189411e-05
447.5099999997139,0.004467083,447.5099999997139,8.629524e-05,447.5099999997139,0.002144571,447.5099999997139,4.470213e-05
447.5249999997139,0.004415873,447.5249999997139,8.795797e-05,447.5249999997139,0.001894809,447.5249999997139,4.486821e-05
447.53999999971387,0.004416042,447.53999999971387,0.0001529209,447.53999999971387,0.001353884,447.53999999971387,4.110833e-05
447.55499999971386,0.004368337,447.55499999971386,0.0002812852,447.55499999971386,0.001292596,447.55499999971386,4.265122e-05
447.56999999971384,0.004447408,447.56999999971384,0.0003535252,447.56999999971384,0.001215179,447.56999999971384,4.636742e-05
447.58499999971383,0.004504312,447.58499999971383,0.0004091485,447.58499999971383,0.00115016,447.58499999971383,4.668442e-05
447.5999999997138,0.004443567,447.5999999997138,0.0004734551,447.5999999997138,0.001175787,447.5999999997138,4.673177e-05
447.6149999997138,0.004269001,447.6149999997138,0.0005340164,447.6149999997138,0.001163196,447.6149999997138,4.67378e-05
447.6299999997138,0.004064854,447.6299999997138,0.0005459189,447.6299999997138,0.001134476,447.6299999997138,4.69453e-05
447.6449999997138,0.003948214,447.6449999997138,0.0005636632,447.6449999997138,0.001152539,447.6449999997138,4.791265e-05
447.65999999971376,0.003878062,447.65999999971376,0.0005667674,447.65999999971376,0.001084903,447.65999999971376,4.725128e-05
447.67499999971375,0.003726119,447.67499999971375,0.0005666731,447.67499999971375,0.001029564,447.67499999971375,5.02133e-05
447.68999999971373,0.003549223,447.68999999971373,0.0005701787,447.68999999971373,0.001015901,447.68999999971373,5.225101e-05
447.7049999997137,0.003280644,447.7049999997137,0.0005702235,447.7049999997137,0.000854692,447.7049999997137,5.209685e-05
447.7199999997137,0.003077991,447.7199999997137,0.0005690163,447.7199999997137,0.0008246669,447.7199999997137,5.080428e-05
447.7349999997137,0.002906879,447.7349999997137,0.0005683382,447.7349999997137,0.0008298481,447.7349999997137,4.881846e-05
447.7499999997137,0.002704651,447.7499999997137,0.00056812,447.7499999997137,0.0009429312,447.7499999997137,4.345578e-05
447.76499999971367,0.002572722,447.76499999971367,0.0005676316,447.76499999971367,0.0009238957,447.76499999971367,4.06521e-05
447.77999999971365,0.002476945,447.77999999971365,0.000567404,447.77999999971365,0.0009517884,447.77999999971365,4.053898e-05
447.79499999971364,0.002306266,447.79499999971364,0.0005408273,447.79499999971364,0.001013553,447.79499999971364,3.96572e-05
447.8099999997136,0.002458579,447.8099999997136,0.0004861351,447.8099999997136,0.0009517166,447.8099999997136,3.965649e-05
447.8249999997136,0.002284453,447.8249999997136,0.0004206015,447.8249999997136,0.0009833254,447.8249999997136,3.646155e-05
447.8399999997136,0.002164296,447.8399999997136,0.0003868004,447.8399999997136,0.001079591,447.8399999997136,3.625311e-05
447.8549999997136,0.002210794,447.8549999997136,0.0002748701,447.8549999997136,0.001098213,447.8549999997136,3.614765e-05
447.86999999971357,0.00240506,447.86999999971357,0.0002111243,447.86999999971357,0.001105818,447.86999999971357,3.677699e-05
447.88499999971356,0.002636544,447.88499999971356,0.0001596837,447.88499999971356,0.001074132,447.88499999971356,3.630824e-05
447.89999999971354,0.002777305,447.89999999971354,0.0001123915,447.89999999971354,0.001064981,447.89999999971354,3.466646e-05
447.91499999971353,0.002779107,447.91499999971353,9.684538e-05,447.91499999971353,0.00105892,447.91499999971353,3.319598e-05
447.9299999997135,0.002870281,447.9299999997135,8.712507e-05,447.9299999997135,0.00109854,447.9299999997135,2.84815e-05
447.9449999997135,0.003223422,447.9449999997135,7.994805e-05,447.9449999997135,0.001140454,447.9449999997135,2.614464e-05
447.9599999997135,0.003473823,447.9599999997135,7.984332e-05,447.9599999997135,0.001308032,447.9599999997135,2.843249e-05
447.9749999997135,0.003514549,447.9749999997135,7.951484e-05,447.9749999997135,0.001359379,447.9749999997135,2.883345e-05
447.98999999971346,0.003678351,447.98999999971346,8.121857e-05,447.98999999971346,0.001410121,447.98999999971346,2.94335e-05
448.00499999971345,0.003848648,448.00499999971345,9.292817e-05,448.00499999971345,0.001640509,448.00499999971345,4.938848e-05
448.01999999971343,0.00385703,448.01999999971343,0.0001071714,448.01999999971343,0.00170667,448.01999999971343,7.444942e-05
448.0349999997134,0.004081817,448.0349999997134,0.000113528,448.0349999997134,0.001692404,448.0349999997134,8.205682e-05
448.0499999997134,0.00434751,448.0499999997134,0.0001069856,448.0499999997134,0.001668759,448.0499999997134,8.104894e-05
448.0649999997134,0.004349947,448.0649999997134,9.452715e-05,448.0649999997134,0.001666346,448.0649999997134,8.009206e-05
448.0799999997134,0.004493339,448.0799999997134,9.320214e-05,448.0799999997134,0.001637368,448.0799999997134,8.119272e-05
448.09499999971337,0.004621095,448.09499999971337,9.827756e-05,448.09499999971337,0.001599422,448.09499999971337,8.417251e-05
448.10999999971335,0.004697586,448.10999999971335,0.0001002324,448.10999999971335,0.001854084,448.10999999971335,8.686438e-05
448.12499999971334,0.004808408,448.12499999971334,0.0001006203,448.12499999971334,0.002053198,448.12499999971334,8.7491e-05
448.1399999997133,0.004836946,448.1399999997133,0.0001005082,448.1399999997133,0.00229619,448.1399999997133,8.965679e-05
448.1549999997133,0.004812728,448.1549999997133,0.0001012868,448.1549999997133,0.002658003,448.1549999997133,9.048195e-05
448.1699999997133,0.004812706,448.1699999997133,0.0001042503,448.1699999997133,0.002741433,448.1699999997133,9.140065e-05
448.1849999997133,0.004944731,448.1849999997133,0.0001115541,448.1849999997133,0.00274968,448.1849999997133,9.498799e-05
448.19999999971327,0.004957675,448.19999999971327,0.0001143405,448.19999999971327,0.002740216,448.19999999971327,9.870862e-05
448.21499999971326,0.004878693,448.21499999971326,0.0001206656,448.21499999971326,0.002674578,448.21499999971326,0.0001046334
448.22999999971324,0.004955242,448.22999999971324,0.0001239588,448.22999999971324,0.002711333,448.22999999971324,0.0001046112
448.24499999971323,0.004873399,448.24499999971323,0.0001222616,448.24499999971323,0.002660623,448.24499999971323,0.0001024803
448.2599999997132,0.004748375,448.2599999997132,0.0001109391,448.2599999997132,0.002527546,448.2599999997132,9.272755e-05
448.2749999997132,0.004641422,448.2749999997132,9.738222e-05,448.2749999997132,0.002551704,448.2749999997132,7.510104e-05
448.2899999997132,0.004633384,448.2899999997132,9.960718e-05,448.2899999997132,0.00254718,448.2899999997132,7.602774e-05
448.3049999997132,0.004651813,448.3049999997132,9.945007e-05,448.3049999997132,0.002561308,448.3049999997132,7.762152e-05
448.31999999971316,0.004708074,448.31999999971316,0.0001021463,448.31999999971316,0.002579275,448.31999999971316,8.527551e-05
448.33499999971315,0.004612471,448.33499999971315,0.0001017126,448.33499999971315,0.002561881,448.33499999971315,8.531928e-05
448.34999999971313,0.004623837,448.34999999971313,9.867937e-05,448.34999999971313,0.002551807,448.34999999971313,8.485605e-05
448.3649999997131,0.004599263,448.3649999997131,9.819353e-05,448.3649999997131,0.002215629,448.3649999997131,8.301227e-05
448.3799999997131,0.004567296,448.3799999997131,0.0001040297,448.3799999997131,0.002110217,448.3799999997131,8.789581e-05
448.3949999997131,0.004583473,448.3949999997131,0.000108326,448.3949999997131,0.001799499,448.3949999997131,0.0001008089
448.4099999997131,0.00463448,448.4099999997131,0.000109027,448.4099999997131,0.001340986,448.4099999997131,0.0001028421
448.42499999971307,0.004685259,448.42499999971307,0.0001083294,448.42499999971307,0.001262866,448.42499999971307,0.0001021784
448.43999999971305,0.004684649,448.43999999971305,0.0001002123,448.43999999971305,0.001210666,448.43999999971305,0.0001017522
448.45499999971304,0.004679024,448.45499999971304,9.678848e-05,448.45499999971304,0.001198625,448.45499999971304,0.0001002989
448.469999999713,0.00485723,448.469999999713,9.134346e-05,448.469999999713,0.001158979,448.469999999713,0.0001010418
448.484999999713,0.004824519,448.484999999713,8.910755e-05,448.484999999713,0.0009729148,448.484999999713,0.0001014091
448.499999999713,0.004957657,448.499999999713,8.911768e-05,448.499999999713,0.0009241962,448.499999999713,0.0001029005
448.514999999713,0.005019214,448.514999999713,8.74844e-05,448.514999999713,0.0007824678,448.514999999713,0.0001036769
448.52999999971297,0.005070351,448.52999999971297,8.281315e-05,448.52999999971297,0.000778364,448.52999999971297,0.0001059383
448.54499999971296,0.005070358,448.54499999971296,7.946363e-05,448.54499999971296,0.0008602121,448.54499999971296,0.0001032494
448.55999999971294,0.005049953,448.55999999971294,7.969799e-05,448.55999999971294,0.0008722703,448.55999999971294,0.0001023886
448.57499999971293,0.004993449,448.57499999971293,7.681464e-05,448.57499999971293,0.001081072,448.57499999971293,9.677e-05
448.5899999997129,0.004975459,448.5899999997129,7.770495e-05,448.5899999997129,0.001121187,448.5899999997129,9.519257e-05
448.6049999997129,0.004903224,448.6049999997129,7.706273e-05,448.6049999997129,0.001230285,448.6049999997129,9.482903e-05
448.6199999997129,0.004868131,448.6199999997129,7.617786e-05,448.6199999997129,0.001325074,448.6199999997129,9.489229e-05
448.6349999997129,0.004836935,448.6349999997129,6.777597e-05,448.6349999997129,0.001347889,448.6349999997129,8.616554e-05
448.64999999971286,0.004742979,448.64999999971286,6.170326e-05,448.64999999971286,0.001364105,448.64999999971286,7.72763e-05
448.66499999971285,0.004742979,448.66499999971285,5.358835e-05,448.66499999971285,0.001394943,448.66499999971285,8.354779e-05
448.67999999971283,0.004742979,448.67999999971283,5.727178e-05,448.67999999971283,0.00140659,448.67999999971283,8.502306e-05
448.6949999997128,0.004752374,448.6949999997128,6.738494e-05,448.6949999997128,0.001499108,448.6949999997128,8.358015e-05
448.7099999997128,0.004807087,448.7099999997128,6.874118e-05,448.7099999997128,0.00195157,448.7099999997128,7.574075e-05
448.7249999997128,0.004715376,448.7249999997128,7.093433e-05,448.7249999997128,0.002152638,448.7249999997128,7.56043e-05
448.7399999997128,0.004618584,448.7399999997128,7.728214e-05,448.7399999997128,0.002154421,448.7399999997128,7.672454e-05
448.75499999971277,0.004605528,448.75499999971277,7.945299e-05,448.75499999971277,0.002155146,448.75499999971277,7.528408e-05
448.76999999971275,0.004649983,448.76999999971275,8.003611e-05,448.76999999971275,0.002225909,448.76999999971275,7.152899e-05
448.78499999971274,0.004457301,448.78499999971274,8.027371e-05,448.78499999971274,0.002471079,448.78499999971274,6.868501e-05
448.7999999997127,0.004292857,448.7999999997127,7.896214e-05,448.7999999997127,0.002619665,448.7999999997127,6.88947e-05
448.8149999997127,0.00414424,448.8149999997127,8.039874e-05,448.8149999997127,0.002687741,448.8149999997127,6.819122e-05
448.8299999997127,0.004133966,448.8299999997127,8.41884e-05,448.8299999997127,0.002612302,448.8299999997127,6.907379e-05
448.8449999997127,0.004276101,448.8449999997127,8.643242e-05,448.8449999997127,0.002910208,448.8449999997127,6.830474e-05
448.85999999971267,0.004315998,448.85999999971267,8.68947e-05,448.85999999971267,0.003173478,448.85999999971267,6.566403e-05
448.87499999971266,0.004398716,448.87499999971266,8.457803e-05,448.87499999971266,0.003253164,448.87499999971266,6.562283e-05
448.88999999971264,0.004425409,448.88999999971264,8.505983e-05,448.88999999971264,0.003402079,448.88999999971264,6.361641e-05
448.90499999971263,0.004375459,448.90499999971263,9.025577e-05,448.90499999971263,0.003663797,448.90499999971263,5.77277e-05
448.9199999997126,0.004375243,448.9199999997126,9.073319e-05,448.9199999997126,0.003818286,448.9199999997126,5.041684e-05
448.9349999997126,0.004338093,448.9349999997126,8.439196e-05,448.9349999997126,0.003826679,448.9349999997126,5.157317e-05
448.9499999997126,0.004254578,448.9499999997126,7.763186e-05,448.9499999997126,0.00379024,448.9499999997126,5.17229e-05
448.9649999997126,0.004280943,448.9649999997126,9.264001e-05,448.9649999997126,0.003627833,448.9649999997126,9.047759e-05
448.97999999971256,0.004408781,448.97999999971256,0.0001038268,448.97999999971256,0.003635077,448.97999999971256,0.0001345576
448.99499999971255,0.004550974,448.99499999971255,9.671059e-05,448.99499999971255,0.003630757,448.99499999971255,0.0001387495
449.00999999971253,0.004569701,449.00999999971253,9.643855e-05,449.00999999971253,0.00363801,449.00999999971253,0.0001467431
449.0249999997125,0.004650695,449.0249999997125,0.0001127803,449.0249999997125,0.00356767,449.0249999997125,0.0001519062
449.0399999997125,0.004620655,449.0399999997125,0.0001381458,449.0399999997125,0.003394274,449.0399999997125,0.0001662569
449.0549999997125,0.004603623,449.0549999997125,0.000171936,449.0549999997125,0.00348945,449.0549999997125,0.0002090976
449.0699999997125,0.004740878,449.0699999997125,0.0001832271,449.0699999997125,0.003636774,449.0699999997125,0.0002328926
449.08499999971247,0.004929594,449.08499999971247,0.0001879225,449.08499999971247,0.003703378,449.08499999971247,0.0002409299
449.09999999971245,0.005040662,449.09999999971245,0.000190302,449.09999999971245,0.003722556,449.09999999971245,0.0002424811
449.11499999971244,0.005009897,449.11499999971244,0.0001903125,449.11499999971244,0.003541318,449.11499999971244,0.0002426326
449.1299999997124,0.004970981,449.1299999997124,0.0002007223,449.1299999997124,0.003558084,449.1299999997124,0.0002504651
449.1449999997124,0.005134885,449.1449999997124,0.0002121314,449.1449999997124,0.003381636,449.1449999997124,0.0002786985
449.1599999997124,0.005168518,449.1599999997124,0.0002122349,449.1599999997124,0.003120856,449.1599999997124,0.0002801474
449.1749999997124,0.005092082,449.1749999997124,0.0002195514,449.1749999997124,0.002985665,449.1749999997124,0.0002847068
449.18999999971237,0.004983244,449.18999999971237,0.0002195195,449.18999999971237,0.002998088,449.18999999971237,0.0002875552
449.20499999971236,0.00484354,449.20499999971236,0.0002217872,449.20499999971236,0.002989657,449.20499999971236,0.0002869717
449.21999999971234,0.004810475,449.21999999971234,0.0002131515,449.21999999971234,0.002884005,449.21999999971234,0.0002735327
449.23499999971233,0.005009977,449.23499999971233,0.000209522,449.23499999971233,0.003069819,449.23499999971233,0.0002597691
449.2499999997123,0.005117707,449.2499999997123,0.0002075579,449.2499999997123,0.003179731,449.2499999997123,0.0002553288
449.2649999997123,0.005139436,449.2649999997123,0.0002057541,449.2649999997123,0.003153429,449.2649999997123,0.0002500657
449.2799999997123,0.005091028,449.2799999997123,0.0001976599,449.2799999997123,0.003140189,449.2799999997123,0.0002473333
449.2949999997123,0.005017431,449.2949999997123,0.0001833104,449.2949999997123,0.003194452,449.2949999997123,0.0002419355
449.30999999971226,0.005120873,449.30999999971226,0.0001637767,449.30999999971226,0.00313526,449.30999999971226,0.0002102914
449.32499999971225,0.005176931,449.32499999971225,0.0001559415,449.32499999971225,0.003250892,449.32499999971225,0.0001977263
449.33999999971223,0.005119596,449.33999999971223,0.0001575579,449.33999999971223,0.003199542,449.33999999971223,0.0002039184
449.3549999997122,0.005119596,449.3549999997122,0.0001588244,449.3549999997122,0.002960462,449.3549999997122,0.0002113546
449.3699999997122,0.005071302,449.3699999997122,0.0001582792,449.3699999997122,0.002898746,449.3699999997122,0.0002110851
449.3849999997122,0.005073186,449.3849999997122,0.0001440467,449.3849999997122,0.002858355,449.3849999997122,0.0001910698
449.3999999997122,0.005031068,449.3999999997122,0.000131512,449.3999999997122,0.002959975,449.3999999997122,0.0001504778
449.41499999971217,0.004911191,449.41499999971217,0.0001248979,449.41499999971217,0.003040376,449.41499999971217,0.0001479759
449.42999999971215,0.004811526,449.42999999971215,0.0001189362,449.42999999971215,0.003034038,449.42999999971215,0.0001442338
449.44499999971214,0.004682703,449.44499999971214,0.0001180473,449.44499999971214,0.002985943,449.44499999971214,0.0001443591
449.4599999997121,0.004778107,449.4599999997121,0.0001142176,449.4599999997121,0.00304756,449.4599999997121,0.0001444463
449.4749999997121,0.004881531,449.4749999997121,0.0001127309,449.4749999997121,0.003063088,449.4749999997121,0.0001400554
449.4899999997121,0.004787595,449.4899999997121,0.0001106119,449.4899999997121,0.002828253,449.4899999997121,0.0001406347
449.5049999997121,0.004787595,449.5049999997121,0.0001080443,449.5049999997121,0.002783742,449.5049999997121,0.0001414224
449.51999999971207,0.004787595,449.51999999971207,0.0001087597,449.51999999971207,0.002787157,449.51999999971207,0.0001418667
449.53499999971206,0.004787855,449.53499999971206,0.000106638,449.53499999971206,0.002765883,449.53499999971206,0.0001409275
449.54999999971204,0.004845902,449.54999999971204,9.588203e-05,449.54999999971204,0.002585251,449.54999999971204,0.0001175294
449.56499999971203,0.004751975,449.56499999971203,6.887568e-05,449.56499999971203,0.002333668,449.56499999971203,8.935194e-05
449.579999999712,0.004541846,449.579999999712,7.152702e-05,449.579999999712,0.001911496,449.579999999712,8.756777e-05
449.594999999712,0.004419592,449.594999999712,6.049003e-05,449.594999999712,0.001738776,449.594999999712,6.963073e-05
449.609999999712,0.004322321,449.609999999712,5.850431e-05,449.609999999712,0.001718928,449.609999999712,5.674695e-05
449.624999999712,0.004032687,449.624999999712,4.841396e-05,449.624999999712,0.001708523,449.624999999712,5.610736e-05
449.63999999971196,0.003912333,449.63999999971196,4.836476e-05,449.63999999971196,0.001600082,449.63999999971196,5.28376e-05
449.65499999971195,0.00411877,449.65499999971195,5.10339e-05,449.65499999971195,0.001391596,449.65499999971195,5.130259e-05
449.66999999971193,0.004411278,449.66999999971193,5.284746e-05,449.66999999971193,0.001108714,449.66999999971193,5.112408e-05
449.6849999997119,0.004598327,449.6849999997119,5.111802e-05,449.6849999997119,0.001033934,449.6849999997119,5.250543e-05
449.6999999997119,0.004589401,449.6999999997119,5.547741e-05,449.6999999997119,0.0009955653,449.6999999997119,4.754432e-05
449.7149999997119,0.00443048,449.7149999997119,5.545709e-05,449.7149999997119,0.0007904563,449.7149999997119,4.369306e-05
449.7299999997119,0.004286432,449.7299999997119,5.443701e-05,449.7299999997119,0.0007649538,449.7299999997119,4.712291e-05
449.74499999971187,0.004476056,449.74499999971187,5.224562e-05,449.74499999971187,0.000767867,449.74499999971187,5.046124e-05
449.75999999971185,0.004527655,449.75999999971185,5.225425e-05,449.75999999971185,0.0008163934,449.75999999971185,4.88865e-05
449.77499999971184,0.004364999,449.77499999971184,4.993733e-05,449.77499999971184,0.001050752,449.77499999971184,5.480991e-05
449.7899999997118,0.004154725,449.7899999997118,5.212631e-05,449.7899999997118,0.001061569,449.7899999997118,5.686201e-05
449.8049999997118,0.003948767,449.8049999997118,5.579088e-05,449.8049999997118,0.001111344,449.8049999997118,5.7574e-05
449.8199999997118,0.004060986,449.8199999997118,6.267006e-05,449.8199999997118,0.001072067,449.8199999997118,7.75676e-05
449.8349999997118,0.004226756,449.8349999997118,6.382025e-05,449.8349999997118,0.001374649,449.8349999997118,0.0001020855
449.84999999971177,0.004417879,449.84999999971177,6.705215e-05,449.84999999971177,0.001794867,449.84999999971177,0.0001003967
449.86499999971176,0.00461068,449.86499999971176,7.257437e-05,449.86499999971176,0.001820857,449.86499999971176,0.0001105988
449.87999999971174,0.004726705,449.87999999971174,8.590832e-05,449.87999999971174,0.002082422,449.87999999971174,0.0001324201
449.89499999971173,0.004749455,449.89499999971173,8.872956e-05,449.89499999971173,0.002462531,449.89499999971173,0.0001415517
449.9099999997117,0.004749457,449.9099999997117,9.110148e-05,449.9099999997117,0.002517855,449.9099999997117,0.0001415163
449.9249999997117,0.004749455,449.9249999997117,9.083855e-05,449.9249999997117,0.00258524,449.9249999997117,0.0001416103
449.9399999997117,0.004766249,449.9399999997117,9.064838e-05,449.9399999997117,0.00273474,449.9399999997117,0.0001403664
449.9549999997117,0.004716896,449.9549999997117,8.83729e-05,449.9549999997117,0.002772643,449.9549999997117,0.000139271
449.96999999971166,0.004713,449.96999999971166,8.889214e-05,449.96999999971166,0.00279415,449.96999999971166,0.0001409017
449.98499999971165,0.004737649,449.98499999971165,8.895741e-05,449.98499999971165,0.002825233,449.98499999971165,0.0001402359
449.99999999971163,0.004786622,449.99999999971163,9.096144e-05,449.99999999971163,0.002853762,449.99999999971163,0.0001420191
450.0149999997116,0.004763498,450.0149999997116,9.367867e-05,450.0149999997116,0.002889495,450.0149999997116,0.0001435847
450.0299999997116,0.004881551,450.0299999997116,9.361038e-05,450.0299999997116,0.002850415,450.0299999997116,0.0001428533
450.0449999997116,0.004877227,450.0449999997116,9.50464e-05,450.0449999997116,0.002880276,450.0449999997116,0.000143616
450.0599999997116,0.004845806,450.0599999997116,9.44174e-05,450.0599999997116,0.002895862,450.0599999997116,0.0001438487
450.07499999971157,0.004775388,450.07499999971157,8.946223e-05,450.07499999971157,0.002875968,450.07499999971157,0.0001299697
450.08999999971155,0.004822572,450.08999999971155,8.902563e-05,450.08999999971155,0.00293261,450.08999999971155,0.0001205227
450.10499999971154,0.00491671,450.10499999971154,0.0001037649,450.10499999971154,0.003085195,450.10499999971154,0.0001409011
450.1199999997115,0.004940072,450.1199999997115,9.827613e-05,450.1199999997115,0.003190221,450.1199999997115,0.000143892
450.1349999997115,0.004967613,450.1349999997115,9.253381e-05,450.1349999997115,0.003166447,450.1349999997115,0.0001322262
450.1499999997115,0.004958209,450.1499999997115,0.0001007219,450.1499999997115,0.003221181,450.1499999997115,0.0001350736
450.1649999997115,0.004905778,450.1649999997115,0.0001074332,450.1649999997115,0.003410191,450.1649999997115,0.0001395684
450.17999999971147,0.00481361,450.17999999971147,0.0001097295,450.17999999971147,0.003311876,450.17999999971147,0.0001404571
450.19499999971146,0.004718952,450.19499999971146,0.0001131127,450.19499999971146,0.003140273,450.19499999971146,0.0001412446
450.20999999971144,0.004652848,450.20999999971144,0.000113366,450.20999999971144,0.003278416,450.20999999971144,0.0001433733
450.22499999971143,0.00488842,450.22499999971143,0.000113293,450.22499999971143,0.003535197,450.22499999971143,0.0001461509
450.2399999997114,0.005049869,450.2399999997114,0.0001138494,450.2399999997114,0.003631425,450.2399999997114,0.0001440775
450.2549999997114,0.005010616,450.2549999997114,0.0001154112,450.2549999997114,0.003615387,450.2549999997114,0.0001411362
450.2699999997114,0.005010616,450.2699999997114,0.0001155474,450.2699999997114,0.003614507,450.2699999997114,0.0001406286
450.2849999997114,0.005010616,450.2849999997114,0.0001162611,450.2849999997114,0.003655543,450.2849999997114,0.0001402503
450.29999999971136,0.005028347,450.29999999971136,0.0001144422,450.29999999971136,0.00359801,450.29999999971136,0.0001390182
450.31499999971135,0.005032131,450.31499999971135,0.0001131118,450.31499999971135,0.0035818,450.31499999971135,0.0001380143
450.32999999971133,0.004984891,450.32999999971133,0.0001125872,450.32999999971133,0.003513945,450.32999999971133,0.000137159
450.3449999997113,0.004917777,450.3449999997113,0.0001041432,450.3449999997113,0.003235376,450.3449999997113,0.000115507
450.3599999997113,0.004917764,450.3599999997113,9.498873e-05,450.3599999997113,0.002901314,450.3599999997113,0.0001002177
450.3749999997113,0.004917752,450.3749999997113,9.626253e-05,450.3749999997113,0.002851567,450.3749999997113,8.575421e-05
450.3899999997113,0.00490373,450.3899999997113,9.208225e-05,450.3899999997113,0.002661741,450.3899999997113,8.364081e-05
450.40499999971126,0.004876117,450.40499999971126,8.278457e-05,450.40499999971126,0.002351997,450.40499999971126,7.357141e-05
450.41999999971125,0.004967126,450.41999999971125,8.002396e-05,450.41999999971125,0.002084243,450.41999999971125,7.709635e-05
450.43499999971124,0.004974757,450.43499999971124,7.849406e-05,450.43499999971124,0.002040823,450.43499999971124,7.417607e-05
450.4499999997112,0.00497897,450.4499999997112,7.797369e-05,450.4499999997112,0.002014039,450.4499999997112,7.783411e-05
450.4649999997112,0.004925563,450.4649999997112,8.060312e-05,450.4649999997112,0.001764526,450.4649999997112,7.696506e-05
450.4799999997112,0.004925555,450.4799999997112,8.152239e-05,450.4799999997112,0.001410542,450.4799999997112,7.712832e-05
450.4949999997112,0.004926459,450.4949999997112,8.382939e-05,450.4949999997112,0.001288646,450.4949999997112,7.911363e-05
450.50999999971117,0.005017107,450.50999999971117,7.64352e-05,450.50999999971117,0.0012746,450.50999999971117,7.624699e-05
450.52499999971116,0.004976481,450.52499999971116,7.86676e-05,450.52499999971116,0.001054945,450.52499999971116,7.662571e-05
450.53999999971114,0.004850641,450.53999999971114,8.203897e-05,450.53999999971114,0.0009592578,450.53999999971114,8.088296e-05
450.55499999971113,0.004855484,450.55499999971113,8.086781e-05,450.55499999971113,0.0009624512,450.55499999971113,8.204721e-05
450.5699999997111,0.00500543,450.5699999997111,8.066863e-05,450.5699999997111,0.0009652768,450.5699999997111,8.210933e-05
450.5849999997111,0.005192329,450.5849999997111,8.059316e-05,450.5849999997111,0.0009441762,450.5849999997111,8.252296e-05
450.5999999997111,0.005216519,450.5999999997111,7.998065e-05,450.5999999997111,0.0009429936,450.5999999997111,8.48675e-05
450.6149999997111,0.005078024,450.6149999997111,7.892092e-05,450.6149999997111,0.0009482622,450.6149999997111,8.591734e-05
450.62999999971106,0.004839235,450.62999999971106,7.926839e-05,450.62999999971106,0.0008287301,450.62999999971106,8.676686e-05
450.64499999971105,0.004646032,450.64499999971105,7.729143e-05,450.64499999971105,0.0007784123,450.64499999971105,8.606362e-05
450.65999999971103,0.004554007,450.65999999971103,6.96817e-05,450.65999999971103,0.0006668912,450.65999999971103,8.045233e-05
450.674999999711,0.004447824,450.674999999711,6.986481e-05,450.674999999711,0.0006987372,450.674999999711,8.357358e-05
450.689999999711,0.004374968,450.689999999711,6.970676e-05,450.689999999711,0.0007017219,450.689999999711,8.593963e-05
450.704999999711,0.00451693,450.704999999711,6.787193e-05,450.704999999711,0.0006957657,450.704999999711,8.410905e-05
450.719999999711,0.004594299,450.719999999711,6.605715e-05,450.719999999711,0.0006939847,450.719999999711,8.233258e-05
450.73499999971096,0.004594306,450.73499999971096,6.058311e-05,450.73499999971096,0.0006560046,450.73499999971096,7.978261e-05
450.74999999971095,0.004594312,450.74999999971095,5.713782e-05,450.74999999971095,0.0006533724,450.74999999971095,7.901689e-05
450.76499999971094,0.004531383,450.76499999971094,5.987232e-05,450.76499999971094,0.0006989783,450.76499999971094,9.167381e-05
450.7799999997109,0.004431758,450.7799999997109,5.900683e-05,450.7799999997109,0.0007251822,450.7799999997109,9.789468e-05
450.7949999997109,0.004595152,450.7949999997109,6.075864e-05,450.7949999997109,0.0009740634,450.7949999997109,0.0001062707
450.8099999997109,0.004642056,450.8099999997109,6.162285e-05,450.8099999997109,0.001014973,450.8099999997109,0.0001055008
450.8249999997109,0.004546368,450.8249999997109,6.341348e-05,450.8249999997109,0.001168598,450.8249999997109,0.0001093105
450.83999999971087,0.004546368,450.83999999971087,7.150319e-05,450.83999999971087,0.001261026,450.83999999971087,0.000114173
450.85499999971086,0.004580887,450.85499999971086,7.560747e-05,450.85499999971086,0.001292948,450.85499999971086,0.0001130479
450.86999999971084,0.004678281,450.86999999971084,8.062147e-05,450.86999999971084,0.001332914,450.86999999971084,0.0001314147
450.88499999971083,0.004720396,450.88499999971083,8.435956e-05,450.88499999971083,0.001455214,450.88499999971083,0.0001428587
450.8999999997108,0.004761563,450.8999999997108,8.633262e-05,450.8999999997108,0.001509906,450.8999999997108,0.0001412342
450.9149999997108,0.004778462,450.9149999997108,8.850479e-05,450.9149999997108,0.001556257,450.9149999997108,0.0001404853
450.9299999997108,0.004764338,450.9299999997108,8.693959e-05,450.9299999997108,0.001581083,450.9299999997108,0.0001401145
450.9449999997108,0.004822339,450.9449999997108,8.986881e-05,450.9449999997108,0.00174357,450.9449999997108,0.0001440364
450.95999999971076,0.005044786,450.95999999971076,9.173019e-05,450.95999999971076,0.001893308,450.95999999971076,0.0001497137
450.97499999971075,0.005175657,450.97499999971075,9.505233e-05,450.97499999971075,0.001929439,450.97499999971075,0.0001536809
450.98999999971073,0.00522081,450.98999999971073,9.507145e-05,450.98999999971073,0.001967568,450.98999999971073,0.0001538042
451.0049999997107,0.005179606,451.0049999997107,9.530452e-05,451.0049999997107,0.002025798,451.0049999997107,0.0001547741
451.0199999997107,0.00513415,451.0199999997107,9.361249e-05,451.0199999997107,0.002005188,451.0199999997107,0.0001459691
451.0349999997107,0.005021171,451.0349999997107,9.382262e-05,451.0349999997107,0.001947723,451.0349999997107,0.0001433812
451.0499999997107,0.004843509,451.0499999997107,9.215871e-05,451.0499999997107,0.001890185,451.0499999997107,0.0001395551
451.06499999971066,0.004618569,451.06499999971066,9.264958e-05,451.06499999971066,0.001908073,451.06499999971066,0.0001389611
451.07999999971065,0.004552199,451.07999999971065,9.087963e-05,451.07999999971065,0.001914242,451.07999999971065,0.0001343227
451.09499999971064,0.00449981,451.09499999971064,8.689648e-05,451.09499999971064,0.001864388,451.09499999971064,0.0001302317
451.1099999997106,0.004472071,451.1099999997106,8.430477e-05,451.1099999997106,0.001863794,451.1099999997106,0.0001284831
451.1249999997106,0.004414726,451.1249999997106,7.608664e-05,451.1249999997106,0.001860874,451.1249999997106,9.941749e-05
451.1399999997106,0.004374534,451.1399999997106,7.323653e-05,451.1399999997106,0.001789534,451.1399999997106,8.87721e-05
451.1549999997106,0.004374463,451.1549999997106,7.198659e-05,451.1549999997106,0.001745983,451.1549999997106,8.902199e-05
451.16999999971057,0.004332574,451.16999999971057,6.859389e-05,451.16999999971057,0.001724514,451.16999999971057,8.902152e-05
451.18499999971056,0.004227453,451.18499999971056,6.996254e-05,451.18499999971056,0.001683286,451.18499999971056,8.545917e-05
451.19999999971054,0.004298139,451.19999999971054,6.814493e-05,451.19999999971054,0.001528015,451.19999999971054,8.275649e-05
451.2149999997105,0.004298139,451.2149999997105,6.721938e-05,451.2149999997105,0.001359895,451.2149999997105,7.522436e-05
451.2299999997105,0.004298139,451.2299999997105,6.45526e-05,451.2299999997105,0.001324479,451.2299999997105,7.028175e-05
451.2449999997105,0.004148196,451.2449999997105,6.49544e-05,451.2449999997105,0.001321567,451.2449999997105,7.576586e-05
451.2599999997105,0.003901715,451.2599999997105,6.544527e-05,451.2599999997105,0.001279705,451.2599999997105,7.371678e-05
451.2749999997105,0.004015421,451.2749999997105,6.15977e-05,451.2749999997105,0.001280524,451.2749999997105,6.997441e-05
451.28999999971046,0.00424393,451.28999999971046,6.194342e-05,451.28999999971046,0.001283573,451.28999999971046,6.840655e-05
451.30499999971045,0.004374019,451.30499999971045,6.235051e-05,451.30499999971045,0.001224805,451.30499999971045,6.956455e-05
451.31999999971043,0.004474561,451.31999999971043,6.14782e-05,451.31999999971043,0.001137297,451.31999999971043,7.297505e-05
451.3349999997104,0.004548397,451.3349999997104,6.304096e-05,451.3349999997104,0.0009942499,451.3349999997104,7.456852e-05
451.3499999997104,0.004487948,451.3499999997104,6.983356e-05,451.3499999997104,0.0009944562,451.3499999997104,7.560616e-05
451.3649999997104,0.004482631,451.3649999997104,6.870695e-05,451.3649999997104,0.00107173,451.3649999997104,9.257871e-05
451.3799999997104,0.004569687,451.3799999997104,6.976635e-05,451.3799999997104,0.001001028,451.3799999997104,9.489169e-05
451.39499999971036,0.004462777,451.39499999971036,6.848434e-05,451.39499999971036,0.0009926622,451.39499999971036,9.648602e-05
451.40999999971035,0.004216383,451.40999999971035,6.874344e-05,451.40999999971035,0.0009106984,451.40999999971035,9.787554e-05
451.42499999971034,0.004178857,451.42499999971034,0.000141614,451.42499999971034,0.0008913268,451.42499999971034,9.828358e-05
451.4399999997103,0.00427284,451.4399999997103,0.0001482123,451.4399999997103,0.0008822049,451.4399999997103,9.803301e-05
451.4549999997103,0.004317336,451.4549999997103,0.000258953,451.4549999997103,0.0008533128,451.4549999997103,8.953416e-05
451.4699999997103,0.004196515,451.4699999997103,0.0003021883,451.4699999997103,0.0007714705,451.4699999997103,8.290767e-05
451.4849999997103,0.004089744,451.4849999997103,0.0003111406,451.4849999997103,0.0007439042,451.4849999997103,8.021859e-05
451.49999999971027,0.004311026,451.49999999971027,0.0003314323,451.49999999971027,0.0006808044,451.49999999971027,7.685131e-05
451.51499999971026,0.004481442,451.51499999971026,0.0003419063,451.51499999971026,0.0006748253,451.51499999971026,7.667386e-05
451.52999999971024,0.004495646,451.52999999971024,0.0003432181,451.52999999971024,0.0006672448,451.52999999971024,7.688155e-05
451.5449999997102,0.004512854,451.5449999997102,0.0003433037,451.5449999997102,0.0006209505,451.5449999997102,7.612939e-05
451.5599999997102,0.004483511,451.5599999997102,0.0003429588,451.5599999997102,0.0006016896,451.5599999997102,7.42389e-05
451.5749999997102,0.004453493,451.5749999997102,0.0003432396,451.5749999997102,0.0005959627,451.5749999997102,7.242028e-05
451.5899999997102,0.004380289,451.5899999997102,0.0003425094,451.5899999997102,0.0005760896,451.5899999997102,7.051526e-05
451.6049999997102,0.004304814,451.6049999997102,0.0003427089,451.6049999997102,0.0005206155,451.6049999997102,6.34863e-05
451.61999999971016,0.004089296,451.61999999971016,0.0003429956,451.61999999971016,0.0003213467,451.61999999971016,4.023098e-05
451.63499999971015,0.003967143,451.63499999971015,0.0003431712,451.63499999971015,0.0003077631,451.63499999971015,3.825417e-05
451.64999999971013,0.004081127,451.64999999971013,0.0003433511,451.64999999971013,0.000300245,451.64999999971013,3.378068e-05
451.6649999997101,0.004235075,451.6649999997101,0.000337547,451.6649999997101,0.0002969852,451.6649999997101,3.216536e-05
451.6799999997101,0.004225239,451.6799999997101,0.0003135588,451.6799999997101,0.0002868787,451.6799999997101,2.961719e-05
451.6949999997101,0.004088728,451.6949999997101,0.0003030496,451.6949999997101,0.000276841,451.6949999997101,2.94689e-05
451.7099999997101,0.003933519,451.7099999997101,0.0001954345,451.7099999997101,0.0003224077,451.7099999997101,3.099172e-05
451.72499999971006,0.003967416,451.72499999971006,0.0001629786,451.72499999971006,0.0003945882,451.72499999971006,3.199719e-05
451.73999999971005,0.003974515,451.73999999971005,0.0001462566,451.73999999971005,0.0003998919,451.73999999971005,3.232569e-05
451.75499999971004,0.003905423,451.75499999971004,0.0001059413,451.75499999971004,0.0004079303,451.75499999971004,3.36365e-05
451.76999999971,0.003795457,451.76999999971,8.377796e-05,451.76999999971,0.0004103897,451.76999999971,3.364529e-05
451.78499999971,0.003682679,451.78499999971,7.955116e-05,451.78499999971,0.0004269282,451.78499999971,3.337373e-05
451.79999999971,0.003573196,451.79999999971,7.772345e-05,451.79999999971,0.0004299835,451.79999999971,3.195798e-05
451.81499999971,0.003765348,451.81499999971,8.108195e-05,451.81499999971,0.0004996344,451.81499999971,4.155684e-05
451.82999999970997,0.003899297,451.82999999970997,7.989959e-05,451.82999999970997,0.0005030435,451.82999999970997,4.240378e-05
451.84499999970996,0.003903759,451.84499999970996,8.017485e-05,451.84499999970996,0.0005493643,451.84499999970996,4.592418e-05
451.85999999970994,0.004060282,451.85999999970994,7.893502e-05,451.85999999970994,0.0005752415,451.85999999970994,4.736056e-05
451.8749999997099,0.004274198,451.8749999997099,7.967006e-05,451.8749999997099,0.0005762111,451.8749999997099,4.72775e-05
451.8899999997099,0.004272238,451.8899999997099,8.123661e-05,451.8899999997099,0.0005762701,451.8899999997099,4.71244e-05
451.9049999997099,0.004051302,451.9049999997099,8.028986e-05,451.9049999997099,0.0005843099,451.9049999997099,4.677998e-05
451.9199999997099,0.004036956,451.9199999997099,8.092962e-05,451.9199999997099,0.0005861011,451.9199999997099,4.74595e-05
451.9349999997099,0.004096182,451.9349999997099,7.920564e-05,451.9349999997099,0.0005880542,451.9349999997099,4.762306e-05
451.94999999970986,0.004108105,451.94999999970986,7.691653e-05,451.94999999970986,0.0006404499,451.94999999970986,4.67854e-05
451.96499999970985,0.003981429,451.96499999970985,7.681868e-05,451.96499999970985,0.0006198182,451.96499999970985,4.514396e-05
451.97999999970983,0.003797923,451.97999999970983,7.05594e-05,451.97999999970983,0.0005857022,451.97999999970983,4.442269e-05
451.9949999997098,0.00361021,451.9949999997098,6.207904e-05,451.9949999997098,0.000585133,451.9949999997098,4.392682e-05
452.0099999997098,0.003569684,452.0099999997098,6.110104e-05,452.0099999997098,0.0006053465,452.0099999997098,4.3655e-05
452.0249999997098,0.003532637,452.0249999997098,6.194183e-05,452.0249999997098,0.0006027707,452.0249999997098,4.39765e-05
452.0399999997098,0.003666363,452.0399999997098,6.270804e-05,452.0399999997098,0.0005976596,452.0399999997098,4.399379e-05
452.05499999970976,0.003642981,452.05499999970976,6.325312e-05,452.05499999970976,0.0005947161,452.05499999970976,4.230966e-05
452.06999999970975,0.003479566,452.06999999970975,6.503568e-05,452.06999999970975,0.0005277778,452.06999999970975,3.237794e-05
452.08499999970974,0.00345858,452.08499999970974,7.065855e-05,452.08499999970974,0.0005369512,452.08499999970974,3.401133e-05
452.0999999997097,0.003588888,452.0999999997097,7.591074e-05,452.0999999997097,0.0005073924,452.0999999997097,3.082765e-05
452.1149999997097,0.00342716,452.1149999997097,0.0001027506,452.1149999997097,0.0004915672,452.1149999997097,2.74699e-05
452.1299999997097,0.003184029,452.1299999997097,0.0001292836,452.1299999997097,0.0004944435,452.1299999997097,2.688157e-05
452.1449999997097,0.003140166,452.1449999997097,0.0001391004,452.1449999997097,0.0004962138,452.1449999997097,2.703311e-05
452.15999999970967,0.003273655,452.15999999970967,0.0001452684,452.15999999970967,0.0004955566,452.15999999970967,2.732181e-05
452.17499999970966,0.003204593,452.17499999970966,0.0001642286,452.17499999970966,0.0006079716,452.17499999970966,2.821066e-05
452.18999999970964,0.003165146,452.18999999970964,0.0001871582,452.18999999970964,0.0008475518,452.18999999970964,2.831582e-05
452.2049999997096,0.003309824,452.2049999997096,0.0001945244,452.2049999997096,0.000937148,452.2049999997096,3.02357e-05
452.2199999997096,0.003368424,452.2199999997096,0.0001950868,452.2199999997096,0.0009328658,452.2199999997096,3.004361e-05
452.2349999997096,0.003372198,452.2349999997096,0.0001969669,452.2349999997096,0.0009338449,452.2349999997096,3.048301e-05
452.2499999997096,0.003574516,452.2499999997096,0.000203477,452.2499999997096,0.0009252162,452.2499999997096,3.028877e-05
452.2649999997096,0.003705289,452.2649999997096,0.0002066076,452.2649999997096,0.0009183213,452.2649999997096,2.936162e-05
452.27999999970956,0.00375665,452.27999999970956,0.0002064062,452.27999999970956,0.0009203564,452.27999999970956,2.882075e-05
452.29499999970955,0.003628035,452.29499999970955,0.0002061243,452.29499999970955,0.0009235629,452.29499999970955,2.977042e-05
452.30999999970953,0.003574065,452.30999999970953,0.0002044563,452.30999999970953,0.0009273327,452.30999999970953,2.93064e-05
452.3249999997095,0.003365224,452.3249999997095,0.0002017326,452.3249999997095,0.0009414408,452.3249999997095,2.78943e-05
452.3399999997095,0.003044828,452.3399999997095,0.0001997403,452.3399999997095,0.0009368418,452.3399999997095,2.471377e-05
452.3549999997095,0.003153605,452.3549999997095,0.0001963333,452.3549999997095,0.0009537431,452.3549999997095,2.508995e-05
452.3699999997095,0.003359927,452.3699999997095,0.0001800945,452.3699999997095,0.0009537097,452.3699999997095,2.437458e-05
452.38499999970946,0.003583265,452.38499999970946,0.0001568519,452.38499999970946,0.0009559296,452.38499999970946,2.458633e-05
452.39999999970945,0.003671067,452.39999999970945,0.000150969,452.39999999970945,0.0009559525,452.39999999970945,2.460752e-05
452.41499999970944,0.0034619,452.41499999970944,0.000144098,452.41499999970944,0.0009598167,452.41499999970944,2.568039e-05
452.4299999997094,0.003634757,452.4299999997094,0.000119049,452.4299999997094,0.0007041589,452.4299999997094,2.553682e-05
452.4449999997094,0.003711213,452.4449999997094,8.625149e-05,452.4449999997094,0.0006062611,452.4449999997094,2.918357e-05
452.4599999997094,0.003657799,452.4599999997094,7.048309e-05,452.4599999997094,0.0004840693,452.4599999997094,3.045666e-05
452.4749999997094,0.003773749,452.4749999997094,6.9691e-05,452.4749999997094,0.0004970215,452.4749999997094,3.223011e-05
452.48999999970937,0.003800792,452.48999999970937,6.304924e-05,452.48999999970937,0.0005060084,452.48999999970937,3.387437e-05
452.50499999970936,0.003621609,452.50499999970936,4.541524e-05,452.50499999970936,0.0005068302,452.50499999970936,3.330528e-05
452.51999999970934,0.003398424,452.51999999970934,3.413411e-05,452.51999999970934,0.000504049,452.51999999970934,3.325957e-05
452.5349999997093,0.003272531,452.5349999997093,2.91686e-05,452.5349999997093,0.0005019013,452.5349999997093,3.314332e-05
452.5499999997093,0.003343299,452.5499999997093,2.93693e-05,452.5499999997093,0.000512218,452.5499999997093,3.531183e-05
452.5649999997093,0.00351563,452.5649999997093,3.053334e-05,452.5649999997093,0.0005292911,452.5649999997093,3.774593e-05
452.5799999997093,0.00366875,452.5799999997093,3.196636e-05,452.5799999997093,0.0005133466,452.5799999997093,3.794135e-05
452.5949999997093,0.00368416,452.5949999997093,3.141203e-05,452.5949999997093,0.0005011976,452.5949999997093,3.844554e-05
452.60999999970926,0.003664311,452.60999999970926,2.652071e-05,452.60999999970926,0.0004696338,452.60999999970926,3.92656e-05
452.62499999970925,0.003786552,452.62499999970925,2.935107e-05,452.62499999970925,0.000491208,452.62499999970925,4.111279e-05
452.63999999970923,0.003615443,452.63999999970923,3.237359e-05,452.63999999970923,0.0004996217,452.63999999970923,4.219932e-05
452.6549999997092,0.003553759,452.6549999997092,3.279724e-05,452.6549999997092,0.0004963665,452.6549999997092,4.202504e-05
452.6699999997092,0.003474678,452.6699999997092,3.26884e-05,452.6699999997092,0.0004852193,452.6699999997092,4.121272e-05
452.6849999997092,0.003276556,452.6849999997092,3.484398e-05,452.6849999997092,0.0004730899,452.6849999997092,4.006783e-05
452.6999999997092,0.003314358,452.6999999997092,3.605517e-05,452.6999999997092,0.0004792917,452.6999999997092,3.859109e-05
452.71499999970916,0.003426455,452.71499999970916,3.78819e-05,452.71499999970916,0.0004543163,452.71499999970916,3.618388e-05
452.72999999970915,0.003544914,452.72999999970915,3.822543e-05,452.72999999970915,0.0004436974,452.72999999970915,3.507286e-05
452.74499999970914,0.003653211,452.74499999970914,3.955513e-05,452.74499999970914,0.0004229457,452.74499999970914,3.328201e-05
452.7599999997091,0.003741486,452.7599999997091,4.465642e-05,452.7599999997091,0.0004231473,452.7599999997091,3.330359e-05
452.7749999997091,0.003781824,452.7749999997091,5.075712e-05,452.7749999997091,0.0004296521,452.7749999997091,3.355432e-05
452.7899999997091,0.003791335,452.7899999997091,5.291086e-05,452.7899999997091,0.0004341384,452.7899999997091,3.362394e-05
452.8049999997091,0.003711755,452.8049999997091,5.268408e-05,452.8049999997091,0.0003718344,452.8049999997091,2.782149e-05
452.81999999970907,0.003666596,452.81999999970907,5.315099e-05,452.81999999970907,0.0003578816,452.81999999970907,2.713557e-05
452.83499999970905,0.003720158,452.83499999970905,5.403286e-05,452.83499999970905,0.0003552117,452.83499999970905,2.689571e-05
452.84999999970904,0.003877122,452.84999999970904,5.385895e-05,452.84999999970904,0.0003556611,452.84999999970904,2.636088e-05
452.864999999709,0.003870564,452.864999999709,5.378802e-05,452.864999999709,0.000371674,452.864999999709,2.604531e-05
452.879999999709,0.003754586,452.879999999709,5.380426e-05,452.879999999709,0.000361186,452.879999999709,2.288235e-05
452.894999999709,0.003784381,452.894999999709,5.314065e-05,452.894999999709,0.0003591111,452.894999999709,2.194208e-05
452.909999999709,0.003772812,452.909999999709,5.329154e-05,452.909999999709,0.0003637723,452.909999999709,2.141575e-05
452.924999999709,0.003695837,452.924999999709,5.3342e-05,452.924999999709,0.0003693085,452.924999999709,2.108764e-05
452.93999999970896,0.00367601,452.93999999970896,5.120915e-05,452.93999999970896,0.0003838319,452.93999999970896,2.143284e-05
452.95499999970895,0.003586309,452.95499999970895,5.162777e-05,452.95499999970895,0.0003662574,452.95499999970895,2.070337e-05
452.96999999970893,0.00336662,452.96999999970893,4.860359e-05,452.96999999970893,0.0003638857,452.96999999970893,2.028686e-05
452.9849999997089,0.003151125,452.9849999997089,4.869364e-05,452.9849999997089,0.0003623544,452.9849999997089,2.055999e-05
452.9999999997089,0.00309295,452.9999999997089,4.791295e-05,452.9999999997089,0.0003795148,452.9999999997089,2.073193e-05
453.0149999997089,0.002976984,453.0149999997089,4.432428e-05,453.0149999997089,0.0003784074,453.0149999997089,2.187005e-05
453.0299999997089,0.002932061,453.0299999997089,4.012089e-05,453.0299999997089,0.0003669813,453.0299999997089,2.342565e-05
453.04499999970886,0.002991516,453.04499999970886,3.76873e-05,453.04499999970886,0.0003641665,453.04499999970886,2.519193e-05
453.05999999970885,0.002977711,453.05999999970885,3.541858e-05,453.05999999970885,0.0003646329,453.05999999970885,2.482921e-05
453.07499999970884,0.002766243,453.07499999970884,3.561727e-05,453.07499999970884,0.0003803333,453.07499999970884,2.834715e-05
453.0899999997088,0.002528501,453.0899999997088,3.590915e-05,453.0899999997088,0.0004427773,453.0899999997088,2.998447e-05
453.1049999997088,0.002556945,453.1049999997088,4.079531e-05,453.1049999997088,0.0005216612,453.1049999997088,3.126415e-05
453.1199999997088,0.00271224,453.1199999997088,4.078978e-05,453.1199999997088,0.0005082804,453.1199999997088,3.456146e-05
453.1349999997088,0.002839782,453.1349999997088,3.994495e-05,453.1349999997088,0.000496039,453.1349999997088,3.592092e-05
453.14999999970877,0.002838563,453.14999999970877,3.953625e-05,453.14999999970877,0.0005021828,453.14999999970877,3.636097e-05
453.16499999970875,0.00289584,453.16499999970875,3.960068e-05,453.16499999970875,0.0004999813,453.16499999970875,3.749355e-05
453.17999999970874,0.002910884,453.17999999970874,3.884976e-05,453.17999999970874,0.0004892306,453.17999999970874,3.806146e-05
453.1949999997087,0.003149476,453.1949999997087,3.960246e-05,453.1949999997087,0.0004905956,453.1949999997087,3.990825e-05
453.2099999997087,0.003397049,453.2099999997087,3.875937e-05,453.2099999997087,0.0004925161,453.2099999997087,4.026808e-05
453.2249999997087,0.003544824,453.2249999997087,3.773548e-05,453.2249999997087,0.0004932982,453.2249999997087,4.147439e-05
453.2399999997087,0.00350547,453.2399999997087,3.797809e-05,453.2399999997087,0.0004922871,453.2399999997087,4.139416e-05
453.2549999997087,0.00345821,453.2549999997087,3.803887e-05,453.2549999997087,0.0004891428,453.2549999997087,4.169018e-05
453.26999999970866,0.003444206,453.26999999970866,3.654414e-05,453.26999999970866,0.0004970094,453.26999999970866,4.239381e-05
453.28499999970865,0.003504069,453.28499999970865,3.569668e-05,453.28499999970865,0.0005019484,453.28499999970865,4.180592e-05
453.29999999970863,0.003515108,453.29999999970863,3.472573e-05,453.29999999970863,0.0005013897,453.29999999970863,4.228235e-05
453.3149999997086,0.003469489,453.3149999997086,3.49199e-05,453.3149999997086,0.000501669,453.3149999997086,4.209537e-05
453.3299999997086,0.003427145,453.3299999997086,3.492757e-05,453.3299999997086,0.0004849937,453.3299999997086,4.190419e-05
453.3449999997086,0.003491973,453.3449999997086,3.731353e-05,453.3449999997086,0.0004592894,453.3449999997086,4.488516e-05
453.3599999997086,0.003501325,453.3599999997086,3.813171e-05,453.3599999997086,0.0004548171,453.3599999997086,4.752239e-05
453.37499999970856,0.00349186,453.37499999970856,5.943925e-05,453.37499999970856,0.0006720856,453.37499999970856,6.540243e-05
453.38999999970855,0.003678818,453.38999999970855,6.325266e-05,453.38999999970855,0.0007178168,453.38999999970855,6.708155e-05
453.40499999970854,0.003803988,453.40499999970854,6.376857e-05,453.40499999970854,0.0007298626,453.40499999970854,6.805164e-05
453.4199999997085,0.003832789,453.4199999997085,6.586773e-05,453.4199999997085,0.000759367,453.4199999997085,6.978169e-05
453.4349999997085,0.003954248,453.4349999997085,6.596774e-05,453.4349999997085,0.0007618273,453.4349999997085,6.972878e-05
453.4499999997085,0.003796774,453.4499999997085,6.532679e-05,453.4499999997085,0.0007535761,453.4499999997085,6.889839e-05
453.4649999997085,0.00364698,453.4649999997085,6.518734e-05,453.4649999997085,0.0007420316,453.4649999997085,6.768529e-05
453.47999999970847,0.003508616,453.47999999970847,6.520678e-05,453.47999999970847,0.0007401179,453.47999999970847,6.726065e-05
453.49499999970845,0.003460994,453.49499999970845,6.490364e-05,453.49499999970845,0.0007393518,453.49499999970845,6.728515e-05
453.50999999970844,0.003635324,453.50999999970844,6.493532e-05,453.50999999970844,0.0007406721,453.50999999970844,6.727552e-05
453.5249999997084,0.003809218,453.5249999997084,6.506946e-05,453.5249999997084,0.0007338755,453.5249999997084,6.695481e-05
453.5399999997084,0.00398054,453.5399999997084,6.550423e-05,453.5399999997084,0.000727832,453.5399999997084,6.648208e-05
453.5549999997084,0.003928143,453.5549999997084,6.555518e-05,453.5549999997084,0.0007278504,453.5549999997084,6.679683e-05
453.5699999997084,0.003943181,453.5699999997084,6.53242e-05,453.5699999997084,0.0007278633,453.5699999997084,6.666595e-05
453.5849999997084,0.003964296,453.5849999997084,6.48248e-05,453.5849999997084,0.0007244944,453.5849999997084,6.518712e-05
453.59999999970836,0.003885903,453.59999999970836,6.116349e-05,453.59999999970836,0.0006869329,453.59999999970836,6.206973e-05
453.61499999970835,0.003910135,453.61499999970835,5.570269e-05,453.61499999970835,0.0006098229,453.61499999970835,5.40133e-05
453.62999999970833,0.003926956,453.62999999970833,3.475695e-05,453.62999999970833,0.0003857111,453.62999999970833,3.590248e-05
453.6449999997083,0.003926961,453.6449999997083,3.364195e-05,453.6449999997083,0.0003568925,453.6449999997083,3.532619e-05
453.6599999997083,0.003978099,453.6599999997083,3.302836e-05,453.6599999997083,0.0003403903,453.6599999997083,3.343319e-05
453.6749999997083,0.003826111,453.6749999997083,3.345636e-05,453.6749999997083,0.0003166208,453.6749999997083,3.377359e-05
453.6899999997083,0.0039323,453.6899999997083,3.807959e-05,453.6899999997083,0.0003981833,453.6899999997083,3.705783e-05
453.70499999970826,0.004189866,453.70499999970826,4.047917e-05,453.70499999970826,0.0004100476,453.70499999970826,3.695734e-05
453.71999999970825,0.004342011,453.71999999970825,4.273173e-05,453.71999999970825,0.0004078625,453.71999999970825,3.659113e-05
453.73499999970824,0.004461771,453.73499999970824,4.31415e-05,453.73499999970824,0.0004189349,453.73499999970824,3.807515e-05
453.7499999997082,0.004512144,453.7499999997082,4.455568e-05,453.7499999997082,0.0004518402,453.7499999997082,3.990225e-05
453.7649999997082,0.004525289,453.7649999997082,4.530375e-05,453.7649999997082,0.0004674911,453.7649999997082,4.041788e-05
453.7799999997082,0.004346028,453.7799999997082,4.49789e-05,453.7799999997082,0.0004662008,453.7799999997082,4.031842e-05
453.7949999997082,0.004290854,453.7949999997082,4.420016e-05,453.7949999997082,0.0004718415,453.7949999997082,4.25401e-05
453.80999999970817,0.004445946,453.80999999970817,4.427244e-05,453.80999999970817,0.0004763899,453.80999999970817,4.193981e-05
453.82499999970815,0.004507143,453.82499999970815,4.422756e-05,453.82499999970815,0.000471683,453.82499999970815,4.235259e-05
453.83999999970814,0.004484823,453.83999999970814,4.378646e-05,453.83999999970814,0.0004765411,453.83999999970814,4.345383e-05
453.8549999997081,0.004479298,453.8549999997081,4.308792e-05,453.8549999997081,0.0004766749,453.8549999997081,4.277061e-05
453.8699999997081,0.004398794,453.8699999997081,4.190117e-05,453.8699999997081,0.0004714146,453.8699999997081,4.689367e-05
453.8849999997081,0.00425621,453.8849999997081,4.068431e-05,453.8849999997081,0.0004556817,453.8849999997081,4.653936e-05
453.8999999997081,0.003980154,453.8999999997081,3.991919e-05,453.8999999997081,0.000453179,453.8999999997081,4.600325e-05
453.9149999997081,0.003736116,453.9149999997081,3.837329e-05,453.9149999997081,0.0004290509,453.9149999997081,4.593307e-05
453.92999999970806,0.003725348,453.92999999970806,3.801072e-05,453.92999999970806,0.0004064103,453.92999999970806,4.430553e-05
453.94499999970805,0.003625851,453.94499999970805,3.62667e-05,453.94499999970805,0.000344463,453.94499999970805,4.448385e-05
453.95999999970803,0.003781599,453.95999999970803,5.106949e-05,453.95999999970803,0.0004747175,453.95999999970803,5.503459e-05
453.974999999708,0.003825971,453.974999999708,5.072408e-05,453.974999999708,0.0005123951,453.974999999708,5.718661e-05
453.989999999708,0.003622655,453.989999999708,5.212712e-05,453.989999999708,0.0005330051,453.989999999708,5.933489e-05
454.004999999708,0.003604996,454.004999999708,5.43334e-05,454.004999999708,0.0005130469,454.004999999708,5.942622e-05
454.019999999708,0.003726851,454.019999999708,5.741033e-05,454.019999999708,0.0005472656,454.019999999708,6.08446e-05
454.03499999970796,0.003882832,454.03499999970796,6.29947e-05,454.03499999970796,0.0005485173,454.03499999970796,6.09979e-05
454.04999999970795,0.003736819,454.04999999970795,6.484001e-05,454.04999999970795,0.0005706391,454.04999999970795,6.214549e-05
454.06499999970794,0.003836181,454.06499999970794,6.639472e-05,454.06499999970794,0.0005820025,454.06499999970794,6.292086e-05
454.0799999997079,0.003919587,454.0799999997079,6.788335e-05,454.0799999997079,0.0005791103,454.0799999997079,6.308073e-05
454.0949999997079,0.003953069,454.0949999997079,6.855568e-05,454.0949999997079,0.0005763683,454.0949999997079,6.277719e-05
454.1099999997079,0.003913458,454.1099999997079,6.870654e-05,454.1099999997079,0.0005745366,454.1099999997079,6.215274e-05
454.1249999997079,0.003910549,454.1249999997079,6.82802e-05,454.1249999997079,0.0005766447,454.1249999997079,5.954391e-05
454.13999999970787,0.003993573,454.13999999970787,6.870285e-05,454.13999999970787,0.0005782626,454.13999999970787,5.926148e-05
454.15499999970785,0.004001901,454.15499999970785,6.880304e-05,454.15499999970785,0.0005790342,454.15499999970785,5.911296e-05
454.16999999970784,0.003968732,454.16999999970784,7.053244e-05,454.16999999970784,0.0005833035,454.16999999970784,6.008253e-05
454.1849999997078,0.00394076,454.1849999997078,6.858075e-05,454.1849999997078,0.0005776379,454.1849999997078,5.867021e-05
454.1999999997078,0.003884001,454.1999999997078,6.579583e-05,454.1999999997078,0.0005331722,454.1999999997078,5.68298e-05
454.2149999997078,0.003779804,454.2149999997078,5.80443e-05,454.2149999997078,0.0004549322,454.2149999997078,4.949987e-05
454.2299999997078,0.003719424,454.2299999997078,6.759283e-05,454.2299999997078,0.0004074847,454.2299999997078,4.956244e-05
454.2449999997078,0.003750699,454.2449999997078,6.682761e-05,454.2449999997078,0.0003986883,454.2449999997078,4.786529e-05
454.25999999970776,0.003594257,454.25999999970776,7.543101e-05,454.25999999970776,0.0003830323,454.25999999970776,4.564203e-05
454.27499999970775,0.003303313,454.27499999970775,8.826907e-05,454.27499999970775,0.000354929,454.27499999970775,4.492657e-05
454.28999999970773,0.003025623,454.28999999970773,0.0001104778,454.28999999970773,0.0003438671,454.28999999970773,4.386071e-05
454.3049999997077,0.00303611,454.3049999997077,0.0001139048,454.3049999997077,0.0003216307,454.3049999997077,4.325856e-05
454.3199999997077,0.002946713,454.3199999997077,0.0001141079,454.3199999997077,0.0003167469,454.3199999997077,4.358395e-05
454.3349999997077,0.00286289,454.3349999997077,0.00012901,454.3349999997077,0.0003157673,454.3349999997077,4.31973e-05
454.3499999997077,0.00285127,454.3499999997077,0.000135627,454.3499999997077,0.0003103475,454.3499999997077,4.335777e-05
454.36499999970766,0.002795856,454.36499999970766,0.0001365926,454.36499999970766,0.0003142143,454.36499999970766,4.403348e-05
454.37999999970765,0.002583922,454.37999999970765,0.000148002,454.37999999970765,0.0003091529,454.37999999970765,4.510993e-05
454.39499999970764,0.002388045,454.39499999970764,0.0001518188,454.39499999970764,0.0003046117,454.39499999970764,4.530748e-05
454.4099999997076,0.002388078,454.4099999997076,0.0001525122,454.4099999997076,0.0003110673,454.4099999997076,4.605466e-05
454.4249999997076,0.00238756,454.4249999997076,0.0001531752,454.4249999997076,0.0003091074,454.4249999997076,4.437446e-05
454.4399999997076,0.002430214,454.4399999997076,0.0001613867,454.4399999997076,0.0003029136,454.4399999997076,4.643148e-05
454.4549999997076,0.002405057,454.4549999997076,0.000161583,454.4549999997076,0.0003082703,454.4549999997076,4.195728e-05
454.46999999970757,0.002295407,454.46999999970757,0.0001624616,454.46999999970757,0.000304729,454.46999999970757,4.287259e-05
454.48499999970755,0.002213114,454.48499999970755,0.0001604928,454.48499999970755,0.0003016863,454.48499999970755,4.070751e-05
454.49999999970754,0.002246686,454.49999999970754,0.000160676,454.49999999970754,0.0002964167,454.49999999970754,4.089463e-05
454.5149999997075,0.002239331,454.5149999997075,0.0001524891,454.5149999997075,0.0002629122,454.5149999997075,4.072861e-05
454.5299999997075,0.002434239,454.5299999997075,0.0001560687,454.5299999997075,0.0003443441,454.5299999997075,4.028312e-05
454.5449999997075,0.002607814,454.5449999997075,0.0001496457,454.5449999997075,0.0003669219,454.5449999997075,4.031912e-05
454.5599999997075,0.002868077,454.5599999997075,0.0001489275,454.5599999997075,0.0004271086,454.5599999997075,4.094489e-05
454.5749999997075,0.003095685,454.5749999997075,0.0001675304,454.5749999997075,0.0004405156,454.5749999997075,4.034636e-05
454.58999999970746,0.003123006,454.58999999970746,0.0001528191,454.58999999970746,0.0004502875,454.58999999970746,4.015422e-05
454.60499999970745,0.003132499,454.60499999970745,0.0001512056,454.60499999970745,0.0004614666,454.60499999970745,3.99266e-05
454.61999999970743,0.003108194,454.61999999970743,0.0001550425,454.61999999970743,0.0004643518,454.61999999970743,3.975618e-05
454.6349999997074,0.003036374,454.6349999997074,0.0001502506,454.6349999997074,0.0004661109,454.6349999997074,3.82814e-05
454.6499999997074,0.003008072,454.6499999997074,0.0001530123,454.6499999997074,0.0004643167,454.6499999997074,3.841805e-05
454.6649999997074,0.003023599,454.6649999997074,0.000157782,454.6649999997074,0.0004547615,454.6649999997074,3.756637e-05
454.6799999997074,0.002976541,454.6799999997074,0.0001548767,454.6799999997074,0.000468207,454.6799999997074,4.080256e-05
454.69499999970736,0.002895839,454.69499999970736,0.0001495278,454.69499999970736,0.000476175,454.69499999970736,4.019034e-05
454.70999999970735,0.002893381,454.70999999970735,0.0001497801,454.70999999970735,0.0004673971,454.70999999970735,4.21873e-05
454.72499999970734,0.002943734,454.72499999970734,0.0001558716,454.72499999970734,0.0004675592,454.72499999970734,4.212916e-05
454.7399999997073,0.002970299,454.7399999997073,0.0001563269,454.7399999997073,0.0004632291,454.7399999997073,4.23978e-05
454.7549999997073,0.002990249,454.7549999997073,0.0001561448,454.7549999997073,0.0004623646,454.7549999997073,4.374365e-05
454.7699999997073,0.002853186,454.7699999997073,0.0001510041,454.7699999997073,0.0004463856,454.7699999997073,4.331096e-05
454.7849999997073,0.002625302,454.7849999997073,0.0001414728,454.7849999997073,0.0003968514,454.7849999997073,4.716683e-05
454.79999999970727,0.002403368,454.79999999970727,0.0001356715,454.79999999970727,0.0003691542,454.79999999970727,4.678269e-05
454.81499999970725,0.002030683,454.81499999970725,0.000135022,454.81499999970725,0.000301181,454.81499999970725,4.755113e-05
454.82999999970724,0.001781207,454.82999999970724,0.0001139584,454.82999999970724,0.0004023472,454.82999999970724,4.69288e-05
454.8449999997072,0.001959072,454.8449999997072,0.0001135059,454.8449999997072,0.0004544157,454.8449999997072,4.823877e-05
454.8599999997072,0.001923799,454.8599999997072,0.0001106909,454.8599999997072,0.0004811542,454.8599999997072,4.88147e-05
454.8749999997072,0.001824063,454.8749999997072,0.0001026373,454.8749999997072,0.0004930521,454.8749999997072,4.984473e-05
454.8899999997072,0.001809082,454.8899999997072,0.0001012288,454.8899999997072,0.0004956325,454.8899999997072,5.138901e-05
454.9049999997072,0.001863556,454.9049999997072,9.164676e-05,454.9049999997072,0.0005422939,454.9049999997072,5.331004e-05
454.91999999970716,0.001755772,454.91999999970716,8.735807e-05,454.91999999970716,0.0005627535,454.91999999970716,5.404224e-05
454.93499999970714,0.001894774,454.93499999970714,8.798599e-05,454.93499999970714,0.0005522638,454.93499999970714,5.47083e-05
454.94999999970713,0.002006686,454.94999999970713,8.610699e-05,454.94999999970713,0.0005496678,454.94999999970713,5.316053e-05
454.9649999997071,0.002310232,454.9649999997071,8.089375e-05,454.9649999997071,0.0005556633,454.9649999997071,5.344121e-05
454.9799999997071,0.00274031,454.9799999997071,7.501378e-05,454.9799999997071,0.0005553297,454.9799999997071,5.548782e-05
454.9949999997071,0.003071628,454.9949999997071,7.288195e-05,454.9949999997071,0.00056265,454.9949999997071,5.629284e-05
455.0099999997071,0.003342426,455.0099999997071,7.335933e-05,455.0099999997071,0.0005990536,455.0099999997071,5.665105e-05
455.02499999970706,0.003543754,455.02499999970706,7.307671e-05,455.02499999970706,0.0006056952,455.02499999970706,5.510289e-05
455.03999999970705,0.003656001,455.03999999970705,8.251937e-05,455.03999999970705,0.0006667225,455.03999999970705,5.883253e-05
455.05499999970704,0.003693676,455.05499999970704,8.434838e-05,455.05499999970704,0.0006877903,455.05499999970704,6.149952e-05
455.069999999707,0.00374667,455.069999999707,8.867843e-05,455.069999999707,0.0007139342,455.069999999707,6.324888e-05
455.084999999707,0.003943075,455.084999999707,0.0001211741,455.084999999707,0.000743194,455.084999999707,6.927336e-05
455.099999999707,0.004110023,455.099999999707,0.0001276085,455.099999999707,0.0007419411,455.099999999707,6.961111e-05
455.114999999707,0.004324522,455.114999999707,0.0001484973,455.114999999707,0.0007271782,455.114999999707,6.941616e-05
455.12999999970697,0.00447523,455.12999999970697,0.0001518526,455.12999999970697,0.000724577,455.12999999970697,6.968433e-05
455.14499999970695,0.004552143,455.14499999970695,0.0001499812,455.14499999970695,0.0007309687,455.14499999970695,7.008445e-05
455.15999999970694,0.004665594,455.15999999970694,0.0001489571,455.15999999970694,0.000714117,455.15999999970694,6.836926e-05
455.1749999997069,0.004666607,455.1749999997069,0.0001485957,455.1749999997069,0.0007072391,455.1749999997069,6.862366e-05
455.1899999997069,0.004404346,455.1899999997069,0.0001478531,455.1899999997069,0.0007156992,455.1899999997069,7.043571e-05
455.2049999997069,0.004296608,455.2049999997069,0.0001475768,455.2049999997069,0.000713315,455.2049999997069,7.024365e-05
455.2199999997069,0.004261504,455.2199999997069,0.0001456369,455.2199999997069,0.0007075182,455.2199999997069,6.862037e-05
455.2349999997069,0.004197328,455.2349999997069,0.0001428654,455.2349999997069,0.0007069059,455.2349999997069,6.622307e-05
455.24999999970686,0.004144899,455.24999999970686,0.0001418578,455.24999999970686,0.0006865285,455.24999999970686,6.440032e-05
455.26499999970684,0.004127786,455.26499999970684,0.0001423141,455.26499999970684,0.0006546595,455.26499999970684,6.395739e-05
455.27999999970683,0.004068912,455.27999999970683,0.0001423616,455.27999999970683,0.0006461782,455.27999999970683,6.378139e-05
455.2949999997068,0.00415782,455.2949999997068,0.0001375425,455.2949999997068,0.0005767977,455.2949999997068,5.7374e-05
455.3099999997068,0.004295648,455.3099999997068,0.000135828,455.3099999997068,0.0005737052,455.3099999997068,5.623376e-05
455.3249999997068,0.004274017,455.3249999997068,0.0001289479,455.3249999997068,0.0004788201,455.3249999997068,4.630175e-05
455.3399999997068,0.004141571,455.3399999997068,9.959883e-05,455.3399999997068,0.0003606884,455.3399999997068,4.262908e-05
455.35499999970676,0.004081442,455.35499999970676,8.251578e-05,455.35499999970676,0.0003587254,455.35499999970676,4.199419e-05
455.36999999970675,0.00403355,455.36999999970675,4.390694e-05,455.36999999970675,0.0003450684,455.36999999970675,4.090393e-05
455.38499999970674,0.004071164,455.38499999970674,3.801628e-05,455.38499999970674,0.0003114532,455.38499999970674,3.982663e-05
455.3999999997067,0.003843204,455.3999999997067,3.871573e-05,455.3999999997067,0.0002680247,455.3999999997067,3.87059e-05
455.4149999997067,0.003801868,455.4149999997067,4.166145e-05,455.4149999997067,0.0002792352,455.4149999997067,4.058482e-05
455.4299999997067,0.004003017,455.4299999997067,4.261454e-05,455.4299999997067,0.000281091,455.4299999997067,3.186263e-05
455.4449999997067,0.004255335,455.4449999997067,4.231066e-05,455.4449999997067,0.0002600259,455.4449999997067,3.152752e-05
455.45999999970667,0.004421611,455.45999999970667,4.185138e-05,455.45999999970667,0.0002602811,455.45999999970667,3.174836e-05
455.47499999970665,0.004454874,455.47499999970665,4.136045e-05,455.47499999970665,0.0002647256,455.47499999970665,3.108022e-05
455.48999999970664,0.004478167,455.48999999970664,4.437573e-05,455.48999999970664,0.0002763237,455.48999999970664,3.330402e-05
455.5049999997066,0.004465932,455.5049999997066,4.450728e-05,455.5049999997066,0.0002733096,455.5049999997066,3.240881e-05
455.5199999997066,0.004417107,455.5199999997066,4.16256e-05,455.5199999997066,0.0002599616,455.5199999997066,3.20614e-05
455.5349999997066,0.004405685,455.5349999997066,4.055288e-05,455.5349999997066,0.0002409425,455.5349999997066,3.189489e-05
455.5499999997066,0.004153425,455.5499999997066,3.889325e-05,455.5499999997066,0.0002302,455.5499999997066,3.192094e-05
455.5649999997066,0.004110763,455.5649999997066,3.974803e-05,455.5649999997066,0.0002299713,455.5649999997066,3.277877e-05
455.57999999970656,0.004237644,455.57999999970656,4.09559e-05,455.57999999970656,0.0002352064,455.57999999970656,3.379527e-05
455.59499999970654,0.004413598,455.59499999970654,4.205821e-05,455.59499999970654,0.0002420264,455.59499999970654,3.274652e-05
455.60999999970653,0.004444493,455.60999999970653,4.220833e-05,455.60999999970653,0.0002377324,455.60999999970653,3.308717e-05
455.6249999997065,0.004487965,455.6249999997065,4.157887e-05,455.6249999997065,0.000243119,455.6249999997065,3.258956e-05
455.6399999997065,0.004439574,455.6399999997065,4.076284e-05,455.6399999997065,0.0002685598,455.6399999997065,3.205261e-05
455.6549999997065,0.004425233,455.6549999997065,4.397042e-05,455.6549999997065,0.0002560213,455.6549999997065,2.966329e-05
455.6699999997065,0.004409974,455.6699999997065,4.250929e-05,455.6699999997065,0.000279825,455.6699999997065,2.733367e-05
455.68499999970646,0.004433256,455.68499999970646,0.000716527,455.68499999970646,0.0008459173,455.68499999970646,0.0001302189
455.69999999970645,0.004439157,455.69999999970645,0.001525563,455.69999999970645,0.001383932,455.69999999970645,0.0001454964
455.71499999970644,0.004434528,455.71499999970644,0.001963945,455.71499999970644,0.00151481,455.71499999970644,0.0001574063
455.7299999997064,0.004408759,455.7299999997064,0.002037535,455.7299999997064,0.001525109,455.7299999997064,0.0001578514
455.7449999997064,0.004508664,455.7449999997064,0.002355841,455.7449999997064,0.001557514,455.7449999997064,0.0001579238
455.7599999997064,0.004586654,455.7599999997064,0.002597465,455.7599999997064,0.001629763,455.7599999997064,0.0001583315
455.7749999997064,0.004670552,455.7749999997064,0.002678993,455.7749999997064,0.001634406,455.7749999997064,0.0001585901
455.78999999970637,0.004730714,455.78999999970637,0.002688823,455.78999999970637,0.001654834,455.78999999970637,0.0001604921
455.80499999970635,0.004961674,455.80499999970635,0.002687383,455.80499999970635,0.00168883,455.80499999970635,0.0001622283
455.81999999970634,0.005065788,455.81999999970634,0.002690052,455.81999999970634,0.00174395,455.81999999970634,0.0001620997
455.8349999997063,0.005056987,455.8349999997063,0.00269446,455.8349999997063,0.001812454,455.8349999997063,0.0001637132
455.8499999997063,0.005044767,455.8499999997063,0.002698147,455.8499999997063,0.001846454,455.8499999997063,0.0001647954
455.8649999997063,0.004903434,455.8649999997063,0.002699197,455.8649999997063,0.001859078,455.8649999997063,0.0001648895
455.8799999997063,0.004724574,455.8799999997063,0.002700322,455.8799999997063,0.001864529,455.8799999997063,0.0001647573
455.8949999997063,0.00470814,455.8949999997063,0.002701826,455.8949999997063,0.001869449,455.8949999997063,0.0001647813
455.90999999970626,0.004678938,455.90999999970626,0.002702688,455.90999999970626,0.001869829,455.90999999970626,0.0001650977
455.92499999970624,0.004700611,455.92499999970624,0.002703254,455.92499999970624,0.001859776,455.92499999970624,0.0001652082
455.93999999970623,0.00470767,455.93999999970623,0.002501926,455.93999999970623,0.0016379,455.93999999970623,0.0001016831
455.9549999997062,0.004628174,455.9549999997062,0.002044748,455.9549999997062,0.001150073,455.9549999997062,7.161166e-05
455.9699999997062,0.004458335,455.9699999997062,0.001636526,455.9699999997062,0.001092587,455.9699999997062,5.986291e-05
455.9849999997062,0.004465723,455.9849999997062,0.001543898,455.9849999997062,0.001094142,455.9849999997062,6.157505e-05
455.9999999997062,0.004625051,455.9999999997062,0.001124773,455.9999999997062,0.001043183,455.9999999997062,6.390385e-05
456.01499999970616,0.004687364,456.01499999970616,0.0006345757,456.01499999970616,0.001023748,456.01499999970616,6.408786e-05
456.02999999970615,0.004656552,456.02999999970615,0.0002921985,456.02999999970615,0.001030095,456.02999999970615,6.372902e-05
456.04499999970614,0.004650099,456.04499999970614,0.0001420718,456.04499999970614,0.001012141,456.04499999970614,5.785907e-05
456.0599999997061,0.004587308,456.0599999997061,0.000129767,456.0599999997061,0.0008919999,456.0599999997061,5.499567e-05
456.0749999997061,0.004484296,456.0749999997061,0.0001158985,456.0749999997061,0.0008390032,456.0749999997061,5.437668e-05
456.0899999997061,0.004372756,456.0899999997061,8.487912e-05,456.0899999997061,0.0006958558,456.0899999997061,4.815284e-05
456.1049999997061,0.004390843,456.1049999997061,6.538304e-05,456.1049999997061,0.0006448708,456.1049999997061,4.655691e-05
456.11999999970607,0.004521378,456.11999999970607,6.417638e-05,456.11999999970607,0.0006011504,456.11999999970607,4.572529e-05
456.13499999970605,0.004689521,456.13499999970605,5.900659e-05,456.13499999970605,0.0005901321,456.13499999970605,4.586955e-05
456.14999999970604,0.00484116,456.14999999970604,5.330528e-05,456.14999999970604,0.0005693384,456.14999999970604,4.583514e-05
456.164999999706,0.00491597,456.164999999706,5.16163e-05,456.164999999706,0.0005654903,456.164999999706,4.486381e-05
456.179999999706,0.004812071,456.179999999706,5.012457e-05,456.179999999706,0.0005566058,456.179999999706,4.376232e-05
456.194999999706,0.004763475,456.194999999706,4.747701e-05,456.194999999706,0.0005529496,456.194999999706,3.912832e-05
456.209999999706,0.004737101,456.209999999706,4.724352e-05,456.209999999706,0.0005534425,456.209999999706,3.772951e-05
456.224999999706,0.004640451,456.224999999706,4.527731e-05,456.224999999706,0.0004975906,456.224999999706,3.720351e-05
456.23999999970596,0.00455896,456.23999999970596,3.634973e-05,456.23999999970596,0.0004549651,456.23999999970596,2.827002e-05
456.25499999970594,0.004418792,456.25499999970594,2.892515e-05,456.25499999970594,0.0003998184,456.25499999970594,2.22968e-05
456.26999999970593,0.004300781,456.26999999970593,2.654673e-05,456.26999999970593,0.0003549595,456.26999999970593,2.043974e-05
456.2849999997059,0.004202079,456.2849999997059,2.517011e-05,456.2849999997059,0.0003324448,456.2849999997059,2.013841e-05
456.2999999997059,0.004061022,456.2999999997059,2.461096e-05,456.2999999997059,0.000304879,456.2999999997059,1.999309e-05
456.3149999997059,0.003956775,456.3149999997059,2.279353e-05,456.3149999997059,0.0002652107,456.3149999997059,1.972711e-05
456.3299999997059,0.003894698,456.3299999997059,2.070949e-05,456.3299999997059,0.0002551807,456.3299999997059,1.891565e-05
456.34499999970586,0.003882748,456.34499999970586,2.122347e-05,456.34499999970586,0.0002574039,456.34499999970586,1.867884e-05
456.35999999970585,0.003803518,456.35999999970585,2.143941e-05,456.35999999970585,0.0002666294,456.35999999970585,2.023541e-05
456.37499999970584,0.003780798,456.37499999970584,2.192473e-05,456.37499999970584,0.0003549682,456.37499999970584,2.07713e-05
456.3899999997058,0.003741345,456.3899999997058,2.140259e-05,456.3899999997058,0.0004092013,456.3899999997058,2.069997e-05
456.4049999997058,0.003689352,456.4049999997058,2.132676e-05,456.4049999997058,0.0006216259,456.4049999997058,2.042733e-05
456.4199999997058,0.003731826,456.4199999997058,2.120754e-05,456.4199999997058,0.0007128055,456.4199999997058,2.089774e-05
456.4349999997058,0.003754209,456.4349999997058,2.223036e-05,456.4349999997058,0.0007300407,456.4349999997058,2.247112e-05
456.44999999970577,0.003823595,456.44999999970577,3.305181e-05,456.44999999970577,0.000906252,456.44999999970577,3.514067e-05
456.46499999970575,0.003839989,456.46499999970575,4.437986e-05,456.46499999970575,0.001347808,456.46499999970575,5.013216e-05
456.47999999970574,0.003928727,456.47999999970574,4.720325e-05,456.47999999970574,0.001419099,456.47999999970574,5.664657e-05
456.4949999997057,0.004083196,456.4949999997057,7.029918e-05,456.4949999997057,0.001881252,456.4949999997057,8.840637e-05
456.5099999997057,0.004287697,456.5099999997057,0.0001178005,456.5099999997057,0.002202659,456.5099999997057,0.000147554
456.5249999997057,0.004351051,456.5249999997057,0.0001246733,456.5249999997057,0.002250945,456.5249999997057,0.0001593399
456.5399999997057,0.004383538,456.5399999997057,0.000133559,456.5399999997057,0.00261625,456.5399999997057,0.0001674292
456.5549999997057,0.004445074,456.5549999997057,0.0001377314,456.5549999997057,0.002746965,456.5549999997057,0.0001903781
456.56999999970566,0.004730752,456.56999999970566,0.000144581,456.56999999970566,0.003005159,456.56999999970566,0.0002064323
456.58499999970564,0.004966824,456.58499999970564,0.0001486453,456.58499999970564,0.003039979,456.58499999970564,0.0002069024
456.59999999970563,0.005076217,456.59999999970563,0.0001485606,456.59999999970563,0.00305332,456.59999999970563,0.0002104345
456.6149999997056,0.005118815,456.6149999997056,0.0001491772,456.6149999997056,0.003084525,456.6149999997056,0.0002134182
456.6299999997056,0.005106682,456.6299999997056,0.0001493788,456.6299999997056,0.003198405,456.6299999997056,0.0002141237
456.6449999997056,0.005139538,456.6449999997056,0.0001493886,456.6449999997056,0.003247467,456.6449999997056,0.0002160243
456.6599999997056,0.005139453,456.6599999997056,0.0001508498,456.6599999997056,0.003228512,456.6599999997056,0.000216152
456.67499999970556,0.005086328,456.67499999970556,0.000152892,456.67499999970556,0.003241249,456.67499999970556,0.0002172205
456.68999999970555,0.005094515,456.68999999970555,0.0001525728,456.68999999970555,0.003236671,456.68999999970555,0.0002171462
456.70499999970554,0.00502011,456.70499999970554,0.0001484929,456.70499999970554,0.003114297,456.70499999970554,0.0002135244
456.7199999997055,0.005100538,456.7199999997055,0.0001475789,456.7199999997055,0.002993655,456.7199999997055,0.0002110966
456.7349999997055,0.00514834,456.7349999997055,0.0001459957,456.7349999997055,0.002957719,456.7349999997055,0.0002081653
456.7499999997055,0.005075329,456.7499999997055,0.0001288838,456.7499999997055,0.002635505,456.7499999997055,0.0001890426
456.7649999997055,0.005013356,456.7649999997055,9.043633e-05,456.7649999997055,0.002440563,456.7649999997055,0.0001533517
456.77999999970547,0.005013347,456.77999999970547,9.564874e-05,456.77999999970547,0.002512231,456.77999999970547,0.0001649976
456.79499999970545,0.005004548,456.79499999970545,8.676718e-05,456.79499999970545,0.002140046,456.79499999970545,0.0001566237
456.80999999970544,0.004962768,456.80999999970544,8.31513e-05,456.80999999970544,0.002034466,456.80999999970544,0.0001328865
456.8249999997054,0.004872403,456.8249999997054,7.447042e-05,456.8249999997054,0.001768688,456.8249999997054,0.00013577
456.8399999997054,0.004900604,456.8399999997054,6.80771e-05,456.8399999997054,0.001881507,456.8399999997054,0.0001408534
456.8549999997054,0.004936887,456.8549999997054,6.710276e-05,456.8549999997054,0.002035325,456.8549999997054,0.0001349652
456.8699999997054,0.004883397,456.8699999997054,7.769317e-05,456.8699999997054,0.002009601,456.8699999997054,0.0001348403
456.88499999970537,0.004897024,456.88499999970537,7.799754e-05,456.88499999970537,0.001866907,456.88499999970537,0.0001390609
456.89999999970536,0.004831213,456.89999999970536,7.75538e-05,456.89999999970536,0.001832522,456.89999999970536,0.0001399222
456.91499999970534,0.004888238,456.91499999970534,7.461441e-05,456.91499999970534,0.001793184,456.91499999970534,0.0001404532
456.92999999970533,0.004844639,456.92999999970533,7.238313e-05,456.92999999970533,0.001813057,456.92999999970533,0.0001444746
456.9449999997053,0.00483048,456.9449999997053,7.23216e-05,456.9449999997053,0.001835236,456.9449999997053,0.0001441663
456.9599999997053,0.00498481,456.9599999997053,7.672142e-05,456.9599999997053,0.001846717,456.9599999997053,0.0001495674
456.9749999997053,0.004959146,456.9749999997053,7.971125e-05,456.9749999997053,0.00186961,456.9749999997053,0.0001515839
456.9899999997053,0.00480281,456.9899999997053,7.967996e-05,456.9899999997053,0.001879705,456.9899999997053,0.0001536336
457.00499999970526,0.004790635,457.00499999970526,7.960815e-05,457.00499999970526,0.001880538,457.00499999970526,0.0001579847
457.01999999970525,0.00461483,457.01999999970525,7.789941e-05,457.01999999970525,0.001808744,457.01999999970525,0.0001489512
457.03499999970524,0.004614808,457.03499999970524,6.971403e-05,457.03499999970524,0.001631308,457.03499999970524,0.0001359201
457.0499999997052,0.004648104,457.0499999997052,6.859389e-05,457.0499999997052,0.001597822,457.0499999997052,0.0001365858
457.0649999997052,0.004774338,457.0649999997052,6.437385e-05,457.0649999997052,0.001533632,457.0649999997052,0.0001242481
457.0799999997052,0.004750634,457.0799999997052,6.485457e-05,457.0799999997052,0.001460091,457.0799999997052,0.0001116522
457.0949999997052,0.004749321,457.0949999997052,6.68177e-05,457.0949999997052,0.001093235,457.0949999997052,0.0001089495
457.10999999970517,0.004749321,457.10999999970517,7.134284e-05,457.10999999970517,0.001066029,457.10999999970517,0.000112516
457.12499999970515,0.004720679,457.12499999970515,6.979381e-05,457.12499999970515,0.0009803451,457.12499999970515,0.0001168674
457.13999999970514,0.004836311,457.13999999970514,7.116966e-05,457.13999999970514,0.0009678147,457.13999999970514,0.0001150751
457.1549999997051,0.004919486,457.1549999997051,7.134205e-05,457.1549999997051,0.0009711432,457.1549999997051,0.0001131768
457.1699999997051,0.004919495,457.1699999997051,7.024927e-05,457.1699999997051,0.0009542341,457.1699999997051,0.0001099478
457.1849999997051,0.00501202,457.1849999997051,7.059392e-05,457.1849999997051,0.000879513,457.1849999997051,0.0001047976
457.1999999997051,0.004956744,457.1999999997051,6.481872e-05,457.1999999997051,0.0007906318,457.1999999997051,0.0001043836
457.21499999970507,0.004727114,457.21499999970507,6.274621e-05,457.21499999970507,0.0007728953,457.21499999970507,9.884197e-05
457.22999999970506,0.004529619,457.22999999970506,6.027611e-05,457.22999999970506,0.0007135986,457.22999999970506,9.956332e-05
457.24499999970504,0.004382054,457.24499999970504,6.021227e-05,457.24499999970504,0.0007463372,457.24499999970504,9.397369e-05
457.25999999970503,0.00422193,457.25999999970503,6.017038e-05,457.25999999970503,0.0007847286,457.25999999970503,8.736549e-05
457.274999999705,0.004162334,457.274999999705,5.948e-05,457.274999999705,0.0007863226,457.274999999705,8.712814e-05
457.289999999705,0.004254146,457.289999999705,5.826497e-05,457.289999999705,0.0007818628,457.289999999705,8.558929e-05
457.304999999705,0.004425358,457.304999999705,5.863419e-05,457.304999999705,0.0007881726,457.304999999705,8.49803e-05
457.319999999705,0.004542723,457.319999999705,6.08263e-05,457.319999999705,0.0007873806,457.319999999705,8.539783e-05
457.33499999970496,0.004575589,457.33499999970496,6.405378e-05,457.33499999970496,0.0008836338,457.33499999970496,8.641286e-05
457.34999999970495,0.004575589,457.34999999970495,6.050843e-05,457.34999999970495,0.0009459361,457.34999999970495,8.545356e-05
457.36499999970493,0.004574196,457.36499999970493,5.943333e-05,457.36499999970493,0.0009337506,457.36499999970493,8.139615e-05
457.3799999997049,0.004557095,457.3799999997049,5.370362e-05,457.3799999997049,0.0009377603,457.3799999997049,5.954462e-05
457.3949999997049,0.004558129,457.3949999997049,5.443054e-05,457.3949999997049,0.0009427332,457.3949999997049,5.792671e-05
457.4099999997049,0.004481811,457.4099999997049,5.411778e-05,457.4099999997049,0.0009497665,457.4099999997049,6.441301e-05
457.4249999997049,0.004391574,457.4249999997049,5.469465e-05,457.4249999997049,0.0009565953,457.4249999997049,6.57335e-05
457.43999999970487,0.004299108,457.43999999970487,5.532281e-05,457.43999999970487,0.0009653579,457.43999999970487,6.788605e-05
457.45499999970485,0.004352233,457.45499999970485,6.092997e-05,457.45499999970485,0.0009640885,457.45499999970485,6.718228e-05
457.46999999970484,0.004453316,457.46999999970484,6.794516e-05,457.46999999970484,0.0009947318,457.46999999970484,6.341814e-05
457.4849999997048,0.004391682,457.4849999997048,6.952019e-05,457.4849999997048,0.0009919808,457.4849999997048,6.815713e-05
457.4999999997048,0.004380819,457.4999999997048,7.96278e-05,457.4999999997048,0.001319288,457.4999999997048,7.760082e-05
457.5149999997048,0.004577842,457.5149999997048,8.25489e-05,457.5149999997048,0.001364314,457.5149999997048,7.714367e-05
457.5299999997048,0.004804857,457.5299999997048,8.264322e-05,457.5299999997048,0.001460615,457.5299999997048,7.715736e-05
457.54499999970477,0.00497548,457.54499999970477,8.2525e-05,457.54499999970477,0.001480216,457.54499999970477,7.826222e-05
457.55999999970476,0.005038765,457.55999999970476,8.056921e-05,457.55999999970476,0.001466855,457.55999999970476,7.525975e-05
457.57499999970474,0.004973998,457.57499999970474,7.706785e-05,457.57499999970474,0.001446798,457.57499999970474,7.608923e-05
457.58999999970473,0.004790437,457.58999999970473,7.605163e-05,457.58999999970473,0.00136586,457.58999999970473,7.650759e-05
457.6049999997047,0.004666403,457.6049999997047,7.784768e-05,457.6049999997047,0.001350708,457.6049999997047,7.787463e-05
457.6199999997047,0.0047057,457.6199999997047,7.665787e-05,457.6199999997047,0.001346628,457.6199999997047,7.798562e-05
457.6349999997047,0.004856762,457.6349999997047,7.473647e-05,457.6349999997047,0.001300846,457.6349999997047,7.910972e-05
457.6499999997047,0.004974666,457.6499999997047,0.0001038573,457.6499999997047,0.001574672,457.6499999997047,9.551005e-05
457.66499999970466,0.005029402,457.66499999970466,0.0001108848,457.66499999970466,0.00161213,457.66499999970466,0.0001026125
457.67999999970465,0.005070497,457.67999999970465,0.0001132729,457.67999999970465,0.001641867,457.67999999970465,0.0001060747
457.69499999970463,0.005001917,457.69499999970463,0.0001149177,457.69499999970463,0.001701933,457.69499999970463,0.0001081844
457.7099999997046,0.005109255,457.7099999997046,0.000111658,457.7099999997046,0.001724597,457.7099999997046,0.0001092967
457.7249999997046,0.005062043,457.7249999997046,0.0001089128,457.7249999997046,0.001734026,457.7249999997046,0.0001095944
457.7399999997046,0.004983757,457.7399999997046,0.0001072149,457.7399999997046,0.001726974,457.7399999997046,0.0001049164
457.7549999997046,0.004998089,457.7549999997046,0.000102984,457.7549999997046,0.001471359,457.7549999997046,0.00010475
457.76999999970457,0.005033112,457.76999999970457,0.0001040936,457.76999999970457,0.001463055,457.76999999970457,0.0001120496
457.78499999970455,0.005108129,457.78499999970455,0.0001045073,457.78499999970455,0.001381506,457.78499999970455,0.000114016
457.79999999970454,0.005097602,457.79999999970454,0.000104526,457.79999999970454,0.001384137,457.79999999970454,0.0001136669
457.8149999997045,0.00500087,457.8149999997045,0.0001040091,457.8149999997045,0.001375387,457.8149999997045,0.0001133712
457.8299999997045,0.004815869,457.8299999997045,0.0001043013,457.8299999997045,0.001374829,457.8299999997045,0.0001130737
457.8449999997045,0.00466896,457.8449999997045,0.0001030432,457.8449999997045,0.001368596,457.8449999997045,0.0001128003
457.8599999997045,0.004591181,457.8599999997045,0.0001015116,457.8599999997045,0.00135574,457.8599999997045,0.0001110631
457.87499999970447,0.004530377,457.87499999970447,0.000100781,457.87499999970447,0.001359855,457.87499999970447,0.0001106432
457.88999999970446,0.004471027,457.88999999970446,9.932435e-05,457.88999999970446,0.001343103,457.88999999970446,0.0001099656
457.90499999970444,0.004381085,457.90499999970444,5.886748e-05,457.90499999970444,0.0009304508,457.90499999970444,8.64466e-05
457.91999999970443,0.004280936,457.91999999970443,5.38511e-05,457.91999999970443,0.0009011074,457.91999999970443,8.165292e-05
457.9349999997044,0.004356335,457.9349999997044,4.754106e-05,457.9349999997044,0.0008533832,457.9349999997044,7.649894e-05
457.9499999997044,0.004414079,457.9499999997044,4.494224e-05,457.9499999997044,0.0007756866,457.9499999997044,7.284927e-05
457.9649999997044,0.004414079,457.9649999997044,3.843821e-05,457.9649999997044,0.0007067876,457.9649999997044,6.907582e-05
457.9799999997044,0.004372488,457.9799999997044,3.51575e-05,457.9799999997044,0.0006232777,457.9799999997044,6.679809e-05
457.99499999970436,0.004141103,457.99499999970436,3.523275e-05,457.99499999970436,0.0005865728,457.99499999970436,6.640638e-05
458.00999999970435,0.003921837,458.00999999970435,3.221962e-05,458.00999999970435,0.0005694358,458.00999999970435,5.729735e-05
458.02499999970433,0.003849007,458.02499999970433,2.729551e-05,458.02499999970433,0.0005244875,458.02499999970433,4.285155e-05
458.0399999997043,0.003840195,458.0399999997043,2.553019e-05,458.0399999997043,0.0005080907,458.0399999997043,3.601999e-05
458.0549999997043,0.003838662,458.0549999997043,2.592931e-05,458.0549999997043,0.0005088551,458.0549999997043,3.443978e-05
458.0699999997043,0.003818888,458.0699999997043,2.570287e-05,458.0699999997043,0.000508112,458.0699999997043,3.417206e-05
458.0849999997043,0.003820598,458.0849999997043,2.537357e-05,458.0849999997043,0.0005036739,458.0849999997043,3.217675e-05
458.09999999970427,0.003832776,458.09999999970427,2.539853e-05,458.09999999970427,0.0005016217,458.09999999970427,3.018161e-05
458.11499999970425,0.003870013,458.11499999970425,2.57762e-05,458.11499999970425,0.0004577912,458.11499999970425,3.020913e-05
458.12999999970424,0.003824343,458.12999999970424,2.508378e-05,458.12999999970424,0.0004152856,458.12999999970424,3.023197e-05
458.1449999997042,0.003825415,458.1449999997042,2.521596e-05,458.1449999997042,0.0004093533,458.1449999997042,3.010216e-05
458.1599999997042,0.003895226,458.1599999997042,2.57762e-05,458.1599999997042,0.0004083642,458.1599999997042,3.024083e-05
458.1749999997042,0.004038172,458.1749999997042,2.546666e-05,458.1749999997042,0.0003863211,458.1749999997042,2.80464e-05
458.1899999997042,0.004017755,458.1899999997042,2.371966e-05,458.1899999997042,0.0002962905,458.1899999997042,2.35486e-05
458.20499999970417,0.003888175,458.20499999970417,2.355219e-05,458.20499999970417,0.0002443682,458.20499999970417,2.289097e-05
458.21999999970416,0.003734211,458.21999999970416,2.334553e-05,458.21999999970416,0.0002482726,458.21999999970416,2.239954e-05
458.23499999970414,0.003782977,458.23499999970414,2.352765e-05,458.23499999970414,0.0002512008,458.23499999970414,2.16961e-05
458.24999999970413,0.003860053,458.24999999970413,2.206116e-05,458.24999999970413,0.0002370908,458.24999999970413,2.090111e-05
458.2649999997041,0.003968418,458.2649999997041,2.220119e-05,458.2649999997041,0.0002347047,458.2649999997041,2.034579e-05
458.2799999997041,0.003928255,458.2799999997041,2.140851e-05,458.2799999997041,0.0002326711,458.2799999997041,1.871877e-05
458.2949999997041,0.003797002,458.2949999997041,2.057232e-05,458.2949999997041,0.0002203714,458.2949999997041,1.872779e-05
458.3099999997041,0.003612113,458.3099999997041,1.864714e-05,458.3099999997041,0.0002725589,458.3099999997041,2.065296e-05
458.32499999970406,0.003589066,458.32499999970406,1.812927e-05,458.32499999970406,0.0004042876,458.32499999970406,2.292295e-05
458.33999999970405,0.003679009,458.33999999970405,1.872478e-05,458.33999999970405,0.000460991,458.33999999970405,2.713142e-05
458.35499999970403,0.003737845,458.35499999970403,1.983322e-05,458.35499999970403,0.0004746749,458.35499999970403,2.856299e-05
458.369999999704,0.003660493,458.369999999704,1.927783e-05,458.369999999704,0.0005812029,458.369999999704,2.888665e-05
458.384999999704,0.003640312,458.384999999704,1.932746e-05,458.384999999704,0.0006064137,458.384999999704,3.057345e-05
458.399999999704,0.00365668,458.399999999704,1.846952e-05,458.399999999704,0.0006942415,458.399999999704,3.152171e-05
458.414999999704,0.003544298,458.414999999704,1.964983e-05,458.414999999704,0.0007838075,458.414999999704,3.432753e-05
458.42999999970397,0.003544308,458.42999999970397,2.82989e-05,458.42999999970397,0.0007926202,458.42999999970397,4.016931e-05
458.44499999970395,0.003662329,458.44499999970395,3.10058e-05,458.44499999970395,0.0009437682,458.44499999970395,4.154701e-05
458.45999999970394,0.003871474,458.45999999970394,4.345545e-05,458.45999999970394,0.001197393,458.45999999970394,5.617561e-05
458.4749999997039,0.003999302,458.4749999997039,5.7318e-05,458.4749999997039,0.001329161,458.4749999997039,6.842754e-05
458.4899999997039,0.004079928,458.4899999997039,5.877576e-05,458.4899999997039,0.001400885,458.4899999997039,7.158863e-05
458.5049999997039,0.004099465,458.5049999997039,6.065864e-05,458.5049999997039,0.001627487,458.5049999997039,8.162859e-05
458.5199999997039,0.004115208,458.5199999997039,6.065887e-05,458.5199999997039,0.001708833,458.5199999997039,8.353009e-05
458.53499999970387,0.004126506,458.53499999970387,6.186173e-05,458.53499999970387,0.001718453,458.53499999970387,8.338358e-05
458.54999999970386,0.004114669,458.54999999970386,6.334836e-05,458.54999999970386,0.001721492,458.54999999970386,8.400415e-05
