X[s],a: EMG RMS 1-1,X[s].1,a: EMG RMS 1-2,X[s].2,a: EMG RMS 1-3,X[s].3,a: EMG RMS 1-4
332.00999999981894,4.720713e-06,332.00999999981894,1.847104e-05,332.00999999981894,3.29344e-06,332.00999999981894,2.912075e-06
332.02499999981893,4.70577e-06,332.02499999981893,1.810283e-05,332.02499999981893,3.237359e-06,332.02499999981893,2.997883e-06
332.0399999998189,4.756387e-06,332.0399999998189,1.703814e-05,332.0399999998189,3.314757e-06,332.0399999998189,2.983753e-06
332.0549999998189,4.69378e-06,332.0549999998189,1.613711e-05,332.0549999998189,3.323245e-06,332.0549999998189,2.921734e-06
332.0699999998189,4.777073e-06,332.0699999998189,1.636939e-05,332.0699999998189,3.331712e-06,332.0699999998189,2.945742e-06
332.0849999998189,4.936594e-06,332.0849999998189,1.685444e-05,332.0849999998189,3.276286e-06,332.0849999998189,2.988471e-06
332.09999999981886,4.982041e-06,332.09999999981886,1.7142e-05,332.09999999981886,3.361178e-06,332.09999999981886,3.085871e-06
332.11499999981885,5.027078e-06,332.11499999981885,1.630213e-05,332.11499999981885,3.548731e-06,332.11499999981885,3.076727e-06
332.12999999981884,4.925167e-06,332.12999999981884,1.594214e-05,332.12999999981884,3.580347e-06,332.12999999981884,3.039879e-06
332.1449999998188,4.945147e-06,332.1449999998188,1.574923e-05,332.1449999998188,3.615583e-06,332.1449999998188,3.049133e-06
332.1599999998188,5.043863e-06,332.1599999998188,1.563883e-05,332.1599999998188,3.568524e-06,332.1599999998188,2.993181e-06
332.1749999998188,4.993339e-06,332.1749999998188,1.600828e-05,332.1749999998188,3.607783e-06,332.1749999998188,3.076727e-06
332.1899999998188,4.996159e-06,332.1899999998188,1.534697e-05,332.1899999998188,3.627253e-06,332.1899999998188,3.021286e-06
332.20499999981877,4.993339e-06,332.20499999981877,1.499693e-05,332.20499999981877,3.711708e-06,332.20499999981877,2.964809e-06
332.21999999981875,4.925167e-06,332.21999999981875,1.465392e-05,332.21999999981875,3.685046e-06,332.21999999981875,2.979029e-06
332.23499999981874,4.953686e-06,332.23499999981874,1.484873e-05,332.23499999981874,3.719291e-06,332.23499999981874,2.997883e-06
332.2499999998187,4.973552e-06,332.2499999998187,1.493764e-05,332.2499999998187,3.84957e-06,332.2499999998187,3.072146e-06
332.2649999998187,4.967884e-06,332.2649999998187,1.466161e-05,332.2649999998187,3.820184e-06,332.2649999998187,3.126685e-06
332.2799999998187,4.984868e-06,332.2799999998187,1.556298e-05,332.2799999998187,3.820184e-06,332.2799999998187,3.058359e-06
332.2949999998187,4.910845e-06,332.2949999998187,1.675636e-05,332.2949999998187,3.78313e-06,332.2949999998187,3.263362e-06
332.3099999998187,4.965048e-06,332.3099999998187,1.746197e-05,332.3099999998187,3.816494e-06,332.3099999998187,3.189136e-06
332.32499999981866,4.79767e-06,332.32499999981866,1.737706e-05,332.32499999981866,3.779404e-06,332.32499999981866,3.215529e-06
332.33999999981864,4.870521e-06,332.33999999981864,1.780547e-05,332.33999999981864,3.82387e-06,332.33999999981864,3.166973e-06
332.35499999981863,4.765263e-06,332.35499999981863,1.720107e-05,332.35499999981863,3.540784e-06,332.35499999981863,3.184716e-06
332.3699999998186,4.815255e-06,332.3699999998186,1.785603e-05,332.3699999998186,3.472492e-06,332.3699999998186,3.189136e-06
332.3849999998186,4.950841e-06,332.3849999998186,1.786234e-05,332.3849999998186,3.460301e-06,332.3849999998186,3.254718e-06
332.3999999998186,4.777073e-06,332.3999999998186,1.945386e-05,332.3999999998186,3.516832e-06,332.3999999998186,3.197958e-06
332.4149999998186,4.782967e-06,332.4149999998186,2.072717e-05,332.4149999998186,3.631134e-06,332.4149999998186,3.197958e-06
332.42999999981856,4.729657e-06,332.42999999981856,2.239577e-05,332.42999999981856,3.57641e-06,332.42999999981856,3.180289e-06
332.44499999981855,4.723696e-06,332.44499999981855,2.999903e-05,332.44499999981855,3.508812e-06,332.44499999981855,3.175857e-06
332.45999999981854,4.639445e-06,332.45999999981854,3.355684e-05,332.45999999981854,3.435788e-06,332.45999999981854,3.211145e-06
332.4749999998185,4.612038e-06,332.4749999998185,3.427702e-05,332.4749999998185,3.492716e-06,332.4749999998185,3.184716e-06
332.4899999998185,4.497608e-06,332.4899999998185,3.727803e-05,332.4899999998185,3.284874e-06,332.4899999998185,3.184716e-06
332.5049999998185,4.584466e-06,332.5049999998185,3.90786e-05,332.5049999998185,3.377901e-06,332.5049999998185,3.19355e-06
332.5199999998185,4.559819e-06,332.5199999998185,3.906274e-05,332.5199999998185,3.580347e-06,332.5199999998185,3.263362e-06
332.53499999981847,4.444044e-06,332.53499999981847,3.893415e-05,332.53499999981847,3.631134e-06,332.53499999981847,3.237359e-06
332.54999999981845,4.412233e-06,332.54999999981845,3.89714e-05,332.54999999981845,3.584279e-06,332.54999999981845,3.202359e-06
332.56499999981844,4.35762e-06,332.56499999981844,3.904399e-05,332.56499999981844,3.592131e-06,332.56499999981844,3.254718e-06
332.5799999998184,4.431347e-06,332.5799999998184,3.930361e-05,332.5799999998184,3.65048e-06,332.5799999998184,3.319004e-06
332.5949999998184,4.341427e-06,332.5949999998184,3.94485e-05,332.5949999998184,3.745709e-06,332.5949999998184,3.228645e-06
332.6099999998184,4.535037e-06,332.6099999998184,3.959321e-05,332.6099999998184,3.719291e-06,332.6099999998184,3.140172e-06
332.6249999998184,4.456705e-06,332.6249999998184,3.948277e-05,332.6249999998184,3.677393e-06,332.6249999998184,3.197958e-06
332.6399999998184,4.47563e-06,332.6399999998184,3.95537e-05,332.6399999998184,3.692683e-06,332.6399999998184,3.11314e-06
332.65499999981836,4.605925e-06,332.65499999981836,3.847704e-05,332.65499999981836,3.646619e-06,332.65499999981836,3.189136e-06
332.66999999981834,4.675739e-06,332.66999999981834,3.76787e-05,332.66999999981834,3.658189e-06,332.66999999981834,3.180289e-06
332.68499999981833,4.690778e-06,332.68499999981833,3.609461e-05,332.68499999981833,3.726858e-06,332.68499999981833,3.122176e-06
332.6999999998183,4.785911e-06,332.6999999998183,3.073108e-05,332.6999999998183,3.922073e-06,332.6999999998183,3.104077e-06
332.7149999998183,4.907976e-06,332.7149999998183,3.013864e-05,332.7149999998183,3.975583e-06,332.7149999998183,3.053749e-06
332.7299999998183,4.987693e-06,332.7299999998183,2.90738e-05,332.7299999998183,4.024883e-06,332.7299999998183,3.099535e-06
332.7449999998183,5.057808e-06,332.7449999998183,2.65223e-05,332.7449999998183,3.961384e-06,332.7449999998183,3.180289e-06
332.75999999981826,4.962209e-06,332.75999999981826,2.526563e-05,332.75999999981826,3.961384e-06,332.75999999981826,3.094987e-06
332.77499999981825,4.998978e-06,332.77499999981825,2.561393e-05,332.77499999981825,3.820184e-06,332.77499999981825,2.863294e-06
332.78999999981824,4.930884e-06,332.78999999981824,2.52595e-05,332.78999999981824,3.914884e-06,332.78999999981824,2.882905e-06
332.8049999998182,5.035477e-06,332.8049999998182,2.541794e-05,332.8049999998182,3.838577e-06,332.8049999998182,2.897527e-06
332.8199999998182,5.029879e-06,332.8199999998182,2.467669e-05,332.8199999998182,3.867824e-06,332.8199999998182,2.813666e-06
332.8349999998182,5.110451e-06,332.8349999998182,2.454619e-05,332.8349999998182,3.939991e-06,332.8349999998182,2.853437e-06
332.8499999998182,5.066156e-06,332.8499999998182,2.448241e-05,332.8499999998182,3.853228e-06,332.8499999998182,2.848496e-06
332.86499999981817,5.035477e-06,332.86499999981817,2.412654e-05,332.86499999981817,3.90768e-06,332.86499999981817,2.828646e-06
332.87999999981815,5.027078e-06,332.87999999981815,2.392661e-05,332.87999999981815,3.947135e-06,332.87999999981815,2.853437e-06
332.89499999981814,4.930884e-06,332.89499999981814,2.482807e-05,332.89499999981814,3.922073e-06,332.89499999981814,2.838588e-06
332.9099999998181,4.962209e-06,332.9099999998181,2.549983e-05,332.9099999998181,3.961384e-06,332.9099999998181,2.853437e-06
332.9249999998181,4.913713e-06,332.9249999998181,2.448529e-05,332.9249999998181,3.911283e-06,332.9249999998181,2.878015e-06
332.9399999998181,4.893604e-06,332.9399999998181,2.497064e-05,332.9399999998181,3.78313e-06,332.9399999998181,2.931361e-06
332.9549999998181,4.882076e-06,332.9549999998181,2.144796e-05,332.9549999998181,3.692683e-06,332.9549999998181,2.907234e-06
332.96999999981807,4.744526e-06,332.96999999981807,2.207329e-05,332.96999999981807,3.677393e-06,332.96999999981807,3.108612e-06
332.98499999981806,4.714741e-06,332.98499999981806,2.335518e-05,332.98499999981806,3.603876e-06,332.98499999981806,3.094987e-06
332.99999999981804,4.69378e-06,332.99999999981804,2.343707e-05,332.99999999981804,3.548731e-06,332.99999999981804,2.983753e-06
333.01499999981803,4.642481e-06,333.01499999981803,2.498587e-05,333.01499999981803,3.540784e-06,333.01499999981803,3.104077e-06
333.029999999818,4.726678e-06,333.029999999818,2.871154e-05,333.029999999818,3.488681e-06,333.029999999818,3.058359e-06
333.044999999818,4.824024e-06,333.044999999818,2.877721e-05,333.044999999818,3.423466e-06,333.044999999818,2.997883e-06
333.059999999818,4.841512e-06,333.059999999818,2.886714e-05,333.059999999818,3.415227e-06,333.059999999818,3.053749e-06
333.074999999818,4.936594e-06,333.074999999818,3.094168e-05,333.074999999818,3.36955e-06,333.074999999818,3.162522e-06
333.08999999981796,4.902232e-06,333.08999999981796,3.114226e-05,333.08999999981796,3.415227e-06,333.08999999981796,3.140172e-06
333.10499999981795,4.982041e-06,333.10499999981795,3.125153e-05,333.10499999981795,3.36955e-06,333.10499999981795,3.276286e-06
333.11999999981794,5.148897e-06,333.11999999981794,3.18175e-05,333.11999999981794,3.356985e-06,333.11999999981794,3.361178e-06
333.1349999998179,5.077266e-06,333.1349999998179,3.191961e-05,333.1349999998179,3.319004e-06,333.1349999998179,3.398688e-06
333.1499999998179,5.082812e-06,333.1499999998179,3.142997e-05,333.1499999998179,3.276286e-06,333.1499999998179,3.448066e-06
333.1649999998179,5.043863e-06,333.1649999998179,3.110922e-05,333.1649999998179,3.276286e-06,333.1649999998179,3.580347e-06
333.1799999998179,5.068936e-06,333.1799999998179,3.106526e-05,333.1799999998179,3.297714e-06,333.1799999998179,3.568524e-06
333.19499999981787,5.063375e-06,333.19499999981787,3.070173e-05,333.19499999981787,3.241707e-06,333.19499999981787,3.580347e-06
333.20999999981785,5.001795e-06,333.20999999981785,3.055963e-05,333.20999999981785,3.202359e-06,333.20999999981785,3.54476e-06
333.22499999981784,5.035477e-06,333.22499999981784,3.007828e-05,333.22499999981784,3.250386e-06,333.22499999981784,3.406967e-06
333.2399999998178,5.060592e-06,333.2399999998178,2.978272e-05,333.2399999998178,3.254718e-06,333.2399999998178,3.40283e-06
333.2549999998178,5.085583e-06,333.2549999998178,2.873852e-05,333.2549999998178,3.180289e-06,333.2549999998178,3.4111e-06
333.2699999998178,5.12971e-06,333.2699999998178,2.65955e-05,333.2699999998178,3.215529e-06,333.2699999998178,3.314757e-06
333.2849999998178,4.965048e-06,333.2849999998178,2.296531e-05,333.2849999998178,3.219907e-06,333.2849999998178,3.29344e-06
333.29999999981777,4.867628e-06,333.29999999981777,2.409791e-05,333.29999999981777,3.267676e-06,333.29999999981777,3.365367e-06
333.31499999981776,4.79767e-06,333.31499999981776,2.275766e-05,333.31499999981776,3.280583e-06,333.31499999981776,3.297714e-06
333.32999999981774,4.774123e-06,333.32999999981774,2.038107e-05,333.32999999981774,3.323245e-06,333.32999999981774,3.306247e-06
333.34499999981773,4.753424e-06,333.34499999981773,2.040525e-05,333.34499999981773,3.215529e-06,333.34499999981773,3.280583e-06
333.3599999998177,4.593675e-06,333.3599999998177,1.958305e-05,333.3599999998177,3.215529e-06,333.3599999998177,3.250386e-06
333.3749999998177,4.450379e-06,333.3749999998177,2.08775e-05,333.3749999998177,3.211145e-06,333.3749999998177,3.276286e-06
333.3899999998177,4.402644e-06,333.3899999998177,2.051747e-05,333.3899999998177,3.263362e-06,333.3899999998177,3.202359e-06
333.4049999998177,4.415424e-06,333.4049999998177,2.052364e-05,333.4049999998177,3.237359e-06,333.4049999998177,3.135683e-06
333.41999999981766,4.389827e-06,333.41999999981766,2.076723e-05,333.41999999981766,3.215529e-06,333.41999999981766,2.964809e-06
333.43499999981765,4.347911e-06,333.43499999981765,2.088965e-05,333.43499999981765,3.131187e-06,333.43499999981765,2.843547e-06
333.44999999981763,4.34467e-06,333.44999999981763,2.116166e-05,333.44999999981763,3.144655e-06,333.44999999981763,2.853437e-06
333.4649999998176,4.472482e-06,333.4649999998176,2.001633e-05,333.4649999998176,3.206755e-06,333.4649999998176,2.897527e-06
333.4799999998176,4.497608e-06,333.4799999998176,2.013211e-05,333.4799999998176,3.263362e-06,333.4799999998176,2.912075e-06
333.4949999998176,4.675739e-06,333.4949999998176,2.001211e-05,333.4949999998176,3.327482e-06,333.4949999998176,2.882905e-06
333.5099999998176,4.785911e-06,333.5099999998176,1.952542e-05,333.5099999998176,3.323245e-06,333.5099999998176,2.887788e-06
333.52499999981757,4.714741e-06,333.52499999981757,1.932017e-05,333.52499999981757,3.28916e-06,333.52499999981757,2.902385e-06
333.53999999981755,4.747494e-06,333.53999999981755,1.938713e-05,333.53999999981755,3.319004e-06,333.53999999981755,2.979029e-06
333.55499999981754,4.648545e-06,333.55499999981754,1.78205e-05,333.55499999981754,3.280583e-06,333.55499999981754,2.863294e-06
333.5699999998175,4.636408e-06,333.5699999998175,1.888807e-05,333.5699999998175,3.171418e-06,333.5699999998175,2.838588e-06
333.5849999998175,4.861837e-06,333.5849999998175,1.892458e-05,333.5849999998175,3.122176e-06,333.5849999998175,2.773325e-06
333.5999999998175,4.762306e-06,333.5999999998175,2.042112e-05,333.5999999998175,3.211145e-06,333.5999999998175,2.818668e-06
333.6149999998175,4.910845e-06,333.6149999998175,2.107695e-05,333.6149999998175,3.280583e-06,333.6149999998175,2.621889e-06
333.62999999981747,5.015856e-06,333.62999999981747,2.121484e-05,333.62999999981747,3.36955e-06,333.62999999981747,2.643292e-06
333.64499999981746,5.192486e-06,333.64499999981746,2.167661e-05,333.64499999981746,3.373728e-06,333.64499999981746,2.675077e-06
333.65999999981744,5.214144e-06,333.65999999981744,2.11876e-05,333.65999999981744,3.524834e-06,333.65999999981744,2.727227e-06
333.67499999981743,5.329048e-06,333.67499999981743,2.156063e-05,333.67499999981743,3.480596e-06,333.67499999981743,2.742679e-06
333.6899999998174,5.329048e-06,333.6899999998174,2.140456e-05,333.6899999998174,3.552699e-06,333.6899999998174,2.843547e-06
333.7049999998174,5.376418e-06,333.7049999998174,2.145518e-05,333.7049999998174,3.536803e-06,333.7049999998174,2.955291e-06
333.7199999998174,5.28392e-06,333.7199999998174,2.111634e-05,333.7199999998174,3.564574e-06,333.7199999998174,2.902385e-06
333.7349999998174,5.262549e-06,333.7349999998174,2.144336e-05,333.7349999998174,3.516832e-06,333.7349999998174,2.997883e-06
333.74999999981736,5.063375e-06,333.74999999981736,2.159914e-05,333.74999999981736,3.512824e-06,333.74999999981736,3.002579e-06
333.76499999981735,5.162558e-06,333.76499999981735,2.198377e-05,333.76499999981735,3.516832e-06,333.76499999981735,2.993181e-06
333.77999999981733,5.259872e-06,333.77999999981733,2.259802e-05,333.77999999981733,3.564574e-06,333.77999999981733,2.983753e-06
333.7949999998173,5.508422e-06,333.7949999998173,2.269816e-05,333.7949999998173,3.65048e-06,333.7949999998173,3.01662e-06
333.8099999998173,5.592176e-06,333.8099999998173,2.215101e-05,333.8099999998173,3.65048e-06,333.8099999998173,3.094987e-06
333.8249999998173,5.528843e-06,333.8249999998173,2.22405e-05,333.8249999998173,3.65048e-06,333.8249999998173,3.094987e-06
333.8399999998173,5.457037e-06,333.8399999998173,2.183847e-05,333.8399999998173,3.715501e-06,333.8399999998173,3.122176e-06
333.85499999981727,5.418178e-06,333.85499999981727,2.126193e-05,333.85499999981727,3.723076e-06,333.85499999981727,3.094987e-06
333.86999999981725,5.418178e-06,333.86999999981725,2.007606e-05,333.86999999981725,3.564574e-06,333.86999999981725,3.202359e-06
333.88499999981724,5.428567e-06,333.88499999981724,1.915394e-05,333.88499999981724,3.568524e-06,333.88499999981724,3.263362e-06
333.8999999998172,5.405162e-06,333.8999999998172,1.958233e-05,333.8999999998172,3.607783e-06,333.8999999998172,3.297714e-06
333.9149999998172,5.389503e-06,333.9149999998172,1.98318e-05,333.9149999998172,3.520835e-06,333.9149999998172,3.271984e-06
333.9299999998172,5.313164e-06,333.9299999998172,1.926029e-05,333.9299999998172,3.536803e-06,333.9299999998172,3.263362e-06
333.9449999998172,5.262549e-06,333.9449999998172,1.909944e-05,333.9449999998172,3.476546e-06,333.9449999998172,3.131187e-06
333.95999999981717,5.219545e-06,333.95999999981717,1.890596e-05,333.95999999981717,3.524834e-06,333.95999999981717,3.144655e-06
333.97499999981716,5.305204e-06,333.97499999981716,1.932163e-05,333.97499999981716,3.352786e-06,333.97499999981716,3.053749e-06
333.98999999981714,5.331691e-06,333.98999999981714,2.045145e-05,333.98999999981714,3.448066e-06,333.98999999981714,3.149131e-06
334.00499999981713,5.233022e-06,334.00499999981713,2.050785e-05,334.00499999981713,3.443979e-06,334.00499999981713,3.24605e-06
334.0199999998171,5.235713e-06,334.0199999998171,2.095092e-05,334.0199999998171,3.423466e-06,334.0199999998171,3.122176e-06
334.0349999998171,5.015856e-06,334.0349999998171,2.045214e-05,334.0349999998171,3.352786e-06,334.0349999998171,3.267676e-06
334.0499999998171,4.884961e-06,334.0499999998171,2.045489e-05,334.0499999998171,3.241707e-06,334.0499999998171,3.189136e-06
334.0649999998171,4.841512e-06,334.0649999998171,1.997406e-05,334.0649999998171,3.228645e-06,334.0649999998171,3.219907e-06
334.07999999981706,4.979213e-06,334.07999999981706,1.919068e-05,334.07999999981706,3.117661e-06,334.07999999981706,3.250386e-06
334.09499999981705,4.928026e-06,334.09499999981705,1.92581e-05,334.09499999981705,3.11314e-06,334.09499999981705,3.306247e-06
334.10999999981703,5.02147e-06,334.10999999981703,1.932454e-05,334.10999999981703,3.117661e-06,334.10999999981703,3.276286e-06
334.124999999817,4.936594e-06,334.124999999817,1.988358e-05,334.124999999817,3.197958e-06,334.124999999817,3.11314e-06
334.139999999817,4.838602e-06,334.139999999817,1.940239e-05,334.139999999817,3.153601e-06,334.139999999817,3.126685e-06
334.154999999817,4.732634e-06,334.154999999817,1.979483e-05,334.154999999817,3.228645e-06,334.154999999817,3.058359e-06
334.169999999817,4.794733e-06,334.169999999817,2.034302e-05,334.169999999817,3.215529e-06,334.169999999817,3.117661e-06
334.18499999981697,4.720713e-06,334.18499999981697,2.038729e-05,334.18499999981697,3.406967e-06,334.18499999981697,3.140172e-06
334.19999999981695,4.785911e-06,334.19999999981695,2.025559e-05,334.19999999981695,3.448066e-06,334.19999999981695,3.117661e-06
334.21499999981694,4.913713e-06,334.21499999981694,2.027227e-05,334.21499999981694,3.4111e-06,334.21499999981694,3.049133e-06
334.2299999998169,4.95937e-06,334.2299999998169,2.097041e-05,334.2299999998169,3.406967e-06,334.2299999998169,3.149131e-06
334.2449999998169,4.870521e-06,334.2449999998169,2.225696e-05,334.2449999998169,3.306247e-06,334.2449999998169,3.241707e-06
334.2599999998169,5.02147e-06,334.2599999998169,2.235611e-05,334.2599999998169,3.335938e-06,334.2599999998169,3.206755e-06
334.2749999998169,4.979213e-06,334.2749999998169,2.212811e-05,334.2749999998169,3.323245e-06,334.2749999998169,3.259043e-06
334.28999999981687,4.967884e-06,334.28999999981687,2.249117e-05,334.28999999981687,3.306247e-06,334.28999999981687,3.135683e-06
334.30499999981686,5.077266e-06,334.30499999981686,2.255497e-05,334.30499999981686,3.310505e-06,334.30499999981686,3.211145e-06
334.31999999981684,5.066156e-06,334.31999999981684,2.258742e-05,334.31999999981684,3.356985e-06,334.31999999981684,3.184716e-06
334.33499999981683,5.121465e-06,334.33499999981683,2.25949e-05,334.33499999981683,3.36955e-06,334.33499999981683,3.197958e-06
334.3499999998168,5.02147e-06,334.3499999998168,2.232079e-05,334.3499999998168,3.356985e-06,334.3499999998168,3.219907e-06
334.3649999998168,4.87919e-06,334.3649999998168,2.239325e-05,334.3649999998168,3.419349e-06,334.3649999998168,3.202359e-06
334.3799999998168,4.853136e-06,334.3799999998168,2.18204e-05,334.3799999998168,3.394541e-06,334.3799999998168,3.211145e-06
334.3949999998168,4.838602e-06,334.3949999998168,2.186039e-05,334.3949999998168,3.373728e-06,334.3949999998168,3.158065e-06
334.40999999981676,5.010237e-06,334.40999999981676,2.133271e-05,334.40999999981676,3.297714e-06,334.40999999981676,3.29344e-06
334.42499999981675,5.029879e-06,334.42499999981675,2.099726e-05,334.42499999981675,3.206755e-06,334.42499999981675,3.267676e-06
334.43999999981673,4.993339e-06,334.43999999981673,2.109699e-05,334.43999999981673,3.276286e-06,334.43999999981673,3.263362e-06
334.4549999998167,4.899358e-06,334.4549999998167,2.223416e-05,334.4549999998167,3.532818e-06,334.4549999998167,3.284874e-06
334.4699999998167,4.890725e-06,334.4699999998167,2.157826e-05,334.4699999998167,3.56062e-06,334.4699999998167,3.263362e-06
334.4849999998167,4.902232e-06,334.4849999998167,2.169415e-05,334.4849999998167,3.59605e-06,334.4849999998167,3.011947e-06
334.4999999998167,4.696781e-06,334.4999999998167,1.863429e-05,334.4999999998167,3.627253e-06,334.4999999998167,2.95052e-06
334.51499999981667,4.648545e-06,334.51499999981667,1.84512e-05,334.51499999981667,3.65048e-06,334.51499999981667,2.878015e-06
334.52999999981665,4.809401e-06,334.52999999981665,1.855323e-05,334.52999999981665,3.631134e-06,334.52999999981665,2.848496e-06
334.54499999981664,4.687774e-06,334.54499999981664,1.840764e-05,334.54499999981664,3.631134e-06,334.54499999981664,2.818668e-06
334.5599999998166,4.68176e-06,334.5599999998166,1.985593e-05,334.5599999998166,3.715501e-06,334.5599999998166,2.742679e-06
334.5749999998166,4.660651e-06,334.5749999998166,1.990199e-05,334.5749999998166,3.779404e-06,334.5749999998166,2.773325e-06
334.5899999998166,4.657627e-06,334.5899999998166,1.974566e-05,334.5899999998166,3.749468e-06,334.5899999998166,2.680338e-06
334.6049999998166,4.633369e-06,334.6049999998166,2.022009e-05,334.6049999998166,3.853228e-06,334.6049999998166,2.637958e-06
334.61999999981657,4.702775e-06,334.61999999981657,2.003602e-05,334.61999999981657,3.82387e-06,334.61999999981657,2.752932e-06
334.63499999981656,4.788854e-06,334.63499999981656,2.0095e-05,334.63499999981656,3.83123e-06,334.63499999981656,2.823661e-06
334.64999999981654,4.756387e-06,334.64999999981654,2.01496e-05,334.64999999981654,3.771943e-06,334.64999999981654,2.818668e-06
334.66499999981653,4.648545e-06,334.66499999981653,1.948208e-05,334.66499999981653,3.730636e-06,334.66499999981653,2.685588e-06
334.6799999998165,4.587538e-06,334.6799999998165,1.919949e-05,334.6799999998165,3.707911e-06,334.6799999998165,2.737538e-06
334.6949999998165,4.708762e-06,334.6949999998165,1.931215e-05,334.6949999998165,3.599965e-06,334.6949999998165,2.887788e-06
334.7099999998165,4.858938e-06,334.7099999998165,1.806778e-05,334.7099999998165,3.331712e-06,334.7099999998165,2.902385e-06
334.7249999998165,4.717728e-06,334.7249999998165,1.838926e-05,334.7249999998165,3.323245e-06,334.7249999998165,2.945742e-06
334.73999999981646,4.841512e-06,334.73999999981646,1.813393e-05,334.73999999981646,3.331712e-06,334.73999999981646,2.897527e-06
334.75499999981645,4.947995e-06,334.75499999981645,2.117097e-05,334.75499999981645,3.28916e-06,334.75499999981645,2.926552e-06
334.76999999981643,4.945147e-06,334.76999999981643,2.116898e-05,334.76999999981643,3.276286e-06,334.76999999981643,3.011947e-06
334.7849999998164,4.884961e-06,334.7849999998164,2.070541e-05,334.7849999998164,3.36955e-06,334.7849999998164,3.072146e-06
334.7999999998164,4.896482e-06,334.7999999998164,2.028408e-05,334.7999999998164,3.344373e-06,334.7999999998164,3.171418e-06
334.8149999998164,4.762306e-06,334.8149999998164,2.021312e-05,334.8149999998164,3.271984e-06,334.8149999998164,3.184716e-06
334.8299999998164,4.768218e-06,334.8299999998164,2.025559e-05,334.8299999998164,3.228645e-06,334.8299999998164,3.202359e-06
334.84499999981637,4.714741e-06,334.84499999981637,2.113368e-05,334.84499999981637,3.24605e-06,334.84499999981637,3.259043e-06
334.85999999981635,4.687774e-06,334.85999999981635,2.098518e-05,334.85999999981635,3.140172e-06,334.85999999981635,3.263362e-06
334.87499999981634,4.639445e-06,334.87499999981634,2.141969e-05,334.87499999981634,3.053749e-06,334.87499999981634,3.228645e-06
334.8899999998163,4.663672e-06,334.8899999998163,2.166881e-05,334.8899999998163,3.094987e-06,334.8899999998163,3.211145e-06
334.9049999998163,4.765263e-06,334.9049999998163,2.160436e-05,334.9049999998163,3.153601e-06,334.9049999998163,3.219907e-06
334.9199999998163,4.70577e-06,334.9199999998163,2.223987e-05,334.9199999998163,3.085871e-06,334.9199999998163,3.215529e-06
334.9349999998163,4.73561e-06,334.9349999998163,2.216945e-05,334.9349999998163,3.049133e-06,334.9349999998163,3.211145e-06
334.94999999981627,4.732634e-06,334.94999999981627,2.296286e-05,334.94999999981627,3.030597e-06,334.94999999981627,3.039879e-06
334.96499999981626,4.928026e-06,334.96499999981626,2.287558e-05,334.96499999981626,3.067557e-06,334.96499999981626,3.062961e-06
334.97999999981624,4.858938e-06,334.97999999981624,2.307973e-05,334.97999999981624,3.202359e-06,334.97999999981624,3.090432e-06
334.99499999981623,4.774123e-06,334.99499999981623,2.277993e-05,334.99499999981623,3.237359e-06,334.99499999981623,3.219907e-06
335.0099999998162,4.648545e-06,335.0099999998162,2.113235e-05,335.0099999998162,3.254718e-06,335.0099999998162,3.166973e-06
335.0249999998162,4.69378e-06,335.0249999998162,2.078079e-05,335.0249999998162,3.211145e-06,335.0249999998162,3.219907e-06
335.0399999998162,4.771172e-06,335.0399999998162,2.078622e-05,335.0399999998162,3.215529e-06,335.0399999998162,3.153601e-06
335.0549999998162,4.947995e-06,335.0549999998162,1.987933e-05,335.0549999998162,3.267676e-06,335.0549999998162,3.062961e-06
335.06999999981616,4.876302e-06,335.06999999981616,1.98772e-05,335.06999999981616,3.310505e-06,335.06999999981616,3.11314e-06
335.08499999981615,4.87919e-06,335.08499999981615,1.99536e-05,335.08499999981615,3.464369e-06,335.08499999981615,3.058359e-06
335.09999999981613,4.841512e-06,335.09999999981613,1.888285e-05,335.09999999981613,3.512824e-06,335.09999999981613,3.035241e-06
335.1149999998161,4.858938e-06,335.1149999998161,1.87556e-05,335.1149999998161,3.484641e-06,335.1149999998161,3.072146e-06
335.1299999998161,4.726678e-06,335.1299999998161,1.781497e-05,335.1299999998161,3.504795e-06,335.1299999998161,3.002579e-06
335.1449999998161,4.768218e-06,335.1449999998161,1.732673e-05,335.1449999998161,3.627253e-06,335.1449999998161,3.131187e-06
335.1599999998161,4.67875e-06,335.1599999998161,1.750709e-05,335.1599999998161,3.638885e-06,335.1599999998161,3.189136e-06
335.17499999981607,4.853136e-06,335.17499999981607,1.637197e-05,335.17499999981607,3.67356e-06,335.17499999981607,3.171418e-06
335.18999999981605,4.699779e-06,335.18999999981605,1.575013e-05,335.18999999981605,3.654337e-06,335.18999999981605,3.149131e-06
335.20499999981604,4.605925e-06,335.20499999981604,1.590499e-05,335.20499999981604,3.654337e-06,335.20499999981604,3.171418e-06
335.219999999816,4.459865e-06,335.219999999816,1.629262e-05,335.219999999816,3.556662e-06,335.219999999816,3.144655e-06
335.234999999816,4.415424e-06,335.234999999816,1.669488e-05,335.234999999816,3.386231e-06,335.234999999816,3.099535e-06
335.249999999816,4.412233e-06,335.249999999816,1.822923e-05,335.249999999816,3.394541e-06,335.249999999816,3.11314e-06
335.264999999816,4.402644e-06,335.264999999816,1.823619e-05,335.264999999816,3.394541e-06,335.264999999816,3.067557e-06
335.27999999981597,4.299038e-06,335.27999999981597,1.844739e-05,335.27999999981597,3.435788e-06,335.27999999981597,3.039879e-06
335.29499999981596,4.131956e-06,335.29499999981596,1.88126e-05,335.29499999981596,3.386231e-06,335.29499999981596,3.021286e-06
335.30999999981594,4.256228e-06,335.30999999981594,1.86645e-05,335.30999999981594,3.319004e-06,335.30999999981594,2.969556e-06
335.32499999981593,4.428167e-06,335.32499999981593,1.884701e-05,335.32499999981593,3.276286e-06,335.32499999981593,2.878015e-06
335.3399999998159,4.453544e-06,335.3399999998159,1.901222e-05,335.3399999998159,3.284874e-06,335.3399999998159,2.887788e-06
335.3549999998159,4.500739e-06,335.3549999998159,1.903591e-05,335.3549999998159,3.24605e-06,335.3549999998159,2.897527e-06
335.3699999998159,4.541245e-06,335.3699999998159,1.933037e-05,335.3699999998159,3.250386e-06,335.3699999998159,2.916909e-06
335.3849999998159,4.497608e-06,335.3849999998159,1.973068e-05,335.3849999998159,3.224279e-06,335.3849999998159,2.969556e-06
335.39999999981586,4.612038e-06,335.39999999981586,2.029588e-05,335.39999999981586,3.271984e-06,335.39999999981586,2.882905e-06
335.41499999981585,4.645514e-06,335.41499999981585,2.231827e-05,335.41499999981585,3.314757e-06,335.41499999981585,2.858369e-06
335.42999999981583,4.578317e-06,335.42999999981583,2.236367e-05,335.42999999981583,3.398688e-06,335.42999999981583,2.912075e-06
335.4449999998158,4.612038e-06,335.4449999998158,2.26273e-05,335.4449999998158,3.476546e-06,335.4449999998158,2.868209e-06
335.4599999998158,4.627284e-06,335.4599999998158,2.553792e-05,335.4599999998158,3.592131e-06,335.4599999998158,2.940956e-06
335.4749999998158,4.747494e-06,335.4749999998158,2.703936e-05,335.4749999998158,3.548731e-06,335.4749999998158,2.892662e-06
335.4899999998158,4.858938e-06,335.4899999998158,2.750116e-05,335.4899999998158,3.67356e-06,335.4899999998158,2.897527e-06
335.50499999981577,4.821102e-06,335.50499999981577,2.840077e-05,335.50499999981577,3.719291e-06,335.50499999981577,2.853437e-06
335.51999999981575,4.953686e-06,335.51999999981575,2.991863e-05,335.51999999981575,3.677393e-06,335.51999999981575,2.863294e-06
335.53499999981574,5.14616e-06,335.53499999981574,2.991722e-05,335.53499999981574,3.662038e-06,335.53499999981574,2.974296e-06
335.5499999998157,5.137942e-06,335.5499999998157,2.983942e-05,335.5499999998157,3.696496e-06,335.5499999998157,3.002579e-06
335.5649999998157,4.950841e-06,335.5649999998157,3.033385e-05,335.5649999998157,3.73818e-06,335.5649999998157,3.049133e-06
335.5799999998157,4.998978e-06,335.5799999998157,3.024874e-05,335.5799999998157,3.65048e-06,335.5799999998157,3.035241e-06
335.5949999998157,5.041069e-06,335.5949999998157,3.052734e-05,335.5949999998157,3.588207e-06,335.5949999998157,3.049133e-06
335.60999999981567,5.02147e-06,335.60999999981567,3.014378e-05,335.60999999981567,3.592131e-06,335.60999999981567,2.95052e-06
335.62499999981566,4.990517e-06,335.62499999981566,3.040296e-05,335.62499999981566,3.623367e-06,335.62499999981566,2.921734e-06
335.63999999981564,4.826943e-06,335.63999999981564,3.051442e-05,335.63999999981564,3.646619e-06,335.63999999981564,2.892662e-06
335.65499999981563,4.884961e-06,335.65499999981563,2.98262e-05,335.65499999981563,3.57641e-06,335.65499999981563,2.940956e-06
335.6699999998156,4.962209e-06,335.6699999998156,2.90287e-05,335.6699999998156,3.532818e-06,335.6699999998156,2.945742e-06
335.6849999998156,4.905105e-06,335.6849999998156,3.013537e-05,335.6849999998156,3.382069e-06,335.6849999998156,2.926552e-06
335.6999999998156,5.214144e-06,335.6999999998156,3.057806e-05,335.6999999998156,3.57641e-06,335.6999999998156,2.907234e-06
335.7149999998156,5.093886e-06,335.7149999998156,2.512922e-05,335.7149999998156,3.548731e-06,335.7149999998156,2.882905e-06
335.72999999981556,4.956529e-06,335.72999999981556,2.410668e-05,335.72999999981556,3.540784e-06,335.72999999981556,2.902385e-06
335.74499999981555,4.982041e-06,335.74499999981555,2.361967e-05,335.74499999981555,3.548731e-06,335.74499999981555,2.892662e-06
335.75999999981553,4.965048e-06,335.75999999981553,2.143021e-05,335.75999999981553,3.492716e-06,335.75999999981553,2.916909e-06
335.7749999998155,4.800605e-06,335.7749999998155,2.066114e-05,335.7749999998155,3.488681e-06,335.7749999998155,2.882905e-06
335.7899999998155,4.720713e-06,335.7899999998155,2.095361e-05,335.7899999998155,3.496747e-06,335.7899999998155,2.838588e-06
335.8049999998155,4.70577e-06,335.8049999998155,2.095697e-05,335.8049999998155,3.619477e-06,335.8049999998155,2.74781e-06
335.8199999998155,4.627284e-06,335.8199999998155,2.04418e-05,335.8199999998155,3.611685e-06,335.8199999998155,2.803635e-06
335.83499999981547,4.531929e-06,335.83499999981547,2.024515e-05,335.83499999981547,3.623367e-06,335.83499999981547,2.823661e-06
335.84999999981545,4.627284e-06,335.84999999981545,1.977275e-05,335.84999999981545,3.696496e-06,335.84999999981545,2.873116e-06
335.86499999981544,4.684768e-06,335.86499999981544,1.976064e-05,335.86499999981544,3.719291e-06,335.86499999981544,2.916909e-06
335.8799999998154,4.794733e-06,335.8799999998154,1.968636e-05,335.8799999998154,3.753223e-06,335.8799999998154,2.878015e-06
335.8949999998154,4.780021e-06,335.8949999998154,1.862068e-05,335.8949999998154,3.730636e-06,335.8949999998154,2.882905e-06
335.9099999998154,4.702775e-06,335.9099999998154,1.962329e-05,335.9099999998154,3.91848e-06,335.9099999998154,2.74781e-06
335.9249999998154,4.575239e-06,335.9249999998154,1.833633e-05,335.9249999998154,3.996786e-06,335.9249999998154,2.783465e-06
335.93999999981537,4.402644e-06,335.93999999981537,1.601268e-05,335.93999999981537,3.99326e-06,335.93999999981537,2.828646e-06
335.95499999981536,4.373753e-06,335.95499999981536,1.647319e-05,335.95499999981536,3.771943e-06,335.95499999981536,2.833621e-06
335.96999999981534,4.525708e-06,335.96999999981534,1.662894e-05,335.96999999981534,3.812802e-06,335.96999999981534,2.878015e-06
335.98499999981533,4.657627e-06,335.98499999981533,1.685444e-05,335.98499999981533,3.867824e-06,335.98499999981533,2.969556e-06
335.9999999998153,4.809401e-06,335.9999999998153,1.657124e-05,335.9999999998153,3.801702e-06,335.9999999998153,2.940956e-06
336.0149999998153,4.925167e-06,336.0149999998153,1.596775e-05,336.0149999998153,3.92925e-06,336.0149999998153,2.964809e-06
336.0299999998153,4.882076e-06,336.0299999998153,1.649711e-05,336.0299999998153,4.010859e-06,336.0299999998153,2.882905e-06
336.0449999998153,4.953686e-06,336.0449999998153,1.628397e-05,336.0449999998153,3.925663e-06,336.0449999998153,2.878015e-06
336.05999999981526,4.953686e-06,336.05999999981526,1.869241e-05,336.05999999981526,3.853228e-06,336.05999999981526,2.979029e-06
336.07499999981525,5.071714e-06,336.07499999981525,1.898997e-05,336.07499999981525,3.871464e-06,336.07499999981525,2.974296e-06
336.08999999981523,4.993339e-06,336.08999999981523,2.010411e-05,336.08999999981523,4.01437e-06,336.08999999981523,2.960054e-06
336.1049999998152,5.066156e-06,336.1049999998152,2.136438e-05,336.1049999998152,3.954266e-06,336.1049999998152,2.940956e-06
336.1199999998152,4.982041e-06,336.1199999998152,2.289035e-05,336.1199999998152,4.066665e-06,336.1199999998152,2.838588e-06
336.1349999998152,4.893604e-06,336.1349999998152,2.341061e-05,336.1349999998152,3.925663e-06,336.1349999998152,2.912075e-06
336.1499999998152,4.853136e-06,336.1499999998152,2.387947e-05,336.1499999998152,3.871464e-06,336.1499999998152,3.01662e-06
336.16499999981517,5.041069e-06,336.16499999981517,2.401945e-05,336.16499999981517,3.771943e-06,336.16499999981517,3.025945e-06
336.17999999981515,5.302549e-06,336.17999999981515,2.377423e-05,336.17999999981515,3.838577e-06,336.17999999981515,3.002579e-06
336.19499999981514,5.289249e-06,336.19499999981514,2.473998e-05,336.19499999981514,3.816494e-06,336.19499999981514,2.936162e-06
336.2099999998151,5.121465e-06,336.2099999998151,2.507872e-05,336.2099999998151,3.86418e-06,336.2099999998151,2.964809e-06
336.2249999998151,5.184341e-06,336.2249999998151,2.50995e-05,336.2249999998151,3.760722e-06,336.2249999998151,2.892662e-06
336.2399999998151,5.057808e-06,336.2399999998151,2.537634e-05,336.2399999998151,3.749468e-06,336.2399999998151,2.887788e-06
336.2549999998151,5.049445e-06,336.2549999998151,2.542847e-05,336.2549999998151,3.856882e-06,336.2549999998151,2.926552e-06
336.26999999981507,5.066156e-06,336.26999999981507,2.550646e-05,336.26999999981507,3.779404e-06,336.26999999981507,2.921734e-06
336.28499999981506,5.091119e-06,336.28499999981506,2.495428e-05,336.28499999981506,3.723076e-06,336.28499999981506,2.940956e-06
336.29999999981504,5.121465e-06,336.29999999981504,2.491247e-05,336.29999999981504,3.842245e-06,336.29999999981504,2.897527e-06
336.31499999981503,5.184341e-06,336.31499999981503,2.281453e-05,336.31499999981503,3.827552e-06,336.31499999981503,2.926552e-06
336.329999999815,5.157098e-06,336.329999999815,2.240332e-05,336.329999999815,3.856882e-06,336.329999999815,2.833621e-06
336.344999999815,5.173461e-06,336.344999999815,2.204072e-05,336.344999999815,3.696496e-06,336.344999999815,2.863294e-06
336.359999999815,5.104936e-06,336.359999999815,2.179004e-05,336.359999999815,3.665883e-06,336.359999999815,2.931361e-06
336.374999999815,5.200618e-06,336.374999999815,2.163498e-05,336.374999999815,3.59605e-06,336.374999999815,2.863294e-06
336.38999999981496,5.368553e-06,336.38999999981496,2.136108e-05,336.38999999981496,3.599965e-06,336.38999999981496,2.838588e-06
336.40499999981495,5.446701e-06,336.40499999981495,2.126458e-05,336.40499999981495,3.599965e-06,336.40499999981495,2.716877e-06
336.41999999981493,5.140683e-06,336.41999999981493,2.13195e-05,336.41999999981493,3.488681e-06,336.41999999981493,2.716877e-06
336.4349999998149,5.107694e-06,336.4349999998149,2.119824e-05,336.4349999998149,3.415227e-06,336.4349999998149,2.783465e-06
336.4499999998149,5.08004e-06,336.4499999998149,1.988642e-05,336.4499999998149,3.452149e-06,336.4499999998149,2.74781e-06
336.4649999998149,5.049445e-06,336.4649999998149,1.937986e-05,336.4649999998149,3.386231e-06,336.4649999998149,2.778399e-06
336.4799999998149,4.899358e-06,336.4799999998149,1.942923e-05,336.4799999998149,3.365367e-06,336.4799999998149,2.798606e-06
336.49499999981487,4.965048e-06,336.49499999981487,1.897291e-05,336.49499999981487,3.319004e-06,336.49499999981487,2.778399e-06
336.50999999981485,4.861837e-06,336.50999999981485,1.902999e-05,336.50999999981485,3.284874e-06,336.50999999981485,2.727227e-06
336.52499999981484,4.82986e-06,336.52499999981484,1.879762e-05,336.52499999981484,3.301983e-06,336.52499999981484,2.737538e-06
336.5399999998148,4.832776e-06,336.5399999998148,1.865393e-05,336.5399999998148,3.219907e-06,336.5399999998148,2.818668e-06
336.5549999998148,4.785911e-06,336.5549999998148,1.877287e-05,336.5549999998148,3.140172e-06,336.5549999998148,2.818668e-06
336.5699999998148,4.928026e-06,336.5699999998148,1.858357e-05,336.5699999998148,3.104077e-06,336.5699999998148,3.044509e-06
336.5849999998148,4.890725e-06,336.5849999998148,1.864411e-05,336.5849999998148,3.058359e-06,336.5849999998148,3.099535e-06
336.59999999981477,5.104936e-06,336.59999999981477,1.773572e-05,336.59999999981477,3.126685e-06,336.59999999981477,3.149131e-06
336.61499999981476,5.085583e-06,336.61499999981476,1.651162e-05,336.61499999981476,3.122176e-06,336.61499999981476,3.122176e-06
336.62999999981474,5.192486e-06,336.62999999981474,1.544487e-05,336.62999999981474,3.108612e-06,336.62999999981474,3.131187e-06
336.64499999981473,5.02147e-06,336.64499999981473,1.638401e-05,336.64499999981473,3.090432e-06,336.64499999981473,3.126685e-06
336.6599999998147,4.87919e-06,336.6599999998147,1.574923e-05,336.6599999998147,3.002579e-06,336.6599999998147,3.153601e-06
336.6749999998147,5.126963e-06,336.6749999998147,1.597392e-05,336.6749999998147,3.021286e-06,336.6749999998147,3.237359e-06
336.6899999998147,5.140683e-06,336.6899999998147,1.698764e-05,336.6899999998147,3.030597e-06,336.6899999998147,3.184716e-06
336.7049999998147,5.137942e-06,336.7049999998147,1.725911e-05,336.7049999998147,3.126685e-06,336.7049999998147,3.153601e-06
336.71999999981466,5.214144e-06,336.71999999981466,1.774127e-05,336.71999999981466,3.280583e-06,336.71999999981466,3.140172e-06
336.73499999981465,5.321112e-06,336.73499999981465,1.780152e-05,336.73499999981465,3.276286e-06,336.73499999981465,3.085871e-06
336.74999999981463,5.339611e-06,336.74999999981463,1.872178e-05,336.74999999981463,3.197958e-06,336.74999999981463,3.117661e-06
336.7649999998146,5.302549e-06,336.7649999998146,1.876762e-05,336.7649999998146,3.166973e-06,336.7649999998146,3.219907e-06
336.7799999998146,5.238403e-06,336.7799999998146,1.924639e-05,336.7799999998146,3.314757e-06,336.7799999998146,3.233005e-06
336.7949999998146,5.262549e-06,336.7949999998146,2.120488e-05,336.7949999998146,3.419349e-06,336.7949999998146,3.135683e-06
336.8099999998146,5.176183e-06,336.8099999998146,2.15227e-05,336.8099999998146,3.4111e-06,336.8099999998146,3.135683e-06
336.82499999981457,5.046655e-06,336.82499999981457,2.235296e-05,336.82499999981457,3.484641e-06,336.82499999981457,2.912075e-06
336.83999999981455,4.910845e-06,336.83999999981455,2.208988e-05,336.83999999981455,3.524834e-06,336.83999999981455,2.863294e-06
336.85499999981454,4.876302e-06,336.85499999981454,2.251433e-05,336.85499999981454,3.496747e-06,336.85499999981454,2.763147e-06
336.8699999998145,4.83569e-06,336.8699999998145,2.232079e-05,336.8699999998145,3.508812e-06,336.8699999998145,2.940956e-06
336.8849999998145,4.639445e-06,336.8849999998145,2.172529e-05,336.8849999998145,3.468433e-06,336.8849999998145,2.969556e-06
336.8999999998145,4.747494e-06,336.8999999998145,2.138876e-05,336.8999999998145,3.556662e-06,336.8999999998145,3.053749e-06
336.9149999998145,4.720713e-06,336.9149999998145,2.159131e-05,336.9149999998145,3.615583e-06,336.9149999998145,2.95052e-06
336.92999999981447,4.535037e-06,336.92999999981447,2.122148e-05,336.92999999981447,3.820184e-06,336.92999999981447,2.921734e-06
336.94499999981446,4.645514e-06,336.94499999981446,2.01531e-05,336.94499999981446,3.768206e-06,336.94499999981446,2.983753e-06
336.95999999981444,4.654602e-06,336.95999999981444,1.996207e-05,336.95999999981444,3.692683e-06,336.95999999981444,3.007266e-06
336.97499999981443,4.615091e-06,336.97499999981443,1.962473e-05,336.97499999981443,3.711708e-06,336.97499999981443,3.153601e-06
336.9899999998144,4.510119e-06,336.9899999998144,1.844815e-05,336.9899999998144,3.711708e-06,336.9899999998144,3.171418e-06
337.0049999998144,4.4377e-06,337.0049999998144,1.867507e-05,337.0049999998144,3.786851e-06,337.0049999998144,3.122176e-06
337.0199999998144,4.4377e-06,337.0199999998144,1.896622e-05,337.0199999998144,3.878734e-06,337.0199999998144,3.025945e-06
337.0349999998144,4.459865e-06,337.0349999998144,1.884028e-05,337.0349999998144,3.73818e-06,337.0349999998144,3.058359e-06
337.04999999981436,4.402644e-06,337.04999999981436,1.810828e-05,337.04999999981436,3.70411e-06,337.04999999981436,3.081303e-06
337.06499999981435,4.424985e-06,337.06499999981435,1.788993e-05,337.06499999981435,3.756974e-06,337.06499999981435,3.039879e-06
337.07999999981433,4.491339e-06,337.07999999981433,1.82524e-05,337.07999999981433,3.719291e-06,337.07999999981433,3.058359e-06
337.0949999998143,4.569077e-06,337.0949999998143,1.803969e-05,337.0949999998143,3.741947e-06,337.0949999998143,3.058359e-06
337.1099999998143,4.522595e-06,337.1099999998143,1.756893e-05,337.1099999998143,3.786851e-06,337.1099999998143,3.189136e-06
337.1249999998143,4.516361e-06,337.1249999998143,1.764015e-05,337.1249999998143,3.816494e-06,337.1249999998143,3.035241e-06
337.1399999998143,4.556728e-06,337.1399999998143,1.841223e-05,337.1399999998143,3.771943e-06,337.1399999998143,3.044509e-06
337.15499999981427,4.660651e-06,337.15499999981427,1.901962e-05,337.15499999981427,3.723076e-06,337.15499999981427,3.011947e-06
337.16999999981425,4.70577e-06,337.16999999981425,2.001281e-05,337.16999999981425,3.619477e-06,337.16999999981425,3.072146e-06
337.18499999981424,4.69378e-06,337.18499999981424,2.250244e-05,337.18499999981424,3.564574e-06,337.18499999981424,3.135683e-06
337.1999999998142,4.485062e-06,337.1999999998142,2.239828e-05,337.1999999998142,3.54476e-06,337.1999999998142,3.11314e-06
337.2149999998142,4.572159e-06,337.2149999998142,2.291557e-05,337.2149999998142,3.572469e-06,337.2149999998142,3.126685e-06
337.2299999998142,4.729657e-06,337.2299999998142,2.396838e-05,337.2299999998142,3.552699e-06,337.2299999998142,3.002579e-06
337.2449999998142,4.812329e-06,337.2449999998142,2.831732e-05,337.2449999998142,3.572469e-06,337.2449999998142,3.039879e-06
337.25999999981417,4.729657e-06,337.25999999981417,2.872969e-05,337.25999999981417,3.564574e-06,337.25999999981417,3.090432e-06
337.27499999981416,4.768218e-06,337.27499999981416,2.900783e-05,337.27499999981416,3.580347e-06,337.27499999981416,3.135683e-06
337.28999999981414,4.785911e-06,337.28999999981414,3.079016e-05,337.28999999981414,3.623367e-06,337.28999999981414,3.175857e-06
337.30499999981413,4.75046e-06,337.30499999981413,3.024735e-05,337.30499999981413,3.540784e-06,337.30499999981413,3.19355e-06
337.3199999998141,4.675739e-06,337.3199999998141,3.031898e-05,337.3199999998141,3.611685e-06,337.3199999998141,3.211145e-06
337.3349999998141,4.738583e-06,337.3349999998141,3.012508e-05,337.3349999998141,3.57641e-06,337.3349999998141,3.224279e-06
337.3499999998141,4.651575e-06,337.3499999998141,3.16074e-05,337.3499999998141,3.646619e-06,337.3499999998141,3.162522e-06
337.3649999998141,4.79767e-06,337.3649999998141,3.172351e-05,337.3649999998141,3.54476e-06,337.3649999998141,3.085871e-06
337.37999999981406,4.79767e-06,337.37999999981406,3.267374e-05,337.37999999981406,3.642754e-06,337.37999999981406,3.117661e-06
337.39499999981405,4.93374e-06,337.39499999981405,3.385732e-05,337.39499999981405,3.730636e-06,337.39499999981405,3.099535e-06
337.40999999981403,4.882076e-06,337.40999999981403,3.299807e-05,337.40999999981403,3.715501e-06,337.40999999981403,3.094987e-06
337.424999999814,4.970719e-06,337.424999999814,3.335896e-05,337.424999999814,3.786851e-06,337.424999999814,3.184716e-06
337.439999999814,4.947995e-06,337.439999999814,3.437428e-05,337.439999999814,3.768206e-06,337.439999999814,3.067557e-06
337.454999999814,4.916579e-06,337.454999999814,3.417824e-05,337.454999999814,3.741947e-06,337.454999999814,3.108612e-06
337.469999999814,4.976383e-06,337.469999999814,3.404527e-05,337.469999999814,3.856882e-06,337.469999999814,3.058359e-06
337.48499999981397,4.953686e-06,337.48499999981397,3.216186e-05,337.48499999981397,3.871464e-06,337.48499999981397,3.035241e-06
337.49999999981395,5.110451e-06,337.49999999981395,2.929871e-05,337.49999999981395,3.809105e-06,337.49999999981395,3.058359e-06
337.51499999981394,5.132455e-06,337.51499999981394,2.908881e-05,337.51499999981394,3.760722e-06,337.51499999981394,2.983753e-06
337.5299999998139,5.14616e-06,337.5299999998139,2.727072e-05,337.5299999998139,3.764466e-06,337.5299999998139,2.843547e-06
337.5449999998139,5.208738e-06,337.5449999998139,2.652815e-05,337.5449999998139,3.801702e-06,337.5449999998139,2.882905e-06
337.5599999998139,5.254512e-06,337.5599999998139,2.59304e-05,337.5599999998139,3.73441e-06,337.5599999998139,2.878015e-06
337.5749999998139,5.187057e-06,337.5749999998139,2.58417e-05,337.5749999998139,3.723076e-06,337.5749999998139,2.863294e-06
337.58999999981387,5.085583e-06,337.58999999981387,2.53769e-05,337.58999999981387,3.635012e-06,337.58999999981387,2.892662e-06
337.60499999981386,4.950841e-06,337.60499999981386,2.34599e-05,337.60499999981386,3.685046e-06,337.60499999981386,2.931361e-06
337.61999999981384,5.001795e-06,337.61999999981384,2.368578e-05,337.61999999981384,3.957827e-06,337.61999999981384,2.873116e-06
337.63499999981383,5.066156e-06,337.63499999981383,2.111768e-05,337.63499999981383,3.893234e-06,337.63499999981383,2.979029e-06
337.6499999998138,4.930884e-06,337.6499999998138,1.890373e-05,337.6499999998138,3.845909e-06,337.6499999998138,3.030597e-06
337.6649999998138,5.001795e-06,337.6649999998138,2.127915e-05,337.6649999998138,4.121716e-06,337.6649999998138,3.011947e-06
337.6799999998138,4.893604e-06,337.6799999998138,1.822305e-05,337.6799999998138,4.186148e-06,337.6799999998138,2.878015e-06
337.6949999998138,4.965048e-06,337.6949999998138,1.689117e-05,337.6949999998138,4.48192e-06,337.6949999998138,2.848496e-06
337.70999999981376,4.916579e-06,337.70999999981376,1.684106e-05,337.70999999981376,4.569077e-06,337.70999999981376,2.793568e-06
337.72499999981375,4.809401e-06,337.72499999981375,1.694862e-05,337.72499999981375,4.584466e-06,337.72499999981375,2.818668e-06
337.73999999981373,4.66971e-06,337.73999999981373,1.667293e-05,337.73999999981373,4.639445e-06,337.73999999981373,2.808655e-06
337.7549999998137,4.596741e-06,337.7549999998137,1.696689e-05,337.7549999998137,4.618143e-06,337.7549999998137,2.793568e-06
337.7699999998137,4.648545e-06,337.7699999998137,1.716582e-05,337.7699999998137,4.575239e-06,337.7699999998137,2.763147e-06
337.7849999998137,4.73561e-06,337.7849999998137,1.711898e-05,337.7849999998137,4.714741e-06,337.7849999998137,2.732388e-06
337.7999999998137,4.636408e-06,337.7999999998137,1.681511e-05,337.7999999998137,4.645514e-06,337.7999999998137,2.637958e-06
337.81499999981366,4.711753e-06,337.81499999981366,1.682516e-05,337.81499999981366,4.654602e-06,337.81499999981366,2.659232e-06
337.82999999981365,4.791795e-06,337.82999999981365,1.684022e-05,337.82999999981365,4.759348e-06,337.82999999981365,2.632612e-06
337.84499999981364,4.847328e-06,337.84499999981364,1.695527e-05,337.84499999981364,4.73561e-06,337.84499999981364,2.643292e-06
337.8599999998136,4.967884e-06,337.8599999998136,1.675805e-05,337.8599999998136,4.535037e-06,337.8599999998136,2.711688e-06
337.8749999998136,5.14616e-06,337.8749999998136,1.677989e-05,337.8749999998136,4.428167e-06,337.8749999998136,2.616511e-06
337.8899999998136,4.982041e-06,337.8899999998136,1.62658e-05,337.8899999998136,4.513241e-06,337.8899999998136,2.495258e-06
337.9049999998136,5.038274e-06,337.9049999998136,1.590676e-05,337.9049999998136,4.389827e-06,337.9049999998136,2.420756e-06
337.91999999981357,4.993339e-06,337.91999999981357,1.361029e-05,337.91999999981357,4.35115e-06,337.91999999981357,2.506524e-06
337.93499999981356,5.013047e-06,337.93499999981356,1.341114e-05,337.93499999981356,4.196231e-06,337.93499999981356,2.653929e-06
337.94999999981354,4.953686e-06,337.94999999981354,1.311911e-05,337.94999999981354,3.8751e-06,337.94999999981354,2.696058e-06
337.96499999981353,4.902232e-06,337.96499999981353,1.321007e-05,337.96499999981353,3.961384e-06,337.96499999981353,2.798606e-06
337.9799999998135,4.93374e-06,337.9799999998135,1.365678e-05,337.9799999998135,3.82387e-06,337.9799999998135,2.853437e-06
337.9949999998135,4.953686e-06,337.9949999998135,1.416512e-05,337.9949999998135,3.820184e-06,337.9949999998135,2.828646e-06
338.0099999998135,5.28392e-06,338.0099999998135,1.415518e-05,338.0099999998135,3.911283e-06,338.0099999998135,2.878015e-06
338.0249999998135,5.176183e-06,338.0249999998135,1.43204e-05,338.0249999998135,3.90768e-06,338.0249999998135,2.931361e-06
338.03999999981346,5.233022e-06,338.03999999981346,1.583042e-05,338.03999999981346,3.885991e-06,338.03999999981346,2.974296e-06
338.05499999981345,5.195198e-06,338.05499999981345,1.568919e-05,338.05499999981345,3.900464e-06,338.05499999981345,2.979029e-06
338.06999999981343,5.121465e-06,338.06999999981343,1.569458e-05,338.06999999981343,3.84957e-06,338.06999999981343,2.988471e-06
338.0849999998134,5.148897e-06,338.0849999998134,1.573491e-05,338.0849999998134,3.723076e-06,338.0849999998134,2.936162e-06
338.0999999998134,5.057808e-06,338.0999999998134,1.557022e-05,338.0999999998134,3.749468e-06,338.0999999998134,2.892662e-06
338.1149999998134,5.055022e-06,338.1149999998134,1.550586e-05,338.1149999998134,3.696496e-06,338.1149999998134,2.878015e-06
338.1299999998134,4.841512e-06,338.1299999998134,1.534513e-05,338.1299999998134,3.707911e-06,338.1299999998134,2.902385e-06
338.14499999981336,4.873412e-06,338.14499999981336,1.544578e-05,338.14499999981336,3.580347e-06,338.14499999981336,2.969556e-06
338.15999999981335,4.741556e-06,338.15999999981335,1.522625e-05,338.15999999981335,3.556662e-06,338.15999999981335,3.011947e-06
338.17499999981334,4.726678e-06,338.17499999981334,1.501946e-05,338.17499999981334,3.599965e-06,338.17499999981334,2.955291e-06
338.1899999998133,4.663672e-06,338.1899999998133,1.501852e-05,338.1899999998133,3.56062e-06,338.1899999998133,2.878015e-06
338.2049999998133,4.699779e-06,338.2049999998133,1.477264e-05,338.2049999998133,3.472492e-06,338.2049999998133,2.853437e-06
338.2199999998133,4.945147e-06,338.2199999998133,1.508217e-05,338.2199999998133,3.431686e-06,338.2199999998133,2.858369e-06
338.2349999998133,4.965048e-06,338.2349999998133,1.410932e-05,338.2349999998133,3.642754e-06,338.2349999998133,2.838588e-06
338.24999999981327,4.578317e-06,338.24999999981327,1.408934e-05,338.24999999981327,3.627253e-06,338.24999999981327,2.808655e-06
338.26499999981326,4.615091e-06,338.26499999981326,1.390213e-05,338.26499999981326,3.568524e-06,338.26499999981326,2.931361e-06
338.27999999981324,4.612038e-06,338.27999999981324,1.23412e-05,338.27999999981324,3.520835e-06,338.27999999981324,2.838588e-06
338.29499999981323,4.645514e-06,338.29499999981323,1.207465e-05,338.29499999981323,3.452149e-06,338.29499999981323,2.828646e-06
338.3099999998132,4.630328e-06,338.3099999998132,1.249322e-05,338.3099999998132,3.592131e-06,338.3099999998132,2.863294e-06
338.3249999998132,4.800605e-06,338.3249999998132,1.221038e-05,338.3249999998132,3.753223e-06,338.3249999998132,2.95052e-06
338.3399999998132,4.717728e-06,338.3399999998132,1.298094e-05,338.3399999998132,3.692683e-06,338.3399999998132,2.974296e-06
338.3549999998132,4.73561e-06,338.3549999998132,1.299613e-05,338.3549999998132,3.760722e-06,338.3549999998132,2.969556e-06
338.36999999981316,4.79767e-06,338.36999999981316,1.33131e-05,338.36999999981316,3.768206e-06,338.36999999981316,3.021286e-06
338.38499999981315,4.87919e-06,338.38499999981315,1.423358e-05,338.38499999981315,3.768206e-06,338.38499999981315,3.058359e-06
338.39999999981313,4.882076e-06,338.39999999981313,1.529364e-05,338.39999999981313,3.741947e-06,338.39999999981313,3.011947e-06
338.4149999998131,4.890725e-06,338.4149999998131,1.614148e-05,338.4149999998131,3.73818e-06,338.4149999998131,3.011947e-06
338.4299999998131,4.93374e-06,338.4299999998131,1.674039e-05,338.4299999998131,3.749468e-06,338.4299999998131,2.983753e-06
338.4449999998131,4.913713e-06,338.4449999998131,1.676645e-05,338.4449999998131,3.801702e-06,338.4449999998131,3.021286e-06
338.4599999998131,4.939447e-06,338.4599999998131,1.690784e-05,338.4599999998131,3.871464e-06,338.4599999998131,3.011947e-06
338.47499999981306,4.919443e-06,338.47499999981306,1.691201e-05,338.47499999981306,3.838577e-06,338.47499999981306,2.960054e-06
338.48999999981305,4.910845e-06,338.48999999981305,1.708108e-05,338.48999999981305,3.688867e-06,338.48999999981305,2.936162e-06
338.50499999981304,4.902232e-06,338.50499999981304,1.780785e-05,338.50499999981304,4.0632e-06,338.50499999981304,2.912075e-06
338.519999999813,4.910845e-06,338.519999999813,1.761777e-05,338.519999999813,4.114875e-06,338.519999999813,2.907234e-06
338.534999999813,4.847328e-06,338.534999999813,1.818668e-05,338.534999999813,4.186148e-06,338.534999999813,2.945742e-06
338.549999999813,4.832776e-06,338.549999999813,2.066319e-05,338.549999999813,4.242968e-06,338.549999999813,2.960054e-06
338.564999999813,4.672725e-06,338.564999999813,2.099391e-05,338.564999999813,4.192873e-06,338.564999999813,2.921734e-06
338.57999999981297,4.729657e-06,338.57999999981297,2.120687e-05,338.57999999981297,4.256228e-06,338.57999999981297,2.887788e-06
338.59499999981296,4.780021e-06,338.59499999981296,2.101403e-05,338.59499999981296,4.242968e-06,338.59499999981296,2.892662e-06
338.60999999981294,4.794733e-06,338.60999999981294,2.119225e-05,338.60999999981294,4.249604e-06,338.60999999981294,2.945742e-06
338.6249999998129,4.70577e-06,338.6249999998129,2.174992e-05,338.6249999998129,4.305587e-06,338.6249999998129,2.882905e-06
338.6399999998129,4.666692e-06,338.6399999998129,2.153317e-05,338.6399999998129,4.302314e-06,338.6399999998129,2.813666e-06
338.6549999998129,4.66971e-06,338.6549999998129,2.045696e-05,338.6549999998129,4.269446e-06,338.6549999998129,2.813666e-06
338.6699999998129,4.864733e-06,338.6699999998129,2.005921e-05,338.6699999998129,4.39624e-06,338.6699999998129,2.798606e-06
338.6849999998129,4.936594e-06,338.6849999998129,1.951676e-05,338.6849999998129,4.39624e-06,338.6849999998129,2.763147e-06
338.69999999981286,5.015856e-06,338.69999999981286,1.965557e-05,338.69999999981286,4.239647e-06,338.69999999981286,2.763147e-06
338.71499999981285,4.768218e-06,338.71499999981285,1.952398e-05,338.71499999981285,4.418613e-06,338.71499999981285,2.803635e-06
338.72999999981283,4.657627e-06,338.72999999981283,1.9242e-05,338.72999999981283,4.472482e-06,338.72999999981283,2.853437e-06
338.7449999998128,4.645514e-06,338.7449999998128,1.932163e-05,338.7449999998128,4.138769e-06,338.7449999998128,2.843547e-06
338.7599999998128,4.690778e-06,338.7599999998128,1.929974e-05,338.7599999998128,4.007346e-06,338.7599999998128,2.853437e-06
338.7749999998128,4.73561e-06,338.7749999998128,1.939658e-05,338.7749999998128,3.982663e-06,338.7749999998128,2.773325e-06
338.7899999998128,4.821102e-06,338.7899999998128,1.933912e-05,338.7899999998128,3.911283e-06,338.7899999998128,2.737538e-06
338.80499999981276,5.066156e-06,338.80499999981276,1.621896e-05,338.80499999981276,3.845909e-06,338.80499999981276,2.696058e-06
338.81999999981275,5.230329e-06,338.81999999981275,2.006343e-05,338.81999999981275,3.681221e-06,338.81999999981275,2.701278e-06
338.83499999981274,5.203327e-06,338.83499999981274,1.974709e-05,338.83499999981274,3.603876e-06,338.83499999981274,2.643292e-06
338.8499999998127,5.208738e-06,338.8499999998127,1.964338e-05,338.8499999998127,3.540784e-06,338.8499999998127,2.600309e-06
338.8649999998127,5.170737e-06,338.8649999998127,1.970067e-05,338.8649999998127,3.615583e-06,338.8649999998127,2.675077e-06
338.8799999998127,5.121465e-06,338.8799999998127,1.889628e-05,338.8799999998127,3.67356e-06,338.8799999998127,2.643292e-06
338.8949999998127,5.143422e-06,338.8949999998127,1.862446e-05,338.8949999998127,3.692683e-06,338.8949999998127,2.632612e-06
338.90999999981267,5.082812e-06,338.90999999981267,1.89417e-05,338.90999999981267,3.723076e-06,338.90999999981267,2.659232e-06
338.92499999981266,5.035477e-06,338.92499999981266,1.921489e-05,338.92499999981266,3.599965e-06,338.92499999981266,2.627256e-06
338.93999999981264,4.930884e-06,338.93999999981264,1.946979e-05,338.93999999981264,3.635012e-06,338.93999999981264,2.669806e-06
338.9549999998126,4.942298e-06,338.9549999998126,1.974852e-05,338.9549999998126,3.642754e-06,338.9549999998126,2.643292e-06
338.9699999998126,4.976383e-06,338.9699999998126,2.965806e-05,338.9699999998126,3.419349e-06,338.9699999998126,2.621889e-06
338.9849999998126,5.052234e-06,338.9849999998126,3.086053e-05,338.9849999998126,3.488681e-06,338.9849999998126,2.594886e-06
338.9999999998126,5.157098e-06,338.9999999998126,3.08797e-05,338.9999999998126,3.484641e-06,338.9999999998126,2.664524e-06
339.0149999998126,5.027078e-06,339.0149999998126,3.044694e-05,339.0149999998126,3.520835e-06,339.0149999998126,2.690828e-06
339.02999999981256,4.984868e-06,339.02999999981256,3.046637e-05,339.02999999981256,3.564574e-06,339.02999999981256,2.722057e-06
339.04499999981255,4.902232e-06,339.04499999981255,3.066455e-05,339.04499999981255,3.552699e-06,339.04499999981255,2.798606e-06
339.05999999981253,4.615091e-06,339.05999999981253,3.049179e-05,339.05999999981253,3.588207e-06,339.05999999981253,2.803635e-06
339.0749999998125,4.590608e-06,339.0749999998125,2.819118e-05,339.0749999998125,3.568524e-06,339.0749999998125,2.887788e-06
339.0899999998125,4.66971e-06,339.0899999998125,2.811613e-05,339.0899999998125,3.599965e-06,339.0899999998125,2.95052e-06
339.1049999998125,4.675739e-06,339.1049999998125,2.805544e-05,339.1049999998125,3.580347e-06,339.1049999998125,3.01662e-06
339.1199999998125,4.696781e-06,339.1199999998125,2.785488e-05,339.1199999998125,3.540784e-06,339.1199999998125,2.997883e-06
339.13499999981246,4.675739e-06,339.13499999981246,2.85082e-05,339.13499999981246,3.580347e-06,339.13499999981246,3.035241e-06
339.14999999981245,4.815255e-06,339.14999999981245,2.845923e-05,339.14999999981245,3.460301e-06,339.14999999981245,3.122176e-06
339.16499999981244,4.847328e-06,339.16499999981244,2.83198e-05,339.16499999981244,3.456227e-06,339.16499999981244,3.076727e-06
339.1799999998124,4.984868e-06,339.1799999998124,2.810861e-05,339.1799999998124,3.540784e-06,339.1799999998124,3.085871e-06
339.1949999998124,4.967884e-06,339.1949999998124,2.831781e-05,339.1949999998124,3.472492e-06,339.1949999998124,3.076727e-06
339.2099999998124,5.013047e-06,339.2099999998124,2.808454e-05,339.2099999998124,3.516832e-06,339.2099999998124,3.072146e-06
339.2249999998124,5.013047e-06,339.2249999998124,1.636595e-05,339.2249999998124,3.468433e-06,339.2249999998124,3.039879e-06
339.23999999981237,4.919443e-06,339.23999999981237,1.68193e-05,339.23999999981237,3.456227e-06,339.23999999981237,3.002579e-06
339.25499999981236,4.905105e-06,339.25499999981236,1.671512e-05,339.25499999981236,3.468433e-06,339.25499999981236,3.011947e-06
339.26999999981234,4.982041e-06,339.26999999981234,1.770233e-05,339.26999999981234,3.524834e-06,339.26999999981234,2.974296e-06
339.2849999998123,4.998978e-06,339.2849999998123,2.019708e-05,339.2849999998123,3.508812e-06,339.2849999998123,2.887788e-06
339.2999999998123,5.137942e-06,339.2999999998123,2.025141e-05,339.2999999998123,3.398688e-06,339.2999999998123,2.902385e-06
339.3149999998123,5.077266e-06,339.3149999998123,2.060243e-05,339.3149999998123,3.615583e-06,339.3149999998123,2.882905e-06
339.3299999998123,5.157098e-06,339.3299999998123,2.100732e-05,339.3299999998123,3.654337e-06,339.3299999998123,2.907234e-06
339.3449999998123,5.151632e-06,339.3449999998123,2.095966e-05,339.3449999998123,3.665883e-06,339.3449999998123,2.848496e-06
339.35999999981226,5.077266e-06,339.35999999981226,2.118029e-05,339.35999999981226,3.726858e-06,339.35999999981226,2.823661e-06
339.37499999981225,5.02147e-06,339.37499999981225,2.146174e-05,339.37499999981225,3.677393e-06,339.37499999981225,2.974296e-06
339.38999999981223,4.973552e-06,339.38999999981223,2.087683e-05,339.38999999981223,3.568524e-06,339.38999999981223,2.916909e-06
339.4049999998122,4.832776e-06,339.4049999998122,2.068636e-05,339.4049999998122,3.57641e-06,339.4049999998122,2.882905e-06
339.4199999998122,4.785911e-06,339.4199999998122,2.075366e-05,339.4199999998122,3.56062e-06,339.4199999998122,2.940956e-06
339.4349999998122,4.663672e-06,339.4349999998122,2.048586e-05,339.4349999998122,3.443979e-06,339.4349999998122,2.979029e-06
339.4499999998122,4.587538e-06,339.4499999998122,2.027366e-05,339.4499999998122,3.56062e-06,339.4499999998122,2.921734e-06
339.46499999981216,4.519479e-06,339.46499999981216,2.056821e-05,339.46499999981216,3.599965e-06,339.46499999981216,2.979029e-06
339.47999999981215,4.672725e-06,339.47999999981215,2.063385e-05,339.47999999981215,3.516832e-06,339.47999999981215,3.058359e-06
339.49499999981214,4.639445e-06,339.49499999981214,2.089908e-05,339.49499999981214,3.536803e-06,339.49499999981214,3.053749e-06
339.5099999998121,4.69378e-06,339.5099999998121,2.094016e-05,339.5099999998121,3.532818e-06,339.5099999998121,3.053749e-06
339.5249999998121,4.812329e-06,339.5249999998121,1.872253e-05,339.5249999998121,3.406967e-06,339.5249999998121,3.044509e-06
339.5399999998121,4.806471e-06,339.5399999998121,1.895656e-05,339.5399999998121,3.36955e-06,339.5399999998121,3.01662e-06
339.5549999998121,4.771172e-06,339.5549999998121,1.839386e-05,339.5549999998121,3.340158e-06,339.5549999998121,3.025945e-06
339.56999999981207,4.717728e-06,339.56999999981207,1.859721e-05,339.56999999981207,3.331712e-06,339.56999999981207,2.988471e-06
339.58499999981206,4.621192e-06,339.58499999981206,1.851294e-05,339.58499999981206,3.259043e-06,339.58499999981206,2.873116e-06
339.59999999981204,4.599804e-06,339.59999999981204,1.849696e-05,339.59999999981204,3.28916e-06,339.59999999981204,2.848496e-06
339.614999999812,4.68176e-06,339.614999999812,1.881634e-05,339.614999999812,3.276286e-06,339.614999999812,2.768241e-06
339.629999999812,4.660651e-06,339.629999999812,1.852435e-05,339.629999999812,3.310505e-06,339.629999999812,2.680338e-06
339.644999999812,4.624239e-06,339.644999999812,1.838849e-05,339.644999999812,3.306247e-06,339.644999999812,2.637958e-06
339.659999999812,4.794733e-06,339.659999999812,1.872027e-05,339.659999999812,3.344373e-06,339.659999999812,2.54002e-06
339.674999999812,4.945147e-06,339.674999999812,1.904849e-05,339.674999999812,3.365367e-06,339.674999999812,2.5676e-06
339.68999999981196,4.982041e-06,339.68999999981196,1.91105e-05,339.68999999981196,3.352786e-06,339.68999999981196,2.669806e-06
339.70499999981195,5.052234e-06,339.70499999981195,1.915983e-05,339.70499999981195,3.443979e-06,339.70499999981195,2.659232e-06
339.71999999981193,5.066156e-06,339.71999999981193,1.923541e-05,339.71999999981193,3.484641e-06,339.71999999981193,2.664524e-06
339.7349999998119,5.038274e-06,339.7349999998119,1.906844e-05,339.7349999998119,3.528828e-06,339.7349999998119,2.669806e-06
339.7499999998119,5.168013e-06,339.7499999998119,1.943575e-05,339.7499999998119,3.472492e-06,339.7499999998119,2.722057e-06
339.7649999998119,5.211442e-06,339.7649999998119,1.954993e-05,339.7649999998119,3.435788e-06,339.7649999998119,2.742679e-06
339.7799999998119,5.159829e-06,339.7799999998119,2.12573e-05,339.7799999998119,3.635012e-06,339.7799999998119,2.727227e-06
339.79499999981186,5.024275e-06,339.79499999981186,2.095361e-05,339.79499999981186,3.67356e-06,339.79499999981186,2.778399e-06
339.80999999981185,5.046655e-06,339.80999999981185,2.087683e-05,339.80999999981185,3.73818e-06,339.80999999981185,2.783465e-06
339.82499999981184,5.200618e-06,339.82499999981184,2.266897e-05,339.82499999981184,3.882364e-06,339.82499999981184,2.878015e-06
339.8399999998118,5.278585e-06,339.8399999998118,2.343647e-05,339.8399999998118,3.8751e-06,339.8399999998118,3.076727e-06
339.8549999998118,5.291911e-06,339.8549999998118,2.841911e-05,339.8549999998118,3.8751e-06,339.8549999998118,3.122176e-06
339.8699999998118,5.329048e-06,339.8699999998118,3.013817e-05,339.8699999998118,3.860533e-06,339.8699999998118,3.233005e-06
339.8849999998118,5.355417e-06,339.8849999998118,3.207809e-05,339.8849999998118,4.256228e-06,339.8849999998118,3.254718e-06
339.89999999981177,5.431162e-06,339.89999999981177,3.374897e-05,339.89999999981177,4.347911e-06,339.89999999981177,3.250386e-06
339.91499999981176,5.2679e-06,339.91499999981176,3.393046e-05,339.91499999981176,4.305587e-06,339.91499999981176,3.233005e-06
339.92999999981174,5.192486e-06,339.92999999981174,3.383401e-05,339.92999999981174,4.256228e-06,339.92999999981174,3.219907e-06
339.9449999998117,5.254512e-06,339.9449999998117,3.676052e-05,339.9449999998117,4.226336e-06,339.9449999998117,3.171418e-06
339.9599999998117,5.203327e-06,339.9599999998117,3.684893e-05,339.9599999998117,4.266145e-06,339.9599999998117,3.117661e-06
339.9749999998117,5.192486e-06,339.9749999998117,3.676703e-05,339.9749999998117,4.39624e-06,339.9749999998117,3.062961e-06
339.9899999998117,5.085583e-06,339.9899999998117,3.652216e-05,339.9899999998117,4.424985e-06,339.9899999998117,3.025945e-06
340.0049999998117,5.041069e-06,340.0049999998117,3.653064e-05,340.0049999998117,4.472482e-06,340.0049999998117,3.025945e-06
340.01999999981166,4.800605e-06,340.01999999981166,3.593111e-05,340.01999999981166,4.39624e-06,340.01999999981166,3.030597e-06
340.03499999981165,4.744526e-06,340.03499999981165,3.59064e-05,340.03499999981165,4.305587e-06,340.03499999981165,3.094987e-06
340.04999999981163,4.899358e-06,340.04999999981163,3.639078e-05,340.04999999981163,4.367307e-06,340.04999999981163,3.072146e-06
340.0649999998116,4.864733e-06,340.0649999998116,3.67287e-05,340.0649999998116,4.189512e-06,340.0649999998116,3.094987e-06
340.0799999998116,4.720713e-06,340.0799999998116,3.775899e-05,340.0799999998116,4.121716e-06,340.0799999998116,3.104077e-06
340.0949999998116,4.599804e-06,340.0949999998116,3.633267e-05,340.0949999998116,4.104592e-06,340.0949999998116,3.135683e-06
340.1099999998116,4.569077e-06,340.1099999998116,3.419926e-05,340.1099999998116,4.199587e-06,340.1099999998116,3.058359e-06
340.12499999981156,4.434525e-06,340.12499999981156,3.295492e-05,340.12499999981156,4.059732e-06,340.12499999981156,3.007266e-06
340.13999999981155,4.506994e-06,340.13999999981155,3.312078e-05,340.13999999981155,3.775675e-06,340.13999999981155,2.960054e-06
340.15499999981154,4.497608e-06,340.15499999981154,3.290487e-05,340.15499999981154,3.749468e-06,340.15499999981154,3.030597e-06
340.1699999998115,4.690778e-06,340.1699999998115,3.272888e-05,340.1699999998115,3.794284e-06,340.1699999998115,3.049133e-06
340.1849999998115,4.699779e-06,340.1849999998115,3.309526e-05,340.1849999998115,3.816494e-06,340.1849999998115,3.025945e-06
340.1999999998115,4.723696e-06,340.1999999998115,3.059602e-05,340.1999999998115,3.838577e-06,340.1999999998115,2.979029e-06
340.2149999998115,4.672725e-06,340.2149999998115,3.053104e-05,340.2149999998115,3.820184e-06,340.2149999998115,3.007266e-06
340.22999999981147,4.672725e-06,340.22999999981147,3.093302e-05,340.22999999981147,3.96849e-06,340.22999999981147,3.030597e-06
340.24499999981145,4.759348e-06,340.24499999981145,3.171729e-05,340.24499999981145,3.939991e-06,340.24499999981145,3.104077e-06
340.25999999981144,4.83569e-06,340.25999999981144,3.058635e-05,340.25999999981144,3.936414e-06,340.25999999981144,3.131187e-06
340.2749999998114,5.010237e-06,340.2749999998114,3.101307e-05,340.2749999998114,3.827552e-06,340.2749999998114,3.081303e-06
340.2899999998114,5.085583e-06,340.2899999998114,3.044833e-05,340.2899999998114,3.775675e-06,340.2899999998114,3.122176e-06
340.3049999998114,4.919443e-06,340.3049999998114,2.978177e-05,340.3049999998114,3.756974e-06,340.3049999998114,3.099535e-06
340.3199999998114,4.922306e-06,340.3199999998114,2.797347e-05,340.3199999998114,3.753223e-06,340.3199999998114,3.035241e-06
340.3349999998114,5.024275e-06,340.3349999998114,2.687161e-05,340.3349999998114,3.786851e-06,340.3349999998114,2.940956e-06
340.34999999981136,5.093886e-06,340.34999999981136,2.646914e-05,340.34999999981136,3.794284e-06,340.34999999981136,2.863294e-06
340.36499999981135,5.151632e-06,340.36499999981135,2.42593e-05,340.36499999981135,3.700305e-06,340.36499999981135,2.902385e-06
340.37999999981133,5.165286e-06,340.37999999981133,2.436301e-05,340.37999999981133,3.73818e-06,340.37999999981133,2.993181e-06
340.3949999998113,5.052234e-06,340.3949999998113,2.185459e-05,340.3949999998113,3.685046e-06,340.3949999998113,2.960054e-06
340.4099999998113,5.157098e-06,340.4099999998113,2.056068e-05,340.4099999998113,3.730636e-06,340.4099999998113,2.955291e-06
340.4249999998113,4.864733e-06,340.4249999998113,2.076859e-05,340.4249999998113,3.786851e-06,340.4249999998113,2.964809e-06
340.4399999998113,5.043863e-06,340.4399999998113,2.111567e-05,340.4399999998113,3.70411e-06,340.4399999998113,2.964809e-06
340.45499999981126,4.942298e-06,340.45499999981126,5.14134e-05,340.45499999981126,3.70411e-06,340.45499999981126,2.979029e-06
340.46999999981125,4.942298e-06,340.46999999981125,5.443312e-05,340.46999999981125,3.599965e-06,340.46999999981125,3.067557e-06
340.48499999981124,4.905105e-06,340.48499999981124,5.539152e-05,340.48499999981124,3.423466e-06,340.48499999981124,3.090432e-06
340.4999999998112,4.890725e-06,340.4999999998112,5.513969e-05,340.4999999998112,3.488681e-06,340.4999999998112,2.983753e-06
340.5149999998112,4.987693e-06,340.5149999998112,5.512538e-05,340.5149999998112,3.431686e-06,340.5149999998112,2.997883e-06
340.5299999998112,4.785911e-06,340.5299999998112,5.507272e-05,340.5299999998112,3.439886e-06,340.5299999998112,2.969556e-06
340.5449999998112,4.803539e-06,340.5449999998112,5.507092e-05,340.5449999998112,3.488681e-06,340.5449999998112,2.912075e-06
340.55999999981117,4.771172e-06,340.55999999981117,5.514071e-05,340.55999999981117,3.532818e-06,340.55999999981117,3.094987e-06
340.57499999981115,4.720713e-06,340.57499999981115,5.543372e-05,340.57499999981115,3.56062e-06,340.57499999981115,3.149131e-06
340.58999999981114,4.738583e-06,340.58999999981114,5.530244e-05,340.58999999981114,3.536803e-06,340.58999999981114,3.090432e-06
340.6049999998111,4.774123e-06,340.6049999998111,5.562778e-05,340.6049999998111,3.57641e-06,340.6049999998111,3.11314e-06
340.6199999998111,4.858938e-06,340.6199999998111,5.535972e-05,340.6199999998111,3.688867e-06,340.6199999998111,3.044509e-06
340.6349999998111,4.893604e-06,340.6349999998111,5.53414e-05,340.6349999998111,3.611685e-06,340.6349999998111,3.021286e-06
340.6499999998111,4.850233e-06,340.6499999998111,5.53755e-05,340.6499999998111,3.607783e-06,340.6499999998111,2.993181e-06
340.6649999998111,4.821102e-06,340.6649999998111,5.543779e-05,340.6649999998111,3.584279e-06,340.6649999998111,2.988471e-06
340.67999999981106,4.890725e-06,340.67999999981106,5.58585e-05,340.67999999981106,3.398688e-06,340.67999999981106,3.049133e-06
340.69499999981105,4.69378e-06,340.69499999981105,3.21382e-05,340.69499999981105,3.419349e-06,340.69499999981105,3.044509e-06
340.70999999981103,4.744526e-06,340.70999999981103,2.552137e-05,340.70999999981103,3.419349e-06,340.70999999981103,3.025945e-06
340.724999999811,4.73561e-06,340.724999999811,2.069657e-05,340.724999999811,3.415227e-06,340.724999999811,2.997883e-06
340.739999999811,4.69378e-06,340.739999999811,1.984813e-05,340.739999999811,3.456227e-06,340.739999999811,3.058359e-06
340.754999999811,4.602866e-06,340.754999999811,2.026254e-05,340.754999999811,3.419349e-06,340.754999999811,3.108612e-06
340.769999999811,4.522595e-06,340.769999999811,2.245042e-05,340.769999999811,3.638885e-06,340.769999999811,3.149131e-06
340.78499999981096,4.569077e-06,340.78499999981096,2.399364e-05,340.78499999981096,3.59605e-06,340.78499999981096,3.162522e-06
340.79999999981095,4.744526e-06,340.79999999981095,2.485643e-05,340.79999999981095,3.607783e-06,340.79999999981095,3.117661e-06
340.81499999981094,4.899358e-06,340.81499999981094,2.439826e-05,340.81499999981094,3.619477e-06,340.81499999981094,2.964809e-06
340.8299999998109,4.95937e-06,340.8299999998109,2.586622e-05,340.8299999998109,3.707911e-06,340.8299999998109,2.964809e-06
340.8449999998109,4.856038e-06,340.8449999998109,3.206008e-05,340.8449999998109,3.764466e-06,340.8449999998109,2.931361e-06
340.8599999998109,4.717728e-06,340.8599999998109,3.256967e-05,340.8599999998109,3.67356e-06,340.8599999998109,2.921734e-06
340.8749999998109,4.747494e-06,340.8749999998109,3.418978e-05,340.8749999998109,3.646619e-06,340.8749999998109,2.897527e-06
340.88999999981087,4.826943e-06,340.88999999981087,3.399973e-05,340.88999999981087,3.715501e-06,340.88999999981087,2.907234e-06
340.90499999981085,4.850233e-06,340.90499999981085,3.397818e-05,340.90499999981085,3.768206e-06,340.90499999981085,2.878015e-06
340.91999999981084,4.873412e-06,340.91999999981084,3.344752e-05,340.91999999981084,3.749468e-06,340.91999999981084,2.878015e-06
340.9349999998108,4.890725e-06,340.9349999998108,3.3179e-05,340.9349999998108,3.820184e-06,340.9349999998108,2.882905e-06
340.9499999998108,5.143422e-06,340.9499999998108,3.330782e-05,340.9499999998108,3.805405e-06,340.9499999998108,2.887788e-06
340.9649999998108,5.135199e-06,340.9649999998108,3.315182e-05,340.9649999998108,3.79057e-06,340.9649999998108,2.828646e-06
340.9799999998108,5.170737e-06,340.9799999998108,3.40523e-05,340.9799999998108,3.8751e-06,340.9799999998108,2.863294e-06
340.9949999998108,5.165286e-06,340.9949999998108,3.398895e-05,340.9949999998108,3.816494e-06,340.9949999998108,2.818668e-06
341.00999999981076,5.140683e-06,341.00999999981076,3.356062e-05,341.00999999981076,3.779404e-06,341.00999999981076,2.778399e-06
341.02499999981075,5.281253e-06,341.02499999981075,3.207502e-05,341.02499999981075,3.611685e-06,341.02499999981075,2.783465e-06
341.03999999981073,5.394728e-06,341.03999999981073,3.058635e-05,341.03999999981073,3.642754e-06,341.03999999981073,2.783465e-06
341.0549999998107,5.634837e-06,341.0549999998107,2.914155e-05,341.0549999998107,3.59605e-06,341.0549999998107,2.737538e-06
341.0699999998107,5.719203e-06,341.0699999998107,2.977137e-05,341.0699999998107,3.631134e-06,341.0699999998107,2.843547e-06
341.0849999998107,5.674694e-06,341.0849999998107,2.690252e-05,341.0849999998107,3.532818e-06,341.0849999998107,2.823661e-06
341.0999999998107,5.814468e-06,341.0999999998107,2.199081e-05,341.0999999998107,3.439886e-06,341.0999999998107,2.732388e-06
341.11499999981066,5.687093e-06,341.11499999981066,2.23088e-05,341.11499999981066,3.390388e-06,341.11499999981066,2.742679e-06
341.12999999981065,5.736418e-06,341.12999999981065,2.02813e-05,341.12999999981065,3.4111e-06,341.12999999981065,2.878015e-06
341.14499999981064,5.738873e-06,341.14499999981064,2.03631e-05,341.14499999981064,3.373728e-06,341.14499999981064,2.907234e-06
341.1599999998106,5.804769e-06,341.1599999998106,2.104417e-05,341.1599999998106,3.297714e-06,341.1599999998106,2.931361e-06
341.1749999998106,5.924864e-06,341.1749999998106,2.137427e-05,341.1749999998106,3.361178e-06,341.1749999998106,2.931361e-06
341.1899999998106,5.924864e-06,341.1899999998106,2.186877e-05,341.1899999998106,3.382069e-06,341.1899999998106,2.912075e-06
341.2049999998106,5.867525e-06,341.2049999998106,3.000466e-05,341.2049999998106,3.419349e-06,341.2049999998106,2.979029e-06
341.21999999981057,5.664756e-06,341.21999999981057,3.457735e-05,341.21999999981057,3.365367e-06,341.21999999981057,2.902385e-06
341.23499999981055,5.790191e-06,341.23499999981055,3.805146e-05,341.23499999981055,3.394541e-06,341.23499999981055,2.853437e-06
341.24999999981054,5.850696e-06,341.24999999981054,3.932798e-05,341.24999999981054,3.419349e-06,341.24999999981054,2.823661e-06
341.2649999998105,5.81689e-06,341.2649999998105,3.936664e-05,341.2649999998105,3.415227e-06,341.2649999998105,2.803635e-06
341.2799999998105,5.736418e-06,341.2799999998105,3.904579e-05,341.2799999998105,3.361178e-06,341.2799999998105,2.768241e-06
341.2949999998105,5.692045e-06,341.2949999998105,3.914236e-05,341.2949999998105,3.356985e-06,341.2949999998105,2.843547e-06
341.3099999998105,5.360675e-06,341.3099999998105,3.927672e-05,341.3099999998105,3.323245e-06,341.3099999998105,2.858369e-06
341.3249999998105,5.339611e-06,341.3249999998105,3.967318e-05,341.3249999998105,3.254718e-06,341.3249999998105,2.788521e-06
341.33999999981046,5.399948e-06,341.33999999981046,4.074383e-05,341.33999999981046,3.331712e-06,341.33999999981046,2.828646e-06
341.35499999981045,5.428567e-06,341.35499999981045,4.061848e-05,341.35499999981045,3.306247e-06,341.35499999981045,2.863294e-06
341.36999999981043,5.490492e-06,341.36999999981043,4.053481e-05,341.36999999981043,3.356985e-06,341.36999999981043,2.833621e-06
341.3849999998104,5.469929e-06,341.3849999998104,4.140641e-05,341.3849999998104,3.24605e-06,341.3849999998104,2.868209e-06
341.3999999998104,5.518642e-06,341.3999999998104,4.224102e-05,341.3999999998104,3.267676e-06,341.3999999998104,2.843547e-06
341.4149999998104,5.334332e-06,341.4149999998104,4.20438e-05,341.4149999998104,3.263362e-06,341.4149999998104,2.848496e-06
341.4299999998104,5.257193e-06,341.4299999998104,4.212414e-05,341.4299999998104,3.211145e-06,341.4299999998104,2.868209e-06
341.44499999981036,5.126963e-06,341.44499999981036,4.213685e-05,341.44499999981036,3.184716e-06,341.44499999981036,2.858369e-06
341.45999999981035,5.181623e-06,341.45999999981035,3.401837e-05,341.45999999981035,3.104077e-06,341.45999999981035,2.828646e-06
341.47499999981034,5.154366e-06,341.47499999981034,3.143131e-05,341.47499999981034,3.067557e-06,341.47499999981034,2.882905e-06
341.4899999998103,5.032679e-06,341.4899999998103,2.619739e-05,341.4899999998103,3.094987e-06,341.4899999998103,2.907234e-06
341.5049999998103,5.055022e-06,341.5049999998103,2.509893e-05,341.5049999998103,3.117661e-06,341.5049999998103,2.979029e-06
341.5199999998103,5.08004e-06,341.5199999998103,2.510062e-05,341.5199999998103,3.166973e-06,341.5199999998103,2.916909e-06
341.5349999998103,5.168013e-06,341.5349999998103,2.530296e-05,341.5349999998103,3.254718e-06,341.5349999998103,2.878015e-06
341.54999999981027,5.010237e-06,341.54999999981027,2.552357e-05,341.54999999981027,3.443979e-06,341.54999999981027,2.873116e-06
341.56499999981025,5.154366e-06,341.56499999981025,2.52087e-05,341.56499999981025,3.390388e-06,341.56499999981025,2.848496e-06
341.57999999981024,5.173461e-06,341.57999999981024,2.528291e-05,341.57999999981024,3.352786e-06,341.57999999981024,2.833621e-06
341.5949999998102,4.965048e-06,341.5949999998102,2.358924e-05,341.5949999998102,3.323245e-06,341.5949999998102,2.828646e-06
341.6099999998102,4.996159e-06,341.6099999998102,2.488475e-05,341.6099999998102,3.356985e-06,341.6099999998102,2.818668e-06
341.6249999998102,4.847328e-06,341.6249999998102,2.638599e-05,341.6249999998102,3.382069e-06,341.6249999998102,2.843547e-06
341.6399999998102,4.925167e-06,341.6399999998102,2.379259e-05,341.6399999998102,3.36955e-06,341.6399999998102,2.788521e-06
341.6549999998102,4.942298e-06,341.6549999998102,2.37689e-05,341.6549999998102,3.377901e-06,341.6549999998102,2.788521e-06
341.66999999981016,5.197909e-06,341.66999999981016,2.340158e-05,341.66999999981016,3.344373e-06,341.66999999981016,2.788521e-06
341.68499999981015,5.200618e-06,341.68499999981015,2.360357e-05,341.68499999981015,3.394541e-06,341.68499999981015,2.793568e-06
341.69999999981013,5.168013e-06,341.69999999981013,2.375171e-05,341.69999999981013,3.419349e-06,341.69999999981013,2.752932e-06
341.7149999998101,5.222243e-06,341.7149999998101,2.383223e-05,341.7149999998101,3.484641e-06,341.7149999998101,2.838588e-06
341.7299999998101,5.291911e-06,341.7299999998101,2.365365e-05,341.7299999998101,3.427579e-06,341.7299999998101,2.848496e-06
341.7449999998101,5.339611e-06,341.7449999998101,2.372975e-05,341.7449999998101,3.427579e-06,341.7449999998101,2.798606e-06
341.7599999998101,5.323759e-06,341.7599999998101,2.419825e-05,341.7599999998101,3.480596e-06,341.7599999998101,2.752932e-06
341.77499999981006,5.289249e-06,341.77499999981006,2.458977e-05,341.77499999981006,3.443979e-06,341.77499999981006,2.798606e-06
341.78999999981005,5.289249e-06,341.78999999981005,2.518074e-05,341.78999999981005,3.267676e-06,341.78999999981005,2.813666e-06
341.80499999981004,5.469929e-06,341.80499999981004,2.507366e-05,341.80499999981004,3.197958e-06,341.80499999981004,2.722057e-06
341.81999999981,5.389503e-06,341.81999999981,2.433003e-05,341.81999999981,3.415227e-06,341.81999999981,2.74781e-06
341.83499999981,5.241091e-06,341.83499999981,2.430629e-05,341.83499999981,3.54476e-06,341.83499999981,2.763147e-06
341.84999999981,5.197909e-06,341.84999999981,2.558476e-05,341.84999999981,3.662038e-06,341.84999999981,2.773325e-06
341.86499999981,5.302549e-06,341.86499999981,2.439595e-05,341.86499999981,3.860533e-06,341.86499999981,2.727227e-06
341.87999999980997,5.389503e-06,341.87999999980997,2.589833e-05,341.87999999980997,3.922073e-06,341.87999999980997,2.664524e-06
341.89499999980995,5.373798e-06,341.89499999980995,2.63395e-05,341.89499999980995,4.038859e-06,341.89499999980995,2.669806e-06
341.90999999980994,5.227635e-06,341.90999999980994,2.710025e-05,341.90999999980994,4.104592e-06,341.90999999980994,2.696058e-06
341.9249999998099,5.22494e-06,341.9249999998099,2.62033e-05,341.9249999998099,4.0632e-06,341.9249999998099,2.803635e-06
341.9399999998099,5.140683e-06,341.9399999998099,2.633147e-05,341.9399999998099,4.066665e-06,341.9399999998099,2.916909e-06
341.9549999998099,5.211442e-06,341.9549999998099,2.71724e-05,341.9549999998099,4.169289e-06,341.9549999998099,2.892662e-06
341.9699999998099,5.148897e-06,341.9699999998099,2.711947e-05,341.9699999998099,4.165909e-06,341.9699999998099,2.803635e-06
341.9849999998099,5.14616e-06,341.9849999998099,2.768749e-05,341.9849999998099,4.138769e-06,341.9849999998099,2.873116e-06
341.99999999980986,5.071714e-06,341.99999999980986,2.760852e-05,341.99999999980986,4.11145e-06,341.99999999980986,2.878015e-06
342.01499999980985,5.013047e-06,342.01499999980985,2.746682e-05,342.01499999980985,4.052786e-06,342.01499999980985,2.863294e-06
342.02999999980983,5.265225e-06,342.02999999980983,2.761107e-05,342.02999999980983,4.010859e-06,342.02999999980983,2.969556e-06
342.0449999998098,5.168013e-06,342.0449999998098,2.726866e-05,342.0449999998098,4.059732e-06,342.0449999998098,2.95052e-06
342.0599999998098,5.066156e-06,342.0599999998098,2.738516e-05,342.0599999998098,4.073587e-06,342.0599999998098,2.964809e-06
342.0749999998098,5.181623e-06,342.0749999998098,2.681231e-05,342.0749999998098,4.035369e-06,342.0749999998098,3.011947e-06
342.0899999998098,5.195198e-06,342.0899999998098,2.609017e-05,342.0899999998098,3.943564e-06,342.0899999998098,2.983753e-06
342.10499999980976,5.184341e-06,342.10499999980976,2.443057e-05,342.10499999980976,3.834905e-06,342.10499999980976,3.039879e-06
342.11999999980975,5.157098e-06,342.11999999980975,2.560788e-05,342.11999999980975,3.642754e-06,342.11999999980975,3.099535e-06
342.13499999980974,5.137942e-06,342.13499999980974,2.299473e-05,342.13499999980974,3.492716e-06,342.13499999980974,3.072146e-06
342.1499999998097,5.099414e-06,342.1499999998097,2.22557e-05,342.1499999998097,3.386231e-06,342.1499999998097,3.058359e-06
342.1649999998097,5.099414e-06,342.1649999998097,2.248115e-05,342.1649999998097,3.54476e-06,342.1649999998097,3.011947e-06
342.1799999998097,5.118714e-06,342.1799999998097,2.209625e-05,342.1799999998097,3.520835e-06,342.1799999998097,3.104077e-06
342.1949999998097,5.08004e-06,342.1949999998097,2.167336e-05,342.1949999998097,3.488681e-06,342.1949999998097,3.058359e-06
342.20999999980967,5.049445e-06,342.20999999980967,2.126326e-05,342.20999999980967,3.488681e-06,342.20999999980967,3.081303e-06
342.22499999980965,5.140683e-06,342.22499999980965,2.205094e-05,342.22499999980965,3.508812e-06,342.22499999980965,3.030597e-06
342.23999999980964,5.074491e-06,342.23999999980964,2.24943e-05,342.23999999980964,3.536803e-06,342.23999999980964,3.021286e-06
342.2549999998096,5.102175e-06,342.2549999998096,2.220437e-05,342.2549999998096,3.588207e-06,342.2549999998096,3.035241e-06
342.2699999998096,5.110451e-06,342.2699999998096,2.296163e-05,342.2699999998096,3.611685e-06,342.2699999998096,2.912075e-06
342.2849999998096,4.794733e-06,342.2849999998096,2.246548e-05,342.2849999998096,3.599965e-06,342.2849999998096,2.926552e-06
342.2999999998096,4.928026e-06,342.2999999998096,2.20017e-05,342.2999999998096,3.588207e-06,342.2999999998096,2.993181e-06
342.3149999998096,4.826943e-06,342.3149999998096,2.227974e-05,342.3149999998096,3.536803e-06,342.3149999998096,2.979029e-06
342.32999999980956,4.785911e-06,342.32999999980956,2.356474e-05,342.32999999980956,3.685046e-06,342.32999999980956,2.95052e-06
342.34499999980954,4.861837e-06,342.34499999980954,2.343887e-05,342.34499999980954,3.753223e-06,342.34499999980954,2.997883e-06
342.35999999980953,4.832776e-06,342.35999999980953,2.279415e-05,342.35999999980953,3.723076e-06,342.35999999980953,2.988471e-06
342.3749999998095,4.907976e-06,342.3749999998095,2.188615e-05,342.3749999998095,3.771943e-06,342.3749999998095,2.988471e-06
342.3899999998095,4.794733e-06,342.3899999998095,2.14788e-05,342.3899999998095,3.805405e-06,342.3899999998095,3.081303e-06
342.4049999998095,4.861837e-06,342.4049999998095,2.272111e-05,342.4049999998095,3.809105e-06,342.4049999998095,3.044509e-06
342.4199999998095,4.884961e-06,342.4199999998095,2.665053e-05,342.4199999998095,3.692683e-06,342.4199999998095,3.104077e-06
342.43499999980946,4.962209e-06,342.43499999980946,2.718432e-05,342.43499999980946,3.662038e-06,342.43499999980946,3.039879e-06
342.44999999980945,5.00461e-06,342.44999999980945,3.38989e-05,342.44999999980945,3.635012e-06,342.44999999980945,2.916909e-06
342.46499999980944,4.942298e-06,342.46499999980944,3.446227e-05,342.46499999980944,3.59605e-06,342.46499999980944,3.002579e-06
342.4799999998094,4.984868e-06,342.4799999998094,3.416052e-05,342.4799999998094,3.607783e-06,342.4799999998094,2.993181e-06
342.4949999998094,5.018664e-06,342.4949999998094,3.453292e-05,342.4949999998094,3.623367e-06,342.4949999998094,2.974296e-06
342.5099999998094,5.057808e-06,342.5099999998094,3.614687e-05,342.5099999998094,3.59605e-06,342.5099999998094,2.945742e-06
342.5249999998094,5.02147e-06,342.5249999998094,3.677929e-05,342.5249999998094,3.611685e-06,342.5249999998094,2.95052e-06
342.53999999980937,5.027078e-06,342.53999999980937,3.774929e-05,342.53999999980937,3.580347e-06,342.53999999980937,2.936162e-06
342.55499999980935,5.049445e-06,342.55499999980935,3.796474e-05,342.55499999980935,3.607783e-06,342.55499999980935,2.940956e-06
342.56999999980934,5.060592e-06,342.56999999980934,3.820258e-05,342.56999999980934,3.496747e-06,342.56999999980934,2.926552e-06
342.5849999998093,4.95937e-06,342.5849999998093,3.769103e-05,342.5849999998093,3.532818e-06,342.5849999998093,2.964809e-06
342.5999999998093,5.00461e-06,342.5999999998093,3.812765e-05,342.5999999998093,3.572469e-06,342.5999999998093,2.940956e-06
342.6149999998093,5.096651e-06,342.6149999998093,4.262644e-05,342.6149999998093,3.484641e-06,342.6149999998093,2.887788e-06
342.6299999998093,5.049445e-06,342.6299999998093,4.341524e-05,342.6299999998093,3.435788e-06,342.6299999998093,2.945742e-06
342.6449999998093,5.029879e-06,342.6449999998093,4.398835e-05,342.6449999998093,3.40283e-06,342.6449999998093,2.926552e-06
342.65999999980926,5.088352e-06,342.65999999980926,4.412328e-05,342.65999999980926,3.435788e-06,342.65999999980926,2.853437e-06
342.67499999980924,4.973552e-06,342.67499999980924,4.558057e-05,342.67499999980924,3.448066e-06,342.67499999980924,2.803635e-06
342.68999999980923,4.947995e-06,342.68999999980923,4.563926e-05,342.68999999980923,3.443979e-06,342.68999999980923,2.752932e-06
342.7049999998092,5.043863e-06,342.7049999998092,4.059072e-05,342.7049999998092,3.484641e-06,342.7049999998092,2.838588e-06
342.7199999998092,5.132455e-06,342.7199999998092,4.130183e-05,342.7199999998092,3.492716e-06,342.7199999998092,2.892662e-06
342.7349999998092,5.181623e-06,342.7349999998092,4.137441e-05,342.7349999998092,3.439886e-06,342.7349999998092,2.931361e-06
342.7499999998092,5.049445e-06,342.7499999998092,3.959464e-05,342.7499999998092,3.4111e-06,342.7499999998092,2.902385e-06
342.76499999980916,5.091119e-06,342.76499999980916,3.909951e-05,342.76499999980916,3.448066e-06,342.76499999980916,2.974296e-06
342.77999999980915,5.143422e-06,342.77999999980915,3.808403e-05,342.77999999980915,3.443979e-06,342.77999999980915,2.960054e-06
342.79499999980914,4.987693e-06,342.79499999980914,3.808514e-05,342.79499999980914,3.528828e-06,342.79499999980914,2.936162e-06
342.8099999998091,5.013047e-06,342.8099999998091,3.799107e-05,342.8099999998091,3.635012e-06,342.8099999998091,2.945742e-06
342.8249999998091,5.077266e-06,342.8249999998091,3.89432e-05,342.8249999998091,3.681221e-06,342.8249999998091,2.964809e-06
342.8399999998091,5.162558e-06,342.8399999998091,3.97785e-05,342.8399999998091,3.599965e-06,342.8399999998091,2.95052e-06
342.8549999998091,5.107694e-06,342.8549999998091,3.736597e-05,342.8549999998091,3.572469e-06,342.8549999998091,2.926552e-06
342.86999999980907,5.093886e-06,342.86999999980907,3.618971e-05,342.86999999980907,3.564574e-06,342.86999999980907,2.964809e-06
342.88499999980905,5.043863e-06,342.88499999980905,3.687606e-05,342.88499999980905,3.627253e-06,342.88499999980905,2.878015e-06
342.89999999980904,5.02147e-06,342.89999999980904,3.645923e-05,342.89999999980904,3.592131e-06,342.89999999980904,2.897527e-06
342.914999999809,5.135199e-06,342.914999999809,3.521916e-05,342.914999999809,3.56062e-06,342.914999999809,2.974296e-06
342.929999999809,5.219545e-06,342.929999999809,2.980305e-05,342.929999999809,3.56062e-06,342.929999999809,2.912075e-06
342.944999999809,5.118714e-06,342.944999999809,2.956387e-05,342.944999999809,3.580347e-06,342.944999999809,2.926552e-06
342.959999999809,4.896482e-06,342.959999999809,2.993981e-05,342.959999999809,3.536803e-06,342.959999999809,2.818668e-06
342.974999999809,4.873412e-06,342.974999999809,2.907961e-05,342.974999999809,3.635012e-06,342.974999999809,2.74781e-06
342.98999999980896,4.913713e-06,342.98999999980896,2.893246e-05,342.98999999980896,3.646619e-06,342.98999999980896,2.793568e-06
343.00499999980894,4.902232e-06,343.00499999980894,2.89198e-05,343.00499999980894,3.700305e-06,343.00499999980894,2.737538e-06
343.01999999980893,4.896482e-06,343.01999999980893,2.901608e-05,343.01999999980893,3.70411e-06,343.01999999980893,2.680338e-06
343.0349999998089,4.841512e-06,343.0349999998089,2.903452e-05,343.0349999998089,3.749468e-06,343.0349999998089,2.690828e-06
343.0499999998089,4.714741e-06,343.0499999998089,2.896603e-05,343.0499999998089,3.688867e-06,343.0499999998089,2.752932e-06
343.0649999998089,4.702775e-06,343.0649999998089,2.831334e-05,343.0649999998089,3.528828e-06,343.0649999998089,2.742679e-06
343.0799999998089,4.572159e-06,343.0799999998089,2.785488e-05,343.0799999998089,3.548731e-06,343.0799999998089,2.680338e-06
343.09499999980886,4.447213e-06,343.09499999980886,2.708985e-05,343.09499999980886,3.568524e-06,343.09499999980886,2.701278e-06
343.10999999980885,4.47563e-06,343.10999999980885,2.836404e-05,343.10999999980885,3.536803e-06,343.10999999980885,2.727227e-06
343.12499999980884,4.572159e-06,343.12499999980884,2.531187e-05,343.12499999980884,3.532818e-06,343.12499999980884,2.690828e-06
343.1399999998088,4.702775e-06,343.1399999998088,2.419243e-05,343.1399999998088,3.73441e-06,343.1399999998088,2.685588e-06
343.1549999998088,4.660651e-06,343.1549999998088,2.460409e-05,343.1549999998088,3.654337e-06,343.1549999998088,2.716877e-06
343.1699999998088,4.522595e-06,343.1699999998088,2.608207e-05,343.1699999998088,3.726858e-06,343.1699999998088,2.675077e-06
343.1849999998088,4.469331e-06,343.1849999998088,2.790945e-05,343.1849999998088,3.84957e-06,343.1849999998088,2.727227e-06
343.19999999980877,4.52882e-06,343.19999999980877,3.921175e-05,343.19999999980877,3.83123e-06,343.19999999980877,2.763147e-06
343.21499999980875,4.453544e-06,343.21499999980875,4.581823e-05,343.21499999980875,3.756974e-06,343.21499999980875,2.788521e-06
343.22999999980874,4.456705e-06,343.22999999980874,4.694831e-05,343.22999999980874,3.972038e-06,343.22999999980874,2.818668e-06
343.2449999998087,4.562907e-06,343.2449999998087,6.094453e-05,343.2449999998087,3.989731e-06,343.2449999998087,2.763147e-06
343.2599999998087,4.68176e-06,343.2599999998087,7.006937e-05,343.2599999998087,4.104592e-06,343.2599999998087,2.783465e-06
343.2749999998087,4.768218e-06,343.2749999998087,7.111917e-05,343.2749999998087,4.354386e-06,343.2749999998087,2.873116e-06
343.2899999998087,5.018664e-06,343.2899999998087,8.863902e-05,343.2899999998087,4.4377e-06,343.2899999998087,2.907234e-06
343.3049999998087,5.085583e-06,343.3049999998087,9.726092e-05,343.3049999998087,4.418613e-06,343.3049999998087,2.858369e-06
343.31999999980866,5.102175e-06,343.31999999980866,9.894467e-05,343.31999999980866,4.459865e-06,343.31999999980866,2.868209e-06
343.33499999980864,5.107694e-06,343.33499999980864,0.0001022302,343.33499999980864,4.456705e-06,343.33499999980864,2.926552e-06
343.34999999980863,5.181623e-06,343.34999999980863,0.0001028749,343.34999999980863,4.4377e-06,343.34999999980863,2.955291e-06
343.3649999998086,5.407768e-06,343.3649999998086,0.0001032735,343.3649999998086,4.572159e-06,343.3649999998086,2.897527e-06
343.3799999998086,5.203327e-06,343.3799999998086,0.0001029986,343.3799999998086,4.544346e-06,343.3799999998086,2.940956e-06
343.3949999998086,5.118714e-06,343.3949999998086,0.0001030369,343.3949999998086,4.447213e-06,343.3949999998086,2.897527e-06
343.4099999998086,5.189773e-06,343.4099999998086,0.0001026357,343.4099999998086,4.525708e-06,343.4099999998086,2.873116e-06
343.42499999980856,5.208738e-06,343.42499999980856,0.0001023567,343.42499999980856,4.624239e-06,343.42499999980856,2.892662e-06
343.43999999980855,5.132455e-06,343.43999999980855,0.0001024417,343.43999999980855,4.535037e-06,343.43999999980855,2.945742e-06
343.45499999980854,5.195198e-06,343.45499999980854,9.980836e-05,343.45499999980854,4.52882e-06,343.45499999980854,2.882905e-06
343.4699999998085,5.08004e-06,343.4699999998085,9.872889e-05,343.4699999998085,4.590608e-06,343.4699999998085,2.882905e-06
343.4849999998085,5.035477e-06,343.4849999998085,9.693624e-05,343.4849999998085,4.35762e-06,343.4849999998085,2.955291e-06
343.4999999998085,5.052234e-06,343.4999999998085,9.021971e-05,343.4999999998085,4.318654e-06,343.4999999998085,2.931361e-06
343.5149999998085,5.060592e-06,343.5149999998085,8.385644e-05,343.5149999998085,4.101159e-06,343.5149999998085,2.912075e-06
343.52999999980847,4.858938e-06,343.52999999980847,8.1715e-05,343.52999999980847,3.90768e-06,343.52999999980847,2.803635e-06
343.54499999980845,4.782967e-06,343.54499999980845,5.984737e-05,343.54499999980845,3.816494e-06,343.54499999980845,2.813666e-06
343.55999999980844,5.010237e-06,343.55999999980844,5.311388e-05,343.55999999980844,3.853228e-06,343.55999999980844,2.803635e-06
343.5749999998084,5.013047e-06,343.5749999998084,4.576009e-05,343.5749999998084,4.028382e-06,343.5749999998084,2.727227e-06
343.5899999998084,5.352786e-06,343.5899999998084,4.250399e-05,343.5899999998084,3.982663e-06,343.5899999998084,2.669806e-06
343.6049999998084,5.428567e-06,343.6049999998084,4.064136e-05,343.6049999998084,4.01437e-06,343.6049999998084,2.594886e-06
343.6199999998084,5.270573e-06,343.6199999998084,4.37095e-05,343.6199999998084,4.010859e-06,343.6199999998084,2.798606e-06
343.6349999998084,5.321112e-06,343.6349999998084,5.082119e-05,343.6349999998084,3.947135e-06,343.6349999998084,2.833621e-06
343.64999999980836,5.336972e-06,343.64999999980836,5.124655e-05,343.64999999980836,4.431347e-06,343.64999999980836,2.897527e-06
343.66499999980834,5.214144e-06,343.66499999980834,5.254539e-05,343.66499999980834,4.584466e-06,343.66499999980834,2.907234e-06
343.67999999980833,5.273245e-06,343.67999999980833,5.523311e-05,343.67999999980833,4.531929e-06,343.67999999980833,2.863294e-06
343.6949999998083,5.249148e-06,343.6949999998083,5.58585e-05,343.6949999998083,4.675739e-06,343.6949999998083,2.848496e-06
343.7099999998083,5.278585e-06,343.7099999998083,5.146023e-05,343.7099999998083,4.672725e-06,343.7099999998083,2.878015e-06
343.7249999998083,5.394728e-06,343.7249999998083,5.360438e-05,343.7249999998083,4.720713e-06,343.7249999998083,2.863294e-06
343.7399999998083,5.477649e-06,343.7399999998083,5.274287e-05,343.7399999998083,4.777073e-06,343.7399999998083,2.848496e-06
343.75499999980826,5.594695e-06,343.75499999980826,5.681343e-05,343.75499999980826,4.744526e-06,343.75499999980826,3.072146e-06
343.76999999980825,5.614802e-06,343.76999999980825,6.559449e-05,343.76999999980825,4.732634e-06,343.76999999980825,3.117661e-06
343.78499999980824,6.072803e-06,343.78499999980824,6.584099e-05,343.78499999980824,4.782967e-06,343.78499999980824,3.162522e-06
343.7999999998082,6.037908e-06,343.7999999998082,6.702399e-05,343.7999999998082,4.774123e-06,343.7999999998082,3.180289e-06
343.8149999998082,5.891484e-06,343.8149999998082,6.846932e-05,343.8149999998082,4.663672e-06,343.8149999998082,3.202359e-06
343.8299999998082,5.696992e-06,343.8299999998082,6.928841e-05,343.8299999998082,4.562907e-06,343.8299999998082,3.202359e-06
343.8449999998082,5.584614e-06,343.8449999998082,6.948411e-05,343.8449999998082,4.645514e-06,343.8449999998082,3.301983e-06
343.85999999980817,5.464775e-06,343.85999999980817,7.020334e-05,343.85999999980817,4.654602e-06,343.85999999980817,3.224279e-06
343.87499999980815,5.48279e-06,343.87499999980815,6.599678e-05,343.87499999980815,4.428167e-06,343.87499999980815,3.284874e-06
343.88999999980814,5.541568e-06,343.88999999980814,6.168659e-05,343.88999999980814,4.354386e-06,343.88999999980814,3.306247e-06
343.9049999998081,5.609782e-06,343.9049999998081,6.274262e-05,343.9049999998081,3.982663e-06,343.9049999998081,3.524834e-06
343.9199999998081,6.01219e-06,343.9199999998081,6.572771e-05,343.9199999998081,3.856882e-06,343.9199999998081,3.540784e-06
343.9349999998081,6.089019e-06,343.9349999998081,6.753987e-05,343.9349999998081,3.860533e-06,343.9349999998081,3.73818e-06
343.9499999998081,6.063518e-06,343.9499999998081,6.887834e-05,343.9499999998081,3.878734e-06,343.9499999998081,3.922073e-06
343.9649999998081,6.026232e-06,343.9649999998081,7.902741e-05,343.9649999998081,3.867824e-06,343.9649999998081,3.947135e-06
343.97999999980806,5.869926e-06,343.97999999980806,8.006391e-05,343.97999999980806,3.82387e-06,343.97999999980806,4.042345e-06
343.99499999980804,5.843468e-06,343.99499999980804,8.148367e-05,343.99499999980804,3.786851e-06,343.99499999980804,3.939991e-06
344.00999999980803,5.799914e-06,344.00999999980803,7.427704e-05,344.00999999980803,3.882364e-06,344.00999999980803,4.028382e-06
344.024999999808,5.657291e-06,344.024999999808,7.638265e-05,344.024999999808,4.021382e-06,344.024999999808,4.087396e-06
344.039999999808,5.233022e-06,344.039999999808,7.678052e-05,344.039999999808,4.038859e-06,344.039999999808,4.097722e-06
344.054999999808,5.254512e-06,344.054999999808,7.634281e-05,344.054999999808,3.979125e-06,344.054999999808,4.049309e-06
344.069999999808,5.28392e-06,344.069999999808,8.663493e-05,344.069999999808,3.979125e-06,344.069999999808,4.11145e-06
344.08499999980796,5.368553e-06,344.08499999980796,9.023563e-05,344.08499999980796,4.0632e-06,344.08499999980796,4.11145e-06
344.09999999980795,5.281253e-06,344.09999999980795,9.010018e-05,344.09999999980795,4.272744e-06,344.09999999980795,4.216325e-06
344.11499999980794,5.289249e-06,344.11499999980794,9.056023e-05,344.11499999980794,4.226336e-06,344.11499999980794,4.216325e-06
344.1299999998079,5.278585e-06,344.1299999998079,9.131724e-05,344.1299999998079,4.242968e-06,344.1299999998079,4.152361e-06
344.1449999998079,5.233022e-06,344.1449999998079,9.149539e-05,344.1449999998079,4.285911e-06,344.1449999998079,4.172666e-06
344.1599999998079,4.922306e-06,344.1599999998079,9.085747e-05,344.1599999998079,4.38019e-06,344.1599999998079,4.042345e-06
344.1749999998079,4.780021e-06,344.1749999998079,8.903718e-05,344.1749999998079,4.800605e-06,344.1749999998079,4.052786e-06
344.18999999980787,4.747494e-06,344.18999999980787,8.796565e-05,344.18999999980787,4.744526e-06,344.18999999980787,3.779404e-06
344.20499999980785,4.741556e-06,344.20499999980785,8.103591e-05,344.20499999980785,4.738583e-06,344.20499999980785,3.619477e-06
344.21999999980784,4.762306e-06,344.21999999980784,7.630996e-05,344.21999999980784,4.615091e-06,344.21999999980784,3.556662e-06
344.2349999998078,4.785911e-06,344.2349999998078,7.51483e-05,344.2349999998078,4.590608e-06,344.2349999998078,3.4111e-06
344.2499999998078,4.645514e-06,344.2499999998078,7.654993e-05,344.2499999998078,4.581393e-06,344.2499999998078,3.394541e-06
344.2649999998078,4.587538e-06,344.2649999998078,7.743255e-05,344.2649999998078,4.488202e-06,344.2649999998078,3.480596e-06
344.2799999998078,4.618143e-06,344.2799999998078,7.746529e-05,344.2799999998078,4.651575e-06,344.2799999998078,3.435788e-06
344.29499999980777,4.645514e-06,344.29499999980777,7.769843e-05,344.29499999980777,4.538142e-06,344.29499999980777,3.431686e-06
344.30999999980776,4.639445e-06,344.30999999980776,7.272852e-05,344.30999999980776,4.608983e-06,344.30999999980776,3.56062e-06
344.32499999980774,4.720713e-06,344.32499999980774,6.571078e-05,344.32499999980774,4.593675e-06,344.32499999980774,3.500774e-06
344.33999999980773,4.666692e-06,344.33999999980773,6.427157e-05,344.33999999980773,4.463023e-06,344.33999999980773,3.468433e-06
344.3549999998077,4.782967e-06,344.3549999998077,6.335103e-05,344.3549999998077,4.305587e-06,344.3549999998077,3.40283e-06
344.3699999998077,4.765263e-06,344.3699999998077,6.215274e-05,344.3699999998077,4.272744e-06,344.3699999998077,3.40283e-06
344.3849999998077,4.639445e-06,344.3849999998077,6.189769e-05,344.3849999998077,4.131956e-06,344.3849999998077,3.352786e-06
344.3999999998077,4.599804e-06,344.3999999998077,6.14248e-05,344.3999999998077,3.922073e-06,344.3999999998077,3.24605e-06
344.41499999980766,4.581393e-06,344.41499999980766,5.854162e-05,344.41499999980766,3.764466e-06,344.41499999980766,3.158065e-06
344.42999999980765,4.538142e-06,344.42999999980765,6.057405e-05,344.42999999980765,3.654337e-06,344.42999999980765,3.19355e-06
344.44499999980764,4.491339e-06,344.44499999980764,6.078854e-05,344.44499999980764,3.723076e-06,344.44499999980764,3.228645e-06
344.4599999998076,4.503868e-06,344.4599999998076,6.028569e-05,344.4599999998076,3.749468e-06,344.4599999998076,3.314757e-06
344.4749999998076,4.535037e-06,344.4749999998076,5.958222e-05,344.4749999998076,3.856882e-06,344.4749999998076,3.540784e-06
344.4899999998076,4.732634e-06,344.4899999998076,6.109159e-05,344.4899999998076,3.989731e-06,344.4899999998076,3.56062e-06
344.5049999998076,4.826943e-06,344.5049999998076,5.720459e-05,344.5049999998076,4.021382e-06,344.5049999998076,3.572469e-06
344.51999999980757,4.899358e-06,344.51999999980757,5.474536e-05,344.51999999980757,4.000309e-06,344.51999999980757,3.40283e-06
344.53499999980755,4.788854e-06,344.53499999980755,4.987806e-05,344.53499999980755,3.925663e-06,344.53499999980755,3.439886e-06
344.54999999980754,4.956529e-06,344.54999999980754,5.239317e-05,344.54999999980754,3.91848e-06,344.54999999980754,3.568524e-06
344.5649999998075,4.864733e-06,344.5649999998075,5.158928e-05,344.5649999998075,4.028382e-06,344.5649999998075,3.406967e-06
344.5799999998075,4.893604e-06,344.5799999998075,5.333012e-05,344.5799999998075,4.4377e-06,344.5799999998075,3.419349e-06
344.5949999998075,4.884961e-06,344.5949999998075,5.303983e-05,344.5949999998075,4.466178e-06,344.5949999998075,3.4111e-06
344.6099999998075,4.861837e-06,344.6099999998075,5.407039e-05,344.6099999998075,4.29576e-06,344.6099999998075,3.352786e-06
344.62499999980747,4.876302e-06,344.62499999980747,5.481171e-05,344.62499999980747,4.249604e-06,344.62499999980747,3.352786e-06
344.63999999980746,4.806471e-06,344.63999999980746,5.351654e-05,344.63999999980746,4.402644e-06,344.63999999980746,3.352786e-06
344.65499999980744,4.753424e-06,344.65499999980744,5.190234e-05,344.65499999980744,4.38019e-06,344.65499999980744,3.340158e-06
344.66999999980743,4.806471e-06,344.66999999980743,5.058754e-05,344.66999999980743,4.39624e-06,344.66999999980743,3.327482e-06
344.6849999998074,4.838602e-06,344.6849999998074,4.790266e-05,344.6849999998074,4.252917e-06,344.6849999998074,3.284874e-06
344.6999999998074,4.873412e-06,344.6999999998074,4.766061e-05,344.6999999998074,4.27604e-06,344.6999999998074,3.365367e-06
344.7149999998074,4.864733e-06,344.7149999998074,4.843665e-05,344.7149999998074,4.219664e-06,344.7149999998074,3.306247e-06
344.7299999998074,4.639445e-06,344.7299999998074,4.710497e-05,344.7299999998074,4.370531e-06,344.7299999998074,3.076727e-06
344.74499999980736,4.565993e-06,344.74499999980736,4.574623e-05,344.74499999980736,4.285911e-06,344.74499999980736,3.108612e-06
344.75999999980735,4.389827e-06,344.75999999980735,4.333892e-05,344.75999999980735,4.242968e-06,344.75999999980735,3.11314e-06
344.77499999980733,4.373753e-06,344.77499999980733,4.207931e-05,344.77499999980733,4.077044e-06,344.77499999980733,3.007266e-06
344.7899999998073,4.367307e-06,344.7899999998073,4.292906e-05,344.7899999998073,4.045829e-06,344.7899999998073,2.974296e-06
344.8049999998073,4.259536e-06,344.8049999998073,3.744807e-05,344.8049999998073,4.017877e-06,344.8049999998073,2.887788e-06
344.8199999998073,4.045829e-06,344.8199999998073,2.93856e-05,344.8199999998073,3.548731e-06,344.8199999998073,2.95052e-06
344.8349999998073,3.975583e-06,344.8349999998073,3.017554e-05,344.8349999998073,3.456227e-06,344.8349999998073,2.960054e-06
344.84999999980727,3.914884e-06,344.84999999980727,2.978556e-05,344.84999999980727,3.40283e-06,344.84999999980727,2.912075e-06
344.86499999980725,3.964939e-06,344.86499999980725,2.797801e-05,344.86499999980725,3.435788e-06,344.86499999980725,2.960054e-06
344.87999999980724,4.003829e-06,344.87999999980724,2.602205e-05,344.87999999980724,3.352786e-06,344.87999999980724,2.964809e-06
344.8949999998072,4.059732e-06,344.8949999998072,2.589833e-05,344.8949999998072,3.237359e-06,344.8949999998072,2.983753e-06
344.9099999998072,4.049309e-06,344.9099999998072,2.832627e-05,344.9099999998072,3.189136e-06,344.9099999998072,3.131187e-06
344.9249999998072,3.996786e-06,344.9249999998072,2.863785e-05,344.9249999998072,3.149131e-06,344.9249999998072,3.180289e-06
344.9399999998072,4.01437e-06,344.9399999998072,2.863736e-05,344.9399999998072,3.211145e-06,344.9399999998072,3.162522e-06
344.95499999980717,4.077044e-06,344.95499999980717,3.006001e-05,344.95499999980717,3.215529e-06,344.95499999980717,3.072146e-06
344.96999999980716,4.209638e-06,344.96999999980716,2.966424e-05,344.96999999980716,3.049133e-06,344.96999999980716,3.11314e-06
344.98499999980714,4.162526e-06,344.98499999980714,3.025014e-05,344.98499999980714,2.858369e-06,344.98499999980714,3.153601e-06
344.99999999980713,4.169289e-06,344.99999999980713,3.076086e-05,344.99999999980713,2.858369e-06,344.99999999980713,3.158065e-06
345.0149999998071,4.145571e-06,345.0149999998071,3.208732e-05,345.0149999998071,2.892662e-06,345.0149999998071,3.140172e-06
345.0299999998071,4.196231e-06,345.0299999998071,3.06526e-05,345.0299999998071,2.95052e-06,345.0299999998071,3.171418e-06
345.0449999998071,4.331681e-06,345.0449999998071,3.171773e-05,345.0449999998071,2.936162e-06,345.0449999998071,3.175857e-06
345.0599999998071,4.325173e-06,345.0599999998071,3.265563e-05,345.0599999998071,2.960054e-06,345.0599999998071,3.117661e-06
345.07499999980706,4.36408e-06,345.07499999980706,3.203195e-05,345.07499999980706,3.035241e-06,345.07499999980706,3.062961e-06
345.08999999980705,4.550541e-06,345.08999999980705,3.13914e-05,345.08999999980705,2.979029e-06,345.08999999980705,3.228645e-06
345.10499999980703,4.590608e-06,345.10499999980703,3.207107e-05,345.10499999980703,3.011947e-06,345.10499999980703,3.24605e-06
345.119999999807,4.553636e-06,345.119999999807,3.215923e-05,345.119999999807,3.035241e-06,345.119999999807,3.276286e-06
345.134999999807,4.525708e-06,345.134999999807,3.239534e-05,345.134999999807,3.011947e-06,345.134999999807,3.276286e-06
345.149999999807,4.648545e-06,345.149999999807,3.111736e-05,345.149999999807,3.039879e-06,345.149999999807,3.259043e-06
345.164999999807,4.803539e-06,345.164999999807,3.01363e-05,345.164999999807,3.140172e-06,345.164999999807,3.158065e-06
345.17999999980697,4.815255e-06,345.17999999980697,3.040064e-05,345.17999999980697,3.224279e-06,345.17999999980697,3.171418e-06
345.19499999980695,4.83569e-06,345.19499999980695,2.974012e-05,345.19499999980695,3.271984e-06,345.19499999980695,3.19355e-06
345.20999999980694,4.67875e-06,345.20999999980694,2.884176e-05,345.20999999980694,3.29344e-06,345.20999999980694,3.175857e-06
345.2249999998069,4.699779e-06,345.2249999998069,2.78655e-05,345.2249999998069,3.356985e-06,345.2249999998069,3.085871e-06
345.2399999998069,4.714741e-06,345.2399999998069,2.881537e-05,345.2399999998069,3.488681e-06,345.2399999998069,3.085871e-06
345.2549999998069,4.844421e-06,345.2549999998069,2.788723e-05,345.2549999998069,3.448066e-06,345.2549999998069,3.053749e-06
345.2699999998069,4.815255e-06,345.2699999998069,3.324559e-05,345.2699999998069,3.572469e-06,345.2699999998069,3.053749e-06
345.28499999980687,4.864733e-06,345.28499999980687,3.350685e-05,345.28499999980687,3.516832e-06,345.28499999980687,2.974296e-06
345.29999999980686,4.756387e-06,345.29999999980686,3.224672e-05,345.29999999980686,3.631134e-06,345.29999999980686,2.892662e-06
345.31499999980684,4.81818e-06,345.31499999980684,3.132267e-05,345.31499999980684,3.654337e-06,345.31499999980684,2.873116e-06
345.32999999980683,4.696781e-06,345.32999999980683,3.212285e-05,345.32999999980683,3.603876e-06,345.32999999980683,2.843547e-06
345.3449999998068,4.782967e-06,345.3449999998068,3.201303e-05,345.3449999998068,3.779404e-06,345.3449999998068,2.838588e-06
345.3599999998068,4.791795e-06,345.3599999998068,3.18728e-05,345.3599999998068,3.786851e-06,345.3599999998068,2.813666e-06
345.3749999998068,4.762306e-06,345.3749999998068,3.434107e-05,345.3749999998068,3.779404e-06,345.3749999998068,2.878015e-06
345.3899999998068,4.853136e-06,345.3899999998068,3.613128e-05,345.3899999998068,3.834905e-06,345.3899999998068,3.076727e-06
345.40499999980676,4.936594e-06,345.40499999980676,4.352801e-05,345.40499999980676,4.000309e-06,345.40499999980676,3.090432e-06
345.41999999980675,4.850233e-06,345.41999999980675,4.34347e-05,345.41999999980675,3.925663e-06,345.41999999980675,3.267676e-06
345.43499999980673,4.864733e-06,345.43499999980673,4.45582e-05,345.43499999980673,4.066665e-06,345.43499999980673,3.250386e-06
345.4499999998067,4.905105e-06,345.4499999998067,4.629384e-05,345.4499999998067,4.01437e-06,345.4499999998067,3.377901e-06
345.4649999998067,4.993339e-06,345.4649999998067,5.179067e-05,345.4649999998067,3.950702e-06,345.4649999998067,3.356985e-06
345.4799999998067,5.074491e-06,345.4799999998067,5.248182e-05,345.4799999998067,3.90768e-06,345.4799999998067,3.365367e-06
345.4949999998067,4.996159e-06,345.4949999998067,5.394232e-05,345.4949999998067,3.925663e-06,345.4949999998067,3.54476e-06
345.50999999980667,5.068936e-06,345.50999999980667,5.410841e-05,345.50999999980667,3.8751e-06,345.50999999980667,3.719291e-06
345.52499999980665,5.132455e-06,345.52499999980665,5.726907e-05,345.52499999980665,3.925663e-06,345.52499999980665,3.914884e-06
345.53999999980664,5.104936e-06,345.53999999980664,6.057707e-05,345.53999999980664,4.905105e-06,345.53999999980664,3.961384e-06
345.5549999998066,5.22494e-06,345.5549999998066,0.0001772769,345.5549999998066,4.856038e-06,345.5549999998066,4.021382e-06
345.5699999998066,5.352786e-06,345.5699999998066,0.0002705406,345.5699999998066,4.913713e-06,345.5699999998066,4.038859e-06
345.5849999998066,5.446701e-06,345.5849999998066,0.0003377591,345.5849999998066,5.652309e-06,345.5849999998066,4.031877e-06
345.5999999998066,5.326404e-06,345.5999999998066,0.0003417196,345.5999999998066,5.639834e-06,345.5999999998066,4.000309e-06
345.61499999980657,5.423375e-06,345.61499999980657,0.000344005,345.61499999980657,5.792623e-06,345.61499999980657,4.118297e-06
345.62999999980656,5.392116e-06,345.62999999980656,0.0003443024,345.62999999980656,5.976941e-06,345.62999999980656,3.878734e-06
345.64499999980654,5.358047e-06,345.64499999980654,0.0003449452,345.64499999980654,5.790191e-06,345.64499999980654,3.86418e-06
345.65999999980653,5.431162e-06,345.65999999980653,0.0003483318,345.65999999980653,5.853103e-06,345.65999999980653,3.834905e-06
345.6749999998065,5.498184e-06,345.6749999998065,0.0003517538,345.6749999998065,6.114414e-06,345.6749999998065,3.715501e-06
345.6899999998065,5.571988e-06,345.6899999998065,0.0003518774,345.6899999998065,6.070483e-06,345.6899999998065,3.794284e-06
345.7049999998065,5.587136e-06,345.7049999998065,0.0003521144,345.7049999998065,6.082075e-06,345.7049999998065,3.646619e-06
345.7199999998065,5.577042e-06,345.7199999998065,0.0003521178,345.7199999998065,6.264623e-06,345.7199999998065,3.665883e-06
345.73499999980646,5.836232e-06,345.73499999980646,0.0003532221,345.73499999980646,6.435437e-06,345.73499999980646,3.768206e-06
345.74999999980645,5.939112e-06,345.74999999980645,0.0003543738,345.74999999980645,6.437625e-06,345.74999999980645,3.580347e-06
345.76499999980643,6.107498e-06,345.76499999980643,0.0003554832,345.76499999980643,6.682424e-06,345.76499999980643,3.352786e-06
345.7799999998064,6.137409e-06,345.7799999998064,0.000357394,345.7799999998064,6.483414e-06,345.7799999998064,3.344373e-06
345.7949999998064,6.160319e-06,345.7949999998064,0.0003560295,345.7949999998064,5.962784e-06,345.7949999998064,3.263362e-06
345.8099999998064,6.044903e-06,345.8099999998064,0.0002604066,345.8099999998064,6.007502e-06,345.8099999998064,3.267676e-06
345.8249999998064,6.135114e-06,345.8249999998064,0.0002027842,345.8249999998064,5.714275e-06,345.8249999998064,3.280583e-06
345.83999999980637,6.063518e-06,345.83999999980637,0.000124999,345.83999999980637,5.246463e-06,345.83999999980637,3.284874e-06
345.85499999980635,6.203613e-06,345.85499999980635,0.0001201757,345.85499999980635,5.273245e-06,345.85499999980635,3.310505e-06
345.86999999980634,6.114414e-06,345.86999999980634,0.0001190036,345.86999999980634,4.970719e-06,345.86999999980634,3.28916e-06
345.8849999998063,6.148874e-06,345.8849999998063,0.000119106,345.8849999998063,4.919443e-06,345.8849999998063,3.361178e-06
345.8999999998063,6.153455e-06,345.8999999998063,0.0001168297,345.8999999998063,4.930884e-06,345.8999999998063,3.365367e-06
345.9149999998063,5.716739e-06,345.9149999998063,0.0001068737,345.9149999998063,4.925167e-06,345.9149999998063,3.4111e-06
345.9299999998063,5.571988e-06,345.9299999998063,0.0001504588,345.9299999998063,4.578317e-06,345.9299999998063,3.439886e-06
345.94499999980627,5.790191e-06,345.94499999980627,0.000156901,345.94499999980627,4.630328e-06,345.94499999980627,3.427579e-06
345.95999999980626,5.714275e-06,345.95999999980626,0.0001614417,345.95999999980626,4.708762e-06,345.95999999980626,3.4111e-06
345.97499999980624,5.654801e-06,345.97499999980624,0.0001624682,345.97499999980624,4.450379e-06,345.97499999980624,3.423466e-06
345.98999999980623,5.384273e-06,345.98999999980623,0.0001623875,345.98999999980623,4.269446e-06,345.98999999980623,3.335938e-06
346.0049999998062,5.214144e-06,346.0049999998062,0.0001620532,346.0049999998062,4.259536e-06,346.0049999998062,3.271984e-06
346.0199999998062,5.118714e-06,346.0199999998062,0.0001577453,346.0199999998062,4.285911e-06,346.0199999998062,3.211145e-06
346.0349999998062,5.032679e-06,346.0349999998062,0.000154319,346.0349999998062,4.29248e-06,346.0349999998062,3.171418e-06
346.0499999998062,5.041069e-06,346.0499999998062,0.0001540059,346.0499999998062,4.302314e-06,346.0499999998062,3.144655e-06
346.06499999980616,4.996159e-06,346.06499999980616,0.0001539047,346.06499999980616,4.252917e-06,346.06499999980616,3.122176e-06
346.07999999980615,4.939447e-06,346.07999999980615,0.0001520038,346.07999999980615,4.165909e-06,346.07999999980615,3.072146e-06
346.09499999980613,4.910845e-06,346.09499999980613,0.0001470784,346.09499999980613,4.162526e-06,346.09499999980613,2.916909e-06
346.1099999998061,4.768218e-06,346.1099999998061,0.0001459104,346.1099999998061,4.070128e-06,346.1099999998061,2.863294e-06
346.1249999998061,4.759348e-06,346.1249999998061,0.0001464164,346.1249999998061,4.05626e-06,346.1249999998061,2.907234e-06
346.1399999998061,4.788854e-06,346.1399999998061,0.0001464543,346.1399999998061,4.031877e-06,346.1399999998061,2.763147e-06
346.1549999998061,4.803539e-06,346.1549999998061,0.0001461445,346.1549999998061,4.094283e-06,346.1549999998061,2.727227e-06
346.16999999980607,4.850233e-06,346.16999999980607,0.0001419643,346.16999999980607,3.797995e-06,346.16999999980607,2.659232e-06
346.18499999980605,4.826943e-06,346.18499999980605,8.449805e-05,346.18499999980605,3.812802e-06,346.18499999980605,2.737538e-06
346.19999999980604,4.651575e-06,346.19999999980604,5.734404e-05,346.19999999980604,3.79057e-06,346.19999999980604,2.648616e-06
346.214999999806,4.690778e-06,346.214999999806,4.412616e-05,346.214999999806,3.79057e-06,346.214999999806,2.669806e-06
346.229999999806,4.615091e-06,346.229999999806,4.265716e-05,346.229999999806,3.756974e-06,346.229999999806,2.659232e-06
346.244999999806,4.506994e-06,346.244999999806,4.037498e-05,346.244999999806,3.78313e-06,346.244999999806,2.664524e-06
346.259999999806,4.762306e-06,346.259999999806,3.156191e-05,346.259999999806,3.635012e-06,346.259999999806,2.648616e-06
346.27499999980597,4.663672e-06,346.27499999980597,2.910334e-05,346.27499999980597,3.406967e-06,346.27499999980597,2.701278e-06
346.28999999980596,4.711753e-06,346.28999999980596,2.860192e-05,346.28999999980596,3.373728e-06,346.28999999980596,2.716877e-06
346.30499999980594,4.684768e-06,346.30499999980594,2.863392e-05,346.30499999980594,3.427579e-06,346.30499999980594,2.803635e-06
346.31999999980593,4.702775e-06,346.31999999980593,2.809658e-05,346.31999999980593,3.435788e-06,346.31999999980593,2.778399e-06
346.3349999998059,4.732634e-06,346.3349999998059,2.750577e-05,346.3349999998059,3.512824e-06,346.3349999998059,2.783465e-06
346.3499999998059,4.67875e-06,346.3499999998059,2.869829e-05,346.3499999998059,3.580347e-06,346.3499999998059,2.758045e-06
346.3649999998059,4.69378e-06,346.3649999998059,3.122312e-05,346.3649999998059,3.73818e-06,346.3649999998059,2.742679e-06
