X[s],a: EMG RMS 1-1,X[s].1,a: EMG RMS 1-2,X[s].2,a: EMG RMS 1-3,X[s].3,a: EMG RMS 1-4
417.01499999974163,4.716145e-05,417.01499999974163,0.004751976,417.01499999974163,0.0001113468,417.01499999974163,2.708829e-05
417.0299999997416,4.599529e-05,417.0299999997416,0.004776823,417.0299999997416,0.0001134507,417.0299999997416,2.702633e-05
417.0449999997416,4.408112e-05,417.0449999997416,0.00481196,417.0449999997416,0.00011122,417.0449999997416,2.660768e-05
417.0599999997416,4.423902e-05,417.0599999997416,0.004845242,417.0599999997416,0.0001096059,417.0599999997416,2.598792e-05
417.0749999997416,4.278773e-05,417.0749999997416,0.004799218,417.0749999997416,0.0001069092,417.0749999997416,2.373806e-05
417.08999999974156,3.906815e-05,417.08999999974156,0.004894917,417.08999999974156,9.684683e-05,417.08999999974156,2.381863e-05
417.10499999974155,3.911824e-05,417.10499999974155,0.004896842,417.10499999974155,9.57934e-05,417.10499999974155,2.332621e-05
417.11999999974154,3.901511e-05,417.11999999974154,0.004914371,417.11999999974154,9.489436e-05,417.11999999974154,1.984103e-05
417.1349999997415,3.539232e-05,417.1349999997415,0.004813797,417.1349999997415,9.290285e-05,417.1349999997415,1.900332e-05
417.1499999997415,3.40552e-05,417.1499999997415,0.004796894,417.1499999997415,9.158618e-05,417.1499999997415,1.990836e-05
417.1649999997415,3.371222e-05,417.1649999997415,0.004643453,417.1649999997415,9.549943e-05,417.1649999997415,1.954056e-05
417.1799999997415,3.365241e-05,417.1799999997415,0.004665143,417.1799999997415,9.535019e-05,417.1799999997415,1.979056e-05
417.19499999974147,3.14761e-05,417.19499999974147,0.004866511,417.19499999974147,9.413679e-05,417.19499999974147,1.968636e-05
417.20999999974146,3.170574e-05,417.20999999974146,0.005037251,417.20999999974146,9.520707e-05,417.20999999974146,1.972639e-05
417.22499999974144,3.222837e-05,417.22499999974144,0.005118218,417.22499999974144,9.505825e-05,417.22499999974144,2.027296e-05
417.2399999997414,3.011432e-05,417.2399999997414,0.005089955,417.2399999997414,7.854591e-05,417.2399999997414,1.876536e-05
417.2549999997414,2.968418e-05,417.2549999997414,0.004971691,417.2549999997414,8.591077e-05,417.2549999997414,1.916203e-05
417.2699999997414,2.761872e-05,417.2699999997414,0.00473411,417.2699999997414,8.086867e-05,417.2699999997414,1.929098e-05
417.2849999997414,2.70378e-05,417.2849999997414,0.004732131,417.2849999997414,8.036614e-05,417.2849999997414,1.912745e-05
417.2999999997414,2.963573e-05,417.2999999997414,0.004890306,417.2999999997414,8.267679e-05,417.2999999997414,1.908912e-05
417.31499999974136,2.921541e-05,417.31499999974136,0.004950816,417.31499999974136,8.294029e-05,417.31499999974136,1.727217e-05
417.32999999974135,3.056792e-05,417.32999999974135,0.004915966,417.32999999974135,8.315418e-05,417.32999999974135,1.702905e-05
417.34499999974133,3.070173e-05,417.34499999974133,0.00484067,417.34499999974133,8.01165e-05,417.34499999974133,1.676645e-05
417.3599999997413,3.168352e-05,417.3599999997413,0.004911687,417.3599999997413,8.298834e-05,417.3599999997413,1.673028e-05
417.3749999997413,3.164303e-05,417.3749999997413,0.004917526,417.3749999997413,8.361622e-05,417.3749999997413,1.687281e-05
417.3899999997413,3.372016e-05,417.3899999997413,0.004981057,417.3899999997413,8.571181e-05,417.3899999997413,1.665856e-05
417.4049999997413,3.693522e-05,417.4049999997413,0.004981058,417.4049999997413,8.371e-05,417.4049999997413,1.54722e-05
417.41999999974126,3.868479e-05,417.41999999974126,0.004882966,417.41999999974126,8.611942e-05,417.41999999974126,1.573044e-05
417.43499999974125,4.366726e-05,417.43499999974125,0.004875075,417.43499999974125,8.838215e-05,417.43499999974125,1.168573e-05
417.44999999974124,4.351247e-05,417.44999999974124,0.004886179,417.44999999974124,9.359443e-05,417.44999999974124,1.230004e-05
417.4649999997412,4.496762e-05,417.4649999997412,0.004896339,417.4649999997412,9.460118e-05,417.4649999997412,1.361546e-05
417.4799999997412,4.578132e-05,417.4799999997412,0.004881848,417.4799999997412,0.000101604,417.4799999997412,1.303833e-05
417.4949999997412,5.068714e-05,417.4949999997412,0.00483373,417.4949999997412,0.0001041677,417.4949999997412,1.329616e-05
417.5099999997412,5.09466e-05,417.5099999997412,0.004917291,417.5099999997412,0.0001018708,417.5099999997412,1.79096e-05
417.52499999974117,5.08813e-05,417.52499999974117,0.005022475,417.52499999974117,0.0001022279,417.52499999974117,1.849848e-05
417.53999999974116,5.210171e-05,417.53999999974116,0.005003673,417.53999999974116,0.0001047432,417.53999999974116,1.88081e-05
417.55499999974114,5.130561e-05,417.55499999974114,0.004881367,417.55499999974114,0.0001044307,417.55499999974114,1.921709e-05
417.5699999997411,5.100408e-05,417.5699999997411,0.004628398,417.5699999997411,0.0001049736,417.5699999997411,2.116831e-05
417.5849999997411,5.312926e-05,417.5849999997411,0.004421542,417.5849999997411,0.0001048228,417.5849999997411,2.236871e-05
417.5999999997411,5.398852e-05,417.5999999997411,0.004482882,417.5999999997411,0.0001077104,417.5999999997411,2.283983e-05
417.6149999997411,5.578355e-05,417.6149999997411,0.004609516,417.6149999997411,0.0001078018,417.6149999997411,2.419068e-05
417.6299999997411,5.567107e-05,417.6299999997411,0.004724939,417.6299999997411,0.000108127,417.6299999997411,2.434508e-05
417.64499999974106,5.421998e-05,417.64499999974106,0.004615524,417.64499999974106,0.0001068974,417.64499999974106,2.439075e-05
417.65999999974105,5.404146e-05,417.65999999974105,0.004433013,417.65999999974105,0.0001042401,417.65999999974105,2.48955e-05
417.67499999974103,5.195876e-05,417.67499999974103,0.004473863,417.67499999974103,9.719848e-05,417.67499999974103,2.516619e-05
417.689999999741,4.965473e-05,417.689999999741,0.004441512,417.689999999741,9.616472e-05,417.689999999741,2.527121e-05
417.704999999741,4.906483e-05,417.704999999741,0.004493362,417.704999999741,9.357185e-05,417.704999999741,2.488984e-05
417.719999999741,4.722086e-05,417.719999999741,0.004458894,417.719999999741,9.167611e-05,417.719999999741,2.478605e-05
417.734999999741,4.478651e-05,417.734999999741,0.004485835,417.734999999741,8.180839e-05,417.734999999741,2.527288e-05
417.74999999974096,4.218897e-05,417.74999999974096,0.004545396,417.74999999974096,7.908764e-05,417.74999999974096,2.359879e-05
417.76499999974095,4.38787e-05,417.76499999974095,0.00454752,417.76499999974095,7.979161e-05,417.76499999974095,2.155671e-05
417.77999999974094,4.412935e-05,417.77999999974094,0.004554611,417.77999999974094,7.829767e-05,417.77999999974094,2.151615e-05
417.7949999997409,4.34898e-05,417.7949999997409,0.004554611,417.7949999997409,7.533384e-05,417.7949999997409,2.482297e-05
417.8099999997409,4.635192e-05,417.8099999997409,0.004571007,417.8099999997409,7.124247e-05,417.8099999997409,2.436764e-05
417.8249999997409,4.653694e-05,417.8249999997409,0.004618615,417.8249999997409,7.01648e-05,417.8249999997409,2.293769e-05
417.8399999997409,4.36692e-05,417.8399999997409,0.004686564,417.8399999997409,7.073566e-05,417.8399999997409,2.305041e-05
417.85499999974087,3.986976e-05,417.85499999974087,0.004686427,417.85499999974087,6.822943e-05,417.85499999974087,2.252059e-05
417.86999999974086,4.035753e-05,417.86999999974086,0.004691763,417.86999999974086,6.687945e-05,417.86999999974086,2.227657e-05
417.88499999974084,4.054523e-05,417.88499999974084,0.004687816,417.88499999974084,6.522083e-05,417.88499999974084,2.251371e-05
417.8999999997408,3.94285e-05,417.8999999997408,0.004779658,417.8999999997408,6.624625e-05,417.8999999997408,2.440634e-05
417.9149999997408,3.776086e-05,417.9149999997408,0.004816867,417.9149999997408,6.659957e-05,417.9149999997408,2.414872e-05
417.9299999997408,3.786145e-05,417.9299999997408,0.0047802,417.9299999997408,6.987913e-05,417.9299999997408,2.517627e-05
417.9449999997408,3.772092e-05,417.9449999997408,0.004831277,417.9449999997408,6.700297e-05,417.9449999997408,2.532077e-05
417.9599999997408,3.779852e-05,417.9599999997408,0.004832021,417.9599999997408,6.509305e-05,417.9599999997408,2.784072e-05
417.97499999974076,3.965791e-05,417.97499999974076,0.00492344,417.97499999974076,6.48854e-05,417.97499999974076,2.783212e-05
417.98999999974075,4.182276e-05,417.98999999974075,0.004945478,417.98999999974075,6.808434e-05,417.98999999974075,2.713557e-05
418.00499999974073,3.895766e-05,418.00499999974073,0.004954725,418.00499999974073,6.474848e-05,418.00499999974073,2.714335e-05
418.0199999997407,3.826263e-05,418.0199999997407,0.004984018,418.0199999997407,6.45347e-05,418.0199999997407,2.71309e-05
418.0349999997407,3.873792e-05,418.0349999997407,0.004858909,418.0349999997407,6.523551e-05,418.0349999997407,2.416621e-05
418.0499999997407,3.670952e-05,418.0499999997407,0.004821849,418.0499999997407,6.53602e-05,418.0499999997407,2.548215e-05
418.0649999997407,3.410315e-05,418.0649999997407,0.004807996,418.0649999997407,6.480307e-05,418.0649999997407,2.555556e-05
418.07999999974066,3.428072e-05,418.07999999974066,0.004849653,418.07999999974066,6.447749e-05,418.07999999974066,2.472517e-05
418.09499999974065,3.447086e-05,418.09499999974065,0.004944125,418.09499999974065,6.300386e-05,418.09499999974065,2.454792e-05
418.10999999974064,3.454474e-05,418.10999999974064,0.005009175,418.10999999974064,6.069044e-05,418.10999999974064,2.589724e-05
418.1249999997406,3.346604e-05,418.1249999997406,0.004994922,418.1249999997406,5.772672e-05,418.1249999997406,2.555777e-05
418.1399999997406,3.312546e-05,418.1399999997406,0.005038878,418.1399999997406,5.726292e-05,418.1399999997406,2.52595e-05
418.1549999997406,3.326042e-05,418.1549999997406,0.005067311,418.1549999997406,5.576158e-05,418.1549999997406,2.292602e-05
418.1699999997406,3.25541e-05,418.1699999997406,0.005013207,418.1699999997406,5.43816e-05,418.1699999997406,2.318022e-05
418.18499999974057,3.12159e-05,418.18499999974057,0.004876865,418.18499999974057,5.151386e-05,418.18499999974057,2.20081e-05
418.19999999974056,3.197473e-05,418.19999999974056,0.004878891,418.19999999974056,5.268782e-05,418.19999999974056,2.325121e-05
418.21499999974054,3.126595e-05,418.21499999974054,0.004801282,418.21499999974054,5.135473e-05,418.21499999974054,2.161218e-05
418.2299999997405,2.704197e-05,418.2299999997405,0.004686595,418.2299999997405,4.590638e-05,418.2299999997405,2.157826e-05
418.2449999997405,2.543678e-05,418.2449999997405,0.004549875,418.2449999997405,4.122194e-05,418.2449999997405,2.161283e-05
418.2599999997405,2.538966e-05,418.2599999997405,0.004455938,418.2599999997405,4.175197e-05,418.2599999997405,2.245168e-05
418.2749999997405,2.602421e-05,418.2749999997405,0.004321506,418.2749999997405,4.395632e-05,418.2749999997405,2.344909e-05
418.2899999997405,2.265529e-05,418.2899999997405,0.004363619,418.2899999997405,4.213584e-05,418.2899999997405,2.354441e-05
418.30499999974046,2.140917e-05,418.30499999974046,0.004110392,418.30499999974046,4.211745e-05,418.30499999974046,2.133469e-05
418.31999999974045,2.202666e-05,418.31999999974045,0.003957992,418.31999999974045,4.234494e-05,418.31999999974045,2.128643e-05
418.33499999974043,2.26814e-05,418.33499999974043,0.003818182,418.33499999974043,4.454556e-05,418.33499999974043,2.1153e-05
418.3499999997404,2.243285e-05,418.3499999997404,0.003819815,418.3499999997404,4.333405e-05,418.3499999997404,2.044456e-05
418.3649999997404,2.163433e-05,418.3649999997404,0.003577077,418.3649999997404,4.284859e-05,418.3649999997404,2.011671e-05
418.3799999997404,2.189001e-05,418.3799999997404,0.003459354,418.3799999997404,4.172328e-05,418.3799999997404,1.984032e-05
418.3949999997404,2.289097e-05,418.3949999997404,0.003356795,418.3949999997404,4.275809e-05,418.3949999997404,1.980692e-05
418.40999999974036,2.233909e-05,418.40999999974036,0.003273967,418.40999999974036,4.41855e-05,418.40999999974036,1.956002e-05
418.42499999974035,2.216055e-05,418.42499999974035,0.003264598,418.42499999974035,4.318752e-05,418.42499999974035,2.01517e-05
418.43999999974034,2.161609e-05,418.43999999974034,0.003256872,418.43999999974034,4.014651e-05,418.43999999974034,1.873005e-05
418.4549999997403,2.082481e-05,418.4549999997403,0.003323855,418.4549999997403,3.838063e-05,418.4549999997403,1.881335e-05
418.4699999997403,2.054971e-05,418.4699999997403,0.003314811,418.4699999997403,3.795732e-05,418.4699999997403,1.714858e-05
418.4849999997403,2.042802e-05,418.4849999997403,0.003288332,418.4849999997403,3.783428e-05,418.4849999997403,1.869919e-05
418.4999999997403,2.018801e-05,418.4999999997403,0.003444446,418.4999999997403,3.742323e-05,418.4999999997403,1.987508e-05
418.51499999974027,2.003181e-05,418.51499999974027,0.003521044,418.51499999974027,3.827147e-05,418.51499999974027,1.97528e-05
418.52999999974026,1.982896e-05,418.52999999974026,0.003621924,418.52999999974026,3.416629e-05,418.52999999974026,1.954993e-05
418.54499999974024,1.966417e-05,418.54499999974024,0.003490378,418.54499999974024,3.38777e-05,418.54499999974024,1.985806e-05
418.5599999997402,1.971496e-05,418.5599999997402,0.003554464,418.5599999997402,3.309781e-05,418.5599999997402,2.091525e-05
418.5749999997402,1.721989e-05,418.5749999997402,0.003812796,418.5749999997402,3.15092e-05,418.5749999997402,2.218914e-05
418.5899999997402,1.6887e-05,418.5899999997402,0.003964711,418.5899999997402,2.83695e-05,418.5899999997402,2.23643e-05
418.6049999997402,1.640721e-05,418.6049999997402,0.004003519,418.6049999997402,2.737744e-05,418.6049999997402,2.208095e-05
418.6199999997402,1.633148e-05,418.6199999997402,0.004091508,418.6199999997402,2.982478e-05,418.6199999997402,2.212238e-05
418.63499999974016,1.530192e-05,418.63499999974016,0.004140869,418.63499999974016,3.073521e-05,418.63499999974016,2.207457e-05
418.64999999974015,1.470286e-05,418.64999999974015,0.004167536,418.64999999974015,2.785033e-05,418.64999999974015,2.321908e-05
418.66499999974013,1.482309e-05,418.66499999974013,0.004091542,418.66499999974013,2.800015e-05,418.66499999974013,2.373569e-05
418.6799999997401,1.240723e-05,418.6799999997401,0.004026356,418.6799999997401,2.742577e-05,418.6799999997401,2.293216e-05
418.6949999997401,1.346251e-05,418.6949999997401,0.004057311,418.6949999997401,3.029946e-05,418.6949999997401,2.355817e-05
418.7099999997401,1.404327e-05,418.7099999997401,0.004086212,418.7099999997401,3.16221e-05,418.7099999997401,2.37155e-05
418.7249999997401,1.481359e-05,418.7249999997401,0.004203573,418.7249999997401,3.570813e-05,418.7249999997401,2.353783e-05
418.73999999974006,1.483734e-05,418.73999999974006,0.004228761,418.73999999974006,3.68795e-05,418.73999999974006,2.27366e-05
418.75499999974005,1.480883e-05,418.75499999974005,0.004105358,418.75499999974005,3.667727e-05,418.75499999974005,2.326756e-05
418.76999999974004,1.35116e-05,418.76999999974004,0.003870457,418.76999999974004,3.491708e-05,418.76999999974004,2.220246e-05
418.78499999974,1.351265e-05,418.78499999974,0.003732744,418.78499999974,3.584083e-05,418.78499999974,2.223733e-05
418.79999999974,1.363614e-05,418.79999999974,0.003815961,418.79999999974,3.55682e-05,418.79999999974,2.188937e-05
418.81499999974,1.358957e-05,418.81499999974,0.003898629,418.81499999974,3.650248e-05,418.81499999974,2.042112e-05
418.82999999974,1.373803e-05,418.82999999974,0.003893837,418.82999999974,4.14856e-05,418.82999999974,2.126657e-05
418.84499999973997,1.370415e-05,418.84499999973997,0.003950843,418.84499999973997,4.339479e-05,418.84499999973997,2.23189e-05
418.85999999973996,1.358646e-05,418.85999999973996,0.003819497,418.85999999973996,4.41402e-05,418.85999999973996,2.275271e-05
418.87499999973994,1.356259e-05,418.87499999973994,0.003909438,418.87499999973994,4.54986e-05,418.87499999973994,2.351627e-05
418.8899999997399,1.53387e-05,418.8899999997399,0.003958219,418.8899999997399,5.098916e-05,418.8899999997399,2.326211e-05
418.9049999997399,1.576175e-05,418.9049999997399,0.004141952,418.9049999997399,5.186161e-05,418.9049999997399,2.28725e-05
418.9199999997399,1.67387e-05,418.9199999997399,0.00427922,418.9199999997399,5.347731e-05,418.9199999997399,2.253497e-05
418.9349999997399,1.697353e-05,418.9349999997399,0.004409692,418.9349999997399,5.429709e-05,418.9349999997399,2.19985e-05
418.9499999997399,1.744502e-05,418.9499999997399,0.004380621,418.9499999997399,5.47662e-05,418.9499999997399,2.357132e-05
418.96499999973986,1.621375e-05,418.96499999973986,0.004219137,418.96499999973986,5.243805e-05,418.96499999973986,2.36953e-05
418.97999999973985,1.699427e-05,418.97999999973985,0.004239024,418.97999999973985,5.110727e-05,418.97999999973985,2.398953e-05
418.99499999973983,1.718386e-05,418.99499999973983,0.004331236,418.99499999973983,5.080705e-05,418.99499999973983,2.212874e-05
419.0099999997398,1.802094e-05,419.0099999997398,0.004508092,419.0099999997398,5.075546e-05,419.0099999997398,2.187521e-05
419.0249999997398,1.849467e-05,419.0249999997398,0.004762074,419.0249999997398,5.065823e-05,419.0249999997398,2.210327e-05
419.0399999997398,1.860781e-05,419.0399999997398,0.004842344,419.0399999997398,5.067185e-05,419.0399999997398,2.284353e-05
419.0549999997398,1.857675e-05,419.0549999997398,0.00488623,419.0549999997398,5.013272e-05,419.0549999997398,2.372441e-05
419.06999999973976,1.89149e-05,419.06999999973976,0.004924839,419.06999999973976,4.843636e-05,419.06999999973976,2.37991e-05
419.08499999973975,1.955426e-05,419.08499999973975,0.004972515,419.08499999973975,4.352962e-05,419.08499999973975,2.153317e-05
419.09999999973974,1.999168e-05,419.09999999973974,0.004997128,419.09999999973974,4.365565e-05,419.09999999973974,2.126988e-05
419.1149999997397,2.049823e-05,419.1149999997397,0.005032626,419.1149999997397,4.364661e-05,419.1149999997397,2.090852e-05
419.1299999997397,2.000084e-05,419.1299999997397,0.004971564,419.1299999997397,4.091254e-05,419.1299999997397,2.031877e-05
419.1449999997397,2.113235e-05,419.1449999997397,0.004959827,419.1449999997397,3.567103e-05,419.1449999997397,1.99317e-05
419.1599999997397,2.123409e-05,419.1599999997397,0.004921934,419.1599999997397,3.371556e-05,419.1599999997397,1.989916e-05
419.17499999973967,2.10863e-05,419.17499999973967,0.004942964,419.17499999973967,4.871042e-05,419.17499999973967,1.943793e-05
419.18999999973965,2.232142e-05,419.18999999973965,0.00485647,419.18999999973965,4.905536e-05,419.18999999973965,1.922002e-05
419.20499999973964,2.144401e-05,419.20499999973964,0.004880526,419.20499999973964,4.915547e-05,419.20499999973964,1.664841e-05
419.2199999997396,2.164344e-05,419.2199999997396,0.004911641,419.2199999997396,5.147392e-05,419.2199999997396,1.677149e-05
419.2349999997396,2.251809e-05,419.2349999997396,0.005013399,419.2349999997396,5.245927e-05,419.2349999997396,1.654997e-05
419.2499999997396,2.2414e-05,419.2499999997396,0.005058634,419.2499999997396,5.440776e-05,419.2499999997396,1.6068e-05
419.2649999997396,2.262916e-05,419.2649999997396,0.005053248,419.2649999997396,5.853464e-05,419.2649999997396,1.601356e-05
419.2799999997396,2.271491e-05,419.2799999997396,0.004963387,419.2799999997396,5.82403e-05,419.2799999997396,1.50915e-05
419.29499999973956,2.352705e-05,419.29499999973956,0.005044727,419.29499999973956,6.020853e-05,419.29499999973956,1.368254e-05
419.30999999973955,2.548878e-05,419.30999999973955,0.00502487,419.30999999973955,6.148348e-05,419.30999999973955,1.222768e-05
419.32499999973953,3.143266e-05,419.32499999973953,0.004996357,419.32499999973953,6.281644e-05,419.32499999973953,1.171342e-05
419.3399999997395,3.160517e-05,419.3399999997395,0.004939351,419.3399999997395,6.720051e-05,419.3399999997395,1.165072e-05
419.3549999997395,3.151143e-05,419.3549999997395,0.004947735,419.3549999997395,6.678375e-05,419.3549999997395,1.190429e-05
419.3699999997395,3.180068e-05,419.3699999997395,0.00508967,419.3699999997395,6.69872e-05,419.3699999997395,1.003733e-05
419.3849999997395,3.207019e-05,419.3849999997395,0.005091453,419.3849999997395,6.652762e-05,419.3849999997395,9.557095e-06
419.39999999973946,3.061075e-05,419.39999999973946,0.004966171,419.39999999973946,6.612557e-05,419.39999999973946,9.988088e-06
419.41499999973945,3.066041e-05,419.41499999973945,0.004935905,419.41499999973945,6.555345e-05,419.41499999973945,9.595341e-06
419.42999999973944,3.203283e-05,419.42999999973944,0.004913689,419.42999999973944,5.604808e-05,419.42999999973944,9.359006e-06
419.4449999997394,3.164437e-05,419.4449999997394,0.00505553,419.4449999997394,5.701911e-05,419.4449999997394,9.392062e-06
419.4599999997394,3.259172e-05,419.4599999997394,0.005045062,419.4599999997394,5.44163e-05,419.4599999997394,9.165859e-06
419.4749999997394,3.316117e-05,419.4749999997394,0.004937235,419.4749999997394,5.439144e-05,419.4749999997394,8.705536e-06
419.4899999997394,3.259907e-05,419.4899999997394,0.004790974,419.4899999997394,5.267873e-05,419.4899999997394,8.731387e-06
419.50499999973937,3.254717e-05,419.50499999973937,0.004656729,419.50499999973937,5.188795e-05,419.50499999973937,8.555373e-06
419.51999999973935,3.25069e-05,419.51999999973935,0.004561681,419.51999999973935,4.784822e-05,419.51999999973935,8.446003e-06
419.53499999973934,3.311015e-05,419.53499999973934,0.004607432,419.53499999973934,4.703104e-05,419.53499999973934,8.43599e-06
419.5499999997393,3.245225e-05,419.5499999997393,0.004546781,419.5499999997393,4.688916e-05,419.5499999997393,8.28094e-06
419.5649999997393,3.087833e-05,419.5649999997393,0.004347417,419.5649999997393,4.484748e-05,419.5649999997393,8.195444e-06
419.5799999997393,2.469267e-05,419.5799999997393,0.004064616,419.5799999997393,4.114601e-05,419.5799999997393,8.325052e-06
419.5949999997393,2.462412e-05,419.5949999997393,0.004238382,419.5949999997393,3.488519e-05,419.5949999997393,8.770023e-06
419.6099999997393,2.445593e-05,419.6099999997393,0.004344395,419.6099999997393,3.247828e-05,419.6099999997393,8.197163e-06
419.62499999973926,2.417845e-05,419.62499999973926,0.004173005,419.62499999973926,3.24427e-05,419.62499999973926,8.012934e-06
419.63999999973925,2.419592e-05,419.63999999973925,0.004188616,419.63999999973925,3.273405e-05,419.63999999973925,7.616361e-06
419.65499999973923,2.354441e-05,419.65499999973923,0.004280603,419.65499999973923,3.237229e-05,419.65499999973923,7.732004e-06
419.6699999997392,2.30284e-05,419.6699999997392,0.004260256,419.6699999997392,3.000044e-05,419.6699999997392,7.83696e-06
419.6849999997392,2.199466e-05,419.6849999997392,0.004295383,419.6849999997392,2.60491e-05,419.6849999997392,7.775606e-06
419.6999999997392,2.183073e-05,419.6999999997392,0.004087452,419.6999999997392,2.824559e-05,419.6999999997392,8.596438e-06
419.7149999997392,2.03354e-05,419.7149999997392,0.00382437,419.7149999997392,3.059326e-05,419.7149999997392,9.937185e-06
419.72999999973916,1.856082e-05,419.72999999973916,0.003790224,419.72999999973916,3.471924e-05,419.72999999973916,1.178655e-05
419.74499999973915,1.852283e-05,419.74499999973915,0.003773569,419.74499999973915,4.411754e-05,419.74499999973915,1.219307e-05
419.75999999973914,1.806856e-05,419.75999999973914,0.003843148,419.75999999973914,4.480946e-05,419.75999999973914,1.434792e-05
419.7749999997391,1.61807e-05,419.7749999997391,0.003927351,419.7749999997391,4.42699e-05,419.7749999997391,1.844128e-05
419.7899999997391,1.58642e-05,419.7899999997391,0.003914515,419.7899999997391,4.339479e-05,419.7899999997391,1.844357e-05
419.8049999997391,1.526321e-05,419.8049999997391,0.003863613,419.8049999997391,4.333177e-05,419.8049999997391,1.899517e-05
419.8199999997391,1.555484e-05,419.8199999997391,0.003815207,419.8199999997391,4.350308e-05,419.8199999997391,2.040801e-05
419.83499999973907,1.478694e-05,419.83499999973907,0.003961876,419.83499999973907,4.408432e-05,419.83499999973907,2.108363e-05
419.84999999973905,1.470095e-05,419.84999999973905,0.003934637,419.84999999973905,4.412552e-05,419.84999999973905,2.095025e-05
419.86499999973904,1.404729e-05,419.86499999973904,0.003962311,419.86499999973904,4.377423e-05,419.86499999973904,2.154102e-05
419.879999999739,1.363304e-05,419.879999999739,0.003968946,419.879999999739,4.301069e-05,419.879999999739,2.157304e-05
419.894999999739,1.340694e-05,419.894999999739,0.003966881,419.894999999739,4.26905e-05,419.894999999739,2.171751e-05
419.909999999739,1.324308e-05,419.909999999739,0.003983226,419.909999999739,4.266607e-05,419.909999999739,2.186426e-05
419.924999999739,1.169055e-05,419.924999999739,0.00399459,419.924999999739,4.265947e-05,419.924999999739,2.197543e-05
419.939999999739,1.007095e-05,419.939999999739,0.004001447,419.939999999739,4.226569e-05,419.939999999739,2.180878e-05
419.95499999973896,1.092181e-05,419.95499999973896,0.004115439,419.95499999973896,3.792613e-05,419.95499999973896,2.150043e-05
419.96999999973895,1.072398e-05,419.96999999973895,0.004280516,419.96999999973895,3.66023e-05,419.96999999973895,2.084982e-05
419.98499999973893,1.132454e-05,419.98499999973893,0.004488925,419.98499999973893,1.759217e-05,419.98499999973893,1.982043e-05
419.9999999997389,1.164588e-05,419.9999999997389,0.004631761,419.9999999997389,1.646549e-05,419.9999999997389,1.901592e-05
420.0149999997389,1.249998e-05,420.0149999997389,0.004690151,420.0149999997389,1.482214e-05,420.0149999997389,1.504476e-05
420.0299999997389,1.238564e-05,420.0299999997389,0.004709894,420.0299999997389,1.418202e-05,420.0299999997389,1.358957e-05
420.0449999997389,1.740865e-05,420.0449999997389,0.004717633,420.0449999997389,1.073054e-05,420.0449999997389,1.34489e-05
420.05999999973886,2.619793e-05,420.05999999973886,0.004796917,420.05999999973886,1.010168e-05,420.05999999973886,1.182474e-05
420.07499999973885,2.629936e-05,420.07499999973885,0.004820736,420.07499999973885,8.419275e-06,420.07499999973885,9.683024e-06
420.08999999973884,2.623124e-05,420.08999999973884,0.004834887,420.08999999973884,5.154366e-06,420.08999999973884,8.724932e-06
420.1049999997388,2.625164e-05,420.1049999997388,0.004837028,420.1049999997388,4.998978e-06,420.1049999997388,8.663363e-06
420.1199999997388,3.045203e-05,420.1199999997388,0.004967914,420.1199999997388,5.449287e-06,420.1199999997388,7.283574e-06
420.1349999997388,4.297957e-05,420.1349999997388,0.005036373,420.1349999997388,5.674694e-06,420.1349999997388,6.732826e-06
420.1499999997388,4.368178e-05,420.1499999997388,0.004963587,420.1499999997388,5.751133e-06,420.1499999997388,6.389304e-06
420.16499999973877,4.403956e-05,420.16499999973877,0.004930839,420.16499999973877,5.814468e-06,420.16499999973877,5.518642e-06
420.17999999973875,4.405811e-05,420.17999999973875,0.004833511,420.17999999973875,5.850696e-06,420.17999999973875,5.126963e-06
420.19499999973874,4.436399e-05,420.19499999973874,0.004894879,420.19499999973874,5.908198e-06,420.19499999973874,5.096651e-06
420.2099999997387,4.581546e-05,420.2099999997387,0.005011518,420.2099999997387,6.351713e-06,420.2099999997387,5.071714e-06
420.2249999997387,4.59205e-05,420.2249999997387,0.004894029,420.2249999997387,6.520246e-06,420.2249999997387,4.876302e-06
420.2399999997387,4.582131e-05,420.2399999997387,0.004669803,420.2399999997387,6.589018e-06,420.2399999997387,4.953686e-06
420.2549999997387,4.569694e-05,420.2549999997387,0.004449698,420.2549999997387,6.580461e-06,420.2549999997387,4.882076e-06
420.2699999997387,4.549117e-05,420.2699999997387,0.004537732,420.2699999997387,6.450741e-06,420.2699999997387,4.812329e-06
420.28499999973866,4.549055e-05,420.28499999973866,0.004371503,420.28499999973866,6.50294e-06,420.28499999973866,4.785911e-06
420.29999999973865,4.028277e-05,420.29999999973865,0.004198765,420.29999999973865,6.135114e-06,420.29999999973865,4.768218e-06
420.31499999973863,3.900464e-05,420.31499999973863,0.004086587,420.31499999973863,6.178585e-06,420.31499999973863,4.308857e-06
420.3299999997386,3.887586e-05,420.3299999997386,0.004160596,420.3299999997386,6.224016e-06,420.3299999997386,4.20294e-06
420.3449999997386,3.885121e-05,420.3449999997386,0.004191901,420.3449999997386,6.203613e-06,420.3449999997386,4.169289e-06
420.3599999997386,3.806331e-05,420.3599999997386,0.003974788,420.3599999997386,6.030905e-06,420.3599999997386,4.042345e-06
420.3749999997386,3.495418e-05,420.3749999997386,0.003869881,420.3749999997386,6.260124e-06,420.3749999997386,3.658189e-06
420.38999999973856,1.81921e-05,420.38999999973856,0.003786083,420.38999999973856,6.302733e-06,420.38999999973856,3.599965e-06
420.40499999973855,1.616067e-05,420.40499999973855,0.003849745,420.40499999973855,6.612493e-06,420.40499999973855,3.603876e-06
420.41999999973854,1.584109e-05,420.41999999973854,0.003824028,420.41999999973854,6.520246e-06,420.41999999973854,3.500774e-06
420.4349999997385,1.618679e-05,420.4349999997385,0.003923666,420.4349999997385,6.400318e-06,420.4349999997385,3.82387e-06
420.4499999997385,1.424841e-05,420.4499999997385,0.00394079,420.4499999997385,6.311667e-06,420.4499999997385,4.152361e-06
420.4649999997385,8.400851e-06,420.4649999997385,0.003984317,420.4649999997385,5.75603e-06,420.4649999997385,4.179412e-06
420.4799999997385,8.515764e-06,420.4799999997385,0.004123393,420.4799999997385,5.862722e-06,420.4799999997385,4.155752e-06
420.49499999973847,8.373978e-06,420.49499999973847,0.004327571,420.49499999973847,5.763367e-06,420.49499999973847,4.186148e-06
420.50999999973845,8.509145e-06,420.50999999973845,0.004425787,420.50999999973845,5.850696e-06,420.50999999973845,4.347911e-06
420.52499999973844,8.487596e-06,420.52499999973844,0.004465907,420.52499999973844,5.920107e-06,420.52499999973844,4.347911e-06
420.5399999997384,8.46433e-06,420.5399999997384,0.004611089,420.5399999997384,5.826569e-06,420.5399999997384,4.494475e-06
420.5549999997384,8.43432e-06,420.5549999997384,0.004742995,420.5549999997384,5.807196e-06,420.5549999997384,4.639445e-06
420.5699999997384,8.447671e-06,420.5699999997384,0.004858937,420.5699999997384,5.792623e-06,420.5699999997384,4.624239e-06
420.5849999997384,8.681231e-06,420.5849999997384,0.004860134,420.5849999997384,5.898653e-06,420.5849999997384,5.001795e-06
420.5999999997384,8.707154e-06,420.5999999997384,0.004901411,420.5999999997384,6.139704e-06,420.5999999997384,5.057808e-06
420.61499999973836,8.647087e-06,420.61499999973836,0.004966794,420.61499999973836,6.855157e-06,420.61499999973836,5.08004e-06
420.62999999973835,8.474309e-06,420.62999999973835,0.005098952,420.62999999973835,7.083556e-06,420.62999999973835,5.305204e-06
420.64499999973833,8.500864e-06,420.64499999973833,0.005106421,420.64499999973833,7.517698e-06,420.64499999973833,5.454455e-06
420.6599999997383,8.512456e-06,420.6599999997383,0.005112475,420.6599999997383,7.087532e-06,420.6599999997383,5.420777e-06
420.6749999997383,7.876405e-06,420.6749999997383,0.005186524,420.6749999997383,7.779228e-06,420.6749999997383,5.60727e-06
420.6899999997383,7.013608e-06,420.6899999997383,0.004998432,420.6899999997383,1.244237e-05,420.6899999997383,5.200618e-06
420.7049999997383,6.918566e-06,420.7049999997383,0.004885056,420.7049999997383,1.493292e-05,420.7049999997383,5.192486e-06
420.71999999973826,6.633762e-06,420.71999999973826,0.004701068,420.71999999973826,1.907361e-05,420.71999999973826,5.113207e-06
420.73499999973825,6.311667e-06,420.73499999973825,0.004586177,420.73499999973825,3.880695e-05,420.73499999973825,5.060592e-06
420.74999999973824,6.19907e-06,420.74999999973824,0.004461598,420.74999999973824,4.33334e-05,420.74999999973824,5.018664e-06
420.7649999997382,5.979298e-06,420.7649999997382,0.004310391,420.7649999997382,4.756831e-05,420.7649999997382,5.007424e-06
420.7799999997382,5.93674e-06,420.7799999997382,0.004207299,420.7799999997382,5.560093e-05,420.7799999997382,4.970719e-06
420.7949999997382,6.030905e-06,420.7949999997382,0.004174442,420.7949999997382,6.632786e-05,420.7949999997382,4.838602e-06
420.8099999997382,6.105191e-06,420.8099999997382,0.004069779,420.8099999997382,7.231536e-05,420.8099999997382,4.615091e-06
420.82499999973817,6.056544e-06,420.82499999973817,0.004001808,420.82499999973817,7.301287e-05,420.82499999973817,4.587538e-06
420.83999999973815,5.719203e-06,420.83999999973815,0.003887536,420.83999999973815,7.334167e-05,420.83999999973815,4.383405e-06
420.85499999973814,5.594695e-06,420.85499999973814,0.003862279,420.85499999973814,7.459289e-05,420.85499999973814,4.431347e-06
420.8699999997381,5.602244e-06,420.8699999997381,0.003842272,420.8699999997381,7.601514e-05,420.8699999997381,4.399444e-06
420.8849999997381,5.518642e-06,420.8849999997381,0.003629133,420.8849999997381,7.681666e-05,420.8849999997381,4.049309e-06
420.8999999997381,5.352786e-06,420.8999999997381,0.003487054,420.8999999997381,7.703494e-05,420.8999999997381,3.96849e-06
420.9149999997381,5.358047e-06,420.9149999997381,0.003323517,420.9149999997381,7.708155e-05,420.9149999997381,3.882364e-06
420.9299999997381,5.331691e-06,420.9299999997381,0.003253471,420.9299999997381,7.705962e-05,420.9299999997381,3.856882e-06
420.94499999973806,5.289249e-06,420.94499999973806,0.003227551,420.94499999973806,7.653963e-05,420.94499999973806,3.8751e-06
420.95999999973805,5.265225e-06,420.95999999973805,0.003177952,420.95999999973805,7.619265e-05,420.95999999973805,3.900464e-06
420.97499999973803,5.032679e-06,420.97499999973803,0.003219279,420.97499999973803,7.541401e-05,420.97499999973803,3.92925e-06
420.989999999738,4.882076e-06,420.989999999738,0.003345871,420.989999999738,6.736341e-05,420.989999999738,3.99326e-06
421.004999999738,4.870521e-06,421.004999999738,0.003280262,421.004999999738,7.092916e-05,421.004999999738,3.979125e-06
421.019999999738,4.832776e-06,421.019999999738,0.003272884,421.019999999738,6.998911e-05,421.019999999738,3.896851e-06
421.034999999738,4.87919e-06,421.034999999738,0.003199223,421.034999999738,6.415048e-05,421.034999999738,4.242968e-06
421.04999999973796,4.942298e-06,421.04999999973796,0.003010337,421.04999999973796,5.552208e-05,421.04999999973796,4.308857e-06
421.06499999973795,4.925167e-06,421.06499999973795,0.002854025,421.06499999973795,5.785445e-05,421.06499999973795,4.325173e-06
421.07999999973794,4.717728e-06,421.07999999973794,0.002851304,421.07999999973794,6.661966e-05,421.07999999973794,4.48192e-06
421.0949999997379,4.910845e-06,421.0949999997379,0.002788177,421.0949999997379,7.380463e-05,421.0949999997379,4.192873e-06
421.1099999997379,5.068936e-06,421.1099999997379,0.002617707,421.1099999997379,7.462083e-05,421.1099999997379,4.328428e-06
421.1249999997379,5.286585e-06,421.1249999997379,0.002575228,421.1249999997379,7.885932e-05,421.1249999997379,4.376973e-06
421.1399999997379,5.753582e-06,421.1399999997379,0.002841805,421.1399999997379,8.42446e-05,421.1399999997379,5.286585e-06
421.15499999973787,5.706874e-06,421.15499999973787,0.002932514,421.15499999973787,8.639737e-05,421.15499999973787,5.243778e-06
421.16999999973785,6.021555e-06,421.16999999973785,0.002939501,421.16999999973785,8.643584e-05,421.16999999973785,5.230329e-06
421.18499999973784,6.007502e-06,421.18499999973784,0.002951043,421.18499999973784,8.644627e-05,421.18499999973784,5.302549e-06
421.1999999997378,6.356147e-06,421.1999999997378,0.002931025,421.1999999997378,8.642671e-05,421.1999999997378,5.286585e-06
421.2149999997378,6.42229e-06,421.2149999997378,0.002910011,421.2149999997378,8.628904e-05,421.2149999997378,5.257193e-06
421.2299999997378,6.526725e-06,421.2299999997378,0.002807975,421.2299999997378,8.454421e-05,421.2299999997378,5.184341e-06
421.2449999997378,6.507271e-06,421.2449999997378,0.002757354,421.2449999997378,8.138767e-05,421.2449999997378,5.208738e-06
421.2599999997378,6.711871e-06,421.2599999997378,0.002762341,421.2599999997378,7.759647e-05,421.2599999997378,5.192486e-06
421.27499999973776,6.820134e-06,421.27499999973776,0.002847442,421.27499999973776,7.545379e-05,421.27499999973776,5.238403e-06
421.28999999973774,6.686639e-06,421.28999999973774,0.002920766,421.28999999973774,7.447023e-05,421.28999999973774,5.063375e-06
421.30499999973773,6.669763e-06,421.30499999973773,0.002922397,421.30499999973773,7.297061e-05,421.30499999973773,5.027078e-06
421.3199999997377,6.597564e-06,421.3199999997377,0.002975669,421.3199999997377,6.525041e-05,421.3199999997377,4.861837e-06
421.3349999997377,6.524566e-06,421.3349999997377,0.003086048,421.3349999997377,5.897602e-05,421.3349999997377,4.729657e-06
421.3499999997377,6.526725e-06,421.3499999997377,0.003286171,421.3499999997377,4.530251e-05,421.3499999997377,4.726678e-06
421.3649999997377,6.187698e-06,421.3649999997377,0.003130624,421.3649999997377,4.260264e-05,421.3649999997377,4.565993e-06
421.37999999973766,6.148874e-06,421.37999999973766,0.003102048,421.37999999973766,3.132042e-05,421.37999999973766,4.444044e-06
421.39499999973765,5.748683e-06,421.39499999973765,0.003028218,421.39499999973765,1.556389e-05,421.39499999973765,3.730636e-06
421.40999999973764,5.969867e-06,421.40999999973764,0.003050857,421.40999999973764,7.899621e-06,421.40999999973764,3.801702e-06
421.4249999997376,5.785323e-06,421.4249999997376,0.003170386,421.4249999997376,7.508323e-06,421.4249999997376,4.024883e-06
421.4399999997376,5.889093e-06,421.4399999997376,0.003377155,421.4399999997376,7.549485e-06,421.4399999997376,3.947135e-06
421.4549999997376,5.644828e-06,421.4549999997376,0.003629768,421.4549999997376,7.540149e-06,421.4549999997376,4.114875e-06
421.4699999997376,5.898653e-06,421.4699999997376,0.003792775,421.4699999997376,7.168558e-06,421.4699999997376,4.272744e-06
421.48499999973757,6.185421e-06,421.48499999973757,0.00386602,421.48499999973757,6.171741e-06,421.48499999973757,4.556728e-06
421.49999999973755,6.356147e-06,421.49999999973755,0.004098579,421.49999999973755,5.912964e-06,421.49999999973755,5.297233e-06
421.51499999973754,6.387099e-06,421.51499999973754,0.004181374,421.51499999973754,5.81689e-06,421.51499999973754,5.222243e-06
421.5299999997375,7.065636e-06,421.5299999997375,0.004265152,421.5299999997375,5.619817e-06,421.5299999997375,5.334332e-06
421.5449999997375,7.291306e-06,421.5449999997375,0.004401174,421.5449999997375,7.071614e-06,421.5449999997375,5.56946e-06
421.5599999997375,8.625883e-06,421.5599999997375,0.004577422,421.5599999997375,7.34712e-06,421.5599999997375,5.748683e-06
421.5749999997375,9.477167e-06,421.5749999997375,0.004644554,421.5749999997375,7.493299e-06,421.5749999997375,5.896265e-06
421.5899999997375,9.784329e-06,421.5899999997375,0.004583433,421.5899999997375,7.93698e-06,421.5899999997375,6.049562e-06
421.60499999973746,1.079076e-05,421.60499999973746,0.004442651,421.60499999973746,9.88887e-06,421.60499999973746,6.883865e-06
421.61999999973744,1.091407e-05,421.61999999973744,0.004650942,421.61999999973744,1.121831e-05,421.61999999973744,8.357139e-06
421.63499999973743,1.14667e-05,421.63499999973743,0.004748757,421.63499999973743,1.335958e-05,421.63499999973743,1.16483e-05
421.6499999997374,1.154627e-05,421.6499999997374,0.004963846,421.6499999997374,1.75296e-05,421.6499999997374,1.219769e-05
421.6649999997374,1.152673e-05,421.6649999997374,0.005108402,421.6649999997374,1.823696e-05,421.6649999997374,1.315664e-05
421.6799999997374,1.2134e-05,421.6799999997374,0.00507958,421.6799999997374,2.618125e-05,421.6799999997374,1.355532e-05
421.6949999997374,1.215836e-05,421.6949999997374,0.005070376,421.6949999997374,3.668264e-05,421.6949999997374,1.369284e-05
421.70999999973736,1.228858e-05,421.70999999973736,0.005073214,421.70999999973736,3.855786e-05,421.70999999973736,1.421773e-05
421.72499999973735,1.199506e-05,421.72499999973735,0.005024402,421.72499999973735,3.913336e-05,421.72499999973735,1.504851e-05
421.73999999973734,1.194091e-05,421.73999999973734,0.004956426,421.73999999973734,4.119972e-05,421.73999999973734,1.499505e-05
421.7549999997373,1.197037e-05,421.7549999997373,0.004795522,421.7549999997373,4.492186e-05,421.7549999997373,1.501008e-05
421.7699999997373,1.179731e-05,421.7699999997373,0.004751471,421.7699999997373,5.063291e-05,421.7699999997373,1.5301e-05
421.7849999997373,1.196448e-05,421.7849999997373,0.004808275,421.7849999997373,5.253976e-05,421.7849999997373,1.539645e-05
421.7999999997373,1.179253e-05,421.7999999997373,0.004808274,421.7999999997373,5.332008e-05,421.7999999997373,1.543027e-05
421.81499999973727,1.097842e-05,421.81499999973727,0.004693839,421.81499999973727,5.375763e-05,421.81499999973727,1.560276e-05
421.82999999973725,1.097714e-05,421.82999999973725,0.004736403,421.82999999973725,5.570648e-05,421.82999999973725,1.563342e-05
421.84499999973724,1.069109e-05,421.84499999973724,0.00478226,421.84499999973724,5.714201e-05,421.84499999973724,1.574834e-05
421.8599999997372,1.021952e-05,421.8599999997372,0.004721117,421.8599999997372,5.710773e-05,421.8599999997372,1.50803e-05
421.8749999997372,1.006816e-05,421.8749999997372,0.004751327,421.8749999997372,5.710946e-05,421.8749999997372,1.365781e-05
421.8899999997372,1.079076e-05,421.8899999997372,0.004814919,421.8899999997372,5.723265e-05,421.8899999997372,1.251575e-05
421.9049999997372,1.116544e-05,421.9049999997372,0.004757932,421.9049999997372,5.611414e-05,421.9049999997372,1.1896e-05
421.9199999997372,1.423259e-05,421.9199999997372,0.004719616,421.9199999997372,5.526116e-05,421.9199999997372,1.176263e-05
421.93499999973716,1.45352e-05,421.93499999973716,0.004763836,421.93499999973716,5.292258e-05,421.93499999973716,1.154505e-05
421.94999999973714,1.494235e-05,421.94999999973714,0.004763836,421.94999999973714,4.731175e-05,421.94999999973714,1.162288e-05
421.96499999973713,1.806778e-05,421.96499999973713,0.004769557,421.96499999973713,4.628928e-05,421.96499999973713,1.023055e-05
421.9799999997371,1.822769e-05,421.9799999997371,0.004934632,421.9799999997371,4.483115e-05,421.9799999997371,1.011004e-05
421.9949999997371,1.846189e-05,421.9949999997371,0.004838128,421.9949999997371,4.382762e-05,421.9949999997371,1.010447e-05
422.0099999997371,1.85e-05,422.0099999997371,0.004881825,422.0099999997371,3.961029e-05,422.0099999997371,9.96691e-06
422.0249999997371,1.83816e-05,422.0249999997371,0.004888915,422.0249999997371,3.441564e-05,422.0249999997371,9.383058e-06
422.03999999973706,1.835322e-05,422.03999999973706,0.00488938,422.03999999973706,3.19571e-05,422.03999999973706,9.286478e-06
422.05499999973705,1.838236e-05,422.05499999973705,0.004906635,422.05499999973705,3.160383e-05,422.05499999973705,9.179681e-06
422.06999999973704,1.920462e-05,422.06999999973704,0.00477236,422.06999999973704,3.131817e-05,422.06999999973704,8.944963e-06
422.084999999737,1.922002e-05,422.084999999737,0.004842564,422.084999999737,2.72795e-05,422.084999999737,8.937085e-06
422.099999999737,1.967634e-05,422.099999999737,0.004880912,422.099999999737,2.447666e-05,422.099999999737,8.650345e-06
422.114999999737,1.995924e-05,422.114999999737,0.004808025,422.114999999737,2.45439e-05,422.114999999737,8.758771e-06
422.129999999737,1.988571e-05,422.129999999737,0.004717696,422.129999999737,2.373034e-05,422.129999999737,8.70068e-06
422.14499999973697,1.938423e-05,422.14499999973697,0.004728673,422.14499999973697,2.253935e-05,422.14499999973697,7.71011e-06
422.15999999973695,1.88081e-05,422.15999999973695,0.004592909,422.15999999973695,2.239451e-05,422.15999999973695,7.48201e-06
422.17499999973694,1.772221e-05,422.17499999973694,0.004464585,422.17499999973694,2.193951e-05,422.17499999973694,7.16266e-06
422.1899999997369,1.75553e-05,422.1899999997369,0.004337859,422.1899999997369,1.976349e-05,422.1899999997369,6.511599e-06
422.2049999997369,1.751111e-05,422.2049999997369,0.004330536,422.2049999997369,1.919729e-05,422.2049999997369,6.444187e-06
422.2199999997369,1.514089e-05,422.2199999997369,0.004160742,422.2199999997369,1.881409e-05,422.2199999997369,6.291548e-06
422.2349999997369,1.545307e-05,422.2349999997369,0.003947978,422.2349999997369,1.828555e-05,422.2349999997369,5.714275e-06
422.2499999997369,1.544122e-05,422.2499999997369,0.003776465,422.2499999997369,1.825549e-05,422.2499999997369,5.597212e-06
422.26499999973686,1.570534e-05,422.26499999973686,0.003587704,422.26499999973686,1.301779e-05,422.26499999973686,5.614802e-06
422.27999999973684,1.628743e-05,422.27999999973684,0.003235959,422.27999999973684,1.227711e-05,422.27999999973684,5.652309e-06
422.29499999973683,1.613711e-05,422.29499999973683,0.00292168,422.29499999973683,1.174945e-05,422.29499999973683,5.365928e-06
422.3099999997368,1.590322e-05,422.3099999997368,0.002909189,422.3099999997368,1.156699e-05,422.3099999997368,5.780451e-06
422.3249999997368,1.521977e-05,422.3249999997368,0.003019832,422.3249999997368,8.859515e-06,422.3249999997368,5.674694e-06
422.3399999997368,1.46395e-05,422.3399999997368,0.002897894,422.3399999997368,9.1289e-06,422.3399999997368,5.809621e-06
422.3549999997368,1.448472e-05,422.3549999997368,0.002668614,422.3549999997368,9.339419e-06,422.3549999997368,5.642331e-06
422.36999999973676,1.465392e-05,422.36999999973676,0.002567752,422.36999999973676,8.643829e-06,422.36999999973676,5.559333e-06
422.38499999973675,1.464719e-05,422.38499999973675,0.002282557,422.38499999973675,8.598076e-06,422.38499999973675,5.551726e-06
422.39999999973674,1.384426e-05,422.39999999973674,0.00200962,422.39999999973674,8.758771e-06,422.39999999973674,5.257193e-06
422.4149999997367,1.350952e-05,422.4149999997367,0.002059669,422.4149999997367,8.733001e-06,422.4149999997367,5.219545e-06
422.4299999997367,1.58979e-05,422.4299999997367,0.002061442,422.4299999997367,8.843601e-06,422.4299999997367,5.208738e-06
422.4449999997367,1.674291e-05,422.4449999997367,0.001941869,422.4449999997367,8.818078e-06,422.4449999997367,5.254512e-06
422.4599999997367,1.644066e-05,422.4599999997367,0.001657285,422.4599999997367,8.864284e-06,422.4599999997367,5.211442e-06
422.47499999973667,1.572865e-05,422.47499999973667,0.001605639,422.47499999973667,8.952834e-06,422.47499999973667,5.170737e-06
422.48999999973665,1.56856e-05,422.48999999973665,0.001615381,422.48999999973665,8.995216e-06,422.48999999973665,5.206033e-06
422.50499999973664,1.550222e-05,422.50499999973664,0.001620123,422.50499999973664,8.851561e-06,422.50499999973664,5.14616e-06
422.5199999997366,1.552764e-05,422.5199999997366,0.001567943,422.5199999997366,8.744285e-06,422.5199999997366,5.066156e-06
422.5349999997366,1.571521e-05,422.5349999997366,0.001498195,422.5349999997366,8.2229e-06,422.5349999997366,5.099414e-06
422.5499999997366,1.582864e-05,422.5499999997366,0.00149274,422.5499999997366,7.656943e-06,422.5499999997366,4.478776e-06
422.5649999997366,1.584909e-05,422.5649999997366,0.001819645,422.5649999997366,7.735647e-06,422.5649999997366,4.405843e-06
422.5799999997366,1.740136e-05,422.5799999997366,0.001990351,422.5799999997366,7.680822e-06,422.5799999997366,4.059732e-06
422.59499999973656,1.864336e-05,422.59499999973656,0.002182656,422.59499999973656,7.186222e-06,422.59499999973656,4.007346e-06
422.60999999973654,2.052364e-05,422.60999999973654,0.002282124,422.60999999973654,7.043671e-06,422.60999999973654,3.885991e-06
422.62499999973653,2.115833e-05,422.62499999973653,0.002490222,422.62499999973653,7.176414e-06,422.62499999973653,3.91848e-06
422.6399999997365,2.370837e-05,422.6399999997365,0.002707154,422.6399999997365,7.266147e-06,422.6399999997365,4.031877e-06
422.6549999997365,2.801625e-05,422.6549999997365,0.002673709,422.6549999997365,7.575563e-06,422.6549999997365,4.010859e-06
422.6699999997365,3.094987e-05,422.6699999997365,0.002723543,422.6699999997365,7.917432e-06,422.6699999997365,4.114875e-06
422.6849999997365,3.06999e-05,422.6849999997365,0.002725801,422.6849999997365,8.674737e-06,422.6849999997365,3.954266e-06
422.69999999973646,3.164926e-05,422.69999999973646,0.002940846,422.69999999973646,8.753946e-06,422.69999999973646,4.142171e-06
422.71499999973645,3.384608e-05,422.71499999973645,0.003094908,422.71499999973645,9.937185e-06,422.71499999973645,4.165909e-06
422.72999999973644,4.051082e-05,422.72999999973644,0.003122124,422.72999999973644,1.144948e-05,422.72999999973644,4.155752e-06
422.7449999997364,4.205553e-05,422.7449999997364,0.003140474,422.7449999997364,1.168814e-05,422.7449999997364,4.331681e-06
422.7599999997364,4.240544e-05,422.7599999997364,0.003224439,422.7599999997364,1.30286e-05,422.7599999997364,4.318654e-06
422.7749999997364,4.243367e-05,422.7749999997364,0.00328505,422.7749999997364,1.35989e-05,422.7749999997364,4.73561e-06
422.7899999997364,4.327614e-05,422.7899999997364,0.003316894,422.7899999997364,1.362787e-05,422.7899999997364,4.780021e-06
422.80499999973637,4.33295e-05,422.80499999973637,0.003312505,422.80499999973637,1.3989e-05,422.80499999973637,4.913713e-06
422.81999999973635,4.335874e-05,422.81999999973635,0.003177201,422.81999999973635,1.40503e-05,422.81999999973635,4.993339e-06
422.83499999973634,4.286864e-05,422.83499999973634,0.003163489,422.83499999973634,1.410433e-05,422.83499999973634,5.027078e-06
422.8499999997363,4.284366e-05,422.8499999997363,0.003188438,422.8499999997363,1.431155e-05,422.8499999997363,5.032679e-06
422.8649999997363,4.381155e-05,422.8649999997363,0.003056334,422.8649999997363,1.438714e-05,422.8649999997363,5.049445e-06
422.8799999997363,4.45269e-05,422.8799999997363,0.003003515,422.8799999997363,1.437048e-05,422.8799999997363,5.015856e-06
422.8949999997363,4.341199e-05,422.8949999997363,0.003035499,422.8949999997363,1.422962e-05,422.8949999997363,5.071714e-06
422.90999999973627,4.078978e-05,422.90999999973627,0.003118678,422.90999999973627,1.419989e-05,422.90999999973627,5.168013e-06
422.92499999973626,3.870154e-05,422.92499999973626,0.003174477,422.92499999973626,1.378409e-05,422.92499999973626,5.208738e-06
422.93999999973624,3.836668e-05,422.93999999973624,0.003354534,422.93999999973624,1.352098e-05,422.93999999973624,5.173461e-06
422.95499999973623,3.753936e-05,422.95499999973623,0.003451607,422.95499999973623,1.342899e-05,422.95499999973623,5.02147e-06
422.9699999997362,3.398398e-05,422.9699999997362,0.003505785,422.9699999997362,1.165072e-05,422.9699999997362,4.987693e-06
422.9849999997362,2.810861e-05,422.9849999997362,0.003475273,422.9849999997362,1.077247e-05,422.9849999997362,4.990517e-06
422.9999999997362,2.591845e-05,422.9999999997362,0.003531222,422.9999999997362,9.932932e-06,422.9999999997362,4.947995e-06
423.0149999997362,2.534134e-05,423.0149999997362,0.003553777,423.0149999997362,8.826061e-06,423.0149999997362,4.996159e-06
423.02999999973616,2.419767e-05,423.02999999973616,0.003689204,423.02999999973616,8.107309e-06,423.02999999973616,4.541245e-06
423.04499999973615,2.406457e-05,423.04499999973615,0.003776881,423.04499999973615,8.162721e-06,423.04499999973615,4.370531e-06
423.05999999973614,2.408213e-05,423.05999999973614,0.003800825,423.05999999973614,7.697311e-06,423.05999999973614,4.4377e-06
423.0749999997361,2.395368e-05,423.0749999997361,0.003654914,423.0749999997361,7.510198e-06,423.0749999997361,4.282623e-06
423.0899999997361,2.318022e-05,423.0899999997361,0.003550118,423.0899999997361,7.275834e-06,423.0899999997361,4.199587e-06
423.1049999997361,2.064341e-05,423.1049999997361,0.003418905,423.1049999997361,6.255622e-06,423.1049999997361,4.347911e-06
423.1199999997361,1.806155e-05,423.1199999997361,0.003405195,423.1199999997361,6.023894e-06,423.1199999997361,4.321914e-06
423.13499999973607,1.648515e-05,423.13499999973607,0.003297691,423.13499999973607,6.049562e-06,423.13499999973607,4.402644e-06
423.14999999973605,1.627878e-05,423.14999999973605,0.00311704,423.14999999973605,5.790191e-06,423.14999999973605,4.17604e-06
423.16499999973604,1.633579e-05,423.16499999973604,0.003065882,423.16499999973604,5.743781e-06,423.16499999973604,4.259536e-06
423.179999999736,1.537906e-05,423.179999999736,0.003010472,423.179999999736,5.726587e-06,423.179999999736,4.469331e-06
423.194999999736,1.492254e-05,423.194999999736,0.002814967,423.194999999736,5.778013e-06,423.194999999736,4.370531e-06
423.209999999736,1.556298e-05,423.209999999736,0.002795619,423.209999999736,5.901041e-06,423.209999999736,4.35762e-06
423.224999999736,1.581795e-05,423.224999999736,0.003014991,423.224999999736,6.125922e-06,423.224999999736,4.39624e-06
423.23999999973597,1.612751e-05,423.23999999973597,0.003240239,423.23999999973597,6.580461e-06,423.23999999973597,4.266145e-06
423.25499999973596,1.660011e-05,423.25499999973596,0.003213857,423.25499999973596,6.612493e-06,423.25499999973596,4.090841e-06
423.26999999973594,1.77738e-05,423.26999999973594,0.003100864,423.26999999973594,6.612493e-06,423.26999999973594,4.199587e-06
423.28499999973593,2.209179e-05,423.28499999973593,0.002925867,423.28499999973593,6.797376e-06,423.28499999973593,4.219664e-06
423.2999999997359,2.177646e-05,423.2999999997359,0.003107941,423.2999999997359,6.953093e-06,423.2999999997359,4.17604e-06
423.3149999997359,2.230312e-05,423.3149999997359,0.003150719,423.3149999997359,6.940926e-06,423.3149999997359,4.20294e-06
423.3299999997359,2.228289e-05,423.3299999997359,0.003192391,423.3299999997359,6.877724e-06,423.3299999997359,4.192873e-06
423.3449999997359,2.241777e-05,423.3449999997359,0.003250797,423.3449999997359,6.965238e-06,423.3449999997359,4.239647e-06
423.35999999973586,2.256246e-05,423.35999999973586,0.003277726,423.35999999973586,7.059652e-06,423.35999999973586,4.104592e-06
423.37499999973585,2.278735e-05,423.37499999973585,0.003449768,423.37499999973585,7.043671e-06,423.37499999973585,4.070128e-06
423.38999999973583,2.271553e-05,423.38999999973583,0.003521968,423.38999999973583,7.077588e-06,423.38999999973583,3.90768e-06
423.4049999997358,2.318204e-05,423.4049999997358,0.003506015,423.4049999997358,7.073606e-06,423.4049999997358,3.896851e-06
423.4199999997358,2.717707e-05,423.4199999997358,0.003535132,423.4199999997358,7.48201e-06,423.4199999997358,3.90768e-06
423.4349999997358,2.718121e-05,423.4349999997358,0.003516088,423.4349999997358,7.502692e-06,423.4349999997358,3.73818e-06
423.4499999997358,2.669172e-05,423.4499999997358,0.003474811,423.4499999997358,7.320229e-06,423.4499999997358,3.816494e-06
423.46499999973577,2.623715e-05,423.46499999973577,0.003185813,423.46499999973577,7.327922e-06,423.46499999973577,3.91848e-06
423.47999999973575,2.626291e-05,423.47999999973575,0.00289626,423.47999999973575,7.085544e-06,423.47999999973575,3.936414e-06
423.49499999973574,2.578931e-05,423.49499999973574,0.002750437,423.49499999973574,6.757886e-06,423.49499999973574,3.925663e-06
423.5099999997357,2.601284e-05,423.5099999997357,0.002728362,423.5099999997357,6.743279e-06,423.5099999997357,4.007346e-06
423.5249999997357,2.386767e-05,423.5249999997357,0.002827717,423.5249999997357,6.755802e-06,423.5249999997357,4.052786e-06
423.5399999997357,2.152008e-05,423.5399999997357,0.003171836,423.5399999997357,6.688745e-06,423.5399999997357,4.189512e-06
423.5549999997357,2.48065e-05,423.5549999997357,0.003266612,423.5549999997357,6.316129e-06,423.5549999997357,4.209638e-06
423.56999999973567,2.488645e-05,423.56999999973567,0.003368824,423.56999999973567,6.226279e-06,423.56999999973567,4.155752e-06
423.58499999973566,2.483205e-05,423.58499999973566,0.003301356,423.58499999973566,6.351713e-06,423.58499999973566,4.101159e-06
423.59999999973564,2.450312e-05,423.59999999973564,0.00331382,423.59999999973564,6.121322e-06,423.59999999973564,4.125132e-06
423.61499999973563,2.432482e-05,423.61499999973563,0.00336066,423.61499999973563,6.174023e-06,423.61499999973563,4.20629e-06
423.6299999997356,2.425233e-05,423.6299999997356,0.003348067,423.6299999997356,6.304968e-06,423.6299999997356,4.199587e-06
423.6449999997356,2.414055e-05,423.6449999997356,0.003509823,423.6449999997356,6.082075e-06,423.6449999997356,4.162526e-06
423.6599999997356,2.071086e-05,423.6599999997356,0.003744051,423.6599999997356,5.624828e-06,423.6599999997356,4.080498e-06
423.6749999997356,1.845578e-05,423.6749999997356,0.003907415,423.6749999997356,5.211442e-06,423.6749999997356,3.932833e-06
423.68999999973556,1.854259e-05,423.68999999973556,0.003799045,423.68999999973556,5.189773e-06,423.68999999973556,3.996786e-06
423.70499999973555,1.849162e-05,423.70499999973555,0.004010828,423.70499999973555,5.318464e-06,423.70499999973555,4.17604e-06
423.71999999973553,1.825317e-05,423.71999999973553,0.004219277,423.71999999973553,5.291911e-06,423.71999999973553,4.125132e-06
423.7349999997355,1.846571e-05,423.7349999997355,0.004177502,423.7349999997355,5.121465e-06,423.7349999997355,4.145571e-06
423.7499999997355,1.827631e-05,423.7499999997355,0.004203183,423.7499999997355,5.052234e-06,423.7499999997355,4.148967e-06
423.7649999997355,1.771744e-05,423.7649999997355,0.004237706,423.7649999997355,5.071714e-06,423.7649999997355,4.114875e-06
423.7799999997355,1.756813e-05,423.7799999997355,0.004253061,423.7799999997355,4.884961e-06,423.7799999997355,4.045829e-06
423.79499999973547,1.629521e-05,423.79499999973547,0.004296363,423.79499999973547,4.788854e-06,423.79499999973547,3.979125e-06
423.80999999973545,1.267123e-05,423.80999999973545,0.004286201,423.80999999973545,4.663672e-06,423.80999999973545,3.91848e-06
423.82499999973544,1.345833e-05,423.82499999973544,0.00427494,423.82499999973544,4.612038e-06,423.82499999973544,3.939991e-06
423.8399999997354,1.351265e-05,423.8399999997354,0.004440832,423.8399999997354,4.572159e-06,423.8399999997354,4.042345e-06
423.8549999997354,1.398095e-05,423.8549999997354,0.004472082,423.8549999997354,4.979213e-06,423.8549999997354,4.017877e-06
423.8699999997354,1.377489e-05,423.8699999997354,0.00434922,423.8699999997354,4.936594e-06,423.8699999997354,3.911283e-06
423.8849999997354,1.367122e-05,423.8849999997354,0.004461496,423.8849999997354,5.032679e-06,423.8849999997354,4.077044e-06
423.89999999973537,1.510363e-05,423.89999999973537,0.00435935,423.89999999973537,5.14616e-06,423.89999999973537,4.38019e-06
423.91499999973536,1.521792e-05,423.91499999973536,0.004146043,423.91499999973536,5.323759e-06,423.91499999973536,4.4218e-06
423.92999999973534,1.542479e-05,423.92999999973534,0.004137594,423.92999999973534,5.399948e-06,423.92999999973534,4.325173e-06
423.94499999973533,1.667716e-05,423.94499999973533,0.004188324,423.94499999973533,5.459618e-06,423.94499999973533,4.108022e-06
423.9599999997353,1.667884e-05,423.9599999997353,0.004075686,423.9599999997353,5.291911e-06,423.9599999997353,4.021382e-06
423.9749999997353,1.705798e-05,423.9749999997353,0.003939773,423.9749999997353,5.510979e-06,423.9749999997353,3.964939e-06
423.9899999997353,1.691034e-05,423.9899999997353,0.003917279,423.9899999997353,5.559333e-06,423.9899999997353,3.950702e-06
424.0049999997353,1.681176e-05,424.0049999997353,0.003810619,424.0049999997353,5.526294e-06,424.0049999997353,3.904074e-06
424.01999999973526,1.708191e-05,424.01999999973526,0.003657556,424.01999999973526,5.574516e-06,424.01999999973526,4.073587e-06
424.03499999973525,1.79426e-05,424.03499999973525,0.003732127,424.03499999973525,5.629835e-06,424.03499999973525,3.982663e-06
424.04999999973523,1.771028e-05,424.04999999973523,0.003685165,424.04999999973523,5.627332e-06,424.04999999973523,4.049309e-06
424.0649999997352,1.669488e-05,424.0649999997352,0.003760333,424.0649999997352,5.579567e-06,424.0649999997352,4.035369e-06
424.0799999997352,1.587396e-05,424.0799999997352,0.003774301,424.0799999997352,5.53139e-06,424.0799999997352,4.031877e-06
424.0949999997352,1.583398e-05,424.0949999997352,0.003686264,424.0949999997352,5.187057e-06,424.0949999997352,3.911283e-06
424.1099999997352,1.557113e-05,424.1099999997352,0.003784144,424.1099999997352,5.074491e-06,424.1099999997352,3.871464e-06
424.12499999973517,1.579567e-05,424.12499999973517,0.003955531,424.12499999973517,4.910845e-06,424.12499999973517,3.84957e-06
424.13999999973515,1.549222e-05,424.13999999973515,0.003923917,424.13999999973515,4.815255e-06,424.13999999973515,3.842245e-06
424.15499999973514,1.475069e-05,424.15499999973514,0.003978777,424.15499999973514,4.768218e-06,424.15499999973514,3.439886e-06
424.1699999997351,1.50775e-05,424.1699999997351,0.004063742,424.1699999997351,4.453544e-06,424.1699999997351,3.448066e-06
424.1849999997351,1.44993e-05,424.1849999997351,0.003924083,424.1849999997351,4.282623e-06,424.1849999997351,3.548731e-06
424.1999999997351,1.392238e-05,424.1999999997351,0.003881924,424.1999999997351,4.20294e-06,424.1999999997351,3.556662e-06
424.2149999997351,1.41979e-05,424.2149999997351,0.004052529,424.2149999997351,4.021382e-06,424.2149999997351,3.642754e-06
424.22999999973507,1.386358e-05,424.22999999973507,0.004157108,424.22999999973507,3.84957e-06,424.22999999973507,3.646619e-06
424.24499999973506,1.390213e-05,424.24499999973506,0.004250099,424.24499999973506,3.856882e-06,424.24499999973506,3.556662e-06
424.25999999973504,1.404428e-05,424.25999999973504,0.004297033,424.25999999973504,3.845909e-06,424.25999999973504,3.431686e-06
424.27499999973503,1.350848e-05,424.27499999973503,0.004137014,424.27499999973503,3.834905e-06,424.27499999973503,3.310505e-06
424.289999999735,1.349909e-05,424.289999999735,0.004127392,424.289999999735,3.84957e-06,424.289999999735,3.319004e-06
424.304999999735,1.501571e-05,424.304999999735,0.004172078,424.304999999735,3.982663e-06,424.304999999735,3.233005e-06
424.319999999735,1.506628e-05,424.319999999735,0.004259974,424.319999999735,4.186148e-06,424.319999999735,3.301983e-06
424.334999999735,1.51892e-05,424.334999999735,0.004353081,424.334999999735,4.285911e-06,424.334999999735,3.427579e-06
424.34999999973496,1.495178e-05,424.34999999973496,0.004515798,424.34999999973496,4.331681e-06,424.34999999973496,3.427579e-06
424.36499999973495,1.531941e-05,424.36499999973495,0.004324093,424.36499999973495,4.440873e-06,424.36499999973495,3.476546e-06
424.37999999973493,1.550131e-05,424.37999999973493,0.004068338,424.37999999973493,4.494475e-06,424.37999999973493,3.398688e-06
424.3949999997349,1.653805e-05,424.3949999997349,0.004037408,424.3949999997349,4.75046e-06,424.3949999997349,3.335938e-06
424.4099999997349,1.619723e-05,424.4099999997349,0.004211287,424.4099999997349,4.747494e-06,424.4099999997349,3.335938e-06
424.4249999997349,1.634614e-05,424.4249999997349,0.004298399,424.4249999997349,4.993339e-06,424.4249999997349,3.382069e-06
424.4399999997349,1.647661e-05,424.4399999997349,0.004373993,424.4399999997349,5.200618e-06,424.4399999997349,3.484641e-06
424.45499999973487,1.651418e-05,424.45499999973487,0.004407404,424.45499999973487,5.289249e-06,424.45499999973487,3.654337e-06
424.46999999973485,1.640549e-05,424.46999999973485,0.004326515,424.46999999973485,5.644828e-06,424.46999999973485,3.715501e-06
424.48499999973484,1.664503e-05,424.48499999973484,0.004262188,424.48499999973484,5.833818e-06,424.48499999973484,3.719291e-06
424.4999999997348,1.691201e-05,424.4999999997348,0.004097165,424.4999999997348,6.072803e-06,424.4999999997348,3.715501e-06
424.5149999997348,1.808571e-05,424.5149999997348,0.004023774,424.5149999997348,6.42229e-06,424.5149999997348,3.871464e-06
424.5299999997348,2.107962e-05,424.5299999997348,0.0040062,424.5299999997348,6.476893e-06,424.5299999997348,3.996786e-06
424.5449999997348,2.033887e-05,424.5449999997348,0.003978,424.5449999997348,6.476893e-06,424.5449999997348,4.162526e-06
424.55999999973477,2.000436e-05,424.55999999973477,0.003810253,424.55999999973477,6.437625e-06,424.55999999973477,4.386617e-06
424.57499999973476,2.060448e-05,424.57499999973476,0.003584569,424.57499999973476,6.561167e-06,424.57499999973476,4.418613e-06
424.58999999973474,2.049067e-05,424.58999999973474,0.003323725,424.58999999973474,6.494269e-06,424.58999999973474,4.503868e-06
424.60499999973473,2.036794e-05,424.60499999973473,0.003049063,424.60499999973473,6.554722e-06,424.60499999973473,4.535037e-06
424.6199999997347,2.027505e-05,424.6199999997347,0.003000913,424.6199999997347,6.680315e-06,424.6199999997347,4.572159e-06
424.6349999997347,2.00957e-05,424.6349999997347,0.002965167,424.6349999997347,6.659195e-06,424.6349999997347,4.559819e-06
424.6499999997347,1.95924e-05,424.6499999997347,0.002757608,424.6499999997347,6.809799e-06,424.6499999997347,4.618143e-06
424.6649999997347,2.006413e-05,424.6649999997347,0.002435804,424.6649999997347,6.716067e-06,424.6649999997347,4.587538e-06
424.67999999973466,1.930923e-05,424.67999999973466,0.002254679,424.67999999973466,6.618881e-06,424.67999999973466,4.544346e-06
424.69499999973465,1.932017e-05,424.69499999973465,0.001974095,424.69499999973465,6.682424e-06,424.69499999973465,4.431347e-06
424.70999999973463,1.915174e-05,424.70999999973463,0.001569955,424.70999999973463,6.446372e-06,424.70999999973463,4.450379e-06
424.7249999997346,1.890671e-05,424.7249999997346,0.001353504,424.7249999997346,6.400318e-06,424.7249999997346,4.578317e-06
424.7399999997346,1.886195e-05,424.7399999997346,0.001472594,424.7399999997346,6.33617e-06,424.7399999997346,4.687774e-06
424.7549999997346,1.875485e-05,424.7549999997346,0.001633475,424.7549999997346,6.2781e-06,424.7549999997346,4.630328e-06
424.7699999997346,1.555031e-05,424.7699999997346,0.001681555,424.7699999997346,5.962784e-06,424.7699999997346,4.469331e-06
424.78499999973457,1.390213e-05,424.78499999973457,0.001685215,424.78499999973457,5.93674e-06,424.78499999973457,4.383405e-06
424.79999999973455,1.449833e-05,424.79999999973455,0.001819947,424.79999999973455,5.831403e-06,424.79999999973455,4.097722e-06
424.81499999973454,1.345728e-05,424.81499999973454,0.002023298,424.81499999973454,5.751133e-06,424.81499999973454,4.080498e-06
424.8299999997345,1.289274e-05,424.8299999997345,0.002106443,424.8299999997345,5.689569e-06,424.8299999997345,3.816494e-06
424.8449999997345,1.335008e-05,424.8449999997345,0.002120156,424.8449999997345,5.612292e-06,424.8449999997345,3.860533e-06
424.8599999997345,1.38137e-05,424.8599999997345,0.002118416,424.8599999997345,5.495621e-06,424.8599999997345,3.82387e-06
424.8749999997345,1.404428e-05,424.8749999997345,0.002117337,424.8749999997345,5.339611e-06,424.8749999997345,3.794284e-06
424.88999999973447,1.43891e-05,424.88999999973447,0.002118603,424.88999999973447,5.211442e-06,424.88999999973447,3.853228e-06
424.90499999973446,1.361649e-05,424.90499999973446,0.002149618,424.90499999973446,5.024275e-06,424.90499999973446,3.83123e-06
424.91999999973444,1.303941e-05,424.91999999973444,0.002170257,424.91999999973444,5.124215e-06,424.91999999973444,3.904074e-06
424.93499999973443,1.318552e-05,424.93499999973443,0.002065314,424.93499999973443,5.018664e-06,424.93499999973443,3.856882e-06
424.9499999997344,1.375647e-05,424.9499999997344,0.002064866,424.9499999997344,4.887844e-06,424.9499999997344,3.979125e-06
424.9649999997344,1.383408e-05,424.9649999997344,0.002078563,424.9649999997344,4.967884e-06,424.9649999997344,3.867824e-06
424.9799999997344,1.386154e-05,424.9799999997344,0.00193006,424.9799999997344,4.68176e-06,424.9799999997344,3.619477e-06
424.9949999997344,1.38035e-05,424.9949999997344,0.001810129,424.9949999997344,4.497608e-06,424.9949999997344,3.654337e-06
425.00999999973436,1.38351e-05,425.00999999973436,0.001577629,425.00999999973436,4.338181e-06,425.00999999973436,3.79057e-06
425.02499999973435,1.586331e-05,425.02499999973435,0.00155456,425.02499999973435,4.389827e-06,425.02499999973435,3.801702e-06
425.03999999973433,1.597039e-05,425.03999999973433,0.001577056,425.03999999973433,4.412233e-06,425.03999999973433,3.867824e-06
425.0549999997343,1.552038e-05,425.0549999997343,0.001544747,425.0549999997343,4.38019e-06,425.0549999997343,3.885991e-06
425.0699999997343,1.559824e-05,425.0699999997343,0.001523552,425.0699999997343,4.34467e-06,425.0699999997343,4.000309e-06
425.0849999997343,1.570176e-05,425.0849999997343,0.001517196,425.0849999997343,4.35115e-06,425.0849999997343,3.972038e-06
425.0999999997343,1.526136e-05,425.0999999997343,0.001516218,425.0999999997343,4.321914e-06,425.0999999997343,3.957827e-06
425.11499999973427,1.493481e-05,425.11499999973427,0.001516202,425.11499999973427,4.373753e-06,425.11499999973427,3.950702e-06
425.12999999973425,1.50775e-05,425.12999999973425,0.001516186,425.12999999973425,4.299038e-06,425.12999999973425,3.90768e-06
425.14499999973424,1.56172e-05,425.14499999973424,0.001501073,425.14499999973424,4.104592e-06,425.14499999973424,3.812802e-06
425.1599999997342,1.56172e-05,425.1599999997342,0.001438114,425.1599999997342,3.986198e-06,425.1599999997342,3.838577e-06
425.1749999997342,1.5768e-05,425.1749999997342,0.001441298,425.1749999997342,3.996786e-06,425.1749999997342,3.756974e-06
425.1899999997342,1.592888e-05,425.1899999997342,0.001424079,425.1899999997342,4.010859e-06,425.1899999997342,3.599965e-06
425.2049999997342,1.541565e-05,425.2049999997342,0.001440649,425.2049999997342,4.080498e-06,425.2049999997342,3.57641e-06
425.21999999973417,1.531021e-05,425.21999999973417,0.00142377,425.21999999973417,3.950702e-06,425.21999999973417,3.588207e-06
425.23499999973416,1.585354e-05,425.23499999973416,0.001396502,425.23499999973416,3.957827e-06,425.23499999973416,3.696496e-06
425.24999999973414,1.602675e-05,425.24999999973414,0.001344937,425.24999999973414,4.003829e-06,425.24999999973414,3.92925e-06
425.26499999973413,1.58402e-05,425.26499999973413,0.001285519,425.26499999973413,4.199587e-06,425.26499999973413,3.838577e-06
425.2799999997341,1.331522e-05,425.2799999997341,0.00116614,425.2799999997341,4.145571e-06,425.2799999997341,3.827552e-06
425.2949999997341,1.33131e-05,425.2949999997341,0.001124994,425.2949999997341,4.073587e-06,425.2949999997341,3.922073e-06
425.3099999997341,1.355116e-05,425.3099999997341,0.0009267161,425.3099999997341,4.334932e-06,425.3099999997341,3.834905e-06
425.3249999997341,1.383e-05,425.3249999997341,0.0007389833,425.3249999997341,4.409039e-06,425.3249999997341,3.896851e-06
425.33999999973406,1.328662e-05,425.33999999973406,0.0007001936,425.33999999973406,4.341427e-06,425.33999999973406,4.017877e-06
425.35499999973405,1.365781e-05,425.35499999973405,0.0007053135,425.35499999973405,4.328428e-06,425.35499999973405,4.135364e-06
425.36999999973403,1.368049e-05,425.36999999973403,0.0007390935,425.36999999973403,4.405843e-06,425.36999999973403,4.138769e-06
425.384999999734,1.317162e-05,425.384999999734,0.0009672852,425.384999999734,4.708762e-06,425.384999999734,4.142171e-06
425.399999999734,1.23697e-05,425.399999999734,0.001001155,425.399999999734,4.759348e-06,425.399999999734,4.334932e-06
425.414999999734,1.260323e-05,425.414999999734,0.001033436,425.414999999734,4.847328e-06,425.414999999734,4.354386e-06
425.429999999734,1.285883e-05,425.429999999734,0.001013463,425.429999999734,4.847328e-06,425.429999999734,4.444044e-06
425.44499999973397,1.303941e-05,425.44499999973397,0.001041743,425.44499999973397,4.87919e-06,425.44499999973397,4.618143e-06
425.45999999973395,1.309116e-05,425.45999999973395,0.001079613,425.45999999973395,4.864733e-06,425.45999999973395,4.70577e-06
425.47499999973394,1.302103e-05,425.47499999973394,0.001104766,425.47499999973394,5.015856e-06,425.47499999973394,4.690778e-06
425.4899999997339,1.228973e-05,425.4899999997339,0.001122374,425.4899999997339,5.043863e-06,425.4899999997339,4.723696e-06
425.5049999997339,1.244464e-05,425.5049999997339,0.001206571,425.5049999997339,5.088352e-06,425.5049999997339,4.651575e-06
425.5199999997339,1.273112e-05,425.5199999997339,0.001252098,425.5199999997339,4.965048e-06,425.5199999997339,4.675739e-06
425.5349999997339,1.432827e-05,425.5349999997339,0.001261142,425.5349999997339,5.060592e-06,425.5349999997339,4.612038e-06
425.54999999973387,1.433908e-05,425.54999999973387,0.001259014,425.54999999973387,5.046655e-06,425.54999999973387,4.618143e-06
425.56499999973386,1.478027e-05,425.56499999973386,0.001246074,425.56499999973386,4.858938e-06,425.56499999973386,4.663672e-06
425.57999999973384,1.487811e-05,425.57999999973384,0.001243531,425.57999999973384,5.013047e-06,425.57999999973384,4.584466e-06
425.59499999973383,1.481454e-05,425.59499999973383,0.001224467,425.59499999973383,5.099414e-06,425.59499999973383,4.553636e-06
425.6099999997338,1.538455e-05,425.6099999997338,0.001218765,425.6099999997338,5.384273e-06,425.6099999997338,4.578317e-06
425.6249999997338,1.573133e-05,425.6249999997338,0.001159401,425.6249999997338,5.428567e-06,425.6249999997338,4.562907e-06
425.6399999997338,1.570624e-05,425.6399999997338,0.001003159,425.6399999997338,5.743781e-06,425.6399999997338,4.590608e-06
425.6549999997338,1.536989e-05,425.6549999997338,0.0009700368,425.6549999997338,5.955692e-06,425.6549999997338,4.666692e-06
425.66999999973376,1.662894e-05,425.66999999973376,0.0009429479,425.66999999973376,6.709772e-06,425.66999999973376,4.942298e-06
425.68499999973375,1.762577e-05,425.68499999973375,0.000931102,425.68499999973375,7.001547e-06,425.68499999973375,4.910845e-06
425.69999999973373,1.737057e-05,425.69999999973373,0.0008091006,425.69999999973373,7.049668e-06,425.69999999973373,4.93374e-06
425.7149999997337,1.748213e-05,425.7149999997337,0.0006065982,425.7149999997337,7.831566e-06,425.7149999997337,4.967884e-06
425.7299999997337,1.793632e-05,425.7299999997337,0.0005744482,425.7299999997337,8.343643e-06,425.7299999997337,5.102175e-06
425.7449999997337,1.748857e-05,425.7449999997337,0.0005015132,425.7449999997337,8.43766e-06,425.7449999997337,5.038274e-06
425.7599999997337,1.731208e-05,425.7599999997337,0.000301817,425.7599999997337,8.578393e-06,425.7599999997337,5.110451e-06
425.77499999973367,1.693282e-05,425.77499999973367,0.0001325426,425.77499999973367,8.703918e-06,425.77499999973367,5.203327e-06
425.78999999973365,1.602147e-05,425.78999999973365,6.347032e-05,425.78999999973365,8.803689e-06,425.78999999973365,5.297233e-06
425.80499999973364,1.585709e-05,425.80499999973364,6.123853e-05,425.80499999973364,8.884918e-06,425.80499999973364,5.289249e-06
425.8199999997336,1.577872e-05,425.8199999997336,5.530269e-05,425.8199999997336,8.830848e-06,425.8199999997336,5.315815e-06
425.8349999997336,1.513531e-05,425.8349999997336,4.285386e-05,425.8349999997336,8.827657e-06,425.8349999997336,5.297233e-06
425.8499999997336,1.499975e-05,425.8499999997336,3.044556e-05,425.8499999997336,8.789276e-06,425.8499999997336,5.441526e-06
425.8649999997336,1.636336e-05,425.8649999997336,2.201834e-05,425.8649999997336,8.658483e-06,425.8649999997336,5.358047e-06
425.87999999973357,1.620941e-05,425.87999999973357,1.695194e-05,425.87999999973357,8.750726e-06,425.87999999973357,5.397339e-06
425.89499999973356,1.617809e-05,425.89499999973356,1.423358e-05,425.89499999973356,8.454338e-06,425.89499999973356,5.173461e-06
425.90999999973354,1.541565e-05,425.90999999973354,1.302969e-05,425.90999999973354,8.136793e-06,425.90999999973354,5.052234e-06
425.92499999973353,1.406132e-05,425.92499999973353,1.152429e-05,425.92499999973353,7.68449e-06,425.92499999973353,5.035477e-06
425.9399999997335,1.298203e-05,425.9399999997335,9.321302e-06,425.9399999997335,7.41962e-06,425.9399999997335,4.893604e-06
425.9549999997335,1.282373e-05,425.9549999997335,7.254505e-06,425.9549999997335,7.017624e-06,425.9549999997335,4.824024e-06
425.9699999997335,1.347611e-05,425.9699999997335,5.510979e-06,425.9699999997335,6.444187e-06,425.9699999997335,4.711753e-06
425.9849999997335,1.291894e-05,425.9849999997335,4.114875e-06,425.9849999997335,5.629835e-06,425.9849999997335,4.249604e-06
425.99999999973346,1.290694e-05,425.99999999973346,3.552699e-06,425.99999999973346,5.556798e-06,425.99999999973346,4.325173e-06
426.01499999973345,1.30707e-05,426.01499999973345,3.662038e-06,426.01499999973345,5.192486e-06,426.01499999973345,4.318654e-06
426.02999999973343,1.380758e-05,426.02999999973343,3.536803e-06,426.02999999973343,5.187057e-06,426.02999999973343,4.20294e-06
426.0449999997334,1.353452e-05,426.0449999997334,3.548731e-06,426.0449999997334,4.993339e-06,426.0449999997334,4.145571e-06
426.0599999997334,1.302644e-05,426.0599999997334,3.276286e-06,426.0599999997334,4.95937e-06,426.0599999997334,4.090841e-06
426.0749999997334,1.298637e-05,426.0749999997334,3.211145e-06,426.0749999997334,5.077266e-06,426.0749999997334,4.17604e-06
426.0899999997334,1.410034e-05,426.0899999997334,3.24605e-06,426.0899999997334,4.987693e-06,426.0899999997334,4.138769e-06
426.10499999973337,1.379227e-05,426.10499999973337,3.516832e-06,426.10499999973337,5.038274e-06,426.10499999973337,3.986198e-06
426.11999999973335,1.17746e-05,426.11999999973335,0.0006829131,426.11999999973335,5.02147e-06,426.11999999973335,4.101159e-06
426.13499999973334,1.208398e-05,426.13499999973334,0.001448762,426.13499999973334,5.124215e-06,426.13499999973334,4.239647e-06
426.1499999997333,1.215024e-05,426.1499999997333,0.001734855,426.1499999997333,5.238403e-06,426.1499999997333,4.308857e-06
426.1649999997333,1.277199e-05,426.1649999997333,0.002231147,426.1649999997333,6.384893e-06,426.1649999997333,4.459865e-06
426.1799999997333,1.344262e-05,426.1799999997333,0.002599785,426.1799999997333,7.896054e-06,426.1799999997333,4.633369e-06
426.1949999997333,1.37329e-05,426.1949999997333,0.002782873,426.1949999997333,8.935509e-06,426.1949999997333,4.864733e-06
426.20999999973327,1.518178e-05,426.20999999973327,0.002910976,426.20999999973327,1.026628e-05,426.20999999973327,5.001795e-06
426.22499999973326,1.485063e-05,426.22499999973326,0.00301111,426.22499999973326,1.136179e-05,426.22499999973326,5.110451e-06
426.23999999973324,1.50831e-05,426.23999999973324,0.003059052,426.23999999973324,1.139151e-05,426.23999999973324,5.110451e-06
426.25499999973323,1.517435e-05,426.25499999973323,0.003315034,426.25499999973323,1.152429e-05,426.25499999973323,5.010237e-06
426.2699999997332,1.499787e-05,426.2699999997332,0.003619449,426.2699999997332,1.185924e-05,426.2699999997332,5.216845e-06
426.2849999997332,1.455651e-05,426.2849999997332,0.003778919,426.2849999997332,1.231149e-05,426.2849999997332,5.339611e-06
426.2999999997332,1.459227e-05,426.2999999997332,0.003855738,426.2999999997332,1.237653e-05,426.2999999997332,5.323759e-06
426.3149999997332,1.517157e-05,426.3149999997332,0.004074096,426.3149999997332,1.249096e-05,426.3149999997332,5.407768e-06
426.32999999973316,1.452745e-05,426.32999999973316,0.004195574,426.32999999973316,1.247855e-05,426.32999999973316,5.405162e-06
426.34499999973315,1.433417e-05,426.34499999973315,0.004265109,426.34499999973315,1.243445e-05,426.34499999973315,5.500745e-06
426.35999999973313,1.806544e-05,426.35999999973313,0.004338394,426.35999999973313,1.247516e-05,426.35999999973313,5.508422e-06
426.3749999997331,1.82632e-05,426.3749999997331,0.004226406,426.3749999997331,1.242084e-05,426.3749999997331,5.487926e-06
426.3899999997331,1.812461e-05,426.3899999997331,0.003984593,426.3899999997331,1.236515e-05,426.3899999997331,5.438937e-06
426.4049999997331,1.769914e-05,426.4049999997331,0.003884798,426.4049999997331,1.233892e-05,426.4049999997331,5.275916e-06
426.4199999997331,1.78205e-05,426.4199999997331,0.003668301,426.4199999997331,1.140511e-05,426.4199999997331,5.2679e-06
426.43499999973307,1.730395e-05,426.43499999973307,0.003446888,426.43499999973307,1.072135e-05,426.43499999973307,4.841512e-06
426.44999999973305,1.601004e-05,426.44999999973305,0.003248505,426.44999999973305,9.743934e-06,426.44999999973305,4.987693e-06
426.46499999973304,1.619637e-05,426.46499999973304,0.003127951,426.46499999973304,8.599714e-06,426.46499999973304,5.010237e-06
426.479999999733,1.921049e-05,426.479999999733,0.002948327,426.479999999733,7.506446e-06,426.479999999733,4.902232e-06
426.494999999733,1.958161e-05,426.494999999733,0.002991653,426.494999999733,7.553216e-06,426.494999999733,4.956529e-06
426.509999999733,1.965772e-05,426.509999999733,0.003002142,426.509999999733,7.178377e-06,426.509999999733,5.043863e-06
426.524999999733,1.975208e-05,426.524999999733,0.00280418,426.524999999733,6.450741e-06,426.524999999733,4.803539e-06
426.53999999973297,2.027435e-05,426.53999999973297,0.00260157,426.53999999973297,6.446372e-06,426.53999999973297,4.744526e-06
426.55499999973296,2.158217e-05,426.55499999973296,0.002461169,426.55499999973296,6.466009e-06,426.55499999973296,4.654602e-06
426.56999999973294,2.163823e-05,426.56999999973294,0.00211636,426.56999999973294,6.230803e-06,426.56999999973294,4.633369e-06
426.58499999973293,2.190095e-05,426.58499999973293,0.001976983,426.58499999973293,6.320588e-06,426.58499999973293,4.459865e-06
426.5999999997329,2.34833e-05,426.5999999997329,0.001820379,426.5999999997329,6.395915e-06,426.5999999997329,4.531929e-06
426.6149999997329,2.087953e-05,426.6149999997329,0.001695652,426.6149999997329,6.470365e-06,426.6149999997329,4.415424e-06
426.6299999997329,2.186941e-05,426.6299999997329,0.001673355,426.6299999997329,6.522406e-06,426.6299999997329,4.494475e-06
426.6449999997329,2.187649e-05,426.6449999997329,0.001739118,426.6449999997329,6.701369e-06,426.6449999997329,4.541245e-06
426.65999999973286,2.195748e-05,426.65999999973286,0.00174623,426.65999999973286,6.64861e-06,426.65999999973286,4.899358e-06
426.67499999973285,2.265529e-05,426.67499999973285,0.001742216,426.67499999973285,6.391509e-06,426.67499999973285,4.905105e-06
426.68999999973283,2.259241e-05,426.68999999973283,0.001818652,426.68999999973283,6.420096e-06,426.68999999973283,4.838602e-06
426.7049999997328,2.277127e-05,426.7049999997328,0.001827824,426.7049999997328,6.474718e-06,426.7049999997328,4.738583e-06
426.7199999997328,2.209498e-05,426.7199999997328,0.001727804,426.7199999997328,6.393712e-06,426.7199999997328,4.753424e-06
426.7349999997328,1.969781e-05,426.7349999997328,0.001699706,426.7349999997328,6.21269e-06,426.7349999997328,4.812329e-06
426.7499999997328,2.084509e-05,426.7499999997328,0.001577031,426.7499999997328,6.139704e-06,426.7499999997328,4.714741e-06
426.76499999973277,2.112435e-05,426.76499999973277,0.001236545,426.76499999973277,6.116717e-06,426.76499999973277,4.639445e-06
426.77999999973275,2.116632e-05,426.77999999973275,0.00121472,426.77999999973275,5.795054e-06,426.77999999973275,4.633369e-06
426.79499999973274,2.085455e-05,426.79499999973274,0.001210413,426.79499999973274,5.561867e-06,426.79499999973274,4.666692e-06
426.8099999997327,1.9443e-05,426.8099999997327,0.001195453,426.8099999997327,5.355417e-06,426.8099999997327,4.747494e-06
426.8249999997327,1.958521e-05,426.8249999997327,0.001163456,426.8249999997327,5.462197e-06,426.8249999997327,4.67875e-06
426.8399999997327,1.988713e-05,426.8399999997327,0.001336373,426.8399999997327,5.389503e-06,426.8399999997327,4.68176e-06
426.8549999997327,1.856992e-05,426.8549999997327,0.001435808,426.8549999997327,5.259872e-06,426.8549999997327,4.559819e-06
426.86999999973267,1.83609e-05,426.86999999973267,0.001472897,426.86999999973267,5.438937e-06,426.86999999973267,4.559819e-06
426.88499999973266,1.757374e-05,426.88499999973266,0.001456439,426.88499999973266,5.513535e-06,426.88499999973266,4.491339e-06
426.89999999973264,1.756653e-05,426.89999999973264,0.001453917,426.89999999973264,5.315815e-06,426.89999999973264,4.249604e-06
426.91499999973263,1.754005e-05,426.91499999973263,0.001450618,426.91499999973263,5.371176e-06,426.91499999973263,4.052786e-06
426.9299999997326,1.718222e-05,426.9299999997326,0.001424279,426.9299999997326,5.451871e-06,426.9299999997326,3.996786e-06
426.9449999997326,1.72158e-05,426.9449999997326,0.001332241,426.9449999997326,5.637336e-06,426.9449999997326,3.964939e-06
426.9599999997326,1.758656e-05,426.9599999997326,0.001333639,426.9599999997326,5.782887e-06,426.9599999997326,4.052786e-06
426.9749999997326,1.740136e-05,426.9749999997326,0.00132536,426.9749999997326,5.797484e-06,426.9749999997326,3.96849e-06
426.98999999973256,1.732916e-05,426.98999999973256,0.001329393,426.98999999973256,5.826569e-06,426.98999999973256,3.943564e-06
427.00499999973255,1.608553e-05,427.00499999973255,0.001293421,427.00499999973255,5.910582e-06,427.00499999973255,3.954266e-06
427.01999999973253,1.563973e-05,427.01999999973253,0.001233104,427.01999999973253,5.960421e-06,427.01999999973253,4.031877e-06
427.0349999997325,1.563883e-05,427.0349999997325,0.001186165,427.0349999997325,5.912964e-06,427.0349999997325,3.975583e-06
427.0499999997325,1.537539e-05,427.0499999997325,0.001189275,427.0499999997325,5.908198e-06,427.0499999997325,3.92925e-06
427.0649999997325,1.709757e-05,427.0649999997325,0.001163549,427.0649999997325,5.889093e-06,427.0649999997325,3.922073e-06
427.0799999997325,1.579211e-05,427.0799999997325,0.001116985,427.0799999997325,5.753582e-06,427.0799999997325,3.904074e-06
427.09499999973247,1.488284e-05,427.09499999973247,0.000906519,427.09499999973247,5.857914e-06,427.09499999973247,3.943564e-06
427.10999999973245,1.52207e-05,427.10999999973245,0.0007491769,427.10999999973245,5.748683e-06,427.10999999973245,3.91848e-06
427.12499999973244,1.463276e-05,427.12499999973244,0.0007247937,427.12499999973244,5.392116e-06,427.12499999973244,3.943564e-06
427.1399999997324,1.614846e-05,427.1399999997324,0.0006583866,427.1399999997324,5.302549e-06,427.1399999997324,4.080498e-06
427.1549999997324,1.675889e-05,427.1549999997324,0.0006208205,427.1549999997324,5.251831e-06,427.1549999997324,4.000309e-06
427.1699999997324,1.595716e-05,427.1699999997324,0.000629904,427.1699999997324,5.165286e-06,427.1699999997324,4.262842e-06
427.1849999997324,1.584643e-05,427.1849999997324,0.0006540621,427.1849999997324,5.071714e-06,427.1849999997324,4.299038e-06
427.19999999973237,1.609428e-05,427.19999999973237,0.0007381327,427.19999999973237,5.074491e-06,427.19999999973237,4.466178e-06
427.21499999973236,1.528811e-05,427.21499999973236,0.0007968991,427.21499999973236,4.953686e-06,427.21499999973236,4.418613e-06
427.22999999973234,1.519661e-05,427.22999999973234,0.0007579545,427.22999999973234,5.013047e-06,427.22999999973234,4.354386e-06
427.24499999973233,1.524751e-05,427.24499999973233,0.0007903943,427.24499999973233,4.922306e-06,427.24499999973233,4.334932e-06
427.2599999997323,1.74652e-05,427.2599999997323,0.0008013701,427.2599999997323,4.861837e-06,427.2599999997323,4.325173e-06
427.2749999997323,1.734054e-05,427.2749999997323,0.0007631955,427.2749999997323,4.930884e-06,427.2749999997323,4.289197e-06
427.2899999997323,1.696606e-05,427.2899999997323,0.0007837188,427.2899999997323,4.967884e-06,427.2899999997323,4.272744e-06
427.3049999997323,1.608728e-05,427.3049999997323,0.0008058185,427.3049999997323,4.990517e-06,427.3049999997323,4.262842e-06
427.31999999973226,1.589613e-05,427.31999999973226,0.0008114968,427.31999999973226,5.074491e-06,427.31999999973226,4.289197e-06
427.33499999973225,1.615195e-05,427.33499999973225,0.0008153148,427.33499999973225,4.873412e-06,427.33499999973225,4.259536e-06
427.34999999973223,1.585265e-05,427.34999999973223,0.0008634574,427.34999999973223,4.998978e-06,427.34999999973223,4.246287e-06
427.3649999997322,1.590145e-05,427.3649999997322,0.0009070326,427.3649999997322,4.987693e-06,427.3649999997322,4.29576e-06
427.3799999997322,1.6003e-05,427.3799999997322,0.0009038378,427.3799999997322,5.068936e-06,427.3799999997322,4.256228e-06
427.3949999997322,1.356882e-05,427.3949999997322,0.000892895,427.3949999997322,5.043863e-06,427.3949999997322,4.145571e-06
427.4099999997322,1.332051e-05,427.4099999997322,0.0008927641,427.4099999997322,5.027078e-06,427.4099999997322,4.118297e-06
427.42499999973217,1.352619e-05,427.42499999973217,0.000872215,427.42499999973217,5.032679e-06,427.42499999973217,3.797995e-06
427.43999999973215,1.379941e-05,427.43999999973215,0.0008622289,427.43999999973215,4.942298e-06,427.43999999973215,3.631134e-06
427.45499999973214,1.3602e-05,427.45499999973214,0.0007771856,427.45499999973214,4.657627e-06,427.45499999973214,3.540784e-06
427.4699999997321,1.362684e-05,427.4699999997321,0.0007216332,427.4699999997321,4.544346e-06,427.4699999997321,3.500774e-06
427.4849999997321,1.46395e-05,427.4849999997321,0.0007143343,427.4849999997321,4.513241e-06,427.4849999997321,3.492716e-06
427.4999999997321,1.443015e-05,427.4999999997321,0.0006802547,427.4999999997321,4.48192e-06,427.4999999997321,3.580347e-06
427.5149999997321,1.24966e-05,427.5149999997321,0.0006617464,427.5149999997321,4.29248e-06,427.5149999997321,3.59605e-06
427.52999999973207,1.282263e-05,427.52999999973207,0.0006597919,427.52999999973207,4.302314e-06,427.52999999973207,3.756974e-06
427.54499999973206,1.373803e-05,427.54499999973206,0.0005489701,427.54499999973206,4.412233e-06,427.54499999973206,3.696496e-06
427.55999999973204,1.342269e-05,427.55999999973204,0.0005363656,427.55999999973204,4.519479e-06,427.55999999973204,3.681221e-06
427.57499999973203,1.27455e-05,427.57499999973203,0.0005041148,427.57499999973203,4.412233e-06,427.57499999973203,3.662038e-06
427.589999999732,1.305884e-05,427.589999999732,0.0004743478,427.589999999732,4.434525e-06,427.589999999732,3.78313e-06
427.604999999732,1.320687e-05,427.604999999732,0.0004036971,427.604999999732,4.38019e-06,427.604999999732,3.794284e-06
427.619999999732,1.353868e-05,427.619999999732,0.0002945005,427.619999999732,4.341427e-06,427.619999999732,3.797995e-06
427.634999999732,1.407434e-05,427.634999999732,0.000279257,427.634999999732,4.338181e-06,427.634999999732,3.797995e-06
427.64999999973196,1.40533e-05,427.64999999973196,0.0002122948,427.64999999973196,4.29576e-06,427.64999999973196,3.842245e-06
427.66499999973195,1.392036e-05,427.66499999973195,0.0003199042,427.66499999973195,4.152361e-06,427.66499999973195,3.838577e-06
427.67999999973193,1.385544e-05,427.67999999973193,0.0003336587,427.67999999973193,4.232997e-06,427.67999999973193,3.950702e-06
427.6949999997319,1.386154e-05,427.6949999997319,0.0004112421,427.6949999997319,4.246287e-06,427.6949999997319,4.219664e-06
427.7099999997319,1.374725e-05,427.7099999997319,0.0004507336,427.7099999997319,4.27604e-06,427.7099999997319,4.17604e-06
427.7249999997319,1.447304e-05,427.7249999997319,0.0004921871,427.7249999997319,4.447213e-06,427.7249999997319,4.262842e-06
427.7399999997319,1.332791e-05,427.7399999997319,0.0005142125,427.7399999997319,4.469331e-06,427.7399999997319,4.272744e-06
427.75499999973187,1.330781e-05,427.75499999973187,0.0005209614,427.75499999973187,4.48192e-06,427.75499999973187,4.209638e-06
427.76999999973185,1.299288e-05,427.76999999973185,0.0005451092,427.76999999973185,4.602866e-06,427.76999999973185,4.169289e-06
427.78499999973184,1.419691e-05,427.78499999973184,0.0005989764,427.78499999973184,4.687774e-06,427.78499999973184,4.028382e-06
427.7999999997318,1.38351e-05,427.7999999997318,0.0006221177,427.7999999997318,4.847328e-06,427.7999999997318,4.049309e-06
427.8149999997318,1.395573e-05,427.8149999997318,0.0006257817,427.8149999997318,4.699779e-06,427.8149999997318,4.077044e-06
427.8299999997318,1.415119e-05,427.8299999997318,0.0006257912,427.8299999997318,4.896482e-06,427.8299999997318,4.242968e-06
427.8449999997318,1.421971e-05,427.8449999997318,0.0006261441,427.8449999997318,4.907976e-06,427.8449999997318,4.20629e-06
427.85999999973177,1.407734e-05,427.85999999973177,0.0006266597,427.85999999973177,4.791795e-06,427.85999999973177,4.128545e-06
427.87499999973176,1.443211e-05,427.87499999973176,0.0006269499,427.87499999973176,4.788854e-06,427.87499999973176,4.070128e-06
427.88999999973174,1.403424e-05,427.88999999973174,0.0006295752,427.88999999973174,4.777073e-06,427.88999999973174,4.118297e-06
427.90499999973173,1.476406e-05,427.90499999973173,0.0006090716,427.90499999973173,4.847328e-06,427.90499999973173,4.165909e-06
427.9199999997317,1.624239e-05,427.9199999997317,0.0005545673,427.9199999997317,4.887844e-06,427.9199999997317,4.090841e-06
427.9349999997317,1.61406e-05,427.9349999997317,0.0005624095,427.9349999997317,4.844421e-06,427.9349999997317,3.961384e-06
427.9499999997317,1.604168e-05,427.9499999997317,0.0004949,427.9499999997317,4.884961e-06,427.9499999997317,3.925663e-06
427.9649999997317,1.569458e-05,427.9649999997317,0.0004868551,427.9649999997317,4.887844e-06,427.9649999997317,4.000309e-06
427.97999999973166,1.562531e-05,427.97999999973166,0.0004870017,427.97999999973166,4.741556e-06,427.97999999973166,3.975583e-06
427.99499999973165,1.589879e-05,427.99499999973165,0.0005090248,427.99499999973165,4.774123e-06,427.99499999973165,4.028382e-06
428.00999999973163,1.575281e-05,428.00999999973163,0.0005233523,428.00999999973163,4.696781e-06,428.00999999973163,4.0632e-06
428.0249999997316,1.549858e-05,428.0249999997316,0.0004902798,428.0249999997316,4.684768e-06,428.0249999997316,4.090841e-06
428.0399999997316,1.395472e-05,428.0399999997316,0.0004565486,428.0399999997316,4.907976e-06,428.0399999997316,4.125132e-06
428.0549999997316,1.402219e-05,428.0549999997316,0.0004705338,428.0549999997316,4.648545e-06,428.0549999997316,4.073587e-06
428.0699999997316,1.40503e-05,428.0699999997316,0.0004980922,428.0699999997316,4.584466e-06,428.0699999997316,4.042345e-06
428.08499999973156,1.401315e-05,428.08499999973156,0.0005281472,428.08499999973156,4.531929e-06,428.08499999973156,3.845909e-06
428.09999999973155,1.409234e-05,428.09999999973155,0.0005411424,428.09999999973155,4.69378e-06,428.09999999973155,3.801702e-06
428.11499999973154,1.392946e-05,428.11499999973154,0.0005503143,428.11499999973154,4.765263e-06,428.11499999973154,3.860533e-06
428.1299999997315,1.305453e-05,428.1299999997315,0.0006042755,428.1299999997315,4.711753e-06,428.1299999997315,3.856882e-06
428.1449999997315,1.355324e-05,428.1449999997315,0.0006594889,428.1449999997315,4.861837e-06,428.1449999997315,3.90768e-06
428.1599999997315,1.098611e-05,428.1599999997315,0.0006826226,428.1599999997315,4.794733e-06,428.1599999997315,3.957827e-06
428.1749999997315,1.077508e-05,428.1749999997315,0.0006939826,428.1749999997315,4.780021e-06,428.1749999997315,3.975583e-06
428.18999999973147,1.145317e-05,428.18999999973147,0.0006868016,428.18999999973147,4.759348e-06,428.18999999973147,3.957827e-06
428.20499999973146,1.139646e-05,428.20499999973146,0.0007040253,428.20499999973146,4.720713e-06,428.20499999973146,3.794284e-06
428.21999999973144,1.077378e-05,428.21999999973144,0.0007477219,428.21999999973144,4.672725e-06,428.21999999973144,3.756974e-06
428.23499999973143,1.054916e-05,428.23499999973143,0.0007200138,428.23499999973143,4.621192e-06,428.23499999973143,3.816494e-06
428.2499999997314,1.049427e-05,428.2499999997314,0.0007103695,428.2499999997314,4.519479e-06,428.2499999997314,3.867824e-06
428.2649999997314,1.056117e-05,428.2649999997314,0.0006973669,428.2649999997314,4.463023e-06,428.2649999997314,3.809105e-06
428.2799999997314,1.052911e-05,428.2799999997314,0.0006985586,428.2799999997314,4.386617e-06,428.2799999997314,3.749468e-06
428.2949999997314,1.063031e-05,428.2949999997314,0.0006854293,428.2949999997314,3.99326e-06,428.2949999997314,3.730636e-06
428.30999999973136,1.075415e-05,428.30999999973136,0.0007781935,428.30999999973136,4.0632e-06,428.30999999973136,3.719291e-06
428.32499999973135,1.02388e-05,428.32499999973135,0.0008489117,428.32499999973135,3.964939e-06,428.32499999973135,3.797995e-06
428.33999999973133,1.014204e-05,428.33999999973133,0.001038269,428.33999999973133,3.845909e-06,428.33999999973133,3.768206e-06
428.3549999997313,9.714977e-06,428.3549999997313,0.001142015,428.3549999997313,3.775675e-06,428.3549999997313,3.745709e-06
428.3699999997313,1.001063e-05,428.3699999997313,0.001184668,428.3699999997313,3.623367e-06,428.3699999997313,3.681221e-06
428.3849999997313,9.502402e-06,428.3849999997313,0.001470529,428.3849999997313,3.584279e-06,428.3849999997313,3.715501e-06
428.3999999997313,9.54382e-06,428.3999999997313,0.001840475,428.3999999997313,3.382069e-06,428.3999999997313,3.623367e-06
428.41499999973126,9.518695e-06,428.41499999973126,0.002141443,428.41499999973126,3.382069e-06,428.41499999973126,3.845909e-06
428.42999999973125,1.003171e-05,428.42999999973125,0.002491087,428.42999999973125,3.276286e-06,428.42999999973125,3.842245e-06
428.44499999973124,9.221021e-06,428.44499999973124,0.002594872,428.44499999973124,3.327482e-06,428.44499999973124,3.979125e-06
428.4599999997312,9.589467e-06,428.4599999997312,0.002592933,428.4599999997312,3.319004e-06,428.4599999997312,3.957827e-06
428.4749999997312,9.873189e-06,428.4749999997312,0.002751544,428.4749999997312,3.306247e-06,428.4749999997312,3.975583e-06
428.4899999997312,1.065016e-05,428.4899999997312,0.00301393,428.4899999997312,3.504795e-06,428.4899999997312,3.896851e-06
428.5049999997312,1.069636e-05,428.5049999997312,0.003037762,428.5049999997312,3.520835e-06,428.5049999997312,4.01437e-06
428.51999999973117,1.091665e-05,428.51999999973117,0.003203001,428.51999999973117,3.786851e-06,428.51999999973117,4.035369e-06
428.53499999973116,1.107042e-05,428.53499999973116,0.003281241,428.53499999973116,3.764466e-06,428.53499999973116,4.059732e-06
428.54999999973114,1.083895e-05,428.54999999973114,0.003325332,428.54999999973114,3.996786e-06,428.54999999973114,4.128545e-06
428.5649999997311,1.082335e-05,428.5649999997311,0.003324827,428.5649999997311,4.121716e-06,428.5649999997311,4.108022e-06
428.5799999997311,1.088952e-05,428.5799999997311,0.003376024,428.5799999997311,4.052786e-06,428.5799999997311,4.104592e-06
428.5949999997311,1.081814e-05,428.5949999997311,0.003532354,428.5949999997311,4.142171e-06,428.5949999997311,4.097722e-06
428.6099999997311,1.087787e-05,428.6099999997311,0.003598777,428.6099999997311,4.169289e-06,428.6099999997311,4.138769e-06
428.6249999997311,1.062898e-05,428.6249999997311,0.003667468,428.6249999997311,4.223002e-06,428.6249999997311,4.216325e-06
428.63999999973106,1.054916e-05,428.63999999973106,0.003539031,428.63999999973106,4.428167e-06,428.63999999973106,4.266145e-06
428.65499999973105,1.032239e-05,428.65499999973105,0.003599872,428.65499999973105,4.510119e-06,428.65499999973105,4.128545e-06
428.66999999973103,1.050768e-05,428.66999999973103,0.003597153,428.66999999973103,4.559819e-06,428.66999999973103,3.911283e-06
428.684999999731,1.062368e-05,428.684999999731,0.003659363,428.684999999731,4.590608e-06,428.684999999731,4.035369e-06
428.699999999731,1.061041e-05,428.699999999731,0.003648501,428.699999999731,4.666692e-06,428.699999999731,3.950702e-06
428.714999999731,1.03142e-05,428.714999999731,0.003772595,428.714999999731,4.672725e-06,428.714999999731,3.932833e-06
428.729999999731,9.172005e-06,428.729999999731,0.003615028,428.729999999731,4.672725e-06,428.729999999731,3.943564e-06
428.74499999973096,8.54384e-06,428.74499999973096,0.003457678,428.74499999973096,4.642481e-06,428.74499999973096,3.768206e-06
428.75999999973095,8.492574e-06,428.75999999973095,0.003473876,428.75999999973095,4.618143e-06,428.75999999973095,3.627253e-06
428.77499999973094,7.8907e-06,428.77499999973094,0.003433124,428.77499999973094,4.747494e-06,428.77499999973094,3.677393e-06
428.7899999997309,7.459384e-06,428.7899999997309,0.003533161,428.7899999997309,4.777073e-06,428.7899999997309,3.599965e-06
428.8049999997309,7.538281e-06,428.8049999997309,0.003638495,428.8049999997309,4.547444e-06,428.8049999997309,3.78313e-06
428.8199999997309,7.543885e-06,428.8199999997309,0.003744816,428.8199999997309,4.4218e-06,428.8199999997309,3.692683e-06
428.8349999997309,7.901403e-06,428.8349999997309,0.00381106,428.8349999997309,4.497608e-06,428.8349999997309,3.73441e-06
428.84999999973087,8.034001e-06,428.84999999973087,0.003791119,428.84999999973087,4.424985e-06,428.84999999973087,3.719291e-06
428.86499999973086,8.049767e-06,428.86499999973086,0.003754606,428.86499999973086,4.39624e-06,428.86499999973086,3.715501e-06
428.87999999973084,8.813284e-06,428.87999999973084,0.003714821,428.87999999973084,4.386617e-06,428.87999999973084,3.685046e-06
428.8949999997308,1.031146e-05,428.8949999997308,0.003587202,428.8949999997308,4.17604e-06,428.8949999997308,3.842245e-06
428.9099999997308,1.043369e-05,428.9099999997308,0.003407939,428.9099999997308,4.05626e-06,428.9099999997308,3.893234e-06
428.9249999997308,9.719326e-06,428.9249999997308,0.003196693,428.9249999997308,3.975583e-06,428.9249999997308,3.936414e-06
428.9399999997308,1.147652e-05,428.9399999997308,0.003138785,428.9399999997308,4.148967e-06,428.9399999997308,3.896851e-06
428.9549999997308,1.217804e-05,428.9549999997308,0.003161043,428.9549999997308,4.182782e-06,428.9549999997308,4.15914e-06
428.96999999973076,1.209912e-05,428.96999999973076,0.003008176,428.96999999973076,4.199587e-06,428.96999999973076,4.256228e-06
428.98499999973075,1.235717e-05,428.98499999973075,0.002993888,428.98499999973075,4.229668e-06,428.98499999973075,4.289197e-06
428.99999999973073,1.310837e-05,428.99999999973073,0.003127034,428.99999999973073,4.104592e-06,428.99999999973073,4.584466e-06
429.0149999997307,1.335219e-05,429.0149999997307,0.003132802,429.0149999997307,3.932833e-06,429.0149999997307,4.696781e-06
429.0299999997307,1.389909e-05,429.0299999997307,0.002927873,429.0299999997307,3.91848e-06,429.0299999997307,4.824024e-06
429.0449999997307,1.398095e-05,429.0449999997307,0.002847696,429.0449999997307,3.950702e-06,429.0449999997307,4.864733e-06
429.0599999997307,1.393048e-05,429.0599999997307,0.002726188,429.0599999997307,4.045829e-06,429.0599999997307,4.832776e-06
429.07499999973066,1.392238e-05,429.07499999973066,0.002457533,429.07499999973066,4.059732e-06,429.07499999973066,4.861837e-06
429.08999999973065,1.396078e-05,429.08999999973065,0.002204173,429.08999999973065,4.052786e-06,429.08999999973065,4.993339e-06
429.10499999973064,1.395573e-05,429.10499999973064,0.001937292,429.10499999973064,4.01437e-06,429.10499999973064,5.035477e-06
429.1199999997306,1.397187e-05,429.1199999997306,0.001971945,429.1199999997306,3.989731e-06,429.1199999997306,4.876302e-06
429.1349999997306,1.469424e-05,429.1349999997306,0.001954792,429.1349999997306,4.070128e-06,429.1349999997306,4.844421e-06
429.1499999997306,1.468753e-05,429.1499999997306,0.001921315,429.1499999997306,4.097722e-06,429.1499999997306,4.732634e-06
429.1649999997306,1.494235e-05,429.1649999997306,0.001893377,429.1649999997306,4.165909e-06,429.1649999997306,4.68176e-06
429.17999999973057,1.515391e-05,429.17999999973057,0.001846126,429.17999999973057,4.259536e-06,429.17999999973057,4.729657e-06
429.19499999973056,1.396078e-05,429.19499999973056,0.001610905,429.19499999973056,3.961384e-06,429.19499999973056,4.4377e-06
429.20999999973054,1.423556e-05,429.20999999973054,0.001714488,429.20999999973054,4.148967e-06,429.20999999973054,4.47563e-06
429.2249999997305,1.565233e-05,429.2249999997305,0.001772466,429.2249999997305,4.148967e-06,429.2249999997305,4.39624e-06
429.2399999997305,1.543483e-05,429.2399999997305,0.001646103,429.2399999997305,4.216325e-06,429.2399999997305,4.513241e-06
429.2549999997305,1.498848e-05,429.2549999997305,0.001439272,429.2549999997305,4.155752e-06,429.2549999997305,4.192873e-06
429.2699999997305,1.511016e-05,429.2699999997305,0.001526419,429.2699999997305,4.15914e-06,429.2699999997305,4.367307e-06
429.2849999997305,1.783709e-05,429.2849999997305,0.001519719,429.2849999997305,4.209638e-06,429.2849999997305,4.131956e-06
429.29999999973046,1.797398e-05,429.29999999973046,0.001474831,429.29999999973046,4.17604e-06,429.29999999973046,4.097722e-06
429.31499999973045,1.86728e-05,429.31499999973045,0.001620943,429.31499999973045,4.172666e-06,429.31499999973045,4.021382e-06
429.32999999973043,1.892607e-05,429.32999999973043,0.001640135,429.32999999973043,4.302314e-06,429.32999999973043,4.118297e-06
429.3449999997304,1.918775e-05,429.3449999997304,0.001633481,429.3449999997304,4.402644e-06,429.3449999997304,4.024883e-06
429.3599999997304,1.933766e-05,429.3599999997304,0.001636523,429.3599999997304,4.729657e-06,429.3599999997304,4.094283e-06
429.3749999997304,1.980265e-05,429.3749999997304,0.001646214,429.3749999997304,4.873412e-06,429.3749999997304,4.165909e-06
429.3899999997304,1.909649e-05,429.3899999997304,0.001898833,429.3899999997304,4.922306e-06,429.3899999997304,4.165909e-06
429.40499999973036,1.951532e-05,429.40499999973036,0.002111669,429.40499999973036,4.984868e-06,429.40499999973036,4.125132e-06
429.41999999973035,1.942343e-05,429.41999999973035,0.002295644,429.41999999973035,5.035477e-06,429.41999999973035,4.125132e-06
429.43499999973034,2.000084e-05,429.43499999973034,0.002554514,429.43499999973034,5.373798e-06,429.43499999973034,4.038859e-06
429.4499999997303,1.986444e-05,429.4499999997303,0.002702289,429.4499999997303,6.047233e-06,429.4499999997303,4.186148e-06
429.4649999997303,1.929463e-05,429.4649999997303,0.002627902,429.4649999997303,6.183143e-06,429.4649999997303,4.341427e-06
429.4799999997303,1.874358e-05,429.4799999997303,0.002896372,429.4799999997303,6.567604e-06,429.4799999997303,4.52882e-06
429.4949999997303,1.954777e-05,429.4949999997303,0.003111505,429.4949999997303,6.667651e-06,429.4949999997303,4.428167e-06
429.50999999973027,2.009219e-05,429.50999999973027,0.00322169,429.50999999973027,6.734918e-06,429.50999999973027,4.334932e-06
429.52499999973026,2.005711e-05,429.52499999973026,0.003459467,429.52499999973026,6.816002e-06,429.52499999973026,4.232997e-06
429.53999999973024,1.755851e-05,429.53999999973024,0.003473005,429.53999999973024,6.859265e-06,429.53999999973024,4.393035e-06
429.5549999997302,1.948208e-05,429.5549999997302,0.003461011,429.5549999997302,7.379642e-06,429.5549999997302,4.572159e-06
429.5699999997302,1.979554e-05,429.5699999997302,0.003383656,429.5699999997302,7.417721e-06,429.5699999997302,4.497608e-06
429.5849999997302,2.058532e-05,429.5849999997302,0.003384278,429.5849999997302,7.40822e-06,429.5849999997302,4.450379e-06
429.5999999997302,2.123807e-05,429.5999999997302,0.003424426,429.5999999997302,7.417721e-06,429.5999999997302,4.34467e-06
429.6149999997302,2.113101e-05,429.6149999997302,0.003425708,429.6149999997302,7.308674e-06,429.6149999997302,4.249604e-06
429.62999999973016,2.1396e-05,429.62999999973016,0.003461252,429.62999999973016,7.429107e-06,429.62999999973016,4.232997e-06
429.64499999973015,2.171816e-05,429.64499999973015,0.003364351,429.64499999973015,7.62006e-06,429.64499999973015,4.269446e-06
429.65999999973013,2.147946e-05,429.65999999973013,0.003305535,429.65999999973013,7.680822e-06,429.65999999973013,4.262842e-06
429.6749999997301,2.225949e-05,429.6749999997301,0.003116553,429.6749999997301,7.638524e-06,429.6749999997301,4.360851e-06
429.6899999997301,2.198313e-05,429.6899999997301,0.003055916,429.6899999997301,7.562535e-06,429.6899999997301,4.29576e-06
429.7049999997301,2.220627e-05,429.7049999997301,0.003037873,429.7049999997301,6.879772e-06,429.7049999997301,4.196231e-06
429.7199999997301,2.2414e-05,429.7199999997301,0.002936967,429.7199999997301,6.680315e-06,429.7199999997301,3.96849e-06
429.73499999973006,2.261858e-05,429.73499999973006,0.002678556,429.73499999973006,6.496438e-06,429.73499999973006,3.779404e-06
429.74999999973005,2.156912e-05,429.74999999973005,0.002544486,429.74999999973005,6.444187e-06,429.74999999973005,3.67356e-06
429.76499999973004,2.198248e-05,429.76499999973004,0.002334932,429.76499999973004,6.420096e-06,429.76499999973004,3.816494e-06
429.77999999973,2.20886e-05,429.77999999973,0.002079855,429.77999999973,6.194524e-06,429.77999999973,3.82387e-06
429.79499999973,2.184234e-05,429.79499999973,0.002068796,429.79499999973,5.960421e-06,429.79499999973,3.642754e-06
429.80999999973,1.960534e-05,429.80999999973,0.002037361,429.80999999973,5.518642e-06,429.80999999973,3.603876e-06
429.82499999973,1.975066e-05,429.82499999973,0.002037913,429.82499999973,5.642331e-06,429.82499999973,3.504795e-06
429.83999999972997,1.795124e-05,429.83999999972997,0.001976467,429.83999999972997,5.394728e-06,429.83999999972997,3.496747e-06
429.85499999972996,1.859948e-05,429.85499999972996,0.001867003,429.85499999972996,5.365928e-06,429.85499999972996,3.480596e-06
429.86999999972994,1.836166e-05,429.86999999972994,0.001838459,429.86999999972994,5.102175e-06,429.86999999972994,3.512824e-06
429.8849999997299,1.741835e-05,429.8849999997299,0.001726341,429.8849999997299,4.990517e-06,429.8849999997299,3.56062e-06
429.8999999997299,1.679248e-05,429.8999999997299,0.001634617,429.8999999997299,4.578317e-06,429.8999999997299,3.532818e-06
429.9149999997299,1.708356e-05,429.9149999997299,0.001632126,429.9149999997299,4.572159e-06,429.9149999997299,3.516832e-06
429.9299999997299,1.570445e-05,429.9299999997299,0.001477974,429.9299999997299,4.83569e-06,429.9299999997299,3.335938e-06
429.9449999997299,1.602411e-05,429.9449999997299,0.001147135,429.9449999997299,5.178904e-06,429.9449999997299,3.24605e-06
429.95999999972986,1.614759e-05,429.95999999972986,0.001066815,429.95999999972986,5.035477e-06,429.95999999972986,3.24605e-06
429.97499999972985,1.563613e-05,429.97499999972985,0.001067857,429.97499999972985,5.096651e-06,429.97499999972985,3.267676e-06
429.98999999972983,1.642008e-05,429.98999999972983,0.0009875236,429.98999999972983,5.124215e-06,429.98999999972983,3.284874e-06
430.0049999997298,1.650053e-05,430.0049999997298,0.0006774075,430.0049999997298,5.104936e-06,430.0049999997298,3.331712e-06
430.0199999997298,1.578408e-05,430.0199999997298,0.0005281023,430.0199999997298,5.077266e-06,430.0199999997298,3.331712e-06
430.0349999997298,1.578765e-05,430.0349999997298,0.000537449,430.0349999997298,5.227635e-06,430.0349999997298,3.352786e-06
430.0499999997298,1.956074e-05,430.0499999997298,0.0005159551,430.0499999997298,5.326404e-06,430.0499999997298,3.460301e-06
430.06499999972976,1.910461e-05,430.06499999972976,0.0005104919,430.06499999972976,5.28392e-06,430.06499999972976,3.386231e-06
430.07999999972975,1.95557e-05,430.07999999972975,0.0005112189,430.07999999972975,5.323759e-06,430.07999999972975,3.456227e-06
430.09499999972974,1.903665e-05,430.09499999972974,0.0005155411,430.09499999972974,5.384273e-06,430.09499999972974,3.488681e-06
430.1099999997297,1.907583e-05,430.1099999997297,0.000530443,430.1099999997297,5.475077e-06,430.1099999997297,3.516832e-06
430.1249999997297,1.902629e-05,430.1249999997297,0.00054818,430.1249999997297,5.738873e-06,430.1249999997297,3.484641e-06
430.1399999997297,1.892607e-05,430.1399999997297,0.0005605609,430.1399999997297,5.853103e-06,430.1399999997297,3.480596e-06
430.1549999997297,1.9081e-05,430.1549999997297,0.0007189015,430.1549999997297,5.765811e-06,430.1549999997297,3.520835e-06
430.16999999972967,1.879312e-05,430.16999999972967,0.001074659,430.16999999972967,5.677176e-06,430.16999999972967,3.532818e-06
430.18499999972965,1.888509e-05,430.18499999972965,0.001211133,430.18499999972965,5.536481e-06,430.18499999972965,3.635012e-06
430.19999999972964,1.894467e-05,430.19999999972964,0.001784741,430.19999999972964,5.251831e-06,430.19999999972964,3.588207e-06
430.2149999997296,1.869241e-05,430.2149999997296,0.002198925,430.2149999997296,5.392116e-06,430.2149999997296,3.580347e-06
430.2299999997296,1.844204e-05,430.2299999997296,0.002244427,430.2299999997296,5.373798e-06,430.2299999997296,3.603876e-06
430.2449999997296,1.772539e-05,430.2449999997296,0.002359653,430.2449999997296,5.627332e-06,430.2449999997296,3.599965e-06
430.2599999997296,1.758256e-05,430.2599999997296,0.002428771,430.2599999997296,5.632336e-06,430.2599999997296,3.809105e-06
430.2749999997296,1.762337e-05,430.2749999997296,0.00242917,430.2749999997296,5.760922e-06,430.2749999997296,3.65048e-06
430.28999999972956,1.633493e-05,430.28999999972956,0.002440656,430.28999999972956,5.60727e-06,430.28999999972956,3.57641e-06
430.30499999972955,1.425731e-05,430.30499999972955,0.002445928,430.30499999972955,5.441526e-06,430.30499999972955,3.607783e-06
430.31999999972953,1.421872e-05,430.31999999972953,0.002577751,430.31999999972953,5.384273e-06,430.31999999972953,3.662038e-06
430.3349999997295,1.482974e-05,430.3349999997295,0.002716588,430.3349999997295,5.373798e-06,430.3349999997295,3.619477e-06
430.3499999997295,1.601707e-05,430.3499999997295,0.002725732,430.3499999997295,5.467352e-06,430.3499999997295,3.615583e-06
430.3649999997295,1.574208e-05,430.3649999997295,0.002825159,430.3649999997295,5.273245e-06,430.3649999997295,3.638885e-06
430.3799999997295,1.595628e-05,430.3799999997295,0.002960792,430.3799999997295,5.355417e-06,430.3799999997295,3.715501e-06
430.39499999972946,1.635906e-05,430.39499999972946,0.002996604,430.39499999972946,5.243778e-06,430.39499999972946,3.688867e-06
430.40999999972945,1.652527e-05,430.40999999972945,0.002961693,430.40999999972945,5.513535e-06,430.40999999972945,3.631134e-06
430.42499999972944,1.643466e-05,430.42499999972944,0.002837492,430.42499999972944,5.412975e-06,430.42499999972944,3.584279e-06
430.4399999997294,1.66069e-05,430.4399999997294,0.002850627,430.4399999997294,5.334332e-06,430.4399999997294,3.556662e-06
430.4549999997294,1.62554e-05,430.4549999997294,0.002638906,430.4549999997294,5.34752e-06,430.4549999997294,3.779404e-06
430.4699999997294,1.676897e-05,430.4699999997294,0.00243614,430.4699999997294,5.339611e-06,430.4699999997294,3.889614e-06
430.4849999997294,1.669319e-05,430.4849999997294,0.002415339,430.4849999997294,5.394728e-06,430.4849999997294,3.867824e-06
430.49999999972937,1.68126e-05,430.49999999972937,0.002295217,430.49999999972937,5.211442e-06,430.49999999972937,3.83123e-06
430.51499999972935,1.691367e-05,430.51499999972935,0.002278626,430.51499999972935,5.140683e-06,430.51499999972935,3.568524e-06
430.52999999972934,1.703649e-05,430.52999999972934,0.00226953,430.52999999972934,5.137942e-06,430.52999999972934,3.584279e-06
430.5449999997293,1.617112e-05,430.5449999997293,0.00231875,430.5449999997293,5.181623e-06,430.5449999997293,3.540784e-06
430.5599999997293,1.613187e-05,430.5599999997293,0.002430415,430.5599999997293,5.249148e-06,430.5599999997293,3.54476e-06
430.5749999997293,1.612926e-05,430.5749999997293,0.002321751,430.5749999997293,5.305204e-06,430.5749999997293,3.504795e-06
430.5899999997293,1.410133e-05,430.5899999997293,0.002233927,430.5899999997293,5.187057e-06,430.5899999997293,3.476546e-06
430.6049999997293,1.474687e-05,430.6049999997293,0.002244391,430.6049999997293,5.200618e-06,430.6049999997293,3.390388e-06
430.61999999972926,1.476692e-05,430.61999999972926,0.002139253,430.61999999972926,5.066156e-06,430.61999999972926,3.580347e-06
430.63499999972925,1.443991e-05,430.63499999972925,0.002103475,430.63499999972925,4.973552e-06,430.63499999972925,3.745709e-06
430.64999999972923,1.369387e-05,430.64999999972923,0.002099632,430.64999999972923,4.785911e-06,430.64999999972923,3.834905e-06
430.6649999997292,1.400712e-05,430.6649999997292,0.002174079,430.6649999997292,4.68176e-06,430.6649999997292,3.975583e-06
430.6799999997292,1.358542e-05,430.6799999997292,0.002140379,430.6799999997292,4.569077e-06,430.6799999997292,3.996786e-06
430.6949999997292,1.366606e-05,430.6949999997292,0.001979818,430.6949999997292,4.556728e-06,430.6949999997292,3.996786e-06
430.7099999997292,1.389605e-05,430.7099999997292,0.001968611,430.7099999997292,4.547444e-06,430.7099999997292,3.797995e-06
430.72499999972916,1.408434e-05,430.72499999972916,0.001931543,430.72499999972916,4.4218e-06,430.72499999972916,3.768206e-06
430.73999999972915,1.417109e-05,430.73999999972915,0.001946938,430.73999999972915,4.239647e-06,430.73999999972915,3.932833e-06
430.75499999972914,1.422962e-05,430.75499999972914,0.001979731,430.75499999972914,4.152361e-06,430.75499999972914,3.961384e-06
430.7699999997291,1.466161e-05,430.7699999997291,0.001986706,430.7699999997291,4.199587e-06,430.7699999997291,3.90768e-06
430.7849999997291,1.470861e-05,430.7849999997291,0.002022405,430.7849999997291,4.087396e-06,430.7849999997291,3.939991e-06
430.7999999997291,1.48819e-05,430.7999999997291,0.001928997,430.7999999997291,4.031877e-06,430.7999999997291,3.957827e-06
430.8149999997291,1.494989e-05,430.8149999997291,0.001713139,430.8149999997291,3.972038e-06,430.8149999997291,3.936414e-06
430.82999999972907,1.498472e-05,430.82999999972907,0.001686592,430.82999999972907,3.860533e-06,430.82999999972907,3.989731e-06
430.84499999972905,1.482689e-05,430.84499999972905,0.00157456,430.84499999972905,3.86418e-06,430.84499999972905,4.052786e-06
430.85999999972904,1.42879e-05,430.85999999972904,0.001574837,430.85999999972904,3.745709e-06,430.85999999972904,4.080498e-06
430.874999999729,1.43017e-05,430.874999999729,0.001566899,430.874999999729,3.73441e-06,430.874999999729,3.922073e-06
430.889999999729,1.466353e-05,430.889999999729,0.001591319,430.889999999729,3.83123e-06,430.889999999729,3.700305e-06
430.904999999729,1.443796e-05,430.904999999729,0.001581696,430.904999999729,3.871464e-06,430.904999999729,3.580347e-06
430.919999999729,1.476883e-05,430.919999999729,0.001633598,430.919999999729,3.654337e-06,430.919999999729,3.419349e-06
430.934999999729,1.481644e-05,430.934999999729,0.001660737,430.934999999729,3.834905e-06,430.934999999729,3.500774e-06
430.94999999972896,1.470286e-05,430.94999999972896,0.001812436,430.94999999972896,3.816494e-06,430.94999999972896,3.508812e-06
430.96499999972895,1.461156e-05,430.96499999972895,0.001773542,430.96499999972895,4.0632e-06,430.96499999972895,3.431686e-06
430.97999999972893,1.3892e-05,430.97999999972893,0.001841195,430.97999999972893,4.584466e-06,430.97999999972893,3.488681e-06
430.9949999997289,1.417407e-05,430.9949999997289,0.00214027,430.9949999997289,4.815255e-06,430.9949999997289,3.57641e-06
431.0099999997289,1.454683e-05,431.0099999997289,0.002143457,431.0099999997289,4.902232e-06,431.0099999997289,3.584279e-06
431.0249999997289,1.416811e-05,431.0249999997289,0.002141918,431.0249999997289,4.953686e-06,431.0249999997289,3.552699e-06
431.0399999997289,1.377182e-05,431.0399999997289,0.002113231,431.0399999997289,5.00461e-06,431.0399999997289,3.677393e-06
431.05499999972886,1.345728e-05,431.05499999972886,0.002135972,431.05499999972886,5.113207e-06,431.05499999972886,3.654337e-06
431.06999999972885,1.331416e-05,431.06999999972885,0.002174244,431.06999999972885,5.168013e-06,431.06999999972885,3.711708e-06
431.08499999972884,1.267234e-05,431.08499999972884,0.00216027,431.08499999972884,5.363302e-06,431.08499999972884,3.580347e-06
431.0999999997288,1.273886e-05,431.0999999997288,0.002148467,431.0999999997288,5.546649e-06,431.0999999997288,3.588207e-06
431.1149999997288,1.28391e-05,431.1149999997288,0.002187646,431.1149999997288,5.485359e-06,431.1149999997288,3.685046e-06
431.1299999997288,1.255059e-05,431.1299999997288,0.002188567,431.1299999997288,5.634837e-06,431.1299999997288,3.753223e-06
431.1449999997288,1.204545e-05,431.1449999997288,0.002169575,431.1449999997288,5.61731e-06,431.1449999997288,3.867824e-06
431.15999999972877,1.165676e-05,431.15999999972877,0.00209645,431.15999999972877,5.60727e-06,431.15999999972877,3.856882e-06
431.17499999972875,1.175065e-05,431.17499999972875,0.002044667,431.17499999972875,5.667242e-06,431.17499999972875,3.91848e-06
431.18999999972874,1.151206e-05,431.18999999972874,0.002038098,431.18999999972874,5.604757e-06,431.18999999972874,3.885991e-06
431.2049999997287,1.130462e-05,431.2049999997287,0.001779624,431.2049999997287,5.731505e-06,431.2049999997287,3.99326e-06
431.2199999997287,1.119065e-05,431.2199999997287,0.001891644,431.2199999997287,5.637336e-06,431.2199999997287,3.979125e-06
431.2349999997287,1.095787e-05,431.2349999997287,0.002263926,431.2349999997287,5.049445e-06,431.2349999997287,4.101159e-06
431.2499999997287,1.072398e-05,431.2499999997287,0.00221472,431.2499999997287,5.099414e-06,431.2499999997287,4.097722e-06
431.2649999997287,9.378553e-06,431.2649999997287,0.002582617,431.2649999997287,5.091119e-06,431.2649999997287,4.331681e-06
431.27999999972866,9.539391e-06,431.27999999972866,0.002723782,431.27999999972866,5.197909e-06,431.27999999972866,4.29248e-06
431.29499999972865,9.704822e-06,431.29499999972865,0.002922403,431.29499999972865,5.219545e-06,431.29499999972865,4.386617e-06
431.30999999972863,9.680115e-06,431.30999999972863,0.002911442,431.30999999972863,5.381656e-06,431.30999999972863,4.399444e-06
431.3249999997286,9.577708e-06,431.3249999997286,0.002890357,431.3249999997286,6.167175e-06,431.3249999997286,4.547444e-06
431.3399999997286,9.529049e-06,431.3399999997286,0.002937763,431.3399999997286,6.513761e-06,431.3399999997286,4.556728e-06
431.3549999997286,1.087917e-05,431.3549999997286,0.002955849,431.3549999997286,6.580461e-06,431.3549999997286,4.642481e-06
431.3699999997286,1.283471e-05,431.3699999997286,0.002947463,431.3699999997286,6.875675e-06,431.3699999997286,4.708762e-06
431.38499999972856,1.272448e-05,431.38499999972856,0.002975323,431.38499999972856,7.04567e-06,431.38499999972856,4.699779e-06
431.39999999972855,1.279073e-05,431.39999999972855,0.003015934,431.39999999972855,7.099447e-06,431.39999999972855,4.702775e-06
431.41499999972854,1.224379e-05,431.41499999972854,0.003127719,431.41499999972854,7.101431e-06,431.41499999972854,4.687774e-06
431.4299999997285,1.284129e-05,431.4299999997285,0.003268277,431.4299999997285,7.069622e-06,431.4299999997285,4.612038e-06
431.4449999997285,1.339117e-05,431.4449999997285,0.003538767,431.4449999997285,6.989465e-06,431.4449999997285,4.624239e-06
431.4599999997285,1.339958e-05,431.4599999997285,0.003592538,431.4599999997285,6.96726e-06,431.4599999997285,4.70577e-06
431.4749999997285,1.36382e-05,431.4749999997285,0.003586764,431.4749999997285,7.037669e-06,431.4749999997285,4.66971e-06
431.48999999972847,1.441648e-05,431.48999999972847,0.003497772,431.48999999972847,7.00758e-06,431.48999999972847,4.581393e-06
