X[s],a: EMG RMS 1-1,X[s].1,a: EMG RMS 1-2,X[s].2,a: EMG RMS 1-3,X[s].3,a: EMG RMS 1-4
462.0149999997007,3.846788e-05,462.0149999997007,0.00403661,462.0149999997007,8.460468e-05,462.0149999997007,4.422788e-05
462.0299999997007,3.993084e-05,462.0299999997007,0.003851279,462.0299999997007,9.027871e-05,462.0299999997007,4.77843e-05
462.0449999997007,4.312778e-05,462.0449999997007,0.003731925,462.0449999997007,9.597059e-05,462.0449999997007,4.910013e-05
462.05999999970066,4.450474e-05,462.05999999970066,0.003571465,462.05999999970066,9.621774e-05,462.05999999970066,5.006439e-05
462.07499999970065,4.602131e-05,462.07499999970065,0.003376159,462.07499999970065,9.314589e-05,462.07499999970065,4.687985e-05
462.08999999970064,4.665394e-05,462.08999999970064,0.003307581,462.08999999970064,9.418376e-05,462.08999999970064,4.505462e-05
462.1049999997006,4.588889e-05,462.1049999997006,0.00340561,462.1049999997006,9.223785e-05,462.1049999997006,4.534819e-05
462.1199999997006,5.048915e-05,462.1199999997006,0.003166527,462.1199999997006,8.722009e-05,462.1199999997006,4.197305e-05
462.1349999997006,5.32233e-05,462.1349999997006,0.003014424,462.1349999997006,9.865681e-05,462.1349999997006,4.575362e-05
462.1499999997006,5.560727e-05,462.1499999997006,0.003041988,462.1499999997006,0.0001143285,462.1499999997006,5.623476e-05
462.16499999970057,6.031115e-05,462.16499999970057,0.003292713,462.16499999970057,0.0001294669,462.16499999970057,6.070413e-05
462.17999999970056,6.652762e-05,462.17999999970056,0.00329406,462.17999999970056,0.0001547742,462.17999999970056,7.36294e-05
462.19499999970054,6.709478e-05,462.19499999970054,0.003395373,462.19499999970054,0.0001558107,462.19499999970054,7.378172e-05
462.2099999997005,6.595301e-05,462.2099999997005,0.00357682,462.2099999997005,0.0001550311,462.2099999997005,7.323673e-05
462.2249999997005,7.964353e-05,462.2249999997005,0.003776442,462.2249999997005,0.000161739,462.2249999997005,8.063947e-05
462.2399999997005,0.0001018953,462.2399999997005,0.004006321,462.2399999997005,0.000194886,462.2399999997005,9.305329e-05
462.2549999997005,0.0003286728,462.2549999997005,0.004224302,462.2549999997005,0.0002135043,462.2549999997005,0.0001717094
462.2699999997005,0.0006060146,462.2699999997005,0.004412965,462.2699999997005,0.0003032899,462.2699999997005,0.0003000076
462.28499999970046,0.0006448346,462.28499999970046,0.004557737,462.28499999970046,0.0003335545,462.28499999970046,0.0003132002
462.29999999970045,0.0007840553,462.29999999970045,0.004775353,462.29999999970045,0.0003607583,462.29999999970045,0.0003778195
462.31499999970043,0.0007941346,462.31499999970043,0.004883439,462.31499999970043,0.0003616723,462.31499999970043,0.0003786822
462.3299999997004,0.0008008507,462.3299999997004,0.004961168,462.3299999997004,0.0003633584,462.3299999997004,0.0005081736
462.3449999997004,0.000806931,462.3449999997004,0.004885194,462.3449999997004,0.0003827519,462.3449999997004,0.00064537
462.3599999997004,0.0008076385,462.3599999997004,0.004702493,462.3599999997004,0.0003829598,462.3599999997004,0.0006736721
462.3749999997004,0.0008085646,462.3749999997004,0.004578246,462.3749999997004,0.0003847394,462.3749999997004,0.0007124238
462.38999999970036,0.0008088466,462.38999999970036,0.004503102,462.38999999970036,0.0003803465,462.38999999970036,0.0007234763
462.40499999970035,0.0008087422,462.40499999970035,0.004398182,462.40499999970035,0.0003778755,462.40499999970035,0.0007231446
462.41999999970034,0.0008081599,462.41999999970034,0.004243936,462.41999999970034,0.0003695246,462.41999999970034,0.0007232985
462.4349999997003,0.0008090782,462.4349999997003,0.004080807,462.4349999997003,0.0004857801,462.4349999997003,0.001137156
462.4499999997003,0.0008634822,462.4499999997003,0.004042235,462.4499999997003,0.000493757,462.4499999997003,0.001380202
462.4649999997003,0.0008804905,462.4649999997003,0.00394821,462.4649999997003,0.0005296046,462.4649999997003,0.001475261
462.4799999997003,0.0009032884,462.4799999997003,0.004055989,462.4799999997003,0.0005563243,462.4799999997003,0.001478108
462.49499999970027,0.0008702849,462.49499999970027,0.004119293,462.49499999970027,0.0005806395,462.49499999970027,0.001479095
462.50999999970026,0.0008449914,462.50999999970026,0.004060077,462.50999999970026,0.0005782644,462.50999999970026,0.001481864
462.52499999970024,0.0006862144,462.52499999970024,0.003844687,462.52499999970024,0.0005625201,462.52499999970024,0.001476593
462.5399999997002,0.0005752633,462.5399999997002,0.003711239,462.5399999997002,0.0005706417,462.5399999997002,0.001620201
462.5549999997002,0.0005204297,462.5549999997002,0.003593412,462.5549999997002,0.0005645696,462.5549999997002,0.001638759
462.5699999997002,0.0005126917,462.5699999997002,0.003533386,462.5699999997002,0.0005644288,462.5699999997002,0.001679522
462.5849999997002,0.0005031099,462.5849999997002,0.003411451,462.5849999997002,0.0005557709,462.5849999997002,0.001620168
462.5999999997002,0.000500495,462.5999999997002,0.003386165,462.5999999997002,0.0005505293,462.5999999997002,0.001609118
462.61499999970016,0.0004995499,462.61499999970016,0.003393639,462.61499999970016,0.0005503689,462.61499999970016,0.001595679
462.62999999970015,0.0004983972,462.62999999970015,0.003448424,462.62999999970015,0.0005499549,462.62999999970015,0.001583699
462.64499999970013,0.0004979631,462.64499999970013,0.003457096,462.64499999970013,0.0005495339,462.64499999970013,0.001580812
462.6599999997001,0.0004979575,462.6599999997001,0.003595517,462.6599999997001,0.000549898,462.6599999997001,0.001580817
462.6749999997001,0.0004977332,462.6749999997001,0.00363249,462.6749999997001,0.0004834794,462.6749999997001,0.001474446
462.6899999997001,0.0004957069,462.6899999997001,0.003839714,462.6899999997001,0.0004361339,462.6899999997001,0.001263871
462.7049999997001,0.0003776956,462.7049999997001,0.003839712,462.7049999997001,0.0004284419,462.7049999997001,0.0009739095
462.71999999970006,0.0003260409,462.71999999970006,0.003799773,462.71999999970006,0.0003792876,462.71999999970006,0.0009057464
462.73499999970005,0.0002741284,462.73499999970005,0.00398541,462.73499999970005,0.000349628,462.73499999970005,0.0009051074
462.74999999970004,0.0002433841,462.74999999970004,0.004011772,462.74999999970004,0.0002564924,462.74999999970004,0.0008952431
462.7649999997,0.0002352495,462.7649999997,0.004025213,462.7649999997,0.0002515077,462.7649999997,0.0008839819
462.7799999997,0.0002179527,462.7799999997,0.004110485,462.7799999997,0.0003272672,462.7799999997,0.0008738579
462.7949999997,0.000114566,462.7949999997,0.004233108,462.7949999997,0.0002877135,462.7949999997,0.0004725204
462.8099999997,0.000112979,462.8099999997,0.004334401,462.8099999997,0.0002908265,462.8099999997,0.0004064676
462.82499999969997,0.0001055853,462.82499999969997,0.004352177,462.82499999969997,0.0003012948,462.82499999969997,0.0002331615
462.83999999969996,0.0001001745,462.83999999969996,0.004290997,462.83999999969996,0.0003063421,462.83999999969996,0.0001585254
462.85499999969994,9.76646e-05,462.85499999969994,0.004228329,462.85499999969994,0.0003074508,462.85499999969994,0.000161793
462.8699999996999,9.704503e-05,462.8699999996999,0.004473452,462.8699999996999,0.0003076272,462.8699999996999,0.0001575184
462.8849999996999,9.696341e-05,462.8849999996999,0.004666155,462.8849999996999,0.0003072756,462.8849999996999,0.0001515021
462.8999999996999,9.71737e-05,462.8999999996999,0.004793043,462.8999999996999,0.0003073971,462.8999999996999,0.0001487585
462.9149999996999,9.710829e-05,462.9149999996999,0.004894751,462.9149999996999,0.0003059506,462.9149999996999,0.0001471545
462.9299999996999,9.7146e-05,462.9299999996999,0.004922691,462.9299999996999,0.0003052125,462.9299999996999,0.0001463758
462.94499999969986,9.707014e-05,462.94499999969986,0.004853261,462.94499999969986,0.0003048931,462.94499999969986,0.0001463613
462.95999999969985,9.653871e-05,462.95999999969985,0.004785572,462.95999999969985,0.0003028748,462.95999999969985,0.0001456106
462.97499999969983,9.480288e-05,462.97499999969983,0.004847151,462.97499999969983,0.000292331,462.97499999969983,0.0001391741
462.9899999996998,9.389946e-05,462.9899999996998,0.004830413,462.9899999996998,0.0002874102,462.9899999996998,0.0001322213
463.0049999996998,9.130891e-05,463.0049999996998,0.004820722,463.0049999996998,0.0002837812,463.0049999996998,0.0001318405
463.0199999996998,7.758903e-05,463.0199999996998,0.004883898,463.0199999996998,0.000231561,463.0199999996998,0.0001210902
463.0349999996998,5.298164e-05,463.0349999996998,0.004875547,463.0349999996998,0.0001283053,463.0349999996998,7.549299e-05
463.04999999969976,4.984896e-05,463.04999999969976,0.004855907,463.04999999969976,0.0001120618,463.04999999969976,5.996096e-05
463.06499999969975,3.682522e-05,463.06499999969975,0.00482144,463.06499999969975,9.60102e-05,463.06499999969975,5.700428e-05
463.07999999969974,2.548823e-05,463.07999999969974,0.004956771,463.07999999969974,7.366823e-05,463.07999999969974,5.140354e-05
463.0949999996997,2.089976e-05,463.0949999996997,0.005115334,463.0949999996997,5.920321e-05,463.0949999996997,4.485376e-05
463.1099999996997,2.003532e-05,463.1099999996997,0.005236141,463.1099999996997,4.688165e-05,463.1099999996997,3.424988e-05
463.1249999996997,1.959384e-05,463.1249999996997,0.005163998,463.1249999996997,4.53196e-05,463.1249999996997,2.762637e-05
463.1399999996997,1.933402e-05,463.1399999996997,0.004963816,463.1399999996997,4.56445e-05,463.1399999996997,2.740573e-05
463.15499999969967,1.982114e-05,463.15499999969967,0.004741312,463.15499999969967,4.940046e-05,463.15499999969967,2.948562e-05
463.16999999969966,1.932017e-05,463.16999999969966,0.004440073,463.16999999969966,5.314172e-05,463.16999999969966,3.27164e-05
463.18499999969964,1.925444e-05,463.18499999969964,0.004132533,463.18499999969964,5.403625e-05,463.18499999969964,3.450231e-05
463.1999999996996,1.927053e-05,463.1999999996996,0.003858562,463.1999999996996,5.369864e-05,463.1999999996996,3.464613e-05
463.2149999996996,1.850609e-05,463.2149999996996,0.004177468,463.2149999996996,5.303611e-05,463.2149999996996,3.433327e-05
463.2299999996996,1.854639e-05,463.2299999996996,0.00442017,463.2299999996996,5.11998e-05,463.2299999996996,3.310887e-05
463.2449999996996,1.930777e-05,463.2449999996996,0.004555923,463.2449999996996,5.311441e-05,463.2449999996996,3.314247e-05
463.2599999996996,1.944517e-05,463.2599999996996,0.004594218,463.2599999996996,5.515042e-05,463.2599999996996,3.40105e-05
463.27499999969956,1.856006e-05,463.27499999969956,0.004563855,463.27499999969956,5.427867e-05,463.27499999969956,3.388186e-05
463.28999999969955,1.852435e-05,463.28999999969955,0.004412776,463.28999999969955,5.36078e-05,463.28999999969955,3.353374e-05
463.30499999969953,1.856309e-05,463.30499999969953,0.004365794,463.30499999969953,5.220435e-05,463.30499999969953,3.248523e-05
463.3199999996995,1.754326e-05,463.3199999996995,0.004394622,463.3199999996995,5.19612e-05,463.3199999996995,3.260166e-05
463.3349999996995,1.631508e-05,463.3349999996995,0.004394622,463.3349999996995,4.863604e-05,463.3349999996995,3.177896e-05
463.3499999996995,1.597392e-05,463.3499999996995,0.00439043,463.3499999996995,4.40242e-05,463.3499999996995,2.895874e-05
463.3649999996995,1.612926e-05,463.3649999996995,0.004391879,463.3649999996995,4.265353e-05,463.3649999996995,2.71392e-05
463.37999999969946,1.583042e-05,463.37999999969946,0.004567175,463.37999999969946,4.230234e-05,463.37999999969946,2.59928e-05
463.39499999969945,1.479836e-05,463.39499999969945,0.004729039,463.39499999969945,4.100093e-05,463.39499999969945,2.591573e-05
463.40999999969944,1.354908e-05,463.40999999969944,0.004769781,463.40999999969944,3.692683e-05,463.40999999969944,2.446975e-05
463.4249999996994,1.279403e-05,463.4249999996994,0.004880298,463.4249999996994,3.33298e-05,463.4249999996994,2.169869e-05
463.4399999996994,1.269344e-05,463.4399999996994,0.004978278,463.4399999996994,3.287875e-05,463.4399999996994,2.004305e-05
463.4549999996994,1.287306e-05,463.4549999996994,0.005027132,463.4549999996994,3.213864e-05,463.4549999996994,1.987508e-05
463.4699999996994,1.350222e-05,463.4699999996994,0.005084533,463.4699999996994,3.366329e-05,463.4699999996994,1.883206e-05
463.48499999969937,1.428396e-05,463.48499999969937,0.005130669,463.48499999969937,4.080532e-05,463.48499999969937,2.188679e-05
463.49999999969936,1.455844e-05,463.49999999969936,0.005091844,463.49999999969936,4.84445e-05,463.49999999969936,2.673654e-05
463.51499999969934,1.636423e-05,463.51499999969934,0.004965285,463.51499999969934,4.9413e-05,463.51499999969934,2.653452e-05
463.5299999996993,1.914217e-05,463.5299999996993,0.004832493,463.5299999996993,5.616357e-05,463.5299999996993,2.810159e-05
463.5449999996993,2.299902e-05,463.5449999996993,0.004874335,463.5449999996993,7.090295e-05,463.5449999996993,3.375398e-05
463.5599999996993,2.756869e-05,463.5599999996993,0.00504884,463.5599999996993,8.866603e-05,463.5599999996993,4.458064e-05
463.5749999996993,2.942393e-05,463.5749999996993,0.005083287,463.5749999996993,9.193436e-05,463.5749999996993,4.437922e-05
463.5899999996993,3.121861e-05,463.5899999996993,0.005118716,463.5899999996993,9.631622e-05,463.5899999996993,4.529753e-05
463.60499999969926,4.06767e-05,463.60499999969926,0.005111741,463.60499999969926,0.0001311012,463.60499999969926,5.326272e-05
463.61999999969925,0.0003515351,463.61999999969925,0.005136624,463.61999999969925,0.0002191383,463.61999999969925,0.0001876871
463.63499999969923,0.0004003744,463.63499999969923,0.005136717,463.63499999969923,0.0002562496,463.63499999969923,0.0004359782
463.6499999996992,0.0004651854,463.6499999996992,0.005129972,463.6499999996992,0.0003517033,463.6499999996992,0.0006435062
463.6649999996992,0.0004671358,463.6649999996992,0.005005933,463.6649999996992,0.0003535315,463.6649999996992,0.0006712646
463.6799999996992,0.000473375,463.6799999996992,0.004910248,463.6799999996992,0.0003583089,463.6799999996992,0.0007152524
463.6949999996992,0.0004766708,463.6949999996992,0.004812876,463.6949999996992,0.0003622075,463.6949999996992,0.0007298368
463.70999999969916,0.0004772807,463.70999999969916,0.004710636,463.70999999969916,0.0003633887,463.70999999969916,0.0007310012
463.72499999969915,0.0004772682,463.72499999969915,0.00462123,463.72499999969915,0.0003629857,463.72499999969915,0.0007313874
463.73999999969914,0.0004772606,463.73999999969914,0.004501534,463.73999999969914,0.0003620948,463.73999999969914,0.000732291
463.7549999996991,0.0004772322,463.7549999996991,0.004352705,463.7549999996991,0.0003608867,463.7549999996991,0.0007328941
463.7699999996991,0.0004771764,463.7699999996991,0.004189836,463.7699999996991,0.0003605919,463.7699999996991,0.0007332097
463.7849999996991,0.000477097,463.7849999996991,0.004072119,463.7849999996991,0.0003596593,463.7849999996991,0.0007332791
463.7999999996991,0.0004767815,463.7999999996991,0.003925581,463.7999999996991,0.0003543413,463.7999999996991,0.00073279
463.81499999969907,0.0004766873,463.81499999969907,0.003691107,463.81499999969907,0.0003524842,463.81499999969907,0.0007325141
463.82999999969906,0.0004772738,463.82999999969906,0.003470431,463.82999999969906,0.0004513818,463.82999999969906,0.001226902
463.84499999969904,0.0004788723,463.84499999969904,0.003488661,463.84499999969904,0.0004645271,463.84499999969904,0.001474477
463.859999999699,0.0004984674,463.859999999699,0.003538575,463.859999999699,0.0004307393,463.859999999699,0.001659318
463.874999999699,0.0004944374,463.874999999699,0.003475687,463.874999999699,0.0004496745,463.874999999699,0.001660518
463.889999999699,0.0004583531,463.889999999699,0.003304228,463.889999999699,0.0004169999,463.889999999699,0.001595726
463.904999999699,0.0004374392,463.904999999699,0.003144469,463.904999999699,0.0003870249,463.904999999699,0.001601594
463.919999999699,0.0004440556,463.919999999699,0.003178195,463.919999999699,0.0003992179,463.919999999699,0.001593066
463.93499999969896,0.0004469328,463.93499999969896,0.003199519,463.93499999969896,0.0004123778,463.93499999969896,0.001579175
463.94999999969895,0.0004466155,463.94999999969895,0.003177815,463.94999999969895,0.0004147439,463.94999999969895,0.001575017
463.96499999969893,0.0004463389,463.96499999969893,0.003189332,463.96499999969893,0.0004146492,463.96499999969893,0.00157467
463.9799999996989,0.0004465868,463.9799999996989,0.003242238,463.9799999996989,0.0004167576,463.9799999996989,0.001574678
463.9949999996989,0.0004466707,463.9949999996989,0.003237535,463.9949999996989,0.0004178326,463.9949999996989,0.001574531
464.0099999996989,0.0004467963,464.0099999996989,0.003441633,464.0099999996989,0.0004205201,464.0099999996989,0.001574495
464.0249999996989,0.0004481145,464.0249999996989,0.003580152,464.0249999996989,0.0004260186,464.0249999996989,0.001574717
464.03999999969886,0.0005239744,464.03999999969886,0.003942546,464.03999999969886,0.0004457453,464.03999999969886,0.001581304
464.05499999969885,0.0005446969,464.05499999969885,0.00423714,464.05499999969885,0.0004568978,464.05499999969885,0.001582685
464.06999999969884,0.0005958027,464.06999999969884,0.004479989,464.06999999969884,0.0003844347,464.06999999969884,0.001464989
464.0849999996988,0.0006251977,464.0849999996988,0.004615554,464.0849999996988,0.0003716816,464.0849999996988,0.001179662
464.0999999996988,0.0006513056,464.0999999996988,0.004559757,464.0999999996988,0.0003619569,464.0999999996988,0.0007925835
464.1149999996988,0.0005838943,464.1149999996988,0.004532195,464.1149999996988,0.0003601232,464.1149999996988,0.0004792428
464.1299999996988,0.000543405,464.1299999996988,0.004425956,464.1299999996988,0.0003185193,464.1299999996988,0.0004607671
464.14499999969877,0.0005276948,464.14499999969877,0.004390491,464.14499999969877,0.0002827254,464.14499999969877,0.0003687666
464.15999999969875,0.0005267794,464.15999999969875,0.004335349,464.15999999969875,0.0002821285,464.15999999969875,0.0002958812
464.17499999969874,0.0005226328,464.17499999969874,0.004408331,464.17499999969874,0.0002678602,464.17499999969874,0.0002812126
464.1899999996987,0.0005202162,464.1899999996987,0.00453036,464.1899999996987,0.0002553971,464.1899999996987,0.0002812874
464.2049999996987,0.0005197696,464.2049999996987,0.004669963,464.2049999996987,0.0002515111,464.2049999996987,0.0002829571
464.2199999996987,0.000519842,464.2199999996987,0.004819525,464.2199999996987,0.0002521095,464.2199999996987,0.0002826352
464.2349999996987,0.0005196569,464.2349999996987,0.004930808,464.2349999996987,0.0002487399,464.2349999996987,0.0002825873
464.2499999996987,0.0005195971,464.2499999996987,0.005005063,464.2499999996987,0.0002473157,464.2499999996987,0.0002825917
464.26499999969866,0.0005193164,464.26499999969866,0.005040662,464.26499999969866,0.000239378,464.26499999969866,0.0002812469
464.27999999969865,0.0005139966,464.27999999969865,0.005120369,464.27999999969865,0.0002054303,464.27999999969865,0.0002795684
464.29499999969863,0.0004311469,464.29499999969863,0.005145463,464.29499999969863,0.0001890233,464.29499999969863,0.0002385282
464.3099999996986,0.0003955996,464.3099999996986,0.00507585,464.3099999996986,0.0001579567,464.3099999996986,0.0002256082
464.3249999996986,0.000304765,464.3249999996986,0.004878857,464.3249999996986,0.0001464613,464.3249999996986,0.0001442363
464.3399999996986,0.0002569763,464.3399999996986,0.004591344,464.3399999996986,0.000107263,464.3399999996986,0.0001284652
464.3549999996986,0.000160047,464.3549999996986,0.004506544,464.3549999996986,8.752127e-05,464.3549999996986,8.328012e-05
464.36999999969856,7.413656e-05,464.36999999969856,0.004456034,464.36999999969856,6.827112e-05,464.36999999969856,6.283617e-05
464.38499999969855,6.558439e-05,464.38499999969855,0.004487948,464.38499999969855,6.928068e-05,464.38499999969855,6.221798e-05
464.39999999969854,6.076977e-05,464.39999999969854,0.004246381,464.39999999969854,6.818275e-05,464.39999999969854,5.54896e-05
464.4149999996985,5.462378e-05,464.4149999996985,0.004182452,464.4149999996985,6.477198e-05,464.4149999996985,5.175067e-05
464.4299999996985,4.097928e-05,464.4299999996985,0.004041726,464.4299999996985,6.671897e-05,464.4299999996985,5.297552e-05
464.4449999996985,3.055778e-05,464.4449999996985,0.0038537,464.4449999996985,6.724096e-05,464.4449999996985,5.142737e-05
464.4599999996985,2.594669e-05,464.4599999996985,0.003818331,464.4599999996985,6.996938e-05,464.4599999996985,3.744882e-05
464.47499999969847,2.535968e-05,464.47499999969847,0.003653216,464.47499999969847,6.643608e-05,464.47499999969847,3.726896e-05
464.48999999969845,2.634645e-05,464.48999999969845,0.003471658,464.48999999969845,6.917181e-05,464.48999999969845,3.693942e-05
464.50499999969844,2.606694e-05,464.50499999969844,0.003483005,464.50499999969844,7.00197e-05,464.50499999969844,3.746348e-05
464.5199999996984,2.557595e-05,464.5199999996984,0.003673664,464.5199999996984,6.969383e-05,464.5199999996984,3.800331e-05
464.5349999996984,2.481786e-05,464.5349999996984,0.003685707,464.5349999996984,6.8994e-05,464.5349999996984,3.67858e-05
464.5499999996984,2.491247e-05,464.5499999996984,0.003685707,464.5499999996984,6.914594e-05,464.5499999996984,3.623017e-05
464.5649999996984,2.509893e-05,464.5649999996984,0.003724717,464.5649999996984,6.959451e-05,464.5649999996984,3.664922e-05
464.5799999996984,2.531242e-05,464.5799999996984,0.003831715,464.5799999996984,6.966553e-05,464.5799999996984,3.614531e-05
464.59499999969836,2.552081e-05,464.59499999969836,0.003963787,464.59499999969836,6.959309e-05,464.59499999969836,3.62601e-05
464.60999999969835,2.444844e-05,464.60999999969835,0.004123496,464.60999999969835,6.763512e-05,464.60999999969835,3.525034e-05
464.62499999969833,2.388655e-05,464.62499999969833,0.004309585,464.62499999969833,6.61064e-05,464.62499999969833,4.923765e-05
464.6399999996983,4.424093e-05,464.6399999996983,0.004474807,464.6399999996983,6.497349e-05,464.6399999996983,5.243724e-05
464.6549999996983,6.333946e-05,464.6549999996983,0.004622851,464.6549999996983,6.523854e-05,464.6549999996983,5.362435e-05
464.6699999996983,6.534296e-05,464.6699999996983,0.004714088,464.6699999996983,6.454714e-05,464.6699999996983,6.875573e-05
464.6849999996983,6.493337e-05,464.6849999996983,0.004869357,464.6849999996983,6.040148e-05,464.6849999996983,6.92107e-05
464.69999999969826,6.514865e-05,464.69999999969826,0.005070102,464.69999999969826,6.144016e-05,464.69999999969826,7.063283e-05
464.71499999969825,6.518971e-05,464.71499999969825,0.005108548,464.71499999969825,5.84771e-05,464.71499999969825,7.101035e-05
464.72999999969824,7.15534e-05,464.72999999969824,0.005206497,464.72999999969824,5.964154e-05,464.72999999969824,8.165051e-05
464.7449999996982,7.831908e-05,464.7449999996982,0.005236206,464.7449999996982,5.724077e-05,464.7449999996982,8.354054e-05
464.7599999996982,7.949819e-05,464.7599999996982,0.005177557,464.7599999996982,6.462392e-05,464.7599999996982,8.331141e-05
464.7749999996982,7.984492e-05,464.7749999996982,0.005177557,464.7749999996982,8.280039e-05,464.7749999996982,8.538579e-05
464.7899999996982,9.533275e-05,464.7899999996982,0.00522194,464.7899999996982,8.203364e-05,464.7899999996982,9.177302e-05
464.80499999969817,9.675981e-05,464.80499999969817,0.005136059,464.80499999969817,8.706815e-05,464.80499999969817,9.525041e-05
464.81999999969815,9.828343e-05,464.81999999969815,0.005047048,464.81999999969815,9.170746e-05,464.81999999969815,9.541665e-05
464.83499999969814,9.970471e-05,464.83499999969814,0.004915664,464.83499999969814,9.235934e-05,464.83499999969814,9.589907e-05
464.8499999996981,9.990259e-05,464.8499999996981,0.005122413,464.8499999996981,9.217949e-05,464.8499999996981,9.572897e-05
464.8649999996981,9.984406e-05,464.8649999996981,0.005206604,464.8649999996981,9.142469e-05,464.8649999996981,8.979746e-05
464.8799999996981,9.986042e-05,464.8799999996981,0.005206725,464.8799999996981,9.109962e-05,464.8799999996981,8.741401e-05
464.8949999996981,8.869828e-05,464.8949999996981,0.005113104,464.8949999996981,9.059273e-05,464.8949999996981,8.55231e-05
464.9099999996981,7.853712e-05,464.9099999996981,0.004912982,464.9099999996981,8.880049e-05,464.9099999996981,8.45817e-05
464.92499999969806,7.822243e-05,464.92499999969806,0.004718214,464.92499999969806,8.884681e-05,464.92499999969806,7.091526e-05
464.93999999969805,7.801469e-05,464.93999999969805,0.004685394,464.93999999969805,8.853757e-05,464.93999999969805,7.008203e-05
464.95499999969803,7.792997e-05,464.95499999969803,0.00463347,464.95499999969803,8.833097e-05,464.95499999969803,6.948695e-05
464.969999999698,7.780894e-05,464.969999999698,0.004541568,464.969999999698,8.637813e-05,464.969999999698,6.090615e-05
464.984999999698,6.479328e-05,464.984999999698,0.004397259,464.984999999698,8.553743e-05,464.984999999698,5.523567e-05
464.999999999698,6.343991e-05,464.999999999698,0.004221379,464.999999999698,8.296644e-05,464.999999999698,5.261478e-05
465.014999999698,6.263993e-05,465.014999999698,0.004041446,465.014999999698,7.203705e-05,465.014999999698,5.14928e-05
465.02999999969796,6.159267e-05,465.02999999969796,0.003803852,465.02999999969796,5.99835e-05,465.02999999969796,4.876707e-05
465.04499999969795,2.739904e-05,465.04499999969795,0.003531288,465.04499999969795,5.429346e-05,465.04499999969795,2.566063e-05
465.05999999969794,2.563097e-05,465.05999999969794,0.003350347,465.05999999969794,4.952918e-05,465.05999999969794,2.089504e-05
465.0749999996979,2.017196e-05,465.0749999996979,0.003003536,465.0749999996979,4.551377e-05,465.0749999996979,2.021033e-05
465.0899999996979,1.679919e-05,465.0899999996979,0.002802141,465.0899999996979,4.520258e-05,465.0899999996979,2.053943e-05
465.1049999996979,1.552764e-05,465.1049999996979,0.002561216,465.1049999996979,4.624148e-05,465.1049999996979,2.248804e-05
465.1199999996979,1.541931e-05,465.1199999996979,0.002243832,465.1199999996979,4.601243e-05,465.1199999996979,2.250808e-05
465.13499999969787,1.954201e-05,465.13499999969787,0.001811568,465.13499999969787,4.745653e-05,465.13499999969787,2.283367e-05
465.14999999969785,2.08856e-05,465.14999999969785,0.001274862,465.14999999969785,4.872169e-05,465.14999999969785,2.366258e-05
465.16499999969784,2.431034e-05,465.16499999969784,0.0006892481,465.16499999969784,4.992323e-05,465.16499999969784,2.376001e-05
465.1799999996978,2.469838e-05,465.1799999996978,0.0006048713,465.1799999996978,5.022144e-05,465.1799999996978,2.413355e-05
465.1949999996978,2.488531e-05,465.1949999996978,0.0008106115,465.1949999996978,5.081232e-05,465.1949999996978,2.485303e-05
465.2099999996978,2.618663e-05,465.2099999996978,0.001533096,465.2099999996978,5.287358e-05,465.2099999996978,2.490455e-05
465.2249999996978,2.861768e-05,465.2249999996978,0.00181037,465.2249999996978,6.062309e-05,465.2249999996978,2.987575e-05
465.2399999996978,2.923855e-05,465.2399999996978,0.002234833,465.2399999996978,6.506925e-05,465.2399999996978,3.548017e-05
465.25499999969776,3.090068e-05,465.25499999969776,0.002574818,465.25499999969776,6.468166e-05,465.25499999969776,3.625855e-05
465.26999999969775,3.145416e-05,465.26999999969775,0.002852832,465.26999999969775,6.884131e-05,465.26999999969775,3.68963e-05
465.28499999969773,4.051708e-05,465.28499999969773,0.003194913,465.28499999969773,0.0001149295,465.28499999969773,5.58638e-05
465.2999999996977,4.476008e-05,465.2999999996977,0.003425754,465.2999999996977,0.0001277015,465.2999999996977,5.758697e-05
465.3149999996977,4.533856e-05,465.3149999996977,0.003679125,465.3149999996977,0.0001333119,465.3149999996977,5.941365e-05
465.3299999996977,4.54447e-05,465.3299999996977,0.003913525,465.3299999996977,0.0001343598,465.3299999996977,6.017202e-05
465.3449999996977,4.626188e-05,465.3449999996977,0.004154642,465.3449999996977,0.0001391003,465.3449999996977,6.190247e-05
465.35999999969766,4.668533e-05,465.35999999969766,0.004360959,465.35999999969766,0.0001418428,465.35999999969766,6.307224e-05
465.37499999969765,4.645211e-05,465.37499999969765,0.004544679,465.37499999969765,0.0001417064,465.37499999969765,6.307984e-05
465.38999999969764,4.600263e-05,465.38999999969764,0.004739912,465.38999999969764,0.0001414575,465.38999999969764,6.303717e-05
465.4049999996976,5.277811e-05,465.4049999996976,0.004905937,465.4049999996976,0.000141702,465.4049999996976,7.310158e-05
465.4199999996976,0.0001094712,465.4199999996976,0.005042995,465.4199999996976,0.0001722892,465.4199999996976,8.584926e-05
465.4349999996976,0.0002683186,465.4349999996976,0.005104334,465.4349999996976,0.0001855228,465.4349999996976,0.0001355114
465.4499999996976,0.0004040118,465.4499999996976,0.004997625,465.4499999996976,0.0001999006,465.4499999996976,0.0002248305
465.46499999969757,0.0004696624,465.46499999969757,0.00488913,465.46499999969757,0.0002618476,465.46499999969757,0.0002396098
465.47999999969755,0.0005104681,465.47999999969755,0.004896193,465.47999999969755,0.0002742083,465.47999999969755,0.0002556195
465.49499999969754,0.0005383755,465.49499999969754,0.00492013,465.49499999969754,0.0002847941,465.49499999969754,0.0002704443
465.5099999996975,0.0005412947,465.5099999996975,0.004993213,465.5099999996975,0.0002929213,465.5099999996975,0.0002707334
465.5249999996975,0.0005446628,465.5249999996975,0.004964293,465.5249999996975,0.0002895069,465.5249999996975,0.0002705023
465.5399999996975,0.0005452567,465.5399999996975,0.004789648,465.5399999996975,0.0002811078,465.5399999996975,0.0002687922
465.5549999996975,0.0005454906,465.5549999996975,0.004693353,465.5549999996975,0.0002815983,465.5549999996975,0.000269959
465.5699999996975,0.0005458278,465.5699999996975,0.004694455,465.5699999996975,0.0002790795,465.5699999996975,0.0002698785
465.58499999969746,0.0005459401,465.58499999969746,0.004647139,465.58499999969746,0.0002778615,465.58499999969746,0.0002703283
465.59999999969745,0.0005459612,465.59999999969745,0.004467458,465.59999999969745,0.0002757756,465.59999999969745,0.000270267
465.61499999969743,0.0005460325,465.61499999969743,0.004333578,465.61499999969743,0.0002795713,465.61499999969743,0.0002705098
465.6299999996974,0.0005461432,465.6299999996974,0.004533407,465.6299999996974,0.0002850122,465.6299999996974,0.0002722729
465.6449999996974,0.0005462439,465.6449999996974,0.004620076,465.6449999996974,0.0002872711,465.6449999996974,0.0002724603
465.6599999996974,0.0005448867,465.6599999996974,0.004573225,465.6599999996974,0.000288694,465.6599999996974,0.000270169
465.6749999996974,0.0004932673,465.6749999996974,0.004556834,465.6749999996974,0.0002697292,465.6749999996974,0.0002510059
465.68999999969736,0.000465819,465.68999999969736,0.004599445,465.68999999969736,0.0002567126,465.68999999969736,0.0002393263
465.70499999969735,0.0002868327,465.70499999969735,0.004671311,465.70499999969735,0.000208951,465.70499999969735,0.000139018
465.71999999969734,0.0002532912,465.71999999969734,0.00467364,465.71999999969734,0.00017587,465.71999999969734,0.0001296219
465.7349999996973,0.0001512872,465.7349999996973,0.004590572,465.7349999996973,0.0001624853,465.7349999996973,0.0001019486
465.7499999996973,8.690264e-05,465.7499999996973,0.004714624,465.7499999996973,0.0001406649,465.7499999996973,6.66894e-05
465.7649999996973,6.987913e-05,465.7649999996973,0.004779055,465.7649999996973,0.0001326483,465.7649999996973,6.480089e-05
465.7799999996973,5.439844e-05,465.7799999996973,0.004880936,465.7799999996973,0.0001305577,465.7799999996973,6.421457e-05
465.79499999969727,3.862138e-05,465.79499999969727,0.005044709,465.79499999969727,0.000123008,465.79499999969727,6.227817e-05
465.80999999969725,4.132774e-05,465.80999999969725,0.005092808,465.80999999969725,0.0001292608,465.80999999969725,6.018232e-05
465.82499999969724,3.808403e-05,465.82499999969724,0.005064163,465.82499999969724,0.0001314849,465.82499999969724,6.104292e-05
465.8399999996972,3.785028e-05,465.8399999996972,0.005042252,465.8399999996972,0.0001355017,465.8399999996972,5.936527e-05
465.8549999996972,3.762258e-05,465.8549999996972,0.005006896,465.8549999996972,0.0001380085,465.8549999996972,5.821829e-05
465.8699999996972,3.472614e-05,465.8699999996972,0.005016091,465.8699999996972,0.0001193353,465.8699999996972,5.264315e-05
465.8849999996972,3.608251e-05,465.8849999996972,0.005011499,465.8849999996972,0.0001231729,465.8849999996972,5.097286e-05
465.8999999996972,3.342266e-05,465.8999999996972,0.004949928,465.8999999996972,0.0001190443,465.8999999996972,5.398278e-05
465.91499999969716,3.889976e-05,465.91499999969716,0.004810652,465.91499999969716,0.0001281938,465.91499999969716,5.637936e-05
465.92999999969715,4.049969e-05,465.92999999969715,0.004963237,465.92999999969715,0.00013719,465.92999999969715,6.449365e-05
465.94499999969713,4.054732e-05,465.94499999969713,0.005038984,465.94499999969713,0.0001377987,465.94499999969713,6.690325e-05
465.9599999996971,4.210574e-05,465.9599999996971,0.005094088,465.9599999996971,0.0001398986,465.9599999996971,6.707861e-05
465.9749999996971,4.407537e-05,465.9749999996971,0.005145038,465.9749999996971,0.0001463035,465.9749999996971,7.053104e-05
465.9899999996971,4.386135e-05,465.9899999996971,0.005239015,465.9899999996971,0.0001453054,465.9899999996971,7.054942e-05
466.0049999996971,4.437859e-05,466.0049999996971,0.005221212,466.0049999996971,0.0001463416,466.0049999996971,6.983174e-05
466.01999999969706,4.367146e-05,466.01999999969706,0.005160362,466.01999999969706,0.0001474331,466.01999999969706,7.200811e-05
466.03499999969705,5.999031e-05,466.03499999969705,0.004950508,466.03499999969705,0.0002011684,466.03499999969705,8.755217e-05
466.04999999969704,6.103415e-05,466.04999999969704,0.004632383,466.04999999969704,0.000202124,466.04999999969704,8.96249e-05
466.064999999697,5.9968e-05,466.064999999697,0.004563323,466.064999999697,0.0001980879,466.064999999697,8.87978e-05
466.079999999697,5.973688e-05,466.079999999697,0.004394684,466.079999999697,0.0001965117,466.079999999697,8.989828e-05
466.094999999697,6.347321e-05,466.094999999697,0.004172506,466.094999999697,0.0002024693,466.094999999697,9.094192e-05
466.109999999697,6.543968e-05,466.109999999697,0.004372305,466.109999999697,0.0002091669,466.109999999697,9.584868e-05
466.12499999969697,6.488844e-05,466.12499999969697,0.004536947,466.12499999969697,0.0002103539,466.12499999969697,9.888686e-05
466.13999999969695,6.386151e-05,466.13999999969695,0.004623301,466.13999999969695,0.0002048609,466.13999999969695,9.729278e-05
466.15499999969694,6.394373e-05,466.15499999969694,0.004689234,466.15499999969694,0.0002029175,466.15499999969694,9.542698e-05
466.1699999996969,6.164913e-05,466.1699999996969,0.004704924,466.1699999996969,0.0001955149,466.1699999996969,9.244075e-05
466.1849999996969,6.114276e-05,466.1849999996969,0.00463721,466.1849999996969,0.0001939626,466.1849999996969,8.974395e-05
466.1999999996969,6.106461e-05,466.1999999996969,0.004532231,466.1999999996969,0.0001942547,466.1999999996969,8.903892e-05
466.2149999996969,5.995438e-05,466.2149999996969,0.004415277,466.2149999996969,0.0001919393,466.2149999996969,8.907229e-05
466.2299999996969,5.918061e-05,466.2299999996969,0.004272823,466.2299999996969,0.0001892001,466.2299999996969,8.712022e-05
466.24499999969686,5.8519e-05,466.24499999969686,0.003997323,466.24499999969686,0.0001871289,466.24499999969686,8.673162e-05
466.25999999969684,5.833673e-05,466.25999999969684,0.003984552,466.25999999969684,0.0001854289,466.25999999969684,8.55254e-05
466.27499999969683,5.544134e-05,466.27499999969683,0.004025543,466.27499999969683,0.0001696273,466.27499999969683,8.064121e-05
466.2899999996968,3.851838e-05,466.2899999996968,0.004150896,466.2899999996968,0.000112454,466.2899999996968,6.292063e-05
466.3049999996968,3.652525e-05,466.3049999996968,0.004387083,466.3049999996968,0.00010831,466.3049999996968,6.180203e-05
466.3199999996968,3.53951e-05,466.3199999996968,0.004608467,466.3199999996968,9.879179e-05,466.3199999996968,5.48618e-05
466.3349999996968,3.144072e-05,466.3349999996968,0.00463656,466.3349999996968,9.393006e-05,466.3349999996968,5.257514e-05
466.34999999969676,2.37766e-05,466.34999999969676,0.004691395,466.34999999969676,7.695865e-05,466.34999999969676,4.963856e-05
466.36499999969675,1.943358e-05,466.36499999969675,0.004691408,466.36499999969675,6.094268e-05,466.36499999969675,4.138122e-05
466.37999999969674,1.970925e-05,466.37999999969674,0.004691414,466.37999999969674,5.322118e-05,466.37999999969674,3.319131e-05
466.3949999996967,1.952398e-05,466.3949999996967,0.004667933,466.3949999996967,5.366532e-05,466.3949999996967,2.937889e-05
466.4099999996967,1.787259e-05,466.4099999996967,0.004669049,466.4099999996967,5.343672e-05,466.4099999996967,2.895971e-05
466.4249999996967,1.506348e-05,466.4249999996967,0.004648199,466.4249999996967,4.809313e-05,466.4249999996967,2.818668e-05
466.4399999996967,1.446428e-05,466.4399999996967,0.004615942,466.4399999996967,4.428103e-05,466.4399999996967,2.653558e-05
466.45499999969667,1.358439e-05,466.45499999969667,0.004558505,466.45499999969667,3.838613e-05,466.45499999969667,2.34755e-05
466.46999999969665,1.337117e-05,466.46999999969665,0.004519599,466.46999999969665,3.544442e-05,466.46999999969665,2.090043e-05
466.48499999969664,1.309332e-05,466.48499999969664,0.004374016,466.48499999969664,3.521075e-05,466.48499999969664,2.093612e-05
466.4999999996966,1.301454e-05,466.4999999996966,0.004489954,466.4999999996966,3.580032e-05,466.4999999996966,2.144796e-05
466.5149999996966,1.32154e-05,466.5149999996966,0.004688018,466.5149999996966,3.610281e-05,466.5149999996966,2.190159e-05
466.5299999996966,1.330887e-05,466.5299999996966,0.004732684,466.5299999996966,3.601765e-05,466.5299999996966,2.15227e-05
466.5449999996966,1.341219e-05,466.5449999996966,0.004915871,466.5449999996966,3.631057e-05,466.5449999996966,2.1575e-05
466.5599999996966,1.346461e-05,466.5599999996966,0.005006519,466.5599999996966,3.657612e-05,466.5599999996966,2.155017e-05
466.57499999969656,1.302212e-05,466.57499999969656,0.005000034,466.57499999969656,3.676665e-05,466.57499999969656,2.149519e-05
466.58999999969654,1.227252e-05,466.58999999969654,0.005058129,466.58999999969654,3.449823e-05,466.58999999969654,2.008308e-05
466.60499999969653,1.338065e-05,466.60499999969653,0.00509164,466.60499999969653,3.58856e-05,466.60499999969653,1.901888e-05
466.6199999996965,1.372058e-05,466.6199999996965,0.005067754,466.6199999996965,3.635438e-05,466.6199999996965,1.870747e-05
466.6349999996965,1.402722e-05,466.6349999996965,0.004966943,466.6349999996965,3.971435e-05,466.6349999996965,1.95384e-05
466.6499999996965,1.475547e-05,466.6499999996965,0.005052299,466.6499999996965,4.602009e-05,466.6499999996965,2.165645e-05
466.6649999996965,1.645436e-05,466.6649999996965,0.005115607,466.6649999996965,5.058977e-05,466.6649999996965,2.211219e-05
466.67999999969646,1.924858e-05,466.67999999969646,0.005082465,466.67999999969646,6.741629e-05,466.67999999969646,2.668117e-05
466.69499999969645,7.502636e-05,466.69499999969645,0.004903878,466.69499999969645,0.0001447816,466.69499999969645,7.509504e-05
466.70999999969644,0.0003472715,466.70999999969644,0.004688656,466.70999999969644,0.0001880498,466.70999999969644,0.000170724
466.7249999996964,0.0003976331,466.7249999996964,0.004639702,466.7249999996964,0.0002161215,466.7249999996964,0.0001931646
466.7399999996964,0.0004335911,466.7399999996964,0.004703857,466.7399999996964,0.0002862478,466.7399999996964,0.0006017702
466.7549999996964,0.0004356742,466.7549999996964,0.004752664,466.7549999996964,0.0002897502,466.7549999996964,0.0006213302
466.7699999996964,0.0004425271,466.7699999996964,0.004691727,466.7699999996964,0.0002953213,466.7699999996964,0.0006747743
466.78499999969637,0.000446325,466.78499999969637,0.004577296,466.78499999969637,0.0003005496,466.78499999969637,0.0006980162
466.79999999969635,0.0004468209,466.79999999969635,0.004433411,466.79999999969635,0.000305737,466.79999999969635,0.0007010326
466.81499999969634,0.0004470985,466.81499999969634,0.00422473,466.81499999969634,0.0003417754,466.81499999969634,0.0007011749
466.8299999996963,0.0004473183,466.8299999996963,0.004074017,466.8299999996963,0.0003652733,466.8299999996963,0.0007025478
466.8449999996963,0.0004473546,466.8449999996963,0.003797936,466.8449999996963,0.0003659906,466.8449999996963,0.000703656
466.8599999996963,0.0004474311,466.8599999996963,0.00362613,466.8599999996963,0.0003659769,466.8599999996963,0.0007040524
466.8749999996963,0.0004475049,466.8749999996963,0.003420098,466.8749999996963,0.0003662998,466.8749999996963,0.000704171
466.8899999996963,0.0004474798,466.8899999996963,0.003172847,466.8899999996963,0.0003657056,466.8899999996963,0.0007041753
466.90499999969626,0.0004474084,466.90499999969626,0.002790956,466.90499999969626,0.0003645003,466.90499999969626,0.0007041057
466.91999999969624,0.0004473689,466.91999999969624,0.002294695,466.91999999969624,0.0003637087,466.91999999969624,0.0007040662
466.93499999969623,0.0004472519,466.93499999969623,0.001671996,466.93499999969623,0.000361203,466.93499999969623,0.0007038901
466.9499999996962,0.0003084887,466.9499999996962,0.001341394,466.9499999996962,0.0003154889,466.9499999996962,0.0006844078
466.9649999996962,0.0002575431,466.9649999996962,0.001372338,466.9649999996962,0.0003082999,466.9649999996962,0.0006813804
466.9799999996962,0.0001866389,466.9799999996962,0.001309379,466.9799999996962,0.0002820494,466.9799999996962,0.0005316995
466.9949999996962,9.774664e-05,466.9949999996962,0.001131013,466.9949999996962,0.0003594488,466.9949999996962,0.0006325428
467.00999999969616,9.247046e-05,467.00999999969616,0.0009180197,467.00999999969616,0.000389937,467.00999999969616,0.001078645
467.02499999969615,6.584506e-05,467.02499999969615,0.0007243934,467.02499999969615,0.0004225835,467.02499999969615,0.001418813
467.03999999969614,7.135153e-05,467.03999999969614,0.00115156,467.03999999969614,0.0004312821,467.03999999969614,0.001503249
467.0549999996961,0.0002022548,467.0549999996961,0.001755749,467.0549999996961,0.0004331225,467.0549999996961,0.001502129
467.0699999996961,0.0003211846,467.0699999996961,0.002132002,467.0699999996961,0.00040983,467.0699999996961,0.001524902
467.0849999996961,0.0004065263,467.0849999996961,0.002367027,467.0849999996961,0.0003997094,467.0849999996961,0.001570644
467.0999999996961,0.0004191399,467.0999999996961,0.002736321,467.0999999996961,0.0004009907,467.0999999996961,0.001584834
467.11499999969607,0.0004203172,467.11499999969607,0.003041958,467.11499999969607,0.0004007608,467.11499999969607,0.001586044
467.12999999969605,0.0004242033,467.12999999969605,0.003289492,467.12999999969605,0.0004011071,467.12999999969605,0.001586079
467.14499999969604,0.0004276978,467.14499999969604,0.003524225,467.14499999969604,0.0004013925,467.14499999969604,0.001586297
467.159999999696,0.0004323113,467.159999999696,0.003775889,467.159999999696,0.0004015756,467.159999999696,0.001587334
467.174999999696,0.0004354278,467.174999999696,0.003979565,467.174999999696,0.0004063344,467.174999999696,0.001587433
467.189999999696,0.0004377525,467.189999999696,0.004023343,467.189999999696,0.0004079963,467.189999999696,0.001587886
467.204999999696,0.0004392145,467.204999999696,0.004050874,467.204999999696,0.0004259663,467.204999999696,0.001588069
467.219999999696,0.0004424722,467.219999999696,0.004192579,467.219999999696,0.0004797891,467.219999999696,0.001590416
467.23499999969596,0.000448622,467.23499999969596,0.004393874,467.23499999969596,0.0005183613,467.23499999969596,0.001591643
467.24999999969594,0.0004508417,467.24999999969594,0.004645742,467.24999999969594,0.0004788733,467.24999999969594,0.001270379
467.26499999969593,0.0004512879,467.26499999969593,0.004863461,467.26499999969593,0.0004724876,467.26499999969593,0.001078796
467.2799999996959,0.000455656,467.2799999996959,0.005050908,467.2799999996959,0.0004820843,467.2799999996959,0.0006110199
467.2949999996959,0.0004574666,467.2949999996959,0.005058466,467.2949999996959,0.0005242594,467.2949999996959,0.0004964588
467.3099999996959,0.0003407436,467.3099999996959,0.005058443,467.3099999996959,0.0005175372,467.3099999996959,0.0005006513
467.3249999996959,0.0002939184,467.3249999996959,0.005097252,467.3249999996959,0.0005149876,467.3249999996959,0.0004267809
467.33999999969586,0.000205172,467.33999999969586,0.005101292,467.33999999969586,0.0005172684,467.33999999969586,0.0002949964
467.35499999969585,0.0002002007,467.35499999969585,0.004951282,467.35499999969585,0.0005268037,467.35499999969585,0.0002616846
467.36999999969584,0.0001989035,467.36999999969584,0.004951282,467.36999999969584,0.0005375427,467.36999999969584,0.00027189
467.3849999996958,0.0001924283,467.3849999996958,0.004992863,467.3849999996958,0.0005408337,467.3849999996958,0.0002733285
467.3999999996958,0.0001913487,467.3999999996958,0.005046884,467.3999999996958,0.0005517675,467.3999999996958,0.0002700974
467.4149999996958,0.0001808987,467.4149999996958,0.005046874,467.4149999996958,0.0005540682,467.4149999996958,0.0002702171
467.4299999996958,0.0001727237,467.4299999996958,0.005074011,467.4299999996958,0.0005530289,467.4299999996958,0.0002689624
467.44499999969577,0.0001702198,467.44499999969577,0.005255059,467.44499999969577,0.0005558009,467.44499999969577,0.0002697578
467.45999999969575,0.0003137855,467.45999999969575,0.005333928,467.45999999969575,0.0005372005,467.45999999969575,0.0002972571
467.47499999969574,0.000396276,467.47499999969574,0.005321884,467.47499999969574,0.00052816,467.47499999969574,0.000509487
467.4899999996957,0.0005457051,467.4899999996957,0.00534222,467.4899999996957,0.0006380794,467.4899999996957,0.0007606994
467.5049999996957,0.0005470728,467.5049999996957,0.005275272,467.5049999996957,0.0005935538,467.5049999996957,0.0007637831
467.5199999996957,0.0005524126,467.5199999996957,0.005060168,467.5199999996957,0.0005988042,467.5199999996957,0.0008035154
467.5349999996957,0.0005521821,467.5349999996957,0.004825391,467.5349999996957,0.0005742733,467.5349999996957,0.0008170904
467.5499999996957,0.0005512278,467.5499999996957,0.004817866,467.5499999996957,0.0005444743,467.5499999996957,0.0008090378
467.56499999969566,0.0005509693,467.56499999969566,0.004799839,467.56499999969566,0.0005443129,467.56499999969566,0.0008071654
467.57999999969564,0.000550834,467.57999999969564,0.004725037,467.57999999969564,0.0005441412,467.57999999969564,0.0008079655
467.59499999969563,0.0005501191,467.59499999969563,0.004589658,467.59499999969563,0.0005403284,467.59499999969563,0.0008084329
467.6099999996956,0.0005503689,467.6099999996956,0.004462655,467.6099999996956,0.0006065263,467.6099999996956,0.001224135
467.6249999996956,0.0006017493,467.6249999996956,0.004321896,467.6249999996956,0.0005992134,467.6249999996956,0.001444569
467.6399999996956,0.0006478158,467.6399999996956,0.004307153,467.6399999996956,0.0006198896,467.6399999996956,0.001582648
467.6549999996956,0.0006857164,467.6549999996956,0.004284077,467.6549999996956,0.00063324,467.6549999996956,0.001587171
467.66999999969556,0.0006953797,467.66999999969556,0.004286688,467.66999999969556,0.0006557507,467.66999999969556,0.001607711
467.68499999969555,0.0006967043,467.68499999969555,0.004293716,467.68499999969555,0.0006575838,467.68499999969555,0.001628827
467.69999999969554,0.0007028818,467.69999999969554,0.004293716,467.69999999969554,0.0006687706,467.69999999969554,0.001632242
467.7149999996955,0.0006104093,467.7149999996955,0.004311644,467.7149999996955,0.0006473943,467.7149999996955,0.001621272
467.7299999996955,0.0005337755,467.7299999996955,0.004330633,467.7299999996955,0.0005649949,467.7299999996955,0.001492035
467.7449999996955,0.0004732282,467.7449999996955,0.004330411,467.7449999996955,0.0005087292,467.7449999996955,0.001461938
467.7599999996955,0.0004748143,467.7599999996955,0.004333283,467.7599999996955,0.0005097244,467.7599999996955,0.001449518
467.77499999969547,0.00047031,467.77499999969547,0.004330359,467.77499999969547,0.0005135714,467.77499999969547,0.001433481
467.78999999969545,0.0004673268,467.78999999969545,0.004334637,467.78999999969545,0.0005117864,467.78999999969545,0.001428038
467.80499999969544,0.0004668032,467.80499999969544,0.004343025,467.80499999969544,0.000511592,467.80499999969544,0.001427446
467.8199999996954,0.0004671903,467.8199999996954,0.00434659,467.8199999996954,0.0005173698,467.8199999996954,0.001428074
467.8349999996954,0.000467427,467.8349999996954,0.004345382,467.8349999996954,0.0005208132,467.8349999996954,0.001428696
467.8499999996954,0.000470461,467.8499999996954,0.004341408,467.8499999996954,0.0004764097,467.8499999996954,0.001383474
467.8649999996954,0.000512946,467.8649999996954,0.004337747,467.8649999996954,0.0004432554,467.8649999996954,0.001041136
467.87999999969537,0.0005304791,467.87999999969537,0.00424228,467.87999999969537,0.0004731485,467.87999999969537,0.0006025753
467.89499999969536,0.0005846755,467.89499999969536,0.00398522,467.89499999969536,0.0004847082,467.89499999969536,0.0004472143
467.90999999969534,0.0005607225,467.90999999969534,0.003763949,467.90999999969534,0.000468819,467.90999999969534,0.0004363215
467.92499999969533,0.0005608732,467.92499999969533,0.003587542,467.92499999969533,0.0004483355,467.92499999969533,0.0003596905
467.9399999996953,0.0005589435,467.9399999996953,0.003377496,467.9399999996953,0.0004491717,467.9399999996953,0.0002995498
467.9549999996953,0.0005527707,467.9549999996953,0.00312947,467.9549999996953,0.0004359842,467.9549999996953,0.0002919443
467.9699999996953,0.0005482274,467.9699999996953,0.002851578,467.9699999996953,0.000422753,467.9699999996953,0.0002878665
467.9849999996953,0.0005434098,467.9849999996953,0.002440718,467.9849999996953,0.0004131643,467.9849999996953,0.0002799634
467.99999999969526,0.0005401117,467.99999999969526,0.002142996,467.99999999969526,0.0004039807,467.99999999969526,0.0002748613
468.01499999969525,0.0005380276,468.01499999969525,0.002077914,468.01499999969525,0.0003983071,468.01499999969525,0.0002739978
468.02999999969524,0.0005379578,468.02999999969524,0.002364501,468.02999999969524,0.0003943449,468.02999999969524,0.000273953
468.0449999996952,0.0005376905,468.0449999996952,0.002756849,468.0449999996952,0.0003930003,468.0449999996952,0.0002736124
468.0599999996952,0.0005377773,468.0599999996952,0.002922292,468.0599999996952,0.0003943871,468.0599999996952,0.000273806
468.0749999996952,0.0005377363,468.0749999996952,0.002872802,468.0749999996952,0.0003895184,468.0749999996952,0.0002726712
468.0899999996952,0.0005354297,468.0899999996952,0.003058753,468.0899999996952,0.000389393,468.0899999996952,0.0002709614
468.10499999969517,0.0005061841,468.10499999969517,0.0032442,468.10499999969517,0.0003861698,468.10499999969517,0.000266813
468.11999999969515,0.0004679738,468.11999999969515,0.003462613,468.11999999969515,0.00035966,468.11999999969515,0.0002500675
468.13499999969514,0.0001871613,468.13499999969514,0.003709578,468.13499999969514,0.0002548236,468.13499999969514,0.000310571
468.1499999996951,0.0001620313,468.1499999996951,0.003935085,468.1499999996951,0.0002339764,468.1499999996951,0.0003172871
468.1649999996951,0.0001225864,468.1649999996951,0.00408864,468.1649999996951,0.0002059145,468.1649999996951,0.0003401074
468.1799999996951,0.0001503736,468.1799999996951,0.00417098,468.1799999996951,0.0001846114,468.1799999996951,0.0007331973
468.1949999996951,0.0002130107,468.1949999996951,0.004207138,468.1949999996951,0.0001855102,468.1949999996951,0.0008346806
468.20999999969507,0.0002363907,468.20999999969507,0.004231891,468.20999999969507,0.0001899047,468.20999999969507,0.0009407956
468.22499999969506,0.0002461182,468.22499999969506,0.004241379,468.22499999969506,0.0001762272,468.22499999969506,0.000976169
468.23999999969504,0.0002460561,468.23999999969504,0.004337826,468.23999999969504,0.0001788898,468.23999999969504,0.0009787569
468.25499999969503,0.0002460094,468.25499999969503,0.00440438,468.25499999969503,0.0001783131,468.25499999969503,0.0009798481
468.269999999695,0.0002457328,468.269999999695,0.004556862,468.269999999695,0.0001740897,468.269999999695,0.0009823486
468.284999999695,0.0002453815,468.284999999695,0.004592638,468.284999999695,0.0001672699,468.284999999695,0.000983584
468.299999999695,0.0002454077,468.299999999695,0.004521251,468.299999999695,0.0001718612,468.299999999695,0.0009846026
468.314999999695,0.0002446503,468.314999999695,0.004473134,468.314999999695,0.0001584935,468.314999999695,0.0009844746
468.32999999969496,0.0002444139,468.32999999969496,0.004512556,468.32999999969496,0.0001511437,468.32999999969496,0.0009839389
468.34499999969495,0.0002441337,468.34499999969495,0.004512556,468.34499999969495,0.0001479343,468.34499999969495,0.0009838039
468.35999999969494,0.0002435969,468.35999999969494,0.004446289,468.35999999969494,0.0001423828,468.35999999969494,0.0009836901
468.3749999996949,0.0002346906,468.3749999996949,0.0045825,468.3749999996949,0.0001338987,468.3749999996949,0.000957378
468.3899999996949,0.0002324135,468.3899999996949,0.004551141,468.3899999996949,0.0001324055,468.3899999996949,0.0009390899
468.4049999996949,0.0002301137,468.4049999996949,0.004575212,468.4049999996949,0.0001295972,468.4049999996949,0.0009330812
468.4199999996949,0.0002282608,468.4199999996949,0.004618974,468.4199999996949,0.0001285657,468.4199999996949,0.0009254944
468.43499999969487,0.0001308189,468.43499999969487,0.004639092,468.43499999969487,0.000115262,468.43499999969487,0.0005165833
468.44999999969485,0.0001110325,468.44999999969485,0.004812912,468.44999999969485,0.0001049949,468.44999999969485,0.0004464394
468.46499999969484,5.834252e-05,468.46499999969484,0.004983025,468.46499999969484,8.736855e-05,468.46499999969484,0.0002276663
468.4799999996948,2.528904e-05,468.4799999996948,0.005155116,468.4799999996948,8.430093e-05,468.4799999996948,0.0001055744
468.4949999996948,2.482467e-05,468.4949999996948,0.005185419,468.4949999996948,6.948553e-05,468.4949999996948,9.21879e-05
468.5099999996948,2.245356e-05,468.5099999996948,0.005050219,468.5099999996948,6.829629e-05,468.5099999996948,8.021209e-05
468.5249999996948,1.95629e-05,468.5249999996948,0.00483679,468.5249999996948,6.595557e-05,468.5249999996948,6.198343e-05
468.53999999969477,2.022984e-05,468.53999999969477,0.004534594,468.53999999969477,6.625539e-05,468.53999999969477,4.891359e-05
468.55499999969476,2.155148e-05,468.55499999969476,0.004443496,468.55499999969476,6.47648e-05,468.55499999969476,3.603016e-05
468.56999999969474,2.187971e-05,468.56999999969474,0.004647788,468.56999999969474,7.153884e-05,468.56999999969474,3.96302e-05
468.58499999969473,2.170389e-05,468.58499999969473,0.004749793,468.58499999969473,7.367033e-05,468.58499999969473,4.316533e-05
468.5999999996947,2.222466e-05,468.5999999996947,0.004760168,468.5999999996947,7.353962e-05,468.5999999996947,4.319208e-05
468.6149999996947,2.340098e-05,468.6149999996947,0.004752513,468.6149999996947,7.539122e-05,468.6149999996947,4.336069e-05
468.6299999996947,2.384995e-05,468.6299999996947,0.004783804,468.6299999996947,7.6237e-05,468.6299999996947,4.379096e-05
468.6449999996947,2.390777e-05,468.6449999996947,0.004755273,468.6449999996947,7.649194e-05,468.6449999996947,4.418677e-05
468.65999999969466,2.392308e-05,468.65999999969466,0.00466296,468.65999999969466,7.665034e-05,468.65999999969466,4.460276e-05
468.67499999969465,2.340519e-05,468.67499999969465,0.004535509,468.67499999969465,7.50057e-05,468.67499999969465,4.419601e-05
468.68999999969463,2.337508e-05,468.68999999969463,0.004391512,468.68999999969463,7.521632e-05,468.68999999969463,4.437351e-05
468.7049999996946,2.27589e-05,468.7049999996946,0.00437805,468.7049999996946,7.506427e-05,468.7049999996946,4.48883e-05
468.7199999996946,2.271429e-05,468.7199999996946,0.00437805,468.7199999996946,7.472403e-05,468.7199999996946,4.494224e-05
468.7349999996946,2.184427e-05,468.7349999996946,0.004380309,468.7349999996946,7.169226e-05,468.7349999996946,4.374204e-05
468.7499999996946,2.184685e-05,468.7499999996946,0.004442392,468.7499999996946,6.963134e-05,468.7499999996946,4.206457e-05
468.76499999969457,2.206372e-05,468.76499999969457,0.004555597,468.76499999969457,6.766032e-05,468.76499999969457,4.000873e-05
468.77999999969455,2.172529e-05,468.77999999969455,0.004635047,468.77999999969455,6.965015e-05,468.77999999969455,3.923366e-05
468.79499999969454,1.886942e-05,468.79499999969454,0.004683469,468.79499999969454,6.433226e-05,468.79499999969454,3.851509e-05
468.8099999996945,1.593419e-05,468.8099999996945,0.004708463,468.8099999996945,5.350996e-05,468.8099999996945,3.443692e-05
468.8249999996945,1.484873e-05,468.8249999996945,0.004708468,468.8249999996945,4.227236e-05,468.8249999996945,2.623715e-05
468.8399999996945,1.578319e-05,468.8399999996945,0.004687346,468.8399999996945,4.141389e-05,468.8399999996945,2.130562e-05
468.8549999996945,1.543027e-05,468.8549999996945,0.004639245,468.8549999996945,4.215924e-05,468.8549999996945,2.113434e-05
468.86999999969447,1.483354e-05,468.86999999969447,0.004644111,468.86999999969447,4.088396e-05,468.86999999969447,2.093478e-05
468.88499999969446,1.395674e-05,468.88499999969446,0.004728857,468.88499999969446,4.010403e-05,468.88499999969446,2.057437e-05
468.89999999969444,1.366297e-05,468.89999999969444,0.004771552,468.89999999969444,3.970016e-05,468.89999999969444,2.028894e-05
468.91499999969443,1.385646e-05,468.91499999969443,0.004680004,468.91499999969443,3.957471e-05,468.91499999969443,1.988642e-05
468.9299999996944,1.392845e-05,468.9299999996944,0.004611606,468.9299999996944,3.983088e-05,468.9299999996944,1.950738e-05
468.9449999996944,1.372161e-05,468.9449999996944,0.004583731,468.9449999996944,3.798477e-05,468.9449999996944,1.832403e-05
468.9599999996944,1.396986e-05,468.9599999996944,0.004540996,468.9599999996944,3.775228e-05,468.9599999996944,1.687615e-05
468.9749999996944,1.416413e-05,468.9749999996944,0.004476332,468.9749999996944,3.881384e-05,468.9749999996944,1.676393e-05
468.98999999969436,1.454198e-05,468.98999999969436,0.00468476,468.98999999969436,4.011281e-05,468.98999999969436,1.789544e-05
469.00499999969435,1.447012e-05,469.00499999969435,0.004842575,469.00499999969435,4.036696e-05,469.00499999969435,1.853043e-05
469.01999999969433,1.410633e-05,469.01999999969433,0.004922189,469.01999999969433,3.698439e-05,469.01999999969433,1.850838e-05
469.0349999996943,1.436852e-05,469.0349999996943,0.004980397,469.0349999996943,3.420379e-05,469.0349999996943,1.835322e-05
469.0499999996943,1.3989e-05,469.0499999996943,0.00500914,469.0499999996943,3.365074e-05,469.0499999996943,1.78031e-05
469.0649999996943,1.346147e-05,469.0649999996943,0.004959571,469.0649999996943,3.198882e-05,469.0649999996943,1.573044e-05
469.0799999996943,1.263114e-05,469.0799999996943,0.004842155,469.0799999996943,3.194829e-05,469.0799999996943,1.51827e-05
469.09499999969427,1.198448e-05,469.09499999969427,0.004889654,469.09499999969427,2.97619e-05,469.09499999969427,1.504944e-05
469.10999999969425,1.143348e-05,469.10999999969425,0.004899582,469.10999999969425,2.854918e-05,469.10999999969425,1.462409e-05
469.12499999969424,1.149492e-05,469.12499999969424,0.004869658,469.12499999969424,2.819318e-05,469.12499999969424,1.474401e-05
469.1399999996942,1.142855e-05,469.1399999996942,0.004840496,469.1399999996942,2.825955e-05,469.1399999996942,1.480027e-05
469.1549999996942,1.154871e-05,469.1549999996942,0.004800399,469.1549999996942,2.848595e-05,469.1549999996942,1.485158e-05
469.1699999996942,1.143841e-05,469.1699999996942,0.004800173,469.1699999996942,2.841416e-05,469.1699999996942,1.507936e-05
469.1849999996942,1.146178e-05,469.1849999996942,0.004814404,469.1849999996942,2.758453e-05,469.1849999996942,1.486295e-05
469.19999999969417,1.164225e-05,469.19999999969417,0.004743037,469.19999999969417,2.726452e-05,469.19999999969417,1.454876e-05
469.21499999969416,1.121831e-05,469.21499999969416,0.004688377,469.21499999969416,2.648191e-05,469.21499999969416,1.449833e-05
469.22999999969414,1.023468e-05,469.22999999969414,0.004740593,469.22999999969414,2.548602e-05,469.22999999969414,1.405932e-05
469.24499999969413,1.019468e-05,469.24499999969413,0.004735897,469.24499999969413,2.393956e-05,469.24499999969413,1.241517e-05
469.2599999996941,1.122207e-05,469.2599999996941,0.004738223,469.2599999996941,2.626076e-05,469.2599999996941,1.139151e-05
469.2749999996941,1.206064e-05,469.2749999996941,0.004734709,469.2749999996941,2.955243e-05,469.2749999996941,1.179969e-05
469.2899999996941,1.353452e-05,469.2899999996941,0.004710734,469.2899999996941,3.636871e-05,469.2899999996941,1.333213e-05
469.3049999996941,1.441941e-05,469.3049999996941,0.004660235,469.3049999996941,4.017422e-05,469.3049999996941,1.502696e-05
469.31999999969406,1.606187e-05,469.31999999969406,0.004667317,469.31999999969406,4.458633e-05,469.31999999969406,1.730069e-05
469.33499999969405,1.630126e-05,469.33499999969405,0.004878092,469.33499999969405,4.662434e-05,469.33499999969405,1.995219e-05
469.34999999969403,1.705632e-05,469.34999999969403,0.004824714,469.34999999969403,4.652756e-05,469.34999999969403,1.951315e-05
469.364999999694,1.795908e-05,469.364999999694,0.004824714,469.364999999694,5.19593e-05,469.364999999694,2.063727e-05
469.379999999694,1.868487e-05,469.379999999694,0.004812883,469.379999999694,5.456469e-05,469.379999999694,2.23517e-05
469.394999999694,1.924785e-05,469.394999999694,0.004819964,469.394999999694,5.646799e-05,469.394999999694,2.299535e-05
469.409999999694,1.960821e-05,469.409999999694,0.004904736,469.409999999694,5.880044e-05,469.409999999694,2.431903e-05
469.42499999969397,1.990553e-05,469.42499999969397,0.005013493,469.42499999969397,5.875035e-05,469.42499999969397,2.433814e-05
469.43999999969395,2.0282e-05,469.43999999969395,0.005020366,469.43999999969395,5.911988e-05,469.43999999969395,2.431672e-05
469.45499999969394,2.043905e-05,469.45499999969394,0.005047999,469.45499999969394,5.991184e-05,469.45499999969394,2.469495e-05
469.4699999996939,2.055108e-05,469.4699999996939,0.00508004,469.4699999996939,5.947953e-05,469.4699999996939,2.477355e-05
469.4849999996939,2.093276e-05,469.4849999996939,0.005057312,469.4849999996939,5.92976e-05,469.4849999996939,2.472175e-05
469.4999999996939,2.143613e-05,469.4999999996939,0.005099828,469.4999999996939,5.928263e-05,469.4999999996939,2.473713e-05
469.5149999996939,2.106291e-05,469.5149999996939,0.005134308,469.5149999996939,5.753729e-05,469.5149999996939,2.454447e-05
469.52999999969387,2.049961e-05,469.52999999969387,0.00510976,469.52999999969387,5.652334e-05,469.52999999969387,2.430223e-05
469.54499999969386,1.936096e-05,469.54499999969386,0.005116326,469.54499999969386,5.106536e-05,469.54499999969386,2.326756e-05
469.55999999969384,1.97421e-05,469.55999999969384,0.005073019,469.55999999969384,4.963827e-05,469.55999999969384,2.251746e-05
469.57499999969383,1.959456e-05,469.57499999969383,0.004937325,469.57499999969383,4.631605e-05,469.57499999969383,2.016707e-05
469.5899999996938,1.995642e-05,469.5899999996938,0.00495773,469.5899999996938,4.771438e-05,469.5899999996938,2.157434e-05
469.6049999996938,1.920609e-05,469.6049999996938,0.005089555,469.6049999996938,4.810894e-05,469.6049999996938,2.312119e-05
469.6199999996938,1.833249e-05,469.6199999996938,0.005084518,469.6199999996938,3.987329e-05,469.6199999996938,2.047623e-05
469.6349999996938,1.790488e-05,469.6349999996938,0.005036203,469.6349999996938,4.050283e-05,469.6349999996938,2.023958e-05
469.64999999969376,1.754406e-05,469.64999999969376,0.005061867,469.64999999969376,3.927098e-05,469.64999999969376,2.077334e-05
469.66499999969375,1.78978e-05,469.66499999969375,0.005035441,469.66499999969375,4.097653e-05,469.66499999969375,2.076723e-05
469.67999999969373,1.758176e-05,469.67999999969373,0.004892366,469.67999999969373,4.120656e-05,469.67999999969373,2.078893e-05
469.6949999996937,1.692949e-05,469.6949999996937,0.004781675,469.6949999996937,4.068916e-05,469.6949999996937,2.095227e-05
469.7099999996937,1.705467e-05,469.7099999996937,0.004737698,469.7099999996937,4.067496e-05,469.7099999996937,2.062703e-05
469.7249999996937,1.712227e-05,469.7249999996937,0.004805238,469.7249999996937,4.116483e-05,469.7249999996937,2.05819e-05
469.7399999996937,1.658483e-05,469.7399999996937,0.004588984,469.7399999996937,4.111724e-05,469.7399999996937,2.054491e-05
469.75499999969367,1.611265e-05,469.75499999969367,0.004569362,469.75499999969367,4.130728e-05,469.75499999969367,2.04893e-05
469.76999999969365,1.565233e-05,469.76999999969365,0.004722863,469.76999999969365,4.104008e-05,469.76999999969365,2.066728e-05
469.78499999969364,1.575639e-05,469.78499999969364,0.004779481,469.78499999969364,4.136181e-05,469.78499999969364,2.063249e-05
469.7999999996936,1.663487e-05,469.7999999996936,0.004815121,469.7999999996936,4.13962e-05,469.7999999996936,2.034441e-05
469.8149999996936,1.729336e-05,469.8149999996936,0.004832412,469.8149999996936,4.126873e-05,469.8149999996936,2.037416e-05
469.8299999996936,1.668813e-05,469.8299999996936,0.004817184,469.8299999996936,3.918049e-05,469.8299999996936,1.977275e-05
469.8449999996936,1.635131e-05,469.8449999996936,0.004902882,469.8449999996936,3.71406e-05,469.8449999996936,1.7992e-05
469.85999999969357,1.664079e-05,469.85999999969357,0.004861173,469.85999999969357,3.588325e-05,469.85999999969357,1.587041e-05
469.87499999969356,1.648515e-05,469.87499999969356,0.004747903,469.87499999969356,3.593934e-05,469.87499999969356,1.519383e-05
469.88999999969354,1.590587e-05,469.88999999969354,0.004715451,469.88999999969354,3.282687e-05,469.88999999969354,1.434105e-05
469.90499999969353,1.592535e-05,469.90499999969353,0.004782129,469.90499999969353,2.985169e-05,469.90499999969353,1.297769e-05
469.9199999996935,1.558288e-05,469.9199999996935,0.00486658,469.9199999996935,2.865261e-05,469.9199999996935,1.298311e-05
469.9349999996935,1.557475e-05,469.9349999996935,0.004952218,469.9349999996935,2.854918e-05,469.9349999996935,1.266233e-05
469.9499999996935,1.5619e-05,469.9499999996935,0.004962019,469.9499999996935,2.872675e-05,469.9499999996935,1.21096e-05
469.9649999996935,1.509524e-05,469.9649999996935,0.005000697,469.9649999996935,2.795282e-05,469.9649999996935,1.21711e-05
469.97999999969346,1.559644e-05,469.97999999969346,0.005028332,469.97999999969346,3.062409e-05,469.97999999969346,1.378e-05
469.99499999969345,1.633234e-05,469.99499999969345,0.0050561,469.99499999969345,3.495579e-05,469.99499999969345,1.507843e-05
470.00999999969343,1.813782e-05,470.00999999969343,0.005095135,470.00999999969343,4.492814e-05,470.00999999969343,2.067682e-05
470.0249999996934,1.888658e-05,470.0249999996934,0.005077778,470.0249999996934,4.569632e-05,470.0249999996934,3.491627e-05
470.0399999996934,4.768662e-05,470.0399999996934,0.004932644,470.0399999996934,7.854591e-05,470.0399999996934,4.420143e-05
470.0549999996934,0.0003396892,470.0549999996934,0.004932692,470.0549999996934,0.0001285251,470.0549999996934,0.0001613785
470.0699999996934,0.0003892596,470.0699999996934,0.004932802,470.0699999996934,0.0001387427,470.0699999996934,0.0001705192
470.08499999969337,0.000434555,470.08499999969337,0.0050814,470.08499999969337,0.000247669,470.08499999969337,0.0005950886
470.09999999969335,0.0004363677,470.09999999969335,0.005135884,470.09999999969335,0.000254568,470.09999999969335,0.0006109799
470.11499999969334,0.0004421186,470.11499999969334,0.005086477,470.11499999969334,0.0002598251,470.11499999969334,0.0006617814
470.1299999996933,0.0004458411,470.1299999996933,0.004939713,470.1299999996933,0.0002658115,470.1299999996933,0.0006865082
470.1449999996933,0.0004467164,470.1449999996933,0.004841541,470.1449999996933,0.0002680917,470.1449999996933,0.0006900372
470.1599999996933,0.0004467536,470.1599999996933,0.004762546,470.1599999996933,0.0002682343,470.1599999996933,0.0006901296
470.1749999996933,0.0004467635,470.1749999996933,0.00465834,470.1749999996933,0.0002681441,470.1749999996933,0.0006910047
470.18999999969327,0.0004467987,470.18999999969327,0.004531664,470.18999999969327,0.0002681482,470.18999999969327,0.0006919134
470.20499999969326,0.0004468182,470.20499999969326,0.004419428,470.20499999969326,0.0002680956,470.20499999969326,0.0006924166
470.21999999969324,0.0004468266,470.21999999969324,0.004241205,470.21999999969324,0.0002680082,470.21999999969324,0.0006926134
470.23499999969323,0.0004468085,470.23499999969323,0.004097236,470.23499999969323,0.0002674986,470.23499999969323,0.0006926317
470.2499999996932,0.0004467548,470.2499999996932,0.004099727,470.2499999996932,0.0002666902,470.2499999996932,0.0006926248
470.2649999996932,0.0004482805,470.2649999996932,0.004074602,470.2649999996932,0.0005598133,470.2649999996932,0.0007855544
470.2799999996932,0.0004483912,470.2799999996932,0.004033659,470.2799999996932,0.0007315636,470.2799999996932,0.0012244
470.2949999996932,0.0003367173,470.2949999996932,0.003998682,470.2949999996932,0.0007934629,470.2949999996932,0.00151546
470.30999999969316,0.000276936,470.30999999969316,0.004058785,470.30999999969316,0.001017844,470.30999999969316,0.001609926
470.32499999969315,0.000386113,470.32499999969315,0.004119735,470.32499999969315,0.001069721,470.32499999969315,0.001578867
470.33999999969313,0.0003863638,470.33999999969313,0.004074426,470.33999999969313,0.0011761,470.33999999969313,0.001546424
470.3549999996931,0.0004208846,470.3549999996931,0.004001707,470.3549999996931,0.001232457,470.3549999996931,0.001565678
470.3699999996931,0.0004203801,470.3699999996931,0.004076277,470.3699999996931,0.00126079,470.3699999996931,0.001558903
470.3849999996931,0.0004211659,470.3849999996931,0.004104772,470.3849999996931,0.001337831,470.3849999996931,0.001554257
470.3999999996931,0.0004991471,470.3999999996931,0.00408106,470.3999999996931,0.001564939,470.3999999996931,0.001559396
470.41499999969307,0.0005551869,470.41499999969307,0.004126931,470.41499999969307,0.001660371,470.41499999969307,0.001563802
470.42999999969305,0.0006067216,470.42999999969305,0.004400061,470.42999999969305,0.001961529,470.42999999969305,0.00157691
470.44499999969304,0.0007527107,470.44499999969304,0.004609607,470.44499999969304,0.002124595,470.44499999969304,0.001594292
470.459999999693,0.0007948807,470.459999999693,0.004718335,470.459999999693,0.002130717,470.459999999693,0.001595443
470.474999999693,0.0008897725,470.474999999693,0.004850548,470.474999999693,0.002296672,470.474999999693,0.00162033
470.489999999693,0.0008932594,470.489999999693,0.004921919,470.489999999693,0.002320699,470.489999999693,0.001643863
470.504999999693,0.0009110019,470.504999999693,0.004916621,470.504999999693,0.002323526,470.504999999693,0.001728997
470.51999999969297,0.0009122518,470.51999999969297,0.004675096,470.51999999969297,0.002220094,470.51999999969297,0.001509416
470.53499999969296,0.0009131217,470.53499999969296,0.004429894,470.53499999969296,0.002224017,470.53499999969296,0.001356804
470.54999999969294,0.0009121313,470.54999999969294,0.004522229,470.54999999969294,0.002195963,470.54999999969294,0.001065346
470.56499999969293,0.0009260005,470.56499999969293,0.004570517,470.56499999969293,0.002124575,470.56499999969293,0.00101136
470.5799999996929,0.0008709069,470.5799999996929,0.004541522,470.5799999996929,0.002089859,470.5799999996929,0.001083797
470.5949999996929,0.0008599396,470.5949999996929,0.004489313,470.5949999996929,0.00203545,470.5949999996929,0.001132499
470.6099999996929,0.0008564327,470.6099999996929,0.004383094,470.6099999996929,0.00201499,470.6099999996929,0.001143565
470.6249999996929,0.0008562777,470.6249999996929,0.004307539,470.6249999996929,0.001990928,470.6249999996929,0.001152551
470.63999999969286,0.0008579293,470.63999999969286,0.004269945,470.63999999969286,0.001904241,470.63999999969286,0.001159864
470.65499999969285,0.0007924233,470.65499999969285,0.004250073,470.65499999969285,0.001695968,470.65499999969285,0.001149136
470.66999999969283,0.000764081,470.66999999969283,0.004106699,470.66999999969283,0.001594903,470.66999999969283,0.001142449
470.6849999996928,0.000590984,470.6849999996928,0.003827141,470.6849999996928,0.001163012,470.6849999996928,0.001104828
470.6999999996928,0.0005638854,470.6999999996928,0.003497233,470.6999999996928,0.0009902359,470.6999999996928,0.001099293
470.7149999996928,0.0004189642,470.7149999996928,0.003304701,470.7149999996928,0.0007939331,470.7149999996928,0.001098133
470.7299999996928,0.0003406699,470.7299999996928,0.003137525,470.7299999996928,0.0005575465,470.7299999996928,0.001032201
470.74499999969277,0.0003352489,470.74499999969277,0.002918001,470.74499999969277,0.0004652323,470.74499999969277,0.001029451
470.75999999969275,0.000287131,470.75999999969275,0.002675786,470.75999999969275,0.0004520687,470.75999999969275,0.0008610564
470.77499999969274,0.000281548,470.77499999969274,0.002489135,470.77499999969274,0.0004406573,470.77499999969274,0.0008463127
470.7899999996927,0.0002783783,470.7899999996927,0.00220601,470.7899999996927,0.0003713051,470.7899999996927,0.0007929388
470.8049999996927,0.0002779251,470.8049999996927,0.001729655,470.8049999996927,0.0003264702,470.8049999996927,0.0007632944
470.8199999996927,0.0002041704,470.8199999996927,0.001595396,470.8199999996927,0.0001706891,470.8199999996927,0.0007329411
470.8349999996927,0.000183994,470.8349999996927,0.001032674,470.8349999996927,0.0001318192,470.8349999996927,0.000590226
470.84999999969267,8.167707e-05,470.84999999969267,0.0004939882,470.84999999969267,0.0001192441,470.84999999969267,0.0002632766
470.86499999969266,6.218786e-05,470.86499999969266,0.0002969691,470.86499999969266,0.0001136171,470.86499999969266,0.0002222361
470.87999999969264,5.477958e-05,470.87999999969264,0.0002953566,470.87999999969264,8.455088e-05,470.87999999969264,0.0001146953
470.89499999969263,1.823619e-05,470.89499999969263,0.0002842449,470.89499999969263,5.785591e-05,470.89499999969263,6.196707e-05
470.9099999996926,1.708686e-05,470.9099999996926,0.0002461422,470.9099999996926,4.981108e-05,470.9099999996926,4.491967e-05
470.9249999996926,1.678828e-05,470.9249999996926,0.0003152104,470.9249999996926,4.410764e-05,470.9249999996926,3.999816e-05
470.9399999996926,1.600036e-05,470.9399999996926,0.001273178,470.9399999996926,3.423631e-05,470.9399999996926,1.541017e-05
470.9549999996926,9.712076e-06,470.9549999996926,0.001514506,470.9549999996926,2.249305e-05,470.9549999996926,9.334893e-06
470.96999999969256,9.070073e-06,470.96999999969256,0.001688979,470.96999999969256,1.986586e-05,470.96999999969256,9.751159e-06
470.98499999969255,8.998348e-06,470.98499999969255,0.001805848,470.98499999969255,2.068295e-05,470.98499999969255,9.790087e-06
470.99999999969253,9.08404e-06,470.99999999969253,0.001850652,470.99999999969253,2.086266e-05,470.99999999969253,9.728018e-06
471.0149999996925,9.09334e-06,471.0149999996925,0.001999886,471.0149999996925,2.067818e-05,471.0149999996925,9.79584e-06
471.0299999996925,8.949686e-06,471.0299999996925,0.002057745,471.0299999996925,2.060243e-05,471.0299999996925,9.554146e-06
471.0449999996925,8.819675e-06,471.0449999996925,0.002461627,471.0449999996925,2.167206e-05,471.0449999996925,9.42201e-06
471.0599999996925,8.658483e-06,471.0599999996925,0.002845404,471.0599999996925,2.172789e-05,471.0599999996925,9.674292e-06
471.07499999969247,8.348708e-06,471.07499999969247,0.003165058,471.07499999969247,2.152335e-05,471.07499999969247,9.887446e-06
471.08999999969245,8.447671e-06,471.08999999969245,0.003424324,471.08999999969245,2.144927e-05,471.08999999969245,9.742488e-06
471.10499999969244,8.467658e-06,471.10499999969244,0.003627404,471.10499999969244,2.194657e-05,471.10499999969244,9.668466e-06
471.1199999996924,8.611173e-06,471.1199999996924,0.003653096,471.1199999996924,2.23706e-05,471.1199999996924,9.962669e-06
471.1349999996924,8.697441e-06,471.1349999996924,0.003694431,471.1349999996924,2.257369e-05,471.1349999996924,1.022641e-05
471.1499999996924,8.674737e-06,471.1499999996924,0.003863505,471.1499999996924,2.230312e-05,471.1499999996924,9.90026e-06
471.1649999996924,8.525684e-06,471.1649999996924,0.004098947,471.1649999996924,2.17674e-05,471.1649999996924,9.524612e-06
471.17999999969237,8.392462e-06,471.17999999969237,0.00414132,471.17999999969237,2.104417e-05,471.17999999969237,9.266738e-06
471.19499999969236,7.963557e-06,471.19499999969236,0.004129736,471.19499999969236,1.95182e-05,471.19499999969236,9.071627e-06
471.20999999969234,7.847737e-06,471.20999999969234,0.004222354,471.20999999969234,1.924419e-05,471.20999999969234,8.620983e-06
471.22499999969233,7.90675e-06,471.22499999969233,0.004295148,471.22499999969233,2.040525e-05,471.22499999969233,9.63051e-06
471.2399999996923,7.766543e-06,471.2399999996923,0.00431031,471.2399999996923,1.924126e-05,471.2399999996923,9.685934e-06
471.2549999996923,8.512456e-06,471.2549999996923,0.004272012,471.2549999996923,2.293216e-05,471.2549999996923,1.038768e-05
471.2699999996923,8.446003e-06,471.2699999996923,0.004213972,471.2699999996923,2.625111e-05,471.2699999996923,1.205013e-05
471.2849999996923,8.452672e-06,471.2849999996923,0.004167126,471.2849999996923,2.727279e-05,471.2849999996923,1.36289e-05
471.29999999969226,9.407047e-06,471.29999999969226,0.003956156,471.29999999969226,2.770682e-05,471.29999999969226,1.373803e-05
471.31499999969225,1.031693e-05,471.31499999969225,0.003705883,471.31499999969225,3.214828e-05,471.31499999969225,1.56199e-05
471.32999999969223,1.086492e-05,471.32999999969223,0.003406366,471.32999999969223,3.392009e-05,471.32999999969223,1.768481e-05
471.3449999996922,1.117301e-05,471.3449999996922,0.003045755,471.3449999996922,3.417618e-05,471.3449999996922,1.778806e-05
471.3599999996922,1.175784e-05,471.3599999996922,0.002766968,471.3599999996922,3.557612e-05,471.3599999996922,1.874133e-05
471.3749999996922,1.183783e-05,471.3749999996922,0.002697335,471.3749999996922,3.591542e-05,471.3749999996922,1.936605e-05
471.3899999996922,1.219653e-05,471.3899999996922,0.002721093,471.3899999996922,3.671796e-05,471.3899999996922,1.93515e-05
471.40499999969217,1.23697e-05,471.40499999969217,0.002547212,471.40499999969217,3.746311e-05,471.40499999969217,1.991615e-05
471.41999999969215,1.264341e-05,471.41999999969215,0.002288675,471.41999999969215,3.904687e-05,471.41999999969215,2.03541e-05
471.43499999969214,1.276096e-05,471.43499999969214,0.002222526,471.43499999969214,4.004005e-05,471.43499999969214,2.086535e-05
471.4499999996921,1.275433e-05,471.4499999996921,0.001916578,471.4499999996921,4.009349e-05,471.4499999996921,2.098787e-05
471.4649999996921,1.286321e-05,471.4649999996921,0.001376641,471.4649999996921,4.071996e-05,471.4649999996921,2.120222e-05
471.4799999996921,1.285992e-05,471.4799999996921,0.0007717659,471.4799999996921,4.052438e-05,471.4799999996921,2.097108e-05
471.4949999996921,1.287634e-05,471.4949999996921,0.0004989156,471.4949999996921,4.049135e-05,471.4949999996921,2.109699e-05
471.50999999969207,1.265788e-05,471.50999999969207,0.0004896449,471.50999999969207,3.862648e-05,471.50999999969207,2.05257e-05
471.52499999969206,1.243331e-05,471.52499999969206,0.0004777913,471.52499999969206,3.5946e-05,471.52499999969206,1.929317e-05
471.53999999969204,1.427607e-05,471.53999999969204,0.0004163533,471.53999999969204,3.595854e-05,471.53999999969204,1.88918e-05
471.55499999969203,2.105354e-05,471.55499999969203,0.00118265,471.55499999969203,3.686957e-05,471.55499999969203,1.85593e-05
471.569999999692,2.13076e-05,471.569999999692,0.001612049,471.569999999692,3.493644e-05,471.569999999692,1.726646e-05
471.584999999692,2.277437e-05,471.584999999692,0.001952013,471.584999999692,4.048439e-05,471.584999999692,1.99119e-05
471.599999999692,2.331292e-05,471.599999999692,0.002146859,471.599999999692,4.046003e-05,471.599999999692,1.995642e-05
471.614999999692,2.31279e-05,471.614999999692,0.002482591,471.614999999692,3.924443e-05,471.614999999692,1.872253e-05
471.62999999969196,2.304124e-05,471.62999999969196,0.002665997,471.62999999969196,3.948812e-05,471.62999999969196,1.889777e-05
471.64499999969195,2.369351e-05,471.64499999969195,0.003044984,471.64499999969195,4.256062e-05,471.64499999969195,1.980905e-05
471.65999999969193,2.49119e-05,471.65999999969193,0.003315659,471.65999999969193,4.873817e-05,471.65999999969193,2.350609e-05
471.6749999996919,2.571602e-05,471.6749999996919,0.003532207,471.6749999996919,5.265707e-05,471.6749999996919,2.45743e-05
471.6899999996919,2.76228e-05,471.6899999996919,0.003811913,471.6899999996919,6.083232e-05,471.6899999996919,2.900248e-05
471.7049999996919,2.92318e-05,471.7049999996919,0.004048758,471.7049999996919,6.802037e-05,471.7049999996919,3.310802e-05
471.7199999996919,3.103668e-05,471.7199999996919,0.004265382,471.7199999996919,7.916846e-05,471.7199999996919,3.429386e-05
471.73499999969187,3.201875e-05,471.73499999969187,0.004468535,471.73499999969187,8.187086e-05,471.73499999969187,3.513586e-05
471.74999999969185,3.244574e-05,471.74999999969185,0.004652415,471.74999999969185,8.395097e-05,471.74999999969185,3.549089e-05
471.76499999969184,3.265951e-05,471.76499999969184,0.004852369,471.76499999969184,8.426952e-05,471.76499999969184,3.568642e-05
471.7799999996918,3.362226e-05,471.7799999996918,0.005035649,471.7799999996918,8.494365e-05,471.7799999996918,3.618738e-05
471.7949999996918,3.131097e-05,471.7949999996918,0.005174343,471.7949999996918,8.46115e-05,471.7949999996918,3.601452e-05
471.8099999996918,2.912656e-05,471.8099999996918,0.005182456,471.8099999996918,8.582482e-05,471.8099999996918,3.852497e-05
471.8249999996918,2.841316e-05,471.8249999996918,0.00523716,471.8249999996918,9.172788e-05,471.8249999996918,4.640903e-05
471.83999999969177,3.135862e-05,471.83999999969177,0.00528147,471.83999999969177,9.839302e-05,471.83999999969177,4.674594e-05
471.85499999969176,3.269831e-05,471.85499999969176,0.005298497,471.85499999969176,0.0001055298,471.85499999969176,5.13605e-05
471.86999999969174,3.293782e-05,471.86999999969174,0.005296891,471.86999999969174,0.000105872,471.86999999969174,5.265573e-05
471.88499999969173,4.406642e-05,471.88499999969173,0.005340322,471.88499999969173,0.0001088639,471.88499999969173,5.909294e-05
471.8999999996917,0.0003550119,471.8999999996917,0.005340363,471.8999999996917,0.000178737,471.8999999996917,0.000168125
471.9149999996917,0.0003879938,471.9149999996917,0.005313505,471.9149999996917,0.0001851964,471.9149999996917,0.0001737758
471.9299999996917,0.000446728,471.9299999996917,0.005259115,471.9299999996917,0.0002723529,471.9299999996917,0.0005842361
471.9449999996917,0.0004515125,471.9449999996917,0.005130163,471.9449999996917,0.0002847354,471.9449999996917,0.0006044324
471.95999999969166,0.0004562196,471.95999999969166,0.005038517,471.95999999969166,0.0002846909,471.95999999969166,0.0006553365
471.97499999969165,0.0004605801,471.97499999969165,0.004975324,471.97499999969165,0.0002896383,471.97499999969165,0.0006861773
471.98999999969163,0.0004617712,471.98999999969163,0.004895671,471.98999999969163,0.000291134,471.98999999969163,0.0006917316
472.0049999996916,0.0004618862,472.0049999996916,0.004786701,472.0049999996916,0.000291294,472.0049999996916,0.0006918244
472.0199999996916,0.0004618236,472.0199999996916,0.004607994,472.0199999996916,0.0002911731,472.0199999996916,0.0006926215
472.0349999996916,0.0004618373,472.0349999996916,0.004353473,472.0349999996916,0.0002910416,472.0349999996916,0.0006936506
472.0499999996916,0.0004627618,472.0499999996916,0.004232874,472.0499999996916,0.0003394706,472.0499999996916,0.0007441265
472.06499999969157,0.0004650396,472.06499999969157,0.004077036,472.06499999969157,0.0004073297,472.06499999969157,0.00119962
472.07999999969155,0.0005737396,472.07999999969155,0.004120542,472.07999999969155,0.000410057,472.07999999969155,0.001542678
472.09499999969154,0.0006067993,472.09499999969154,0.004071567,472.09499999969154,0.0004802164,472.09499999969154,0.001615464
472.1099999996915,0.0006445121,472.1099999996915,0.004157111,472.1099999996915,0.0005527018,472.1099999996915,0.001624856
472.1249999996915,0.0007049188,472.1249999996915,0.00418148,472.1249999996915,0.0005852605,472.1249999996915,0.001667314
472.1399999996915,0.0007371206,472.1399999996915,0.004097121,472.1399999996915,0.0006144648,472.1399999996915,0.00168457
472.1549999996915,0.0007069797,472.1549999996915,0.004013254,472.1549999996915,0.0006894182,472.1549999996915,0.001729577
472.16999999969147,0.0007106619,472.16999999969147,0.004014533,472.16999999969147,0.0007207084,472.16999999969147,0.001763348
472.18499999969146,0.0006838031,472.18499999969146,0.004130639,472.18499999969146,0.0006938892,472.18499999969146,0.001685156
472.19999999969144,0.00068411,472.19999999969144,0.004363378,472.19999999969144,0.0006965391,472.19999999969144,0.001891805
472.21499999969143,0.0007341211,472.21499999969143,0.004474054,472.21499999969143,0.0006983654,472.21499999969143,0.001936971
472.2299999996914,0.0007591565,472.2299999996914,0.004526185,472.2299999996914,0.0007047592,472.2299999996914,0.001959505
472.2449999996914,0.0008027387,472.2449999996914,0.004622933,472.2449999996914,0.0007978224,472.2449999996914,0.001962458
472.2599999996914,0.000806516,472.2599999996914,0.004743136,472.2599999996914,0.0008107376,472.2599999996914,0.00196926
472.2749999996914,0.0008111784,472.2749999996914,0.004878509,472.2749999996914,0.0008219511,472.2749999996914,0.001971525
472.28999999969136,0.0008188659,472.28999999969136,0.004982938,472.28999999969136,0.0008386511,472.28999999969136,0.001971578
472.30499999969135,0.0008187568,472.30499999969135,0.005040775,472.30499999969135,0.0007906872,472.30499999969135,0.001786952
472.31999999969133,0.0008188392,472.31999999969133,0.004999815,472.31999999969133,0.0007874366,472.31999999969133,0.001641311
472.3349999996913,0.0007426406,472.3349999996913,0.004757711,472.3349999996913,0.0007818703,472.3349999996913,0.001345618
472.3499999996913,0.0007152851,472.3499999996913,0.004633914,472.3499999996913,0.0007496766,472.3499999996913,0.001310518
472.3649999996913,0.0007595662,472.3649999996913,0.004784166,472.3649999996913,0.0007152402,472.3649999996913,0.001302795
472.3799999996913,0.0007037381,472.3799999996913,0.004840997,472.3799999996913,0.0006995921,472.3799999996913,0.001257727
472.39499999969127,0.0006706808,472.39499999969127,0.004863772,472.39499999969127,0.0006613721,472.39499999969127,0.001252579
472.40999999969125,0.0006135323,472.40999999969125,0.004869588,472.40999999969125,0.0005805066,472.40999999969125,0.001126869
472.42499999969124,0.0006088678,472.42499999969124,0.004812898,472.42499999969124,0.0005636929,472.42499999969124,0.001185317
472.4399999996912,0.0006399667,472.4399999996912,0.004663586,472.4399999996912,0.0005619607,472.4399999996912,0.0009060294
472.4549999996912,0.0007966642,472.4549999996912,0.004541232,472.4549999996912,0.0005627304,472.4549999996912,0.000785336
472.4699999996912,0.0007858989,472.4699999996912,0.004469715,472.4699999996912,0.0005533475,472.4699999996912,0.0006231586
472.4849999996912,0.0007613138,472.4849999996912,0.004393439,472.4849999996912,0.0005357735,472.4849999996912,0.0005805286
472.49999999969117,0.0007289668,472.49999999969117,0.004283667,472.49999999969117,0.000390002,472.49999999969117,0.000567966
472.51499999969116,0.0009860301,472.51499999969116,0.004141081,472.51499999969116,0.0003851872,472.51499999969116,0.0005540693
472.52999999969114,0.001469805,472.52999999969114,0.003973391,472.52999999969114,0.0003726865,472.52999999969114,0.00105812
472.54499999969113,0.001958511,472.54499999969113,0.003843767,472.54499999969113,0.0003805761,472.54499999969113,0.001258772
472.5599999996911,0.00219907,472.5599999996911,0.003754961,472.5599999996911,0.000386218,472.5599999996911,0.001377585
472.5749999996911,0.002257489,472.5749999996911,0.003726693,472.5749999996911,0.0003831132,472.5749999996911,0.001429667
472.5899999996911,0.002299892,472.5899999996911,0.003669116,472.5899999996911,0.0003796951,472.5899999996911,0.001442788
472.6049999996911,0.002390135,472.6049999996911,0.003518952,472.6049999996911,0.0003378557,472.6049999996911,0.001484669
472.61999999969106,0.002480256,472.61999999969106,0.003231033,472.61999999969106,0.0003008775,472.61999999969106,0.001514649
472.63499999969105,0.002505298,472.63499999969105,0.002871026,472.63499999969105,0.0002741056,472.63499999969105,0.001517218
472.64999999969103,0.002507174,472.64999999969103,0.00240951,472.64999999969103,0.0002738019,472.64999999969103,0.001516747
472.664999999691,0.002507441,472.664999999691,0.001791246,472.664999999691,0.0002730678,472.664999999691,0.00148337
472.679999999691,0.00250633,472.679999999691,0.001397519,472.679999999691,0.0002711453,472.679999999691,0.001460074
472.694999999691,0.002478966,472.694999999691,0.001417607,472.694999999691,0.0002544606,472.694999999691,0.001448517
472.709999999691,0.002443101,472.709999999691,0.001306228,472.709999999691,0.0002499643,472.709999999691,0.001434391
472.72499999969097,0.002437641,472.72499999969097,0.001078718,472.72499999969097,0.000249885,472.72499999969097,0.001429931
472.73999999969095,0.002437336,472.73999999969095,0.0008381022,472.73999999969095,0.0002498252,472.73999999969095,0.001429526
472.75499999969094,0.002436532,472.75499999969094,0.0006370112,472.75499999969094,0.0002498117,472.75499999969094,0.001429483
472.7699999996909,0.002206048,472.7699999996909,0.0004870782,472.7699999996909,0.0001692379,472.7699999996909,0.001282536
472.7849999996909,0.0019457,472.7849999996909,0.00037921,472.7849999996909,0.0001530148,472.7849999996909,0.001043527
472.7999999996909,0.001427405,472.7999999996909,0.0003013883,472.7999999996909,0.0001030395,472.7999999996909,0.000776064
472.8149999996909,0.001184638,472.8149999996909,0.0002411485,472.8149999996909,8.061116e-05,472.8149999996909,0.0006401558
472.82999999969087,0.0009520923,472.82999999969087,0.0001895679,472.82999999969087,7.224326e-05,472.82999999969087,0.0004637316
472.84499999969086,0.0008957096,472.84499999969086,0.0001492278,472.84499999969086,5.205519e-05,472.84499999969086,0.0004249574
472.85999999969084,0.0006184154,472.85999999969084,0.0001157332,472.85999999969084,2.633255e-05,472.85999999969084,0.0002679685
472.87499999969083,0.0006018686,472.87499999969083,8.647071e-05,472.87499999969083,0.0002493949,472.87499999969083,0.0002239491
472.8899999996908,0.001240266,472.8899999996908,0.00108638,472.8899999996908,0.0003583649,472.8899999996908,0.001030139
472.9049999996908,0.001798327,472.9049999996908,0.001658843,472.9049999996908,0.0003957048,472.9049999996908,0.001382887
472.9199999996908,0.002148279,472.9199999996908,0.002132799,472.9199999996908,0.0004122943,472.9199999996908,0.001566114
472.9349999996908,0.002163653,472.9349999996908,0.002475867,472.9349999996908,0.0004133041,472.9349999996908,0.001573114
472.94999999969076,0.002202999,472.94999999969076,0.002834498,472.94999999969076,0.0006109843,472.94999999969076,0.001593474
472.96499999969075,0.00228863,472.96499999969075,0.003118434,472.96499999969075,0.0006199632,472.96499999969075,0.001635557
472.97999999969073,0.002394449,472.97999999969073,0.003288015,472.97999999969073,0.0006434919,472.97999999969073,0.001657485
472.9949999996907,0.002494874,472.9949999996907,0.003367841,472.9949999996907,0.0006547017,472.9949999996907,0.001712177
473.0099999996907,0.002577586,473.0099999996907,0.003400055,473.0099999996907,0.0006564983,473.0099999996907,0.001715916
473.0249999996907,0.002668819,473.0249999996907,0.003429147,473.0249999996907,0.000662307,473.0249999996907,0.001728258
473.0399999996907,0.0026701,473.0399999996907,0.003426734,473.0399999996907,0.0006627088,473.0399999996907,0.001737355
473.05499999969066,0.002670925,473.05499999969066,0.003731788,473.05499999969066,0.0006714322,473.05499999969066,0.001741928
473.06999999969065,0.002693987,473.06999999969065,0.004031955,473.06999999969065,0.0007039999,473.06999999969065,0.001753334
473.08499999969064,0.002720449,473.08499999969064,0.004285405,473.08499999969064,0.0007395736,473.08499999969064,0.001755656
473.0999999996906,0.002896028,473.0999999996906,0.004467096,473.0999999996906,0.0008190403,473.0999999996906,0.00176291
473.1149999996906,0.002913691,473.1149999996906,0.004646576,473.1149999996906,0.0008509068,473.1149999996906,0.001769396
473.1299999996906,0.002785996,473.1299999996906,0.004804669,473.1299999996906,0.0007706785,473.1299999996906,0.001576453
473.1449999996906,0.00260336,473.1449999996906,0.004672375,473.1449999996906,0.0007668819,473.1449999996906,0.001359872
473.15999999969057,0.002234742,473.15999999969057,0.004539034,473.15999999969057,0.0007587764,473.15999999969057,0.0009884486
473.17499999969056,0.001960468,473.17499999969056,0.004546472,473.17499999969056,0.000753735,473.17499999969056,0.0007559622
473.18999999969054,0.001961539,473.18999999969054,0.00474,473.18999999969054,0.0007411365,473.18999999969054,0.0007505711
473.20499999969053,0.001919308,473.20499999969053,0.004826711,473.20499999969053,0.0005868219,473.20499999969053,0.000717562
473.2199999996905,0.001838983,473.2199999996905,0.004832073,473.2199999996905,0.0005811349,473.2199999996905,0.0006508764
473.2349999996905,0.001752836,473.2349999996905,0.004762101,473.2349999996905,0.0005611832,473.2349999996905,0.0006180442
473.2499999996905,0.001623165,473.2499999996905,0.004665753,473.2499999996905,0.0005575599,473.2499999996905,0.000423612
473.2649999996905,0.00139222,473.2649999996905,0.00458583,473.2649999996905,0.0005533887,473.2649999996905,0.0004140518
473.27999999969046,0.001314409,473.27999999969046,0.004610115,473.27999999969046,0.0005525952,473.27999999969046,0.0003768357
473.29499999969045,0.001304355,473.29499999969045,0.004645408,473.29499999969045,0.0005521995,473.29499999969045,0.0003374876
473.30999999969043,0.001302256,473.30999999969043,0.004838197,473.30999999969043,0.0005384604,473.30999999969043,0.0003103885
473.3249999996904,0.001267952,473.3249999996904,0.004918968,473.3249999996904,0.00046209,473.3249999996904,0.0002399599
473.3399999996904,0.001018484,473.3399999996904,0.004916852,473.3399999996904,0.0003973885,473.3399999996904,0.0002231424
473.3549999996904,0.0007008344,473.3549999996904,0.004939355,473.3549999996904,0.0002453117,473.3549999996904,0.0001648604
473.3699999996904,0.0005843575,473.3699999996904,0.004926193,473.3699999996904,0.0001470779,473.3699999996904,0.000107547
473.38499999969036,0.0004681694,473.38499999969036,0.004926193,473.38499999969036,0.0001468672,473.38499999969036,0.0001009113
473.39999999969035,0.0003640597,473.39999999969035,0.004769627,473.39999999969035,0.0001359838,473.39999999969035,0.0001013134
473.41499999969034,0.0003163491,473.41499999969034,0.004686743,473.41499999969034,0.0001205508,473.41499999969034,9.628272e-05
473.4299999996903,0.0006421661,473.4299999996903,0.004659027,473.4299999996903,0.000222129,473.4299999996903,0.0001920741
473.4449999996903,0.000722571,473.4449999996903,0.004554592,473.4449999996903,0.000240853,473.4449999996903,0.0002044156
473.4599999996903,0.0008308064,473.4599999996903,0.004456016,473.4599999996903,0.0002843915,473.4599999996903,0.0004272163
473.4749999996903,0.00111702,473.4749999996903,0.004366109,473.4749999996903,0.0003227886,473.4749999996903,0.0005810742
473.48999999969027,0.001133971,473.48999999969027,0.004368653,473.48999999969027,0.000325011,473.48999999969027,0.0006153546
473.50499999969026,0.001174184,473.50499999969026,0.004308489,473.50499999969026,0.0003300018,473.50499999969026,0.0006603953
473.51999999969024,0.001326098,473.51999999969024,0.004235486,473.51999999969024,0.0004068191,473.51999999969024,0.0008896817
473.5349999996902,0.001649088,473.5349999996902,0.004132736,473.5349999996902,0.0004407617,473.5349999996902,0.001087744
473.5499999996902,0.002042432,473.5499999996902,0.003984799,473.5499999996902,0.0004965905,473.5499999996902,0.001316913
473.5649999996902,0.002227358,473.5649999996902,0.003797309,473.5649999996902,0.0005032638,473.5649999996902,0.001475184
473.5799999996902,0.002242422,473.5799999996902,0.003543567,473.5799999996902,0.0005063562,473.5799999996902,0.001484998
473.5949999996902,0.002317343,473.5949999996902,0.003260488,473.5949999996902,0.0005114285,473.5949999996902,0.001510735
473.60999999969016,0.002360193,473.60999999969016,0.003001968,473.60999999969016,0.0005127655,473.60999999969016,0.001523055
473.62499999969015,0.002367836,473.62499999969015,0.002751814,473.62499999969015,0.0005121552,473.62499999969015,0.001524975
473.63999999969013,0.002367455,473.63999999969013,0.002526141,473.63999999969013,0.000510701,473.63999999969013,0.001525001
473.6549999996901,0.002366498,473.6549999996901,0.002161894,473.6549999996901,0.0005105978,473.6549999996901,0.001525188
473.6699999996901,0.002359531,473.6699999996901,0.001546297,473.6699999996901,0.0005035272,473.6699999996901,0.001525308
473.6849999996901,0.002282827,473.6849999996901,0.0009711832,473.6849999996901,0.0004664596,473.6849999996901,0.00151532
473.6999999996901,0.002262472,473.6999999996901,0.0008902021,473.6999999996901,0.0004603169,473.6999999996901,0.001513645
473.71499999969006,0.002133127,473.71499999969006,0.0009004423,473.71499999969006,0.0004169531,473.71499999969006,0.001418855
473.72999999969005,0.002093713,473.72999999969005,0.0008322329,473.72999999969005,0.0004068701,473.72999999969005,0.001404548
473.74499999969004,0.00235725,473.74499999969004,0.0007196114,473.74499999969004,0.0005432147,473.74499999969004,0.00169345
473.75999999969,0.002459355,473.75999999969,0.000782121,473.75999999969,0.0005465131,473.75999999969,0.001842458
473.77499999969,0.002502179,473.77499999969,0.001574064,473.77499999969,0.0004779889,473.77499999969,0.00183176
473.78999999969,0.002478934,473.78999999969,0.001971084,473.78999999969,0.0007193855,473.78999999969,0.00181814
473.80499999969,0.002280683,473.80499999969,0.002353243,473.80499999969,0.0007425337,473.80499999969,0.001642427
473.81999999968997,0.002285251,473.81999999968997,0.002662545,473.81999999968997,0.0007583438,473.81999999968997,0.001642015
473.83499999968996,0.002347626,473.83499999968996,0.002873748,473.83499999968996,0.0007760983,473.83499999968996,0.001644734
473.84999999968994,0.002327094,473.84999999968994,0.002976132,473.84999999968994,0.0007815624,473.84999999968994,0.001629673
473.8649999996899,0.002308248,473.8649999996899,0.003021432,473.8649999996899,0.0007822249,473.8649999996899,0.001623084
473.8799999996899,0.002304713,473.8799999996899,0.003031356,473.8799999996899,0.0007822516,473.8799999996899,0.00162236
473.8949999996899,0.002305481,473.8949999996899,0.003086296,473.8949999996899,0.0007823785,473.8949999996899,0.001622464
473.9099999996899,0.002399748,473.9099999996899,0.003196603,473.9099999996899,0.0007834811,473.9099999996899,0.001796805
473.9249999996899,0.002487245,473.9249999996899,0.003286896,473.9249999996899,0.000788699,473.9249999996899,0.001825428
473.93999999968986,0.002576907,473.93999999968986,0.003320816,473.93999999968986,0.0007916397,473.93999999968986,0.001891909
473.95499999968985,0.002589836,473.95499999968985,0.003500033,473.95499999968985,0.0007960025,473.95499999968985,0.001909469
473.96999999968983,0.002645514,473.96999999968983,0.003824807,473.96999999968983,0.0007971715,473.96999999968983,0.00191037
473.9849999996898,0.002652893,473.9849999996898,0.004095173,473.9849999996898,0.0007756081,473.9849999996898,0.001912587
473.9999999996898,0.00240647,473.9999999996898,0.004322563,473.9999999996898,0.0007102263,473.9999999996898,0.001617171
474.0149999996898,0.00219186,474.0149999996898,0.004427489,474.0149999996898,0.0007057747,474.0149999996898,0.001317876
474.0299999996898,0.00201598,474.0299999996898,0.004367283,474.0299999996898,0.0007041912,474.0299999996898,0.001148097
474.04499999968976,0.001729188,474.04499999968976,0.004262945,474.04499999968976,0.0003303525,474.04499999968976,0.001129691
474.05999999968975,0.001696357,474.05999999968975,0.004262945,474.05999999968975,0.0003111655,474.05999999968975,0.001090541
474.07499999968974,0.001562834,474.07499999968974,0.004265435,474.07499999968974,0.0002646916,474.07499999968974,0.001046569
474.0899999996897,0.001460825,474.0899999996897,0.004220866,474.0899999996897,0.0002149201,474.0899999996897,0.001031201
474.1049999996897,0.001434032,474.1049999996897,0.004205894,474.1049999996897,0.0001977678,474.1049999996897,0.001029328
474.1199999996897,0.001456297,474.1199999996897,0.004175133,474.1199999996897,0.0002461262,474.1199999996897,0.001037368
474.1349999996897,0.001486878,474.1349999996897,0.00413291,474.1349999996897,0.0002665931,474.1349999996897,0.001041901
474.14999999968967,0.001607732,474.14999999968967,0.004175089,474.14999999968967,0.0003183974,474.14999999968967,0.001126305
474.16499999968966,0.001588011,474.16499999968966,0.004266085,474.16499999968966,0.0003396075,474.16499999968966,0.0008342818
474.17999999968964,0.001384536,474.17999999968964,0.004245425,474.17999999968964,0.0003380314,474.17999999968964,0.0007882157
474.1949999996896,0.001305415,474.1949999996896,0.004230485,474.1949999996896,0.0003358455,474.1949999996896,0.0007009757
474.2099999996896,0.00129452,474.2099999996896,0.004182983,474.2099999996896,0.0003327616,474.2099999996896,0.0006820114
474.2249999996896,0.00119042,474.2249999996896,0.004063858,474.2249999996896,0.0003292692,474.2249999996896,0.000679812
474.2399999996896,0.001561577,474.2399999996896,0.003882527,474.2399999996896,0.0004288838,474.2399999996896,0.001112607
474.2549999996896,0.001857445,474.2549999996896,0.003641517,474.2549999996896,0.0004508081,474.2549999996896,0.001226284
474.26999999968956,0.002290595,474.26999999968956,0.003362471,474.26999999968956,0.0004978873,474.26999999968956,0.001547441
474.28499999968955,0.002355179,474.28499999968955,0.003124665,474.28499999968955,0.000499755,474.28499999968955,0.001602259
474.29999999968953,0.002425108,474.29999999968953,0.002935946,474.29999999968953,0.0005038696,474.29999999968953,0.001631605
474.3149999996895,0.002489847,474.3149999996895,0.002705417,474.3149999996895,0.0005059519,474.3149999996895,0.001667448
474.3299999996895,0.002503927,474.3299999996895,0.002414952,474.3299999996895,0.0005062626,474.3299999996895,0.001679938
474.3449999996895,0.002505807,474.3449999996895,0.002225153,474.3449999996895,0.000505641,474.3449999996895,0.001681318
474.3599999996895,0.002500615,474.3599999996895,0.001655291,474.3599999996895,0.0005048086,474.3599999996895,0.001681398
474.37499999968946,0.002483338,474.37499999968946,0.001028248,474.37499999968946,0.0004726604,474.37499999968946,0.001674079
474.38999999968945,0.002467739,474.38999999968945,0.0008799987,474.38999999968945,0.0004653015,474.38999999968945,0.00167288
474.40499999968944,0.002317971,474.40499999968944,0.0008985387,474.40499999968944,0.0004179413,474.40499999968944,0.001583044
474.4199999996894,0.002428703,474.4199999996894,0.0008386044,474.4199999996894,0.0005357247,474.4199999996894,0.001716967
474.4349999996894,0.002575067,474.4349999996894,0.0007130426,474.4349999996894,0.0005481605,474.4349999996894,0.001877473
474.4499999996894,0.00280346,474.4499999996894,0.0006897544,474.4499999996894,0.000558055,474.4499999996894,0.002118205
474.4649999996894,0.002928504,474.4649999996894,0.001532174,474.4649999996894,0.0006774812,474.4649999996894,0.002163896
474.47999999968937,0.003161568,474.47999999968937,0.001942577,474.47999999968937,0.0008509409,474.47999999968937,0.002174452
474.49499999968936,0.003017898,474.49499999968936,0.002327382,474.49499999968936,0.0008026767,474.49499999968936,0.00199557
474.50999999968934,0.002923619,474.50999999968934,0.002636601,474.50999999968934,0.0008173294,474.50999999968934,0.002022965
474.5249999996893,0.002761958,474.5249999996893,0.002834202,474.5249999996893,0.0008010009,474.5249999996893,0.001792154
474.5399999996893,0.002774046,474.5399999996893,0.002928233,474.5399999996893,0.0008028463,474.5399999996893,0.001859078
474.5549999996893,0.002763541,474.5549999996893,0.002967917,474.5549999996893,0.0008006747,474.5549999996893,0.001856147
474.5699999996893,0.00277341,474.5699999996893,0.002975479,474.5699999996893,0.0008013928,474.5699999996893,0.001871133
474.5849999996893,0.00283123,474.5849999996893,0.003038647,474.5849999996893,0.0008081189,474.5849999996893,0.001882317
474.59999999968926,0.002992308,474.59999999968926,0.003154275,474.59999999968926,0.0008189226,474.59999999968926,0.00189975
474.61499999968925,0.003000885,474.61499999968925,0.0032544,474.61499999968925,0.0008191639,474.61499999968925,0.001910355
474.62999999968923,0.003000992,474.62999999968923,0.003319572,474.62999999968923,0.000819571,474.62999999968923,0.00192218
474.6449999996892,0.003001275,474.6449999996892,0.003358076,474.6449999996892,0.000819856,474.6449999996892,0.001925941
474.6599999996892,0.003000696,474.6599999996892,0.003379557,474.6599999996892,0.000819902,474.6599999996892,0.001926284
474.6749999996892,0.002782232,474.6749999996892,0.003391927,474.6749999996892,0.0007334829,474.6749999996892,0.001652729
474.6899999996892,0.002692187,474.6899999996892,0.003400268,474.6899999996892,0.0007271584,474.6899999996892,0.001517758
474.70499999968916,0.002466425,474.70499999968916,0.003284341,474.70499999968916,0.0007209862,474.70499999968916,0.001209179
474.71999999968915,0.002246452,474.71999999968915,0.002937297,474.71999999968915,0.0004357366,474.71999999968915,0.00133715
474.73499999968914,0.0020361,474.73499999968914,0.002776709,474.73499999968914,0.000318205,474.73499999968914,0.001440334
474.7499999996891,0.001950377,474.7499999996891,0.002722343,474.7499999996891,0.0003072337,474.7499999996891,0.001453601
474.7649999996891,0.001731301,474.7649999996891,0.002577691,474.7649999996891,0.0002430447,474.7649999996891,0.001323189
474.7799999996891,0.001574,474.7799999996891,0.002525414,474.7799999996891,0.0002333669,474.7799999996891,0.00132553
474.7949999996891,0.001522417,474.7949999996891,0.002728923,474.7949999996891,0.0002226774,474.7949999996891,0.001174595
474.80999999968907,0.001464662,474.80999999968907,0.00287545,474.80999999968907,0.0002213218,474.80999999968907,0.001161917
474.82499999968906,0.001365012,474.82499999968906,0.003060193,474.82499999968906,0.0002119455,474.82499999968906,0.001117061
474.83999999968904,0.001050528,474.83999999968904,0.003228743,474.83999999968904,0.000160238,474.83999999968904,0.001062409
474.854999999689,0.000909618,474.854999999689,0.003311164,474.854999999689,0.0001719369,474.854999999689,0.001059512
474.869999999689,0.0009997243,474.869999999689,0.003340563,474.869999999689,0.0001774362,474.869999999689,0.001047148
474.884999999689,0.001032932,474.884999999689,0.003520137,474.884999999689,0.0002016819,474.884999999689,0.001111651
474.899999999689,0.001037222,474.899999999689,0.003740034,474.899999999689,0.0002271732,474.899999999689,0.00114354
474.914999999689,0.001042324,474.914999999689,0.003902479,474.914999999689,0.0002297532,474.914999999689,0.001163998
474.92999999968896,0.001043758,474.92999999968896,0.003995674,474.92999999968896,0.0002352758,474.92999999968896,0.001186006
474.94499999968895,0.001043788,474.94499999968895,0.004040685,474.94499999968895,0.0002377831,474.94499999968895,0.001191909
474.95999999968893,0.001013671,474.95999999968893,0.004058861,474.95999999968893,0.0002321555,474.95999999968893,0.0009908581
474.9749999996889,0.0008886241,474.9749999996889,0.004065093,474.9749999996889,0.0002251782,474.9749999996889,0.0008736074
474.9899999996889,0.0007392884,474.9899999996889,0.003952753,474.9899999996889,0.0002108885,474.9899999996889,0.0007042767
475.0049999996889,0.0006963919,475.0049999996889,0.003809489,475.0049999996889,0.0002083814,475.0049999996889,0.0006401046
475.0199999996889,0.0006887301,475.0199999996889,0.003712201,475.0199999996889,0.0002071389,475.0199999996889,0.0006385162
475.03499999968886,0.00129837,475.03499999968886,0.003551356,475.03499999968886,0.0004311,475.03499999968886,0.00117652
475.04999999968885,0.001514581,475.04999999968885,0.003265674,475.04999999968885,0.0004688127,475.04999999968885,0.001463249
475.06499999968884,0.001826353,475.06499999968884,0.003060288,475.06499999968884,0.0004849927,475.06499999968884,0.001662235
475.0799999996888,0.001846418,475.0799999996888,0.003060239,475.0799999996888,0.0004891171,475.0799999996888,0.001667601
475.0949999996888,0.00190693,475.0949999996888,0.002957505,475.0949999996888,0.0004915235,475.0949999996888,0.001681178
475.1099999996888,0.002122717,475.1099999996888,0.002927956,475.1099999996888,0.0005752408,475.1099999996888,0.001691209
475.1249999996888,0.002145352,475.1249999996888,0.003072216,475.1249999996888,0.0005835844,475.1249999996888,0.001712934
475.13999999968877,0.002237143,475.13999999968877,0.003140211,475.13999999968877,0.0005860921,475.13999999968877,0.001647067
475.15499999968875,0.002279085,475.15499999968875,0.003128354,475.15499999968875,0.0005916831,475.15499999968875,0.001641022
475.16999999968874,0.002285514,475.16999999968874,0.003106516,475.16999999968874,0.0005918769,475.16999999968874,0.001627841
475.1849999996887,0.002285705,475.1849999996887,0.003096473,475.1849999996887,0.0005902239,475.1849999996887,0.001617802
475.1999999996887,0.00242065,475.1999999996887,0.003165153,475.1999999996887,0.0005919469,475.1999999996887,0.001668014
475.2149999996887,0.002455769,475.2149999996887,0.003289934,475.2149999996887,0.0005935099,475.2149999996887,0.001674577
475.2299999996887,0.002511206,475.2299999996887,0.003361254,475.2299999996887,0.0005963201,475.2299999996887,0.001686479
475.2449999996887,0.002574571,475.2449999996887,0.003484105,475.2449999996887,0.0006007701,475.2449999996887,0.001692741
475.25999999968866,0.002594386,475.25999999968866,0.003825075,475.25999999968866,0.0006021196,475.25999999968866,0.001693373
475.27499999968865,0.002528678,475.27499999968865,0.004025808,475.27499999968865,0.0004865426,475.27499999968865,0.001561101
475.28999999968863,0.002385101,475.28999999968863,0.004267108,475.28999999968863,0.0004563682,475.28999999968863,0.001292131
475.3049999996886,0.002273005,475.3049999996886,0.004465138,475.3049999996886,0.0004253731,475.3049999996886,0.0009294029
475.3199999996886,0.002080702,475.3199999996886,0.004466838,475.3199999996886,0.0004205796,475.3199999996886,0.0006425587
475.3349999996886,0.002077278,475.3349999996886,0.004312613,475.3349999996886,0.0004178883,475.3349999996886,0.0006353042
475.3499999996886,0.001887767,475.3499999996886,0.004293406,475.3499999996886,0.0003015343,475.3499999996886,0.0006181561
475.36499999968856,0.001756387,475.36499999968856,0.004458924,475.36499999968856,0.0002574952,475.36499999968856,0.0005836399
475.37999999968855,0.001781067,475.37999999968855,0.004523806,475.37999999968855,0.0002570672,475.37999999968855,0.0005534695
475.39499999968854,0.00178935,475.39499999968854,0.004537452,475.39499999968854,0.0002636636,475.39499999968854,0.0005470507
475.4099999996885,0.001796387,475.4099999996885,0.004530888,475.4099999996885,0.0002668419,475.4099999996885,0.0005534787
475.4249999996885,0.001796713,475.4249999996885,0.00445146,475.4249999996885,0.0002706725,475.4249999996885,0.0005551365
475.4399999996885,0.001823993,475.4399999996885,0.004460192,475.4399999996885,0.000276853,475.4399999996885,0.0005557854
475.4549999996885,0.001688321,475.4549999996885,0.004621061,475.4549999996885,0.0002963728,475.4549999996885,0.0003617856
475.46999999968847,0.001676481,475.46999999968847,0.00477973,475.46999999968847,0.0003006994,475.46999999968847,0.0003762996
475.48499999968845,0.00158676,475.48499999968845,0.004821373,475.48499999968845,0.0003121036,475.48499999968845,0.0004731386
475.49999999968844,0.001546495,475.49999999968844,0.004798428,475.49999999968844,0.0003073158,475.49999999968844,0.0004803855
475.5149999996884,0.001514073,475.5149999996884,0.00466282,475.5149999996884,0.0003057541,475.5149999996884,0.0005087652
475.5299999996884,0.001475933,475.5299999996884,0.004532896,475.5299999996884,0.0003042304,475.5299999996884,0.000516365
475.5449999996884,0.00141562,475.5449999996884,0.004287857,475.5449999996884,0.0002993936,475.5449999996884,0.0005152684
475.5599999996884,0.001349001,475.5599999996884,0.004110479,475.5599999996884,0.0002911006,475.5599999996884,0.0005130602
475.5749999996884,0.001328395,475.5749999996884,0.003932585,475.5749999996884,0.0002891542,475.5749999996884,0.000512971
475.58999999968836,0.001304704,475.58999999968836,0.003724785,475.58999999968836,0.000286849,475.58999999968836,0.0005134956
475.60499999968835,0.001272328,475.60499999968835,0.003504889,475.60499999968835,0.0002836621,475.60499999968835,0.0005135603
475.61999999968833,0.00126345,475.61999999968833,0.003200847,475.61999999968833,0.0002802778,475.61999999968833,0.0005133618
475.6349999996883,0.001004189,475.6349999996883,0.002820188,475.6349999996883,0.0002474853,475.6349999996883,0.0004975732
475.6499999996883,0.0008980915,475.6499999996883,0.00232795,475.6499999996883,0.0002058194,475.6499999996883,0.000484923
475.6649999996883,0.001361338,475.6649999996883,0.001725349,475.6649999996883,0.0003602924,475.6649999996883,0.00105462
475.6799999996883,0.001436349,475.6799999996883,0.001435362,475.6799999996883,0.0003741998,475.6799999996883,0.001259232
475.69499999968826,0.001562868,475.69499999968826,0.001456522,475.69499999968826,0.0003819593,475.69499999968826,0.001471395
475.70999999968825,0.001557425,475.70999999968825,0.001638437,475.70999999968825,0.0003737605,475.70999999968825,0.001480483
475.72499999968824,0.00150557,475.72499999968824,0.002103146,475.72499999968824,0.0003732988,475.72499999968824,0.001458452
475.7399999996882,0.001710199,475.7399999996882,0.002236575,475.7399999996882,0.000451577,475.7399999996882,0.001460582
475.7549999996882,0.001727033,475.7549999996882,0.002449353,475.7549999996882,0.0004583537,475.7549999996882,0.001461112
475.7699999996882,0.001842999,475.7699999996882,0.002648054,475.7699999996882,0.0004851605,475.7699999996882,0.001458909
475.7849999996882,0.002083887,475.7849999996882,0.002756217,475.7849999996882,0.0005001707,475.7849999996882,0.001460614
475.79999999968817,0.002306652,475.79999999968817,0.002808413,475.79999999968817,0.0005080973,475.79999999968817,0.001476239
475.81499999968815,0.00266548,475.81499999968815,0.002892346,475.81499999968815,0.0005458618,475.81499999968815,0.00147819
475.82999999968814,0.002809085,475.82999999968814,0.003209144,475.82999999968814,0.0005531515,475.82999999968814,0.001485262
475.8449999996881,0.003013001,475.8449999996881,0.003486205,475.8449999996881,0.0005958407,475.8449999996881,0.001488597
475.8599999996881,0.003084974,475.8599999996881,0.003643363,475.8599999996881,0.0006058814,475.8599999996881,0.001488952
475.8749999996881,0.003154447,475.8749999996881,0.003980428,475.8749999996881,0.0006176546,475.8749999996881,0.001491211
475.8899999996881,0.00321089,475.8899999996881,0.004261219,475.8899999996881,0.0006227581,475.8899999996881,0.001491742
475.9049999996881,0.003235805,475.9049999996881,0.004379705,475.9049999996881,0.0005888247,475.9049999996881,0.001449611
475.91999999968806,0.003172056,475.91999999968806,0.004519243,475.91999999968806,0.0005569768,475.91999999968806,0.00111286
475.93499999968805,0.003182707,475.93499999968805,0.00463017,475.93499999968805,0.0005528348,475.93499999968805,0.0008114351
475.94999999968803,0.003127782,475.94999999968803,0.004682187,475.94999999968803,0.0005473971,475.94999999968803,0.0004672889
475.964999999688,0.003149009,475.964999999688,0.004479046,475.964999999688,0.0005440569,475.964999999688,0.0004557526
475.979999999688,0.00314957,475.979999999688,0.004224049,475.979999999688,0.0005397038,475.979999999688,0.000407566
475.994999999688,0.002965118,475.994999999688,0.00421184,475.994999999688,0.0004558439,475.994999999688,0.000393778
476.009999999688,0.002951348,476.009999999688,0.004175656,476.009999999688,0.000448312,476.009999999688,0.0003603492
476.02499999968796,0.002905243,476.02499999968796,0.004133599,476.02499999968796,0.0004279983,476.02499999968796,0.000343395
476.03999999968795,0.002681742,476.03999999968795,0.004333046,476.03999999968795,0.0004168729,476.03999999968795,0.0003040499
476.05499999968794,0.002485639,476.05499999968794,0.004403761,476.05499999968794,0.0004011413,476.05499999968794,0.0002364307
476.0699999996879,0.002125062,476.0699999996879,0.004423743,476.0699999996879,0.0003518753,476.0699999996879,0.0002241048
476.0849999996879,0.001974787,476.0849999996879,0.00434907,476.0849999996879,0.0003397522,476.0849999996879,0.0001682975
476.0999999996879,0.001646164,476.0999999996879,0.004339793,476.0999999996879,0.0002541118,476.0999999996879,0.0001599716
476.1149999996879,0.001566641,476.1149999996879,0.004218771,476.1149999996879,0.0002390789,476.1149999996879,0.0001475269
476.12999999968787,0.00144625,476.12999999968787,0.004201766,476.12999999968787,0.0002126407,476.12999999968787,0.0001171992
476.14499999968785,0.001201523,476.14499999968785,0.004281897,476.14499999968785,0.0001855121,476.14499999968785,0.0001112527
476.15999999968784,0.001197346,476.15999999968784,0.004382844,476.15999999968784,0.0001849627,476.15999999968784,0.0001092161
476.1749999996878,0.0008703052,476.1749999996878,0.004378161,476.1749999996878,0.0001322363,476.1749999996878,8.21445e-05
476.1899999996878,0.0008055268,476.1899999996878,0.004245879,476.1899999996878,0.0001188617,476.1899999996878,5.426024e-05
476.2049999996878,0.0007252536,476.2049999996878,0.00406027,476.2049999996878,0.0001213535,476.2049999996878,6.028896e-05
476.2199999996878,0.00065572,476.2199999996878,0.004129033,476.2199999996878,0.0001396987,476.2199999996878,0.0001401245
476.2349999996878,0.000654814,476.2349999996878,0.004324104,476.2349999996878,0.000145351,476.2349999996878,0.0001604778
476.24999999968776,0.0007752526,476.24999999968776,0.004474117,476.24999999968776,0.0001522679,476.24999999968776,0.0001744072
476.26499999968775,0.0009450006,476.26499999968775,0.004554099,476.26499999968775,0.000187034,476.26499999968775,0.00042182
476.27999999968773,0.001206024,476.27999999968773,0.004475805,476.27999999968773,0.0002239855,476.27999999968773,0.0004953311
476.2949999996877,0.001194844,476.2949999996877,0.00433433,476.2949999996877,0.0002227655,476.2949999996877,0.0005338799
476.3099999996877,0.001171861,476.3099999996877,0.004190415,476.3099999996877,0.0002235362,476.3099999996877,0.000570887
476.3249999996877,0.001173825,476.3249999996877,0.004033166,476.3249999996877,0.0002260215,476.3249999996877,0.0005805246
476.3399999996877,0.001173127,476.3399999996877,0.003877691,476.3399999996877,0.0002263591,476.3399999996877,0.0005809687
476.35499999968766,0.001166779,476.35499999968766,0.003709893,476.35499999968766,0.0002256993,476.35499999968766,0.0005814724
476.36999999968765,0.00116499,476.36999999968765,0.003549206,476.36999999968765,0.0002255365,476.36999999968765,0.0005825071
476.38499999968764,0.001156225,476.38499999968764,0.003266623,476.38499999968764,0.0002245735,476.38499999968764,0.000583084
476.3999999996876,0.001144426,476.3999999996876,0.002913706,476.3999999996876,0.0002233962,476.3999999996876,0.0005833437
476.4149999996876,0.001518485,476.4149999996876,0.002461829,476.4149999996876,0.0004053466,476.4149999996876,0.001126988
476.4299999996876,0.001542853,476.4299999996876,0.001857447,476.4299999996876,0.000420961,476.4299999996876,0.001311397
476.4449999996876,0.001688576,476.4449999996876,0.002183117,476.4449999996876,0.0004383618,476.4449999996876,0.001557462
476.45999999968757,0.001707541,476.45999999968757,0.002613027,476.45999999968757,0.0004414786,476.45999999968757,0.001572217
476.47499999968755,0.002022884,476.47499999968755,0.002748594,476.47499999968755,0.0005849042,476.47499999968755,0.001567785
476.48999999968754,0.002167631,476.48999999968754,0.002839342,476.48999999968754,0.0006013094,476.48999999968754,0.001596875
476.5049999996875,0.002177278,476.5049999996875,0.002941286,476.5049999996875,0.0006186261,476.5049999996875,0.001619868
476.5199999996875,0.002175655,476.5199999996875,0.003001658,476.5199999996875,0.0006200157,476.5199999996875,0.001557547
476.5349999996875,0.002167142,476.5349999996875,0.003034452,476.5349999996875,0.0006217476,476.5349999996875,0.001552102
476.5499999996875,0.002170177,476.5499999996875,0.003078822,476.5499999996875,0.0006217399,476.5499999996875,0.001540097
476.5649999996875,0.002299998,476.5649999996875,0.003121097,476.5649999996875,0.0006254474,476.5649999996875,0.001580305
