X[s],a: EMG RMS 1-1,X[s].1,a: EMG RMS 1-2,X[s].2,a: EMG RMS 1-3,X[s].3,a: EMG RMS 1-4
212.00999999992806,8.326743e-06,212.00999999992806,7.083556e-06,212.00999999992806,2.295365e-05,212.00999999992806,3.224279e-06
212.02499999992804,6.505105e-06,212.02499999992804,7.190141e-06,212.02499999992804,2.256371e-05,212.02499999992804,3.250386e-06
212.03999999992803,5.768253e-06,212.03999999992803,7.194059e-06,212.03999999992803,2.296838e-05,212.03999999992803,3.224279e-06
212.05499999992801,5.22494e-06,212.05499999992801,7.023643e-06,212.05499999992801,2.165255e-05,212.05499999992801,3.219907e-06
212.069999999928,5.652309e-06,212.069999999928,6.957143e-06,212.069999999928,2.187005e-05,212.069999999928,3.166973e-06
212.084999999928,5.687093e-06,212.084999999928,6.724452e-06,212.084999999928,2.239577e-05,212.084999999928,3.108612e-06
212.09999999992797,5.634837e-06,212.09999999992797,6.778699e-06,212.09999999992797,2.252747e-05,212.09999999992797,3.062961e-06
212.11499999992796,5.454455e-06,212.11499999992796,6.887957e-06,212.11499999992796,2.280774e-05,212.11499999992796,3.049133e-06
212.12999999992795,5.459618e-06,212.12999999992795,6.918566e-06,212.12999999992795,2.182234e-05,212.12999999992795,2.964809e-06
212.14499999992793,5.379038e-06,212.14499999992793,7.043671e-06,212.14499999992793,2.242029e-05,212.14499999992793,2.997883e-06
212.15999999992792,5.604757e-06,212.15999999992792,6.883865e-06,212.15999999992792,2.306385e-05,212.15999999992792,2.892662e-06
212.1749999999279,5.407768e-06,212.1749999999279,6.981399e-06,212.1749999999279,2.246046e-05,212.1749999999279,2.912075e-06
212.1899999999279,5.399948e-06,212.1899999999279,6.844875e-06,212.1899999999279,2.107227e-05,212.1899999999279,2.916909e-06
212.20499999992788,5.425972e-06,212.20499999992788,6.791156e-06,212.20499999992788,2.027227e-05,212.20499999992788,2.916909e-06
212.21999999992786,5.339611e-06,212.21999999992786,6.716067e-06,212.21999999992786,2.062019e-05,212.21999999992786,2.974296e-06
212.23499999992785,5.241091e-06,212.23499999992785,6.776621e-06,212.23499999992785,1.993382e-05,212.23499999992785,3.19355e-06
212.24999999992784,5.159829e-06,212.24999999992784,6.834577e-06,212.24999999992784,1.666702e-05,212.24999999992784,3.254718e-06
212.26499999992782,5.162558e-06,212.26499999992782,6.842817e-06,212.26499999992782,1.797006e-05,212.26499999992782,3.250386e-06
212.2799999999278,5.162558e-06,212.2799999999278,6.569749e-06,212.2799999999278,1.805842e-05,212.2799999999278,3.219907e-06
212.2949999999278,5.787757e-06,212.2949999999278,6.398117e-06,212.2949999999278,1.805296e-05,212.2949999999278,3.271984e-06
212.30999999992778,6.260124e-06,212.30999999992778,6.417902e-06,212.30999999992778,1.900999e-05,212.30999999992778,3.219907e-06
212.32499999992777,8.58496e-06,212.32499999992777,6.561167e-06,212.32499999992777,1.848705e-05,212.32499999992777,3.140172e-06
212.33999999992776,1.200914e-05,212.33999999992776,6.398117e-06,212.33999999992776,1.868487e-05,212.33999999992776,3.224279e-06
212.35499999992774,1.37134e-05,212.35499999992774,6.351713e-06,212.35499999992774,1.897662e-05,212.35499999992774,3.263362e-06
212.36999999992773,1.431056e-05,212.36999999992773,6.226279e-06,212.36999999992773,1.875861e-05,212.36999999992773,3.228645e-06
212.38499999992771,1.487622e-05,212.38499999992771,6.121322e-06,212.38499999992771,1.861614e-05,212.38499999992771,3.166973e-06
212.3999999999277,1.609953e-05,212.3999999999277,6.226279e-06,212.3999999999277,1.737382e-05,212.3999999999277,3.189136e-06
212.4149999999277,1.692616e-05,212.4149999999277,6.189974e-06,212.4149999999277,1.719288e-05,212.4149999999277,3.180289e-06
212.42999999992767,1.755209e-05,212.42999999992767,6.479067e-06,212.42999999992767,1.751111e-05,212.42999999992767,3.280583e-06
212.44499999992766,1.770392e-05,212.44499999992766,6.80152e-06,212.44499999992766,1.75288e-05,212.44499999992766,3.29344e-06
212.45999999992765,1.77063e-05,212.45999999992765,6.667651e-06,212.45999999992765,1.716828e-05,212.45999999992765,3.310505e-06
212.47499999992763,1.775636e-05,212.47499999992763,6.969281e-06,212.47499999992763,1.736733e-05,212.47499999992763,3.488681e-06
212.48999999992762,1.799826e-05,212.48999999992762,6.926705e-06,212.48999999992762,1.697021e-05,212.48999999992762,3.443979e-06
212.5049999999276,1.809661e-05,212.5049999999276,6.863372e-06,212.5049999999276,1.730232e-05,212.5049999999276,3.419349e-06
212.5199999999276,1.855702e-05,212.5199999999276,6.789081e-06,212.5199999999276,1.616154e-05,212.5199999999276,3.468433e-06
212.53499999992758,1.859873e-05,212.53499999992758,7.057657e-06,212.53499999992758,1.658398e-05,212.53499999992758,3.460301e-06
212.54999999992756,1.839309e-05,212.54999999992756,7.037669e-06,212.54999999992756,1.506254e-05,212.54999999992756,3.484641e-06
212.56499999992755,1.842447e-05,212.56499999992755,7.205797e-06,212.56499999992755,1.513717e-05,212.56499999992755,3.681221e-06
212.57999999992754,1.726483e-05,212.57999999992754,7.16266e-06,212.57999999992754,1.531757e-05,212.57999999992754,3.745709e-06
212.59499999992752,1.581973e-05,212.59499999992752,7.341366e-06,212.59499999992752,1.428495e-05,212.59499999992752,3.827552e-06
212.6099999999275,1.496496e-05,212.6099999999275,7.579281e-06,212.6099999999275,1.436362e-05,212.6099999999275,3.838577e-06
212.6249999999275,1.495555e-05,212.6249999999275,7.691819e-06,212.6249999999275,1.438714e-05,212.6249999999275,3.83123e-06
212.63999999992748,1.460095e-05,212.63999999992748,7.682656e-06,212.63999999992748,1.472967e-05,212.63999999992748,3.83123e-06
212.65499999992747,1.373803e-05,212.65499999992747,7.656943e-06,212.65499999992747,1.606625e-05,212.65499999992747,3.775675e-06
212.66999999992746,1.278192e-05,212.66999999992746,7.678988e-06,212.66999999992746,1.611615e-05,212.66999999992746,3.82387e-06
212.68499999992744,1.447304e-05,212.68499999992744,7.242846e-06,212.68499999992744,1.600124e-05,212.68499999992744,3.700305e-06
212.69999999992743,1.57179e-05,212.69999999992743,6.873626e-06,212.69999999992743,1.698349e-05,212.69999999992743,3.715501e-06
212.71499999992741,1.572238e-05,212.71499999992741,6.737009e-06,212.71499999992741,1.669657e-05,212.71499999992741,3.568524e-06
212.7299999999274,1.570265e-05,212.7299999999274,6.728641e-06,212.7299999999274,1.544031e-05,212.7299999999274,3.439886e-06
212.7449999999274,1.544031e-05,212.7449999999274,6.772462e-06,212.7449999999274,1.59748e-05,212.7449999999274,3.54476e-06
212.75999999992737,1.529272e-05,212.75999999992737,6.844875e-06,212.75999999992737,1.554215e-05,212.75999999992737,3.607783e-06
212.77499999992736,1.480027e-05,212.77499999992736,7.320229e-06,212.77499999992736,1.558108e-05,212.77499999992736,3.65048e-06
212.78999999992735,1.476501e-05,212.78999999992735,7.27777e-06,212.78999999992735,1.559373e-05,212.78999999992735,3.779404e-06
212.80499999992733,1.608728e-05,212.80499999992733,7.40061e-06,212.80499999992733,1.57814e-05,212.80499999992733,3.745709e-06
212.81999999992732,2.292479e-05,212.81999999992732,7.440475e-06,212.81999999992732,1.599155e-05,212.81999999992732,3.516832e-06
212.8349999999273,2.95095e-05,212.8349999999273,7.406318e-06,212.8349999999273,1.62207e-05,212.8349999999273,3.611685e-06
212.8499999999273,3.203723e-05,212.8499999999273,7.087532e-06,212.8499999999273,1.578497e-05,212.8499999999273,3.57641e-06
212.86499999992728,3.301514e-05,212.86499999992728,6.879772e-06,212.86499999992728,1.567841e-05,212.86499999992728,3.692683e-06
212.87999999992726,3.308717e-05,212.87999999992726,6.912455e-06,212.87999999992726,1.564964e-05,212.87999999992726,3.812802e-06
212.89499999992725,3.335473e-05,212.89499999992725,7.349037e-06,212.89499999992725,1.493764e-05,212.89499999992725,3.779404e-06
212.90999999992724,3.360298e-05,212.90999999992724,7.478244e-06,212.90999999992724,1.344995e-05,212.90999999992724,3.79057e-06
212.92499999992722,3.36386e-05,212.92499999992722,7.508323e-06,212.92499999992722,1.318979e-05,212.92499999992722,3.8751e-06
212.9399999999272,3.240403e-05,212.9399999999272,8.000618e-06,212.9399999999272,1.282482e-05,212.9399999999272,3.871464e-06
212.9549999999272,3.44635e-05,212.9549999999272,8.107309e-06,212.9549999999272,1.146301e-05,212.9549999999272,3.84957e-06
212.96999999992718,3.482862e-05,212.96999999992718,7.982992e-06,212.96999999992718,1.143964e-05,212.96999999992718,3.889614e-06
212.98499999992717,3.497271e-05,212.98499999992717,7.961788e-06,212.98499999992717,1.093342e-05,212.98499999992717,3.82387e-06
212.99999999992716,3.50025e-05,212.99999999992716,7.917432e-06,212.99999999992716,1.033875e-05,212.99999999992716,3.73441e-06
213.01499999992714,3.503629e-05,213.01499999992714,8.009417e-06,213.01499999992714,1.030326e-05,213.01499999992714,3.627253e-06
213.02999999992713,3.577592e-05,213.02999999992713,7.782849e-06,213.02999999992713,9.266738e-06,213.02999999992713,3.662038e-06
213.04499999992711,3.646619e-05,213.04499999992711,8.068993e-06,213.04499999992711,9.564462e-06,213.04499999992711,3.619477e-06
213.0599999999271,3.461969e-05,213.0599999999271,8.1264e-06,213.0599999999271,8.36051e-06,213.0599999999271,3.592131e-06
213.0749999999271,2.841217e-05,213.0749999999271,8.204034e-06,213.0749999999271,6.816002e-06,213.0749999999271,3.476546e-06
213.08999999992707,2.601826e-05,213.08999999992707,8.143716e-06,213.08999999992707,6.400318e-06,213.08999999992707,3.468433e-06
213.10499999992706,2.248491e-05,213.10499999992706,8.205751e-06,213.10499999992706,7.956479e-06,213.10499999992706,3.443979e-06
213.11999999992705,2.222529e-05,213.11999999992705,8.164447e-06,213.11999999992705,8.797286e-06,213.11999999992705,3.468433e-06
213.13499999992703,2.192217e-05,213.13499999992703,8.140256e-06,213.13499999992703,1.067658e-05,213.13499999992703,3.406967e-06
213.14999999992702,2.167466e-05,213.14999999992702,7.806343e-06,213.14999999992702,1.074366e-05,213.14999999992702,3.415227e-06
213.164999999927,2.159849e-05,213.164999999927,7.573703e-06,213.164999999927,1.11136e-05,213.164999999927,3.340158e-06
213.179999999927,2.155344e-05,213.179999999927,7.493299e-06,213.179999999927,1.298854e-05,213.179999999927,3.29344e-06
213.19499999992698,2.168765e-05,213.19499999992698,6.924671e-06,213.19499999992698,1.386154e-05,213.19499999992698,3.319004e-06
213.20999999992696,1.752317e-05,213.20999999992696,7.013608e-06,213.20999999992696,1.405932e-05,213.20999999992696,3.373728e-06
213.22499999992695,1.72844e-05,213.22499999992695,6.965238e-06,213.22499999992695,1.446818e-05,213.22499999992695,3.301983e-06
213.23999999992694,1.736327e-05,213.23999999992694,6.975343e-06,213.23999999992694,1.480693e-05,213.23999999992694,3.331712e-06
213.25499999992692,1.754245e-05,213.25499999992692,6.79323e-06,213.25499999992692,1.48639e-05,213.25499999992692,3.423466e-06
213.2699999999269,1.765691e-05,213.2699999999269,6.520246e-06,213.2699999999269,1.514462e-05,213.2699999999269,3.406967e-06
213.2849999999269,1.606274e-05,213.2849999999269,6.50294e-06,213.2849999999269,1.593949e-05,213.2849999999269,3.280583e-06
213.29999999992688,1.528719e-05,213.29999999992688,5.782887e-06,213.29999999992688,1.556751e-05,213.29999999992688,3.259043e-06
213.31499999992687,1.458937e-05,213.31499999992687,5.694519e-06,213.31499999992687,1.59165e-05,213.31499999992687,3.361178e-06
213.32999999992686,1.441257e-05,213.32999999992686,5.778013e-06,213.32999999992686,1.599772e-05,213.32999999992686,3.276286e-06
213.34499999992684,1.439203e-05,213.34499999992684,5.736418e-06,213.34499999992684,1.610653e-05,213.34499999992684,3.267676e-06
213.35999999992683,1.442137e-05,213.35999999992683,5.853103e-06,213.35999999992683,1.621462e-05,213.35999999992683,3.197958e-06
213.3749999999268,1.468657e-05,213.3749999999268,5.974584e-06,213.3749999999268,1.477645e-05,213.3749999999268,3.094987e-06
213.3899999999268,1.626406e-05,213.3899999999268,5.974584e-06,213.3899999999268,1.517806e-05,213.3899999999268,3.072146e-06
213.4049999999268,1.60285e-05,213.4049999999268,5.924864e-06,213.4049999999268,1.511762e-05,213.4049999999268,3.035241e-06
213.41999999992677,1.616938e-05,213.41999999992677,5.920107e-06,213.41999999992677,1.443308e-05,213.41999999992677,3.237359e-06
213.43499999992676,1.621723e-05,213.43499999992676,5.881913e-06,213.43499999992676,1.368357e-05,213.43499999992676,3.202359e-06
213.44999999992675,1.614322e-05,213.44999999992675,5.958057e-06,213.44999999992675,1.407434e-05,213.44999999992675,3.233005e-06
213.46499999992673,1.676225e-05,213.46499999992673,6.123622e-06,213.46499999992673,1.37329e-05,213.46499999992673,3.094987e-06
213.47999999992672,1.676309e-05,213.47999999992672,6.404719e-06,213.47999999992672,1.380145e-05,213.47999999992672,3.215529e-06
213.4949999999267,1.676225e-05,213.4949999999267,6.378271e-06,213.4949999999267,1.356467e-05,213.4949999999267,3.175857e-06
213.5099999999267,1.714036e-05,213.5099999999267,6.369431e-06,213.5099999999267,1.419393e-05,213.5099999999267,3.094987e-06
213.52499999992668,1.661877e-05,213.52499999992668,6.452925e-06,213.52499999992668,1.480503e-05,213.52499999992668,3.090432e-06
213.53999999992666,1.695111e-05,213.53999999992666,6.463831e-06,213.53999999992666,1.457005e-05,213.53999999992666,3.099535e-06
213.55499999992665,1.681176e-05,213.55499999992665,6.541815e-06,213.55499999992665,1.448277e-05,213.55499999992665,3.067557e-06
213.56999999992664,1.574208e-05,213.56999999992664,6.650728e-06,213.56999999992664,1.427903e-05,213.56999999992664,3.072146e-06
213.58499999992662,1.5793e-05,213.58499999992662,6.599699e-06,213.58499999992662,1.408134e-05,213.58499999992662,3.250386e-06
213.5999999999266,1.647917e-05,213.5999999999266,6.667651e-06,213.5999999999266,1.42316e-05,213.5999999999266,3.254718e-06
213.6149999999266,1.647233e-05,213.6149999999266,6.722357e-06,213.6149999999266,1.391125e-05,213.6149999999266,3.241707e-06
213.62999999992658,1.61109e-05,213.62999999992658,6.667651e-06,213.62999999992658,1.473062e-05,213.62999999992658,3.219907e-06
213.64499999992657,1.452551e-05,213.64499999992657,6.614623e-06,213.64499999992657,1.456812e-05,213.64499999992657,3.237359e-06
213.65999999992655,1.42948e-05,213.65999999992655,6.75163e-06,213.65999999992655,1.477645e-05,213.65999999992655,3.323245e-06
213.67499999992654,1.427113e-05,213.67499999992654,6.918566e-06,213.67499999992654,1.519291e-05,213.67499999992654,3.297714e-06
213.68999999992653,1.406733e-05,213.68999999992653,6.955118e-06,213.68999999992653,1.428199e-05,213.68999999992653,3.301983e-06
213.7049999999265,1.438224e-05,213.7049999999265,7.15085e-06,213.7049999999265,1.390922e-05,213.7049999999265,3.28916e-06
213.7199999999265,1.401416e-05,213.7199999999265,7.318304e-06,213.7199999999265,1.427706e-05,213.7199999999265,3.254718e-06
213.7349999999265,1.408434e-05,213.7349999999265,7.115304e-06,213.7349999999265,1.56199e-05,213.7349999999265,3.19355e-06
213.74999999992647,1.421575e-05,213.74999999992647,7.14888e-06,213.74999999992647,1.563162e-05,213.74999999992647,3.259043e-06
213.76499999992646,1.360822e-05,213.76499999992646,7.137048e-06,213.76499999992646,1.496402e-05,213.76499999992646,3.276286e-06
213.77999999992645,1.417904e-05,213.77999999992645,7.146909e-06,213.77999999992645,1.408534e-05,213.77999999992645,3.472492e-06
213.79499999992643,1.351473e-05,213.79499999992643,7.115304e-06,213.79499999992643,1.42108e-05,213.79499999992643,3.419349e-06
213.80999999992642,1.37708e-05,213.80999999992642,7.047669e-06,213.80999999992642,1.470095e-05,213.80999999992642,3.423466e-06
213.8249999999264,1.365472e-05,213.8249999999264,6.844875e-06,213.8249999999264,1.537906e-05,213.8249999999264,3.4111e-06
213.8399999999264,1.388287e-05,213.8399999999264,6.776621e-06,213.8399999999264,1.461156e-05,213.8399999999264,3.297714e-06
213.85499999992638,1.309224e-05,213.85499999992638,6.667651e-06,213.85499999992638,1.472967e-05,213.85499999992638,3.28916e-06
213.86999999992636,1.294944e-05,213.86999999992636,6.635885e-06,213.86999999992636,1.493387e-05,213.86999999992636,3.348582e-06
213.88499999992635,1.313199e-05,213.88499999992635,6.533196e-06,213.88499999992635,1.403826e-05,213.88499999992635,3.36955e-06
213.89999999992634,1.312448e-05,213.89999999992634,6.599699e-06,213.89999999992634,1.410133e-05,213.89999999992634,3.415227e-06
213.91499999992632,1.336274e-05,213.91499999992632,6.48993e-06,213.91499999992632,1.449833e-05,213.91499999992632,3.280583e-06
213.9299999999263,1.293855e-05,213.9299999999263,6.393712e-06,213.9299999999263,1.452357e-05,213.9299999999263,3.19355e-06
213.9449999999263,1.261664e-05,213.9449999999263,6.559019e-06,213.9449999999263,1.466737e-05,213.9449999999263,3.335938e-06
213.95999999992628,1.216994e-05,213.95999999992628,6.105191e-06,213.95999999992628,1.479741e-05,213.95999999992628,3.356985e-06
213.97499999992627,1.201618e-05,213.97499999992627,6.077441e-06,213.97499999992627,1.411431e-05,213.97499999992627,3.439886e-06
213.98999999992625,1.228858e-05,213.98999999992625,6.075122e-06,213.98999999992625,1.306639e-05,213.98999999992625,3.524834e-06
214.00499999992624,1.216994e-05,214.00499999992624,6.180865e-06,214.00499999992624,1.333213e-05,214.00499999992624,3.524834e-06
214.01999999992623,1.216994e-05,214.01999999992623,6.061194e-06,214.01999999992623,1.276317e-05,214.01999999992623,3.431686e-06
214.0349999999262,1.150104e-05,214.0349999999262,6.114414e-06,214.0349999999262,1.365678e-05,214.0349999999262,3.301983e-06
214.0499999999262,1.185805e-05,214.0499999999262,6.105191e-06,214.0499999999262,1.358542e-05,214.0499999999262,3.267676e-06
214.0649999999262,1.185805e-05,214.0649999999262,6.13052e-06,214.0649999999262,1.355116e-05,214.0649999999262,3.323245e-06
214.07999999992617,1.133946e-05,214.07999999992617,6.203613e-06,214.07999999992617,1.288291e-05,214.07999999992617,3.4111e-06
214.09499999992616,1.132329e-05,214.09499999992616,6.333946e-06,214.09499999992616,1.278632e-05,214.09499999992616,3.406967e-06
214.10999999992615,1.117175e-05,214.10999999992615,6.463831e-06,214.10999999992615,1.477931e-05,214.10999999992615,3.415227e-06
214.12499999992613,1.123838e-05,214.12499999992613,6.442001e-06,214.12499999992613,1.448861e-05,214.12499999992613,3.331712e-06
214.13999999992612,1.198331e-05,214.13999999992612,6.487759e-06,214.13999999992612,1.433613e-05,214.13999999992612,3.352786e-06
214.1549999999261,1.181759e-05,214.1549999999261,6.42229e-06,214.1549999999261,1.447694e-05,214.1549999999261,3.443979e-06
214.1699999999261,1.148879e-05,214.1699999999261,6.300498e-06,214.1699999999261,1.355324e-05,214.1699999999261,3.484641e-06
214.18499999992608,1.287416e-05,214.18499999992608,6.116717e-06,214.18499999992608,1.462987e-05,214.18499999992608,3.435788e-06
214.19999999992606,1.28391e-05,214.19999999992606,6.347276e-06,214.19999999992606,1.479646e-05,214.19999999992606,3.327482e-06
214.21499999992605,1.296248e-05,214.21499999992605,6.347276e-06,214.21499999992605,1.503821e-05,214.21499999992605,3.323245e-06
214.22999999992604,1.292439e-05,214.22999999992604,6.584741e-06,214.22999999992604,1.568021e-05,214.22999999992604,3.171418e-06
214.24499999992602,1.290803e-05,214.24499999992602,6.834577e-06,214.24499999992602,1.520218e-05,214.24499999992602,3.233005e-06
214.259999999926,1.301779e-05,214.259999999926,6.910417e-06,214.259999999926,1.543574e-05,214.259999999926,3.224279e-06
214.274999999926,1.313628e-05,214.274999999926,6.963215e-06,214.274999999926,1.606187e-05,214.274999999926,3.280583e-06
214.28999999992598,1.315557e-05,214.28999999992598,6.989465e-06,214.28999999992598,1.662809e-05,214.28999999992598,3.382069e-06
214.30499999992597,1.335852e-05,214.30499999992597,7.091506e-06,214.30499999992597,1.657378e-05,214.30499999992597,3.340158e-06
214.31999999992595,1.423753e-05,214.31999999992595,7.131124e-06,214.31999999992595,1.609341e-05,214.31999999992595,3.472492e-06
214.33499999992594,1.442625e-05,214.33499999992594,7.051666e-06,214.33499999992594,1.84084e-05,214.33499999992594,3.406967e-06
214.34999999992593,1.458165e-05,214.34999999992593,7.063642e-06,214.34999999992593,1.759777e-05,214.34999999992593,3.365367e-06
214.3649999999259,1.470861e-05,214.3649999999259,7.087532e-06,214.3649999999259,1.713707e-05,214.3649999999259,3.398688e-06
214.3799999999259,1.480978e-05,214.3799999999259,7.213613e-06,214.3799999999259,1.730313e-05,214.3799999999259,3.435788e-06
214.3949999999259,1.567751e-05,214.3949999999259,7.144938e-06,214.3949999999259,1.783551e-05,214.3949999999259,3.344373e-06
214.40999999992587,1.57546e-05,214.40999999992587,7.067629e-06,214.40999999992587,1.79967e-05,214.40999999992587,3.28916e-06
214.42499999992586,1.513717e-05,214.42499999992586,7.077588e-06,214.42499999992586,1.824236e-05,214.42499999992586,3.28916e-06
214.43999999992585,1.484588e-05,214.43999999992585,6.930771e-06,214.43999999992585,1.834171e-05,214.43999999992585,3.377901e-06
214.45499999992583,1.540194e-05,214.45499999992583,6.757886e-06,214.45499999992583,1.838007e-05,214.45499999992583,3.394541e-06
214.46999999992582,1.554034e-05,214.46999999992582,6.824264e-06,214.46999999992582,1.820216e-05,214.46999999992582,3.394541e-06
214.4849999999258,1.538364e-05,214.4849999999258,6.446372e-06,214.4849999999258,1.866752e-05,214.4849999999258,3.386231e-06
214.4999999999258,1.512879e-05,214.4999999999258,6.463831e-06,214.4999999999258,1.887688e-05,214.4999999999258,3.327482e-06
214.51499999992578,1.500069e-05,214.51499999992578,6.393712e-06,214.51499999992578,2.019708e-05,214.51499999992578,3.254718e-06
214.52999999992576,1.476215e-05,214.52999999992576,6.398117e-06,214.52999999992576,1.877662e-05,214.52999999992576,3.284874e-06
214.54499999992575,1.460771e-05,214.54499999992575,6.448557e-06,214.54499999992575,1.884028e-05,214.54499999992575,3.211145e-06
214.55999999992574,1.402018e-05,214.55999999992574,6.378271e-06,214.55999999992574,1.922149e-05,214.55999999992574,3.241707e-06
214.57499999992572,1.287197e-05,214.57499999992572,6.289309e-06,214.57499999992572,1.925224e-05,214.57499999992572,3.344373e-06
214.5899999999257,1.273997e-05,214.5899999999257,6.411314e-06,214.5899999999257,1.809972e-05,214.5899999999257,3.310505e-06
214.6049999999257,1.233435e-05,214.6049999999257,6.380479e-06,214.6049999999257,1.853043e-05,214.6049999999257,3.259043e-06
214.61999999992568,1.204194e-05,214.61999999992568,6.189974e-06,214.61999999992568,1.915247e-05,214.61999999992568,3.237359e-06
214.63499999992567,1.072792e-05,214.63499999992567,6.19225e-06,214.63499999992567,1.886718e-05,214.63499999992567,3.250386e-06
214.64999999992565,9.248478e-06,214.64999999992565,6.201342e-06,214.64999999992565,1.923833e-05,214.64999999992565,3.331712e-06
214.66499999992564,9.13507e-06,214.66499999992564,6.362793e-06,214.66499999992564,1.919068e-05,214.66499999992564,3.496747e-06
214.67999999992563,9.601211e-06,214.67999999992563,6.320588e-06,214.67999999992563,1.775874e-05,214.67999999992563,3.67356e-06
214.6949999999256,9.921579e-06,214.6949999999256,6.373853e-06,214.6949999999256,1.826937e-05,214.6949999999256,3.580347e-06
214.7099999999256,1.017255e-05,214.7099999999256,6.311667e-06,214.7099999999256,1.787496e-05,214.7099999999256,3.685046e-06
214.7249999999256,1.263337e-05,214.7249999999256,6.378271e-06,214.7249999999256,1.724442e-05,214.7249999999256,3.665883e-06
214.73999999992557,1.366709e-05,214.73999999992557,6.266871e-06,214.73999999992557,1.693199e-05,214.73999999992557,3.677393e-06
214.75499999992556,1.457392e-05,214.75499999992556,6.233063e-06,214.75499999992556,1.670838e-05,214.75499999992556,3.70411e-06
214.76999999992555,1.469232e-05,214.76999999992555,6.146583e-06,214.76999999992555,1.479646e-05,214.76999999992555,3.696496e-06
214.78499999992553,1.478979e-05,214.78499999992553,6.040241e-06,214.78499999992553,1.490838e-05,214.78499999992553,3.635012e-06
214.79999999992552,1.491499e-05,214.79999999992552,6.08439e-06,214.79999999992552,1.448277e-05,214.79999999992552,3.65048e-06
214.8149999999255,1.504289e-05,214.8149999999255,6.13052e-06,214.8149999999255,1.454295e-05,214.8149999999255,3.500774e-06
214.8299999999255,1.524104e-05,214.8299999999255,5.969867e-06,214.8299999999255,1.604607e-05,214.8299999999255,3.448066e-06
214.84499999992548,1.554849e-05,214.84499999992548,5.867525e-06,214.84499999992548,1.505693e-05,214.84499999992548,3.464369e-06
214.85999999992546,1.632199e-05,214.85999999992546,5.724127e-06,214.85999999992546,1.388185e-05,214.85999999992546,3.492716e-06
214.87499999992545,1.637627e-05,214.87499999992545,6.023894e-06,214.87499999992545,1.36444e-05,214.87499999992545,3.607783e-06
214.88999999992544,1.646549e-05,214.88999999992544,6.042573e-06,214.88999999992544,1.418599e-05,214.88999999992544,3.638885e-06
214.90499999992542,1.702077e-05,214.90499999992542,6.387099e-06,214.90499999992542,1.307501e-05,214.90499999992542,3.423466e-06
214.9199999999254,1.762257e-05,214.9199999999254,6.260124e-06,214.9199999999254,1.313092e-05,214.9199999999254,3.448066e-06
214.9349999999254,1.734135e-05,214.9349999999254,6.226279e-06,214.9349999999254,1.332473e-05,214.9349999999254,3.24605e-06
214.94999999992538,1.664079e-05,214.94999999992538,6.520246e-06,214.94999999992538,1.284348e-05,214.94999999992538,3.301983e-06
214.96499999992537,1.518827e-05,214.96499999992537,6.476893e-06,214.96499999992537,1.282812e-05,214.96499999992537,3.254718e-06
214.97999999992535,1.417705e-05,214.97999999992535,7.027653e-06,214.97999999992535,1.504944e-05,214.97999999992535,3.211145e-06
214.99499999992534,1.339433e-05,214.99499999992534,7.04567e-06,214.99499999992534,1.525952e-05,214.99499999992534,3.29344e-06
215.00999999992533,1.292984e-05,215.00999999992533,7.19993e-06,215.00999999992533,1.57367e-05,215.00999999992533,3.344373e-06
215.0249999999253,1.336801e-05,215.0249999999253,7.314453e-06,215.0249999999253,1.586597e-05,215.0249999999253,3.319004e-06
215.0399999999253,1.331627e-05,215.0399999999253,7.350954e-06,215.0399999999253,1.577515e-05,215.0399999999253,3.377901e-06
215.0549999999253,1.356259e-05,215.0549999999253,7.168558e-06,215.0549999999253,1.615456e-05,215.0549999999253,3.472492e-06
215.06999999992527,1.346251e-05,215.06999999992527,7.268085e-06,215.06999999992527,1.391429e-05,215.06999999992527,3.476546e-06
215.08499999992526,1.342374e-05,215.08499999992526,8.664989e-06,215.08499999992526,1.37329e-05,215.08499999992526,3.464369e-06
215.09999999992525,1.344157e-05,215.09999999992525,8.889673e-06,215.09999999992525,1.371134e-05,215.09999999992525,3.532818e-06
215.11499999992523,1.263226e-05,215.11499999992523,9.029603e-06,215.11499999992523,1.398598e-05,215.11499999992523,3.532818e-06
215.12999999992522,1.27278e-05,215.12999999992522,8.838821e-06,215.12999999992522,1.409234e-05,215.12999999992522,3.456227e-06
215.1449999999252,1.281603e-05,215.1449999999252,8.729774e-06,215.1449999999252,1.322925e-05,215.1449999999252,3.496747e-06
215.1599999999252,1.166643e-05,215.1599999999252,9.066966e-06,215.1599999999252,1.341219e-05,215.1599999999252,3.423466e-06
215.17499999992518,1.152184e-05,215.17499999992518,9.263696e-06,215.17499999992518,1.337222e-05,215.17499999992518,3.394541e-06
215.18999999992516,1.147161e-05,215.18999999992516,9.34545e-06,215.18999999992516,1.294726e-05,215.18999999992516,3.4111e-06
215.20499999992515,1.146055e-05,215.20499999992515,9.272816e-06,215.20499999992515,1.276537e-05,215.20499999992515,3.335938e-06
215.21999999992514,1.152062e-05,215.21999999992514,9.278891e-06,215.21999999992514,1.291676e-05,215.21999999992514,3.306247e-06
215.23499999992512,1.184616e-05,215.23499999992512,9.307691e-06,215.23499999992512,1.089082e-05,215.23499999992512,3.348582e-06
215.2499999999251,1.200562e-05,215.2499999999251,9.334893e-06,215.2499999999251,1.195388e-05,215.2499999999251,3.224279e-06
215.2649999999251,1.171222e-05,215.2649999999251,9.221021e-06,215.2649999999251,1.176981e-05,215.2649999999251,3.254718e-06
215.27999999992508,1.115661e-05,215.27999999992508,9.23781e-06,215.27999999992508,1.177101e-05,215.27999999992508,3.189136e-06
215.29499999992507,1.102196e-05,215.29499999992507,9.156633e-06,215.29499999992507,1.235261e-05,215.29499999992507,3.215529e-06
215.30999999992505,1.073711e-05,215.30999999992505,9.204201e-06,215.30999999992505,1.216531e-05,215.30999999992505,3.171418e-06
215.32499999992504,1.039175e-05,215.32499999992504,8.724932e-06,215.32499999992504,1.242425e-05,215.32499999992504,3.122176e-06
215.33999999992503,1.037819e-05,215.33999999992503,8.062008e-06,215.33999999992503,1.245482e-05,215.33999999992503,3.090432e-06
215.354999999925,1.056251e-05,215.354999999925,7.791894e-06,215.354999999925,1.334481e-05,215.354999999925,3.011947e-06
215.369999999925,1.064619e-05,215.369999999925,7.742928e-06,215.369999999925,1.292766e-05,215.369999999925,3.104077e-06
215.384999999925,1.004013e-05,215.384999999925,8.002378e-06,215.384999999925,1.375545e-05,215.384999999925,3.085871e-06
215.39999999992497,1.015869e-05,215.39999999992497,7.711938e-06,215.39999999992497,1.378e-05,215.39999999992497,3.085871e-06
215.41499999992496,9.927257e-06,215.41499999992496,7.229218e-06,215.41499999992496,1.350117e-05,215.41499999992496,3.090432e-06
215.42999999992495,9.801591e-06,215.42999999992495,7.217518e-06,215.42999999992495,1.366606e-05,215.42999999992495,3.144655e-06
215.44499999992493,9.586528e-06,215.44499999992493,7.071614e-06,215.44499999992493,1.368563e-05,215.44499999992493,3.211145e-06
215.45999999992492,9.349971e-06,215.45999999992492,6.690851e-06,215.45999999992492,1.389301e-05,215.45999999992492,3.219907e-06
215.4749999999249,8.745896e-06,215.4749999999249,6.485587e-06,215.4749999999249,1.36289e-05,215.4749999999249,3.267676e-06
215.4899999999249,8.370614e-06,215.4899999999249,6.614623e-06,215.4899999999249,1.253599e-05,215.4899999999249,3.250386e-06
215.50499999992488,8.377342e-06,215.50499999992488,6.543968e-06,215.50499999992488,1.164951e-05,215.50499999992488,3.327482e-06
215.51999999992486,8.46433e-06,215.51999999992486,6.351713e-06,215.51999999992486,1.222998e-05,215.51999999992486,3.24605e-06
215.53499999992485,8.427637e-06,215.53499999992485,6.500773e-06,215.53499999992485,1.222768e-05,215.53499999992485,3.276286e-06
215.54999999992484,8.532291e-06,215.54999999992484,6.435437e-06,215.54999999992484,1.161924e-05,215.54999999992484,3.284874e-06
215.56499999992482,8.703918e-06,215.56499999992482,6.404719e-06,215.56499999992482,1.376568e-05,215.56499999992482,3.319004e-06
215.5799999999248,8.616079e-06,215.5799999999248,6.141998e-06,215.5799999999248,1.355532e-05,215.5799999999248,3.310505e-06
215.5949999999248,8.502521e-06,215.5949999999248,6.178585e-06,215.5949999999248,1.338381e-05,215.5949999999248,3.319004e-06
215.60999999992478,8.088174e-06,215.60999999992478,6.300498e-06,215.60999999992478,1.270454e-05,215.60999999992478,3.28916e-06
215.62499999992477,7.981227e-06,215.62499999992477,6.362793e-06,215.62499999992477,1.290694e-05,215.62499999992477,3.219907e-06
215.63999999992475,8.007658e-06,215.63999999992475,6.102884e-06,215.63999999992475,1.322712e-05,215.63999999992475,3.131187e-06
215.65499999992474,8.1264e-06,215.65499999992474,6.100575e-06,215.65499999992474,1.43381e-05,215.65499999992474,3.072146e-06
215.66999999992473,8.030494e-06,215.66999999992473,6.098266e-06,215.66999999992473,1.387272e-05,215.66999999992473,3.250386e-06
215.6849999999247,7.903186e-06,215.6849999999247,6.42229e-06,215.6849999999247,1.405531e-05,215.6849999999247,3.149131e-06
215.6999999999247,8.062008e-06,215.6999999999247,6.384893e-06,215.6999999999247,1.452357e-05,215.6999999999247,3.263362e-06
215.7149999999247,7.997096e-06,215.7149999999247,6.221753e-06,215.7149999999247,1.500632e-05,215.7149999999247,3.180289e-06
215.72999999992467,8.226325e-06,215.72999999992467,6.219488e-06,215.72999999992467,1.502884e-05,215.72999999992467,3.189136e-06
215.74499999992466,8.384065e-06,215.74499999992466,6.224016e-06,215.74499999992466,1.547494e-05,215.74499999992466,3.241707e-06
215.75999999992464,8.205751e-06,215.75999999992464,6.201342e-06,215.75999999992464,1.534605e-05,215.75999999992464,3.202359e-06
215.77499999992463,8.46433e-06,215.77499999992463,6.167175e-06,215.77499999992463,1.536348e-05,215.77499999992463,3.171418e-06
215.78999999992462,8.538892e-06,215.78999999992462,6.239839e-06,215.78999999992462,1.585265e-05,215.78999999992462,3.323245e-06
215.8049999999246,8.193725e-06,215.8049999999246,6.329497e-06,215.8049999999246,1.510736e-05,215.8049999999246,3.373728e-06
215.8199999999246,8.195444e-06,215.8199999999246,6.325044e-06,215.8199999999246,1.41193e-05,215.8199999999246,3.29344e-06
215.83499999992458,8.023475e-06,215.83499999992458,6.313899e-06,215.83499999992458,1.407734e-05,215.83499999992458,3.331712e-06
215.84999999992456,8.009417e-06,215.84999999992456,6.132817e-06,215.84999999992456,1.413825e-05,215.84999999992456,3.4111e-06
215.86499999992455,7.982992e-06,215.86499999992455,6.091332e-06,215.86499999992455,1.423259e-05,215.86499999992455,3.439886e-06
215.87999999992454,7.871038e-06,215.87999999992454,6.187698e-06,215.87999999992454,1.383713e-05,215.87999999992454,3.504795e-06
215.89499999992452,7.558809e-06,215.89499999992452,6.625263e-06,215.89499999992452,1.311052e-05,215.89499999992452,3.658189e-06
215.9099999999245,7.571843e-06,215.9099999999245,6.863372e-06,215.9099999999245,1.297986e-05,215.9099999999245,3.419349e-06
215.9249999999245,7.558809e-06,215.9249999999245,7.003558e-06,215.9249999999245,1.305237e-05,215.9249999999245,3.452149e-06
215.93999999992448,7.599698e-06,215.93999999992448,6.69506e-06,215.93999999992448,1.277199e-05,215.93999999992448,3.627253e-06
215.95499999992447,7.842351e-06,215.95499999992447,6.855157e-06,215.95499999992447,1.208981e-05,215.95499999992447,3.56062e-06
215.96999999992445,7.903186e-06,215.96999999992445,6.955118e-06,215.96999999992445,1.206181e-05,215.96999999992445,3.580347e-06
215.98499999992444,7.577422e-06,215.98499999992444,7.564397e-06,215.98499999992444,1.286321e-05,215.98499999992444,3.56062e-06
215.99999999992443,7.677153e-06,215.99999999992443,7.651422e-06,215.99999999992443,1.271894e-05,215.99999999992443,3.54476e-06
216.0149999999244,7.984756e-06,216.0149999999244,7.752019e-06,216.0149999999244,1.28369e-05,216.0149999999244,3.548731e-06
216.0299999999244,7.779228e-06,216.0299999999244,7.8585e-06,216.0299999999244,1.296357e-05,216.0299999999244,3.508812e-06
216.04499999992439,8.330127e-06,216.04499999992439,7.706456e-06,216.04499999992439,1.223228e-05,216.04499999992439,3.398688e-06
216.05999999992437,8.752336e-06,216.05999999992437,7.658783e-06,216.05999999992437,1.442332e-05,216.05999999992437,3.373728e-06
216.07499999992436,9.073179e-06,216.07499999992436,7.689987e-06,216.07499999992436,1.537081e-05,216.07499999992436,3.390388e-06
216.08999999992434,9.245431e-06,216.08999999992434,7.721065e-06,216.08999999992434,1.60566e-05,216.08999999992434,3.314757e-06
216.10499999992433,9.567407e-06,216.10499999992433,7.732004e-06,216.10499999992433,1.582419e-05,216.10499999992433,3.319004e-06
216.11999999992432,9.823125e-06,216.11999999992432,7.721065e-06,216.11999999992432,1.596598e-05,216.11999999992432,3.19355e-06
216.1349999999243,1.022366e-05,216.1349999999243,7.396802e-06,216.1349999999243,1.593154e-05,216.1349999999243,3.144655e-06
216.1499999999243,1.413227e-05,216.1499999999243,7.283574e-06,216.1499999999243,1.670669e-05,216.1499999999243,3.126685e-06
216.16499999992428,1.648174e-05,216.16499999992428,7.24479e-06,216.16499999992428,1.80053e-05,216.16499999992428,3.24605e-06
216.17999999992426,1.709922e-05,216.17999999992426,7.205797e-06,216.17999999992426,1.86645e-05,216.17999999992426,3.297714e-06
216.19499999992425,1.729499e-05,216.19499999992425,7.04567e-06,216.19499999992425,1.885897e-05,216.19499999992425,3.131187e-06
216.20999999992424,1.712638e-05,216.20999999992424,7.10738e-06,216.20999999992424,1.957658e-05,216.20999999992424,3.175857e-06
216.22499999992422,1.8067e-05,216.22499999992422,6.631638e-06,216.22499999992422,2.181911e-05,216.22499999992422,3.162522e-06
216.2399999999242,1.873832e-05,216.2399999999242,6.224016e-06,216.2399999999242,2.130958e-05,216.2399999999242,3.215529e-06
216.2549999999242,1.897439e-05,216.2549999999242,6.123622e-06,216.2549999999242,2.106558e-05,216.2549999999242,3.189136e-06
216.26999999992418,1.915909e-05,216.26999999992418,6.13052e-06,216.26999999992418,2.085455e-05,216.26999999992418,3.175857e-06
216.28499999992417,1.921636e-05,216.28499999992417,5.905813e-06,216.28499999992417,2.080857e-05,216.28499999992417,3.284874e-06
216.29999999992415,1.943648e-05,216.29999999992415,5.939112e-06,216.29999999992415,2.060174e-05,216.29999999992415,3.276286e-06
216.31499999992414,1.940747e-05,216.31499999992414,6.019215e-06,216.31499999992414,1.944517e-05,216.31499999992414,3.28916e-06
216.32999999992413,1.958952e-05,216.32999999992413,6.026232e-06,216.32999999992413,1.873381e-05,216.32999999992413,3.340158e-06
216.3449999999241,1.960103e-05,216.3449999999241,5.974584e-06,216.3449999999241,1.82871e-05,216.3449999999241,3.406967e-06
216.3599999999241,1.952326e-05,216.3599999999241,6.230803e-06,216.3599999999241,1.870747e-05,216.3599999999241,3.439886e-06
216.37499999992409,1.974352e-05,216.37499999992409,6.435437e-06,216.37499999992409,1.965414e-05,216.37499999992409,3.460301e-06
216.38999999992407,1.9846e-05,216.38999999992407,6.307202e-06,216.38999999992407,1.917893e-05,216.38999999992407,3.427579e-06
216.40499999992406,1.596422e-05,216.40499999992406,6.226279e-06,216.40499999992406,1.869467e-05,216.40499999992406,3.524834e-06
216.41999999992404,1.539005e-05,216.41999999992404,6.226279e-06,216.41999999992404,1.762817e-05,216.41999999992404,3.484641e-06
216.43499999992403,1.510177e-05,216.43499999992403,6.2781e-06,216.43499999992403,1.842064e-05,216.43499999992403,3.500774e-06
216.44999999992402,1.53488e-05,216.44999999992402,6.25337e-06,216.44999999992402,1.841988e-05,216.44999999992402,3.36955e-06
216.464999999924,1.541931e-05,216.464999999924,6.128222e-06,216.464999999924,1.595804e-05,216.464999999924,3.340158e-06
216.479999999924,1.421872e-05,216.479999999924,6.08439e-06,216.479999999924,1.574208e-05,216.479999999924,3.460301e-06
216.49499999992398,1.368563e-05,216.49499999992398,6.114414e-06,216.49499999992398,1.62233e-05,216.49499999992398,3.377901e-06
216.50999999992396,1.356571e-05,216.50999999992396,5.948592e-06,216.50999999992396,1.697353e-05,216.50999999992396,3.390388e-06
216.52499999992395,1.415518e-05,216.52499999992395,6.000464e-06,216.52499999992395,1.70621e-05,216.52499999992395,3.314757e-06
216.53999999992394,1.431745e-05,216.53999999992394,6.109804e-06,216.53999999992394,1.764973e-05,216.53999999992394,3.233005e-06
216.55499999992392,1.391631e-05,216.55499999992392,6.291548e-06,216.55499999992392,1.814869e-05,216.55499999992392,3.398688e-06
216.5699999999239,1.443211e-05,216.5699999999239,6.2781e-06,216.5699999999239,1.85593e-05,216.5699999999239,3.390388e-06
216.5849999999239,1.501102e-05,216.5849999999239,6.483414e-06,216.5849999999239,1.877287e-05,216.5849999999239,3.386231e-06
216.59999999992388,1.612926e-05,216.59999999992388,6.753716e-06,216.59999999992388,2.135976e-05,216.59999999992388,3.377901e-06
216.61499999992387,1.634097e-05,216.61499999992387,6.644371e-06,216.61499999992387,2.08336e-05,216.61499999992387,3.233005e-06
216.62999999992385,1.739407e-05,216.62999999992385,6.378271e-06,216.62999999992385,2.048724e-05,216.62999999992385,3.297714e-06
216.64499999992384,1.86494e-05,216.64499999992384,6.452925e-06,216.64499999992384,2.01006e-05,216.64499999992384,3.276286e-06
216.65999999992383,1.9464e-05,216.65999999992383,6.435437e-06,216.65999999992383,2.085793e-05,216.65999999992383,3.162522e-06
216.6749999999238,2.051747e-05,216.6749999999238,6.481242e-06,216.6749999999238,2.007115e-05,216.6749999999238,3.135683e-06
216.6899999999238,2.09442e-05,216.6899999999238,6.830453e-06,216.6899999999238,1.94169e-05,216.6899999999238,3.215529e-06
216.70499999992379,2.218406e-05,216.70499999992379,6.80152e-06,216.70499999992379,1.922002e-05,216.70499999992379,3.224279e-06
216.71999999992377,2.305041e-05,216.71999999992377,6.718165e-06,216.71999999992377,1.91164e-05,216.71999999992377,3.24605e-06
216.73499999992376,2.368578e-05,216.73499999992376,7.237009e-06,216.73499999992376,1.823619e-05,216.73499999992376,3.28916e-06
216.74999999992374,2.387003e-05,216.74999999992374,7.28164e-06,216.74999999992374,1.802251e-05,216.74999999992374,3.427579e-06
216.76499999992373,2.376534e-05,216.76499999992373,7.396802e-06,216.76499999992373,1.746842e-05,216.76499999992373,3.496747e-06
216.77999999992372,2.358506e-05,216.77999999992372,7.283574e-06,216.77999999992372,1.732022e-05,216.77999999992372,3.603876e-06
216.7949999999237,2.345689e-05,216.7949999999237,7.2971e-06,216.7949999999237,1.659332e-05,216.7949999999237,3.711708e-06
216.8099999999237,2.377186e-05,216.8099999999237,7.15282e-06,216.8099999999237,1.553852e-05,216.8099999999237,3.646619e-06
216.82499999992368,2.362683e-05,216.82499999992368,7.061647e-06,216.82499999992368,1.510457e-05,216.82499999992368,3.745709e-06
216.83999999992366,2.367864e-05,216.83999999992366,6.914493e-06,216.83999999992366,1.301671e-05,216.83999999992366,3.726858e-06
216.85499999992365,2.368935e-05,216.85499999992365,6.772462e-06,216.85499999992365,1.024705e-05,216.85499999992365,3.711708e-06
216.86999999992364,2.351747e-05,216.86999999992364,6.671875e-06,216.86999999992364,9.425e-06,216.86999999992364,3.760722e-06
216.88499999992362,2.296286e-05,216.88499999992362,6.69506e-06,216.88499999992362,9.298606e-06,216.88499999992362,3.711708e-06
216.8999999999236,2.209562e-05,216.8999999999236,6.938897e-06,216.8999999999236,1.40503e-05,216.8999999999236,3.73818e-06
216.9149999999236,2.019848e-05,216.9149999999236,6.855157e-06,216.9149999999236,1.329192e-05,216.9149999999236,3.753223e-06
216.92999999992358,1.986515e-05,216.92999999992358,6.892046e-06,216.92999999992358,1.33004e-05,216.92999999992358,3.715501e-06
216.94499999992357,1.924858e-05,216.94499999992357,6.646491e-06,216.94499999992357,1.464431e-05,216.94499999992357,3.599965e-06
216.95999999992355,1.63625e-05,216.95999999992355,6.688745e-06,216.95999999992355,1.49216e-05,216.95999999992355,3.646619e-06
216.97499999992354,1.698847e-05,216.97499999992354,6.728641e-06,216.97499999992354,1.446136e-05,216.97499999992354,3.65048e-06
216.98999999992353,1.55865e-05,216.98999999992353,6.079758e-06,216.98999999992353,1.439986e-05,216.98999999992353,3.492716e-06
217.0049999999235,1.544943e-05,217.0049999999235,6.239839e-06,217.0049999999235,1.458648e-05,217.0049999999235,3.59605e-06
217.0199999999235,1.537173e-05,217.0199999999235,6.275856e-06,217.0199999999235,1.556389e-05,217.0199999999235,3.476546e-06
217.03499999992349,1.47936e-05,217.03499999992349,6.382687e-06,217.03499999992349,1.604871e-05,217.03499999992349,3.233005e-06
217.04999999992347,1.478313e-05,217.04999999992347,6.287069e-06,217.04999999992347,1.639604e-05,217.04999999992347,3.415227e-06
217.06499999992346,1.422368e-05,217.06499999992346,6.275856e-06,217.06499999992346,1.777935e-05,217.06499999992346,3.310505e-06
217.07999999992344,1.392845e-05,217.07999999992344,6.287069e-06,217.07999999992344,1.85593e-05,217.07999999992344,3.344373e-06
217.09499999992343,1.314807e-05,217.09499999992343,6.287069e-06,217.09499999992343,1.878037e-05,217.09499999992343,3.344373e-06
217.10999999992342,1.107423e-05,217.10999999992342,6.201342e-06,217.10999999992342,1.891937e-05,217.10999999992342,3.386231e-06
217.1249999999234,1.124715e-05,217.1249999999234,6.162605e-06,217.1249999999234,1.991968e-05,217.1249999999234,3.352786e-06
217.1399999999234,1.165193e-05,217.1399999999234,6.068162e-06,217.1399999999234,1.941908e-05,217.1399999999234,3.361178e-06
217.15499999992338,1.151328e-05,217.15499999992338,5.991066e-06,217.15499999992338,1.729662e-05,217.15499999992338,3.344373e-06
217.16999999992336,1.148143e-05,217.16999999992336,6.05887e-06,217.16999999992336,1.716992e-05,217.16999999992336,3.284874e-06
217.18499999992335,1.146301e-05,217.18499999992335,5.969867e-06,217.18499999992335,1.713789e-05,217.18499999992335,3.280583e-06
217.19999999992334,1.14667e-05,217.19999999992334,5.860319e-06,217.19999999992334,1.6068e-05,217.19999999992334,3.237359e-06
217.21499999992332,1.122584e-05,217.21499999992332,6.16489e-06,217.21499999992332,1.592711e-05,217.21499999992332,3.233005e-06
217.2299999999233,9.836022e-06,217.2299999999233,6.257873e-06,217.2299999999233,1.585531e-05,217.2299999999233,3.144655e-06
217.2449999999233,9.880319e-06,217.2449999999233,6.452925e-06,217.2449999999233,1.648857e-05,217.2449999999233,3.126685e-06
217.25999999992328,1.049695e-05,217.25999999992328,6.255622e-06,217.25999999992328,1.657124e-05,217.25999999992328,3.035241e-06
217.27499999992327,1.297986e-05,217.27499999992327,6.349495e-06,217.27499999992327,1.599595e-05,217.27499999992327,3.117661e-06
217.28999999992325,1.35574e-05,217.28999999992325,6.189974e-06,217.28999999992325,1.624239e-05,217.28999999992325,3.184716e-06
217.30499999992324,1.465392e-05,217.30499999992324,6.100575e-06,217.30499999992324,1.6068e-05,217.30499999992324,3.19355e-06
217.31999999992323,1.653038e-05,217.31999999992323,6.180865e-06,217.31999999992323,1.473732e-05,217.31999999992323,3.19355e-06
217.3349999999232,1.662724e-05,217.3349999999232,6.284828e-06,217.3349999999232,1.452066e-05,217.3349999999232,3.140172e-06
217.3499999999232,1.646976e-05,217.3499999999232,6.627389e-06,217.3499999999232,1.447402e-05,217.3499999999232,3.153601e-06
217.36499999992319,1.694695e-05,217.36499999992319,6.820134e-06,217.36499999992319,1.460192e-05,217.36499999992319,3.361178e-06
217.37999999992317,1.676141e-05,217.37999999992317,6.890002e-06,217.37999999992317,1.377796e-05,217.37999999992317,3.348582e-06
217.39499999992316,1.687615e-05,217.39499999992316,6.836638e-06,217.39499999992316,1.480693e-05,217.39499999992316,3.352786e-06
217.40999999992314,1.720434e-05,217.40999999992314,6.789081e-06,217.40999999992314,1.481549e-05,217.40999999992314,3.4111e-06
217.42499999992313,1.733567e-05,217.42499999992313,6.737009e-06,217.42499999992313,1.490649e-05,217.42499999992313,3.588207e-06
217.43999999992312,1.804906e-05,217.43999999992312,6.957143e-06,217.43999999992312,1.55349e-05,217.43999999992312,3.623367e-06
217.4549999999231,1.988925e-05,217.4549999999231,6.975343e-06,217.4549999999231,1.601883e-05,217.4549999999231,3.607783e-06
217.4699999999231,1.991119e-05,217.4699999999231,6.654963e-06,217.4699999999231,1.632458e-05,217.4699999999231,3.548731e-06
217.48499999992308,1.995995e-05,217.48499999992308,6.680315e-06,217.48499999992308,1.593684e-05,217.48499999992308,3.54476e-06
217.49999999992306,1.989562e-05,217.49999999992306,6.616753e-06,217.49999999992306,1.65193e-05,217.49999999992306,3.8751e-06
217.51499999992305,1.928368e-05,217.51499999992305,6.569749e-06,217.51499999992305,1.666194e-05,217.51499999992305,3.936414e-06
217.52999999992304,1.765531e-05,217.52999999992304,6.561167e-06,217.52999999992304,1.676645e-05,217.52999999992304,3.943564e-06
217.54499999992302,1.721662e-05,217.54499999992302,6.644371e-06,217.54499999992302,1.688867e-05,217.54499999992302,3.84957e-06
217.559999999923,1.610653e-05,217.559999999923,6.853102e-06,217.559999999923,1.674459e-05,217.559999999923,3.786851e-06
217.574999999923,1.45352e-05,217.574999999923,6.848989e-06,217.574999999923,1.648772e-05,217.574999999923,3.91848e-06
217.58999999992298,1.454683e-05,217.58999999992298,6.380479e-06,217.58999999992298,1.707366e-05,217.58999999992298,3.99326e-06
217.60499999992297,1.408234e-05,217.60499999992297,6.367219e-06,217.60499999992297,1.708438e-05,217.60499999992297,3.889614e-06
217.61999999992295,1.369695e-05,217.61999999992295,6.329497e-06,217.61999999992295,1.782524e-05,217.61999999992295,3.726858e-06
217.63499999992294,1.467793e-05,217.63499999992294,6.452925e-06,217.63499999992294,1.62068e-05,217.63499999992294,3.794284e-06
217.64999999992293,1.477645e-05,217.64999999992293,6.413511e-06,217.64999999992293,1.654997e-05,217.64999999992293,3.768206e-06
217.6649999999229,1.551494e-05,217.6649999999229,6.452925e-06,217.6649999999229,1.680002e-05,217.6649999999229,3.631134e-06
217.6799999999229,1.541291e-05,217.6799999999229,6.426676e-06,217.6799999999229,1.665179e-05,217.6799999999229,3.638885e-06
217.69499999992289,1.36289e-05,217.69499999992289,6.291548e-06,217.69499999992289,1.637455e-05,217.69499999992289,3.719291e-06
217.70999999992287,1.351473e-05,217.70999999992287,6.442001e-06,217.70999999992287,1.742644e-05,217.70999999992287,3.745709e-06
217.72499999992286,1.393351e-05,217.72499999992286,6.805661e-06,217.72499999992286,1.752639e-05,217.72499999992286,3.779404e-06
217.73999999992284,1.436656e-05,217.73999999992284,6.932803e-06,217.73999999992284,1.73884e-05,217.73999999992284,3.749468e-06
217.75499999992283,1.470861e-05,217.75499999992283,6.774542e-06,217.75499999992283,1.682516e-05,217.75499999992283,3.658189e-06
217.76999999992282,1.480027e-05,217.76999999992282,6.7391e-06,217.76999999992282,1.614235e-05,217.76999999992282,3.688867e-06
217.7849999999228,1.471532e-05,217.7849999999228,7.057657e-06,217.7849999999228,1.551312e-05,217.7849999999228,3.532818e-06
217.7999999999228,1.459227e-05,217.7999999999228,7.166593e-06,217.7999999999228,1.541474e-05,217.7999999999228,3.719291e-06
217.81499999992278,1.516506e-05,217.81499999992278,6.828391e-06,217.81499999992278,1.527797e-05,217.81499999992278,3.719291e-06
217.82999999992276,1.542205e-05,217.82999999992276,6.930771e-06,217.82999999992276,1.566583e-05,217.82999999992276,3.611685e-06
217.84499999992275,1.537723e-05,217.84499999992275,6.832516e-06,217.84499999992275,1.481834e-05,217.84499999992275,3.524834e-06
217.85999999992274,1.555755e-05,217.85999999992274,6.975343e-06,217.85999999992274,1.509337e-05,217.85999999992274,3.548731e-06
217.87499999992272,1.552401e-05,217.87499999992272,6.973323e-06,217.87499999992272,1.41203e-05,217.87499999992272,3.638885e-06
217.8899999999227,1.403324e-05,217.8899999999227,6.840758e-06,217.8899999999227,1.383e-05,217.8899999999227,3.692683e-06
217.9049999999227,1.341219e-05,217.9049999999227,7.057657e-06,217.9049999999227,1.6003e-05,217.9049999999227,3.771943e-06
217.91999999992268,1.297226e-05,217.91999999992268,7.047669e-06,217.91999999992268,1.580102e-05,217.91999999992268,3.827552e-06
217.93499999992267,1.267012e-05,217.93499999992267,7.111343e-06,217.93499999992267,1.574744e-05,217.93499999992267,3.893234e-06
217.94999999992265,1.166643e-05,217.94999999992265,7.154789e-06,217.94999999992265,1.541017e-05,217.94999999992265,3.797995e-06
217.96499999992264,1.126842e-05,217.96499999992264,7.10738e-06,217.96499999992264,1.552311e-05,217.96499999992264,3.756974e-06
217.97999999992263,1.034556e-05,217.97999999992263,6.743279e-06,217.97999999992263,1.606976e-05,217.97999999992263,3.70411e-06
217.9949999999226,9.989498e-06,217.9949999999226,6.776621e-06,217.9949999999226,1.620854e-05,217.9949999999226,3.801702e-06
218.0099999999226,9.487566e-06,218.0099999999226,6.894089e-06,218.0099999999226,1.64672e-05,218.0099999999226,3.642754e-06
218.02499999992258,9.503884e-06,218.02499999992258,6.928738e-06,218.02499999992258,1.70067e-05,218.02499999992258,3.665883e-06
218.03999999992257,9.536437e-06,218.03999999992257,6.813935e-06,218.03999999992257,1.703318e-05,218.03999999992257,3.611685e-06
218.05499999992256,9.505367e-06,218.05499999992256,6.776621e-06,218.05499999992256,1.715186e-05,218.05499999992256,3.536803e-06
218.06999999992254,8.692581e-06,218.06999999992254,6.720261e-06,218.06999999992254,1.750548e-05,218.06999999992254,3.65048e-06
218.08499999992253,8.419275e-06,218.08499999992253,6.612493e-06,218.08499999992253,1.770949e-05,218.08499999992253,3.603876e-06
218.09999999992252,8.166172e-06,218.09999999992252,7.256447e-06,218.09999999992252,1.772221e-05,218.09999999992252,3.677393e-06
218.1149999999225,8.140256e-06,218.1149999999225,7.119262e-06,218.1149999999225,1.751031e-05,218.1149999999225,3.681221e-06
218.1299999999225,8.272431e-06,218.1299999999225,7.493299e-06,218.1299999999225,1.965127e-05,218.1299999999225,3.615583e-06
218.14499999992248,8.216045e-06,218.14499999992248,7.737468e-06,218.14499999992248,1.971353e-05,218.14499999992248,3.524834e-06
218.15999999992246,8.143716e-06,218.15999999992246,7.744747e-06,218.15999999992246,1.777776e-05,218.15999999992246,3.623367e-06
218.17499999992245,8.734614e-06,218.17499999992245,7.638524e-06,218.17499999992245,1.791589e-05,218.17499999992245,3.464369e-06
218.18999999992243,8.750726e-06,218.18999999992243,7.625604e-06,218.18999999992243,1.79096e-05,218.18999999992243,3.488681e-06
218.20499999992242,8.878575e-06,218.20499999992242,7.480127e-06,218.20499999992242,1.723461e-05,218.20499999992242,3.456227e-06
218.2199999999224,9.003043e-06,218.2199999999224,7.553216e-06,218.2199999999224,1.756252e-05,218.2199999999224,3.439886e-06
218.2349999999224,9.070073e-06,218.2349999999224,7.521444e-06,218.2349999999224,1.667969e-05,218.2349999999224,3.435788e-06
218.24999999992238,9.997955e-06,218.24999999992238,7.530803e-06,218.24999999992238,1.725503e-05,218.24999999992238,3.394541e-06
218.26499999992237,9.985267e-06,218.26499999992237,7.638524e-06,218.26499999992237,1.735678e-05,218.26499999992237,3.435788e-06
218.27999999992235,9.992318e-06,218.27999999992235,7.581139e-06,218.27999999992235,1.742805e-05,218.27999999992235,3.520835e-06
218.29499999992234,9.851764e-06,218.29499999992234,8.105571e-06,218.29499999992234,1.748696e-05,218.29499999992234,3.476546e-06
218.30999999992233,9.640744e-06,218.30999999992233,8.186846e-06,218.30999999992233,1.743775e-05,218.30999999992233,3.460301e-06
218.3249999999223,9.242383e-06,218.3249999999223,8.306418e-06,218.3249999999223,1.731941e-05,218.3249999999223,3.386231e-06
218.3399999999223,9.251524e-06,218.3399999999223,8.469321e-06,218.3399999999223,1.70951e-05,218.3399999999223,3.464369e-06
218.35499999992228,9.322813e-06,218.35499999992228,8.037508e-06,218.35499999992228,1.816498e-05,218.35499999992228,3.390388e-06
218.36999999992227,9.05764e-06,218.36999999992227,7.732004e-06,218.36999999992227,1.844357e-05,218.36999999992227,3.301983e-06
218.38499999992226,8.821272e-06,218.38499999992226,7.998858e-06,218.38499999992226,1.686948e-05,218.38499999992226,3.340158e-06
218.39999999992224,8.933933e-06,218.39999999992224,7.730182e-06,218.39999999992224,1.709263e-05,218.39999999992224,3.284874e-06
218.41499999992223,8.560311e-06,218.41499999992223,7.728359e-06,218.41499999992223,1.727543e-05,218.41499999992223,3.263362e-06
218.42999999992222,8.143716e-06,218.42999999992222,7.678988e-06,218.42999999992222,1.730476e-05,218.42999999992222,3.271984e-06
218.4449999999222,8.46433e-06,218.4449999999222,8.154087e-06,218.4449999999222,1.751754e-05,218.4449999999222,3.36955e-06
218.4599999999222,8.209184e-06,218.4599999999222,8.287742e-06,218.4599999999222,1.613973e-05,218.4599999999222,3.361178e-06
218.47499999992218,8.15236e-06,218.47499999992218,8.21433e-06,218.47499999992218,1.65406e-05,218.47499999992218,3.415227e-06
218.48999999992216,8.229749e-06,218.48999999992216,8.246849e-06,218.48999999992216,1.622591e-05,218.48999999992216,3.431686e-06
218.50499999992215,7.40822e-06,218.50499999992215,8.171345e-06,218.50499999992215,1.550767e-05,218.50499999992215,3.377901e-06
218.51999999992213,7.316379e-06,218.51999999992213,8.160995e-06,218.51999999992213,1.579478e-05,218.51999999992213,3.406967e-06
218.53499999992212,7.660622e-06,218.53499999992212,8.000618e-06,218.53499999992212,1.584554e-05,218.53499999992212,3.276286e-06
218.5499999999221,8.929201e-06,218.5499999999221,7.590424e-06,218.5499999999221,1.612489e-05,218.5499999999221,3.327482e-06
218.5649999999221,9.131986e-06,218.5649999999221,7.72289e-06,218.5649999999221,1.537356e-05,218.5649999999221,3.314757e-06
218.57999999992208,9.101082e-06,218.57999999992208,7.582997e-06,218.57999999992208,1.497814e-05,218.57999999992208,3.386231e-06
218.59499999992207,9.074732e-06,218.59499999992207,7.487657e-06,218.59499999992207,1.580815e-05,218.59499999992207,3.365367e-06
218.60999999992205,9.034282e-06,218.60999999992205,7.415822e-06,218.60999999992205,1.327389e-05,218.60999999992205,3.331712e-06
218.62499999992204,8.907087e-06,218.62499999992204,7.457495e-06,218.62499999992204,1.321966e-05,218.62499999992204,3.427579e-06
218.63999999992203,8.899176e-06,218.63999999992203,7.219469e-06,218.63999999992203,1.315129e-05,218.63999999992203,3.406967e-06
218.654999999922,9.430977e-06,218.654999999922,7.00758e-06,218.654999999922,1.368975e-05,218.654999999922,3.415227e-06
218.669999999922,9.520175e-06,218.669999999922,7.219469e-06,218.669999999922,1.359579e-05,218.669999999922,3.348582e-06
218.68499999992198,9.417524e-06,218.68499999992198,7.103415e-06,218.68499999992198,1.42207e-05,218.68499999992198,3.377901e-06
218.69999999992197,9.25609e-06,218.69999999992197,6.811867e-06,218.69999999992197,1.449444e-05,218.69999999992197,3.310505e-06
218.71499999992196,9.259134e-06,218.71499999992196,6.684531e-06,218.71499999992196,1.429086e-05,218.71499999992196,3.439886e-06
218.72999999992194,9.155096e-06,218.72999999992194,6.688745e-06,218.72999999992194,1.450124e-05,218.72999999992194,3.572469e-06
218.74499999992193,9.024921e-06,218.74499999992193,7.037669e-06,218.74499999992193,1.456908e-05,218.74499999992193,3.524834e-06
218.75999999992192,9.099535e-06,218.75999999992192,7.03967e-06,218.75999999992192,1.413825e-05,218.75999999992192,3.448066e-06
218.7749999999219,9.08404e-06,218.7749999999219,6.940926e-06,218.7749999999219,1.44282e-05,218.7749999999219,3.448066e-06
218.7899999999219,9.031162e-06,218.7899999999219,6.890002e-06,218.7899999999219,1.424446e-05,218.7899999999219,3.54476e-06
218.80499999992188,7.8907e-06,218.80499999992188,7.059652e-06,218.80499999992188,1.407534e-05,218.80499999992188,3.508812e-06
218.81999999992186,7.739288e-06,218.81999999992186,6.838698e-06,218.81999999992186,1.434596e-05,218.81999999992186,3.512824e-06
218.83499999992185,7.732004e-06,218.83499999992185,6.720261e-06,218.83499999992185,1.424248e-05,218.83499999992185,3.500774e-06
218.84999999992183,7.974164e-06,218.84999999992183,6.692956e-06,218.84999999992183,1.4281e-05,218.84999999992183,3.528828e-06
218.86499999992182,7.928101e-06,218.86499999992182,6.844875e-06,218.86499999992182,1.449638e-05,218.86499999992182,3.57641e-06
218.8799999999218,7.93343e-06,218.8799999999218,6.799448e-06,218.8799999999218,1.495084e-05,218.8799999999218,3.552699e-06
218.8949999999218,7.66246e-06,218.8949999999218,6.969281e-06,218.8949999999218,1.534329e-05,218.8949999999218,3.528828e-06
218.90999999992178,7.019631e-06,218.90999999992178,7.00959e-06,218.90999999992178,1.441257e-05,218.90999999992178,3.654337e-06
218.92499999992177,7.017624e-06,218.92499999992177,6.805661e-06,218.92499999992177,1.461735e-05,218.92499999992177,3.588207e-06
218.93999999992175,6.983416e-06,218.93999999992175,7.097463e-06,218.93999999992175,1.384019e-05,218.93999999992175,3.580347e-06
218.95499999992174,7.910313e-06,218.95499999992174,6.934835e-06,218.95499999992174,1.487527e-05,218.95499999992174,3.500774e-06
218.96999999992173,8.091657e-06,218.96999999992173,6.957143e-06,218.96999999992173,1.540377e-05,218.96999999992173,3.415227e-06
218.9849999999217,8.527336e-06,218.9849999999217,6.836638e-06,218.9849999999217,1.581706e-05,218.9849999999217,3.40283e-06
218.9999999999217,1.105769e-05,218.9999999999217,6.74119e-06,218.9999999999217,1.690951e-05,218.9999999999217,3.419349e-06
219.01499999992168,1.184973e-05,219.01499999992168,6.608231e-06,219.01499999992168,1.773016e-05,219.01499999992168,3.452149e-06
219.02999999992167,1.375135e-05,219.02999999992167,6.474718e-06,219.02999999992167,1.808337e-05,219.02999999992167,3.323245e-06
219.04499999992166,1.41203e-05,219.04499999992166,6.80152e-06,219.04499999992166,1.823696e-05,219.04499999992166,3.301983e-06
219.05999999992164,1.454101e-05,219.05999999992164,7.123218e-06,219.05999999992164,1.818823e-05,219.05999999992164,3.377901e-06
219.07499999992163,1.517528e-05,219.07499999992163,7.166593e-06,219.07499999992163,1.873757e-05,219.07499999992163,3.377901e-06
219.08999999992162,1.531297e-05,219.08999999992162,7.517698e-06,219.08999999992162,1.856841e-05,219.08999999992162,3.301983e-06
219.1049999999216,1.535706e-05,219.1049999999216,7.704628e-06,219.1049999999216,1.783788e-05,219.1049999999216,3.297714e-06
219.1199999999216,1.54722e-05,219.1199999999216,7.555081e-06,219.1199999999216,1.816265e-05,219.1199999999216,3.219907e-06
219.13499999992158,1.571431e-05,219.13499999992158,7.549485e-06,219.13499999992158,1.773333e-05,219.13499999992158,3.135683e-06
219.14999999992156,1.575728e-05,219.14999999992156,7.573703e-06,219.14999999992156,1.751835e-05,219.14999999992156,3.28916e-06
219.16499999992155,1.614322e-05,219.16499999992155,7.551351e-06,219.16499999992155,1.704476e-05,219.16499999992155,3.180289e-06
219.17999999992153,1.619462e-05,219.17999999992153,7.432898e-06,219.17999999992153,1.691867e-05,219.17999999992153,3.250386e-06
219.19499999992152,1.599243e-05,219.19499999992152,7.140994e-06,219.19499999992152,1.630126e-05,219.19499999992152,3.284874e-06
219.2099999999215,1.578408e-05,219.2099999999215,7.127172e-06,219.2099999999215,1.601883e-05,219.2099999999215,3.365367e-06
219.2249999999215,1.58037e-05,219.2249999999215,7.197973e-06,219.2249999999215,1.55113e-05,219.2249999999215,3.348582e-06
219.23999999992148,1.463757e-05,219.23999999992148,7.154789e-06,219.23999999992148,1.503071e-05,219.23999999992148,3.365367e-06
219.25499999992147,1.352827e-05,219.25499999992147,7.379642e-06,219.25499999992147,1.410433e-05,219.25499999992147,3.552699e-06
219.26999999992145,1.290585e-05,219.26999999992145,7.808148e-06,219.26999999992145,1.398195e-05,219.26999999992145,3.508812e-06
219.28499999992144,1.068318e-05,219.28499999992144,7.883556e-06,219.28499999992144,1.41213e-05,219.28499999992144,3.556662e-06
219.29999999992143,1.016701e-05,219.29999999992143,7.402513e-06,219.29999999992143,1.426027e-05,219.29999999992143,3.592131e-06
219.3149999999214,9.105725e-06,219.3149999999214,7.415822e-06,219.3149999999214,1.45507e-05,219.3149999999214,3.56062e-06
219.3299999999214,8.881747e-06,219.3299999999214,7.466933e-06,219.3299999999214,1.382491e-05,219.3299999999214,3.548731e-06
219.34499999992138,1.050902e-05,219.34499999992138,7.238955e-06,219.34499999992138,1.439986e-05,219.34499999992138,3.532818e-06
219.35999999992137,1.143225e-05,219.35999999992137,7.053663e-06,219.35999999992137,1.485821e-05,219.35999999992137,3.584279e-06
219.37499999992136,1.161803e-05,219.37499999992136,7.129148e-06,219.37499999992136,1.462313e-05,219.37499999992136,3.692683e-06
219.38999999992134,1.133573e-05,219.38999999992134,7.203842e-06,219.38999999992134,1.488663e-05,219.38999999992134,3.741947e-06
219.40499999992133,1.345937e-05,219.40499999992133,7.358615e-06,219.40499999992133,1.51994e-05,219.40499999992133,3.603876e-06
219.41999999992132,1.309762e-05,219.41999999992132,7.412022e-06,219.41999999992132,1.57689e-05,219.41999999992132,3.646619e-06
219.4349999999213,1.309547e-05,219.4349999999213,7.472591e-06,219.4349999999213,1.59333e-05,219.4349999999213,3.654337e-06
219.4499999999213,1.358439e-05,219.4499999999213,7.656943e-06,219.4499999999213,1.594568e-05,219.4499999999213,3.623367e-06
219.46499999992128,1.361339e-05,219.46499999992128,7.63668e-06,219.46499999992128,1.596951e-05,219.46499999992128,3.599965e-06
219.47999999992126,1.408034e-05,219.47999999992126,7.523317e-06,219.47999999992126,1.546674e-05,219.47999999992126,3.603876e-06
219.49499999992125,1.417407e-05,219.49499999992125,7.38918e-06,219.49499999992125,1.532676e-05,219.49499999992125,3.335938e-06
219.50999999992123,1.458068e-05,219.50999999992123,7.248678e-06,219.50999999992123,1.6003e-05,219.50999999992123,3.356985e-06
219.52499999992122,1.466833e-05,219.52499999992122,6.912455e-06,219.52499999992122,1.617286e-05,219.52499999992122,3.306247e-06
219.5399999999212,1.487432e-05,219.5399999999212,6.914493e-06,219.5399999999212,1.516228e-05,219.5399999999212,3.267676e-06
219.5549999999212,1.491027e-05,219.5549999999212,6.861319e-06,219.5549999999212,1.529087e-05,219.5549999999212,3.250386e-06
219.56999999992118,1.493009e-05,219.56999999992118,6.618881e-06,219.56999999992118,1.533778e-05,219.56999999992118,3.348582e-06
219.58499999992117,1.498096e-05,219.58499999992117,6.654963e-06,219.58499999992117,1.600212e-05,219.58499999992117,3.348582e-06
219.59999999992115,1.320153e-05,219.59999999992115,6.522406e-06,219.59999999992115,1.567572e-05,219.59999999992115,3.331712e-06
219.61499999992114,1.33004e-05,219.61499999992114,6.589018e-06,219.61499999992114,1.527613e-05,219.61499999992114,3.301983e-06
219.62999999992113,1.331627e-05,219.62999999992113,7.229218e-06,219.62999999992113,1.550586e-05,219.62999999992113,3.259043e-06
219.6449999999211,1.244577e-05,219.6449999999211,8.162721e-06,219.6449999999211,1.591738e-05,219.6449999999211,3.158065e-06
219.6599999999211,1.084805e-05,219.6599999999211,8.299631e-06,219.6599999999211,1.604432e-05,219.6599999999211,3.117661e-06
219.67499999992108,1.080511e-05,219.67499999992108,8.982679e-06,219.67499999992108,1.539005e-05,219.67499999992108,3.144655e-06
219.68999999992107,1.083376e-05,219.68999999992107,1.013787e-05,219.68999999992107,1.522625e-05,219.68999999992107,3.081303e-06
219.70499999992106,1.007375e-05,219.70499999992106,1.012397e-05,219.70499999992106,1.506441e-05,219.70499999992106,3.01662e-06
219.71999999992104,9.895991e-06,219.71999999992104,1.01684e-05,219.71999999992104,1.495931e-05,219.71999999992104,2.997883e-06
219.73499999992103,9.648047e-06,219.73499999992103,1.042288e-05,219.73499999992103,1.563613e-05,219.73499999992103,3.044509e-06
219.74999999992102,9.593873e-06,219.74999999992102,1.048487e-05,219.74999999992102,1.560095e-05,219.74999999992102,3.122176e-06
219.764999999921,9.399558e-06,219.764999999921,1.053714e-05,219.764999999921,1.554125e-05,219.764999999921,3.153601e-06
219.779999999921,9.118093e-06,219.779999999921,1.062765e-05,219.779999999921,1.543027e-05,219.779999999921,3.310505e-06
219.79499999992098,9.150478e-06,219.79499999992098,1.063693e-05,219.79499999992098,1.530652e-05,219.79499999992098,3.276286e-06
219.80999999992096,9.178147e-06,219.80999999992096,1.072923e-05,219.80999999992096,1.589879e-05,219.80999999992096,3.280583e-06
219.82499999992095,9.110365e-06,219.82499999992095,1.067131e-05,219.82499999992095,1.485821e-05,219.82499999992095,3.211145e-06
219.83999999992093,9.853194e-06,219.83999999992093,1.059048e-05,219.83999999992093,1.509897e-05,219.83999999992093,3.276286e-06
219.85499999992092,9.368033e-06,219.85499999992092,1.067262e-05,219.85499999992092,1.506161e-05,219.85499999992092,3.373728e-06
219.8699999999209,9.301635e-06,219.8699999999209,1.070031e-05,219.8699999999209,1.575817e-05,219.8699999999209,3.419349e-06
219.8849999999209,9.29406e-06,219.8849999999209,9.801591e-06,219.8849999999209,1.55113e-05,219.8849999999209,3.40283e-06
219.89999999992088,9.39656e-06,219.89999999992088,8.916571e-06,219.89999999992088,1.47268e-05,219.89999999992088,3.423466e-06
219.91499999992087,9.739596e-06,219.91499999992087,8.943388e-06,219.91499999992087,1.467601e-05,219.91499999992087,3.552699e-06
219.92999999992085,9.924419e-06,219.92999999992085,8.018206e-06,219.92999999992085,1.490365e-05,219.92999999992085,3.536803e-06
219.94499999992084,1.001766e-05,219.94499999992084,7.043671e-06,219.94499999992084,1.593684e-05,219.94499999992084,3.500774e-06
219.95999999992083,9.989498e-06,219.95999999992083,7.113323e-06,219.95999999992083,1.633493e-05,219.95999999992083,3.492716e-06
219.9749999999208,1.01684e-05,219.9749999999208,7.119262e-06,219.9749999999208,1.650138e-05,219.9749999999208,3.356985e-06
219.9899999999208,1.060111e-05,219.9899999999208,6.730734e-06,219.9899999999208,1.641494e-05,219.9899999999208,3.29344e-06
220.00499999992078,1.132827e-05,220.00499999992078,6.597564e-06,220.00499999992078,1.670416e-05,220.00499999992078,3.211145e-06
220.01999999992077,1.434105e-05,220.01999999992077,6.367219e-06,220.01999999992077,1.666786e-05,220.01999999992077,3.233005e-06
220.03499999992076,1.521792e-05,220.03499999992076,6.426676e-06,220.03499999992076,1.689451e-05,220.03499999992076,3.189136e-06
220.04999999992074,1.523642e-05,220.04999999992074,6.302733e-06,220.04999999992074,1.667124e-05,220.04999999992074,3.189136e-06
220.06499999992073,1.606713e-05,220.06499999992073,6.125922e-06,220.06499999992073,1.711486e-05,220.06499999992073,3.202359e-06
220.07999999992072,1.593065e-05,220.07999999992072,6.239839e-06,220.07999999992072,1.6887e-05,220.07999999992072,3.131187e-06
220.0949999999207,1.621636e-05,220.0949999999207,6.293787e-06,220.0949999999207,1.715104e-05,220.0949999999207,3.144655e-06
220.1099999999207,1.620506e-05,220.1099999999207,6.146583e-06,220.1099999999207,1.784578e-05,220.1099999999207,3.149131e-06
220.12499999992068,1.746923e-05,220.12499999992068,6.044903e-06,220.12499999992068,1.730313e-05,220.12499999992068,3.126685e-06
220.13999999992066,1.802641e-05,220.13999999992066,6.160319e-06,220.13999999992066,1.754968e-05,220.13999999992066,3.11314e-06
220.15499999992065,1.813005e-05,220.15499999992065,6.178585e-06,220.15499999992065,1.775636e-05,220.15499999992065,3.076727e-06
220.16999999992063,1.833018e-05,220.16999999992063,6.151165e-06,220.16999999992063,1.801391e-05,220.16999999992063,2.945742e-06
220.18499999992062,1.839845e-05,220.18499999992062,6.322817e-06,220.18499999992062,1.766648e-05,220.18499999992062,3.049133e-06
220.1999999999206,1.851751e-05,220.1999999999206,6.180865e-06,220.1999999999206,1.727298e-05,220.1999999999206,3.11314e-06
220.2149999999206,1.882907e-05,220.2149999999206,6.316129e-06,220.2149999999206,1.673113e-05,220.2149999999206,3.144655e-06
220.22999999992058,1.924492e-05,220.22999999992058,6.183143e-06,220.22999999992058,1.609428e-05,220.22999999992058,3.206755e-06
220.24499999992057,1.86645e-05,220.24499999992057,6.08439e-06,220.24499999992057,1.663487e-05,220.24499999992057,3.254718e-06
220.25999999992055,1.846189e-05,220.25999999992055,6.210422e-06,220.25999999992055,1.629089e-05,220.25999999992055,3.228645e-06
220.27499999992054,1.615456e-05,220.27499999992054,6.244353e-06,220.27499999992054,1.580192e-05,220.27499999992054,3.180289e-06
220.28999999992052,1.576711e-05,220.28999999992052,6.296025e-06,220.28999999992052,1.557746e-05,220.28999999992052,3.19355e-06
220.3049999999205,1.552583e-05,220.3049999999205,6.417902e-06,220.3049999999205,1.516785e-05,220.3049999999205,3.211145e-06
220.3199999999205,1.497531e-05,220.3199999999205,6.415707e-06,220.3199999999205,1.465296e-05,220.3199999999205,3.263362e-06
220.33499999992048,1.470095e-05,220.33499999992048,6.248863e-06,220.33499999992048,1.482499e-05,220.33499999992048,3.314757e-06
220.34999999992047,1.454392e-05,220.34999999992047,6.331722e-06,220.34999999992047,1.481644e-05,220.34999999992047,3.259043e-06
220.36499999992046,1.460288e-05,220.36499999992046,6.380479e-06,220.36499999992046,1.494235e-05,220.36499999992046,3.254718e-06
220.37999999992044,1.275875e-05,220.37999999992044,6.861319e-06,220.37999999992044,1.566763e-05,220.37999999992044,3.319004e-06
220.39499999992043,1.247629e-05,220.39499999992043,6.953093e-06,220.39499999992043,1.545398e-05,220.39499999992043,3.456227e-06
220.40999999992042,1.2134e-05,220.40999999992042,7.289374e-06,220.40999999992042,1.462987e-05,220.40999999992042,3.548731e-06
220.4249999999204,1.156212e-05,220.4249999999204,7.069622e-06,220.4249999999204,1.433515e-05,220.4249999999204,3.528828e-06
220.4399999999204,1.139398e-05,220.4399999999204,7.194059e-06,220.4399999999204,1.413027e-05,220.4399999999204,3.548731e-06
220.45499999992037,1.109457e-05,220.45499999992037,7.495178e-06,220.45499999992037,1.513717e-05,220.45499999992037,3.603876e-06
220.46999999992036,1.046739e-05,220.46999999992036,7.461272e-06,220.46999999992036,1.557655e-05,220.46999999992036,3.599965e-06
220.48499999992035,9.289512e-06,220.48499999992035,7.436688e-06,220.48499999992035,1.571879e-05,220.48499999992035,3.588207e-06
220.49999999992033,9.570351e-06,220.49999999992033,7.398706e-06,220.49999999992033,1.448083e-05,220.49999999992033,3.568524e-06
220.51499999992032,9.618801e-06,220.51499999992032,7.349037e-06,220.51499999992032,1.50859e-05,220.51499999992032,3.56062e-06
220.5299999999203,9.139696e-06,220.5299999999203,7.358615e-06,220.5299999999203,1.519012e-05,220.5299999999203,3.588207e-06
220.5449999999203,9.472707e-06,220.5449999999203,7.306746e-06,220.5449999999203,1.557203e-05,220.5449999999203,3.568524e-06
220.55999999992028,9.863196e-06,220.55999999992028,7.291306e-06,220.55999999992028,1.567662e-05,220.55999999992028,3.500774e-06
220.57499999992027,1.133573e-05,220.57499999992027,7.158726e-06,220.57499999992027,1.566943e-05,220.57499999992027,3.443979e-06
220.58999999992025,1.267901e-05,220.58999999992025,7.349037e-06,220.58999999992025,1.573491e-05,220.58999999992025,3.419349e-06
220.60499999992024,1.258086e-05,220.60499999992024,7.349037e-06,220.60499999992024,1.551948e-05,220.60499999992024,3.36955e-06
220.61999999992022,1.259876e-05,220.61999999992022,7.341366e-06,220.61999999992022,1.461349e-05,220.61999999992022,3.419349e-06
220.6349999999202,1.249998e-05,220.6349999999202,6.830453e-06,220.6349999999202,1.467793e-05,220.6349999999202,3.28916e-06
220.6499999999202,1.24729e-05,220.6499999999202,6.716067e-06,220.6499999999202,1.481549e-05,220.6499999999202,3.327482e-06
220.66499999992018,1.245482e-05,220.66499999992018,6.431058e-06,220.66499999992018,1.506535e-05,220.66499999992018,3.344373e-06
220.67999999992017,1.2527e-05,220.67999999992017,6.699267e-06,220.67999999992017,1.492537e-05,220.67999999992017,3.348582e-06
220.69499999992016,1.252812e-05,220.69499999992016,6.612493e-06,220.69499999992016,1.432532e-05,220.69499999992016,3.377901e-06
220.70999999992014,1.326859e-05,220.70999999992014,6.716067e-06,220.70999999992014,1.385036e-05,220.70999999992014,3.254718e-06
220.72499999992013,1.751915e-05,220.72499999992013,6.640129e-06,220.72499999992013,1.397389e-05,220.72499999992013,3.280583e-06
220.73999999992012,1.820449e-05,220.73999999992012,6.787006e-06,220.73999999992012,1.408834e-05,220.73999999992012,3.323245e-06
220.7549999999201,2.687685e-05,220.7549999999201,6.867475e-06,220.7549999999201,1.357505e-05,220.7549999999201,3.390388e-06
220.7699999999201,2.699974e-05,220.7699999999201,6.975343e-06,220.7699999999201,1.294399e-05,220.7699999999201,3.439886e-06
220.78499999992007,2.736046e-05,220.78499999992007,7.115304e-06,220.78499999992007,1.276537e-05,220.78499999992007,3.352786e-06
220.79999999992006,2.73517e-05,220.79999999992006,7.448044e-06,220.79999999992006,1.243558e-05,220.79999999992006,3.352786e-06
220.81499999992005,2.714439e-05,220.81499999992005,7.631143e-06,220.81499999992005,1.203843e-05,220.81499999992005,3.377901e-06
220.82999999992003,2.659338e-05,220.82999999992003,7.664298e-06,220.82999999992003,1.195506e-05,220.82999999992003,3.398688e-06
220.84499999992002,2.617641e-05,220.84499999992002,7.543885e-06,220.84499999992002,1.056117e-05,220.84499999992002,3.344373e-06
220.85999999992,2.61861e-05,220.85999999992,7.553216e-06,220.85999999992,1.041342e-05,220.85999999992,3.306247e-06
220.87499999992,2.61468e-05,220.87499999992,7.59599e-06,220.87499999992,8.838821e-06,220.87499999992,3.344373e-06
220.88999999991998,2.607396e-05,220.88999999991998,7.534543e-06,220.88999999991998,8.70068e-06,220.88999999991998,3.301983e-06
220.90499999991997,2.627203e-05,220.90499999991997,7.461272e-06,220.90499999991997,8.166172e-06,220.90499999991997,3.301983e-06
220.91999999991995,2.630578e-05,220.91999999991995,7.534543e-06,220.91999999991995,7.790086e-06,220.91999999991995,3.149131e-06
220.93499999991994,2.633255e-05,220.93499999991994,7.320229e-06,220.93499999991994,7.632989e-06,220.93499999991994,3.19355e-06
220.94999999991992,2.635928e-05,220.94999999991992,7.188182e-06,220.94999999991992,7.551351e-06,220.94999999991992,3.180289e-06
220.9649999999199,2.537412e-05,220.9649999999199,7.085544e-06,220.9649999999199,5.927241e-06,220.9649999999199,3.184716e-06
220.9799999999199,2.350908e-05,220.9799999999199,7.231167e-06,220.9799999999199,4.873412e-06,220.9799999999199,3.189136e-06
220.99499999991988,2.273846e-05,220.99499999991988,7.273898e-06,220.99499999991988,4.101159e-06,220.99499999991988,3.284874e-06
221.00999999991987,1.237995e-05,221.00999999991987,7.438582e-06,221.00999999991987,3.982663e-06,221.00999999991987,3.224279e-06
221.02499999991986,1.174945e-05,221.02499999991986,7.275834e-06,221.02499999991986,3.711708e-06,221.02499999991986,3.319004e-06
221.03999999991984,1.172905e-05,221.03999999991984,7.081567e-06,221.03999999991984,3.540784e-06,221.03999999991984,3.310505e-06
221.05499999991983,1.185092e-05,221.05499999991983,6.96726e-06,221.05499999991983,3.468433e-06,221.05499999991983,3.356985e-06
221.06999999991982,1.193973e-05,221.06999999991982,8.857925e-06,221.06999999991982,3.373728e-06,221.06999999991982,3.390388e-06
221.0849999999198,1.203258e-05,221.0849999999198,8.782863e-06,221.0849999999198,3.301983e-06,221.0849999999198,3.382069e-06
221.0999999999198,1.186399e-05,221.0999999999198,9.945687e-06,221.0999999999198,3.435788e-06,221.0999999999198,3.4111e-06
221.11499999991977,1.20513e-05,221.11499999991977,1.021401e-05,221.11499999991977,3.4111e-06,221.11499999991977,3.439886e-06
221.12999999991976,1.322712e-05,221.12999999991976,1.037004e-05,221.12999999991976,3.464369e-06,221.12999999991976,3.327482e-06
221.14499999991975,1.315343e-05,221.14499999991975,1.071215e-05,221.14499999991975,3.448066e-06,221.14499999991975,3.331712e-06
221.15999999991973,1.306639e-05,221.15999999991973,1.083506e-05,221.15999999991973,3.572469e-06,221.15999999991973,3.520835e-06
221.17499999991972,1.332262e-05,221.17499999991972,1.080381e-05,221.17499999991972,3.599965e-06,221.17499999991972,3.439886e-06
221.1899999999197,1.344262e-05,221.1899999999197,1.084155e-05,221.1899999999197,3.70411e-06,221.1899999999197,3.556662e-06
221.2049999999197,1.354388e-05,221.2049999999197,1.093084e-05,221.2049999999197,3.760722e-06,221.2049999999197,3.548731e-06
221.21999999991968,1.357816e-05,221.21999999991968,1.073973e-05,221.21999999991968,3.896851e-06,221.21999999991968,3.564574e-06
221.23499999991967,1.294835e-05,221.23499999991967,1.067131e-05,221.23499999991967,3.809105e-06,221.23499999991967,3.584279e-06
221.24999999991965,1.258534e-05,221.24999999991965,1.055183e-05,221.24999999991965,3.838577e-06,221.24999999991965,3.496747e-06
221.26499999991964,1.272891e-05,221.26499999991964,1.053312e-05,221.26499999991964,3.882364e-06,221.26499999991964,3.54476e-06
221.27999999991962,1.255732e-05,221.27999999991962,1.050634e-05,221.27999999991962,3.84957e-06,221.27999999991962,3.520835e-06
221.2949999999196,1.272005e-05,221.2949999999196,1.054649e-05,221.2949999999196,3.989731e-06,221.2949999999196,3.524834e-06
221.3099999999196,1.292766e-05,221.3099999999196,1.048487e-05,221.3099999999196,4.68176e-06,221.3099999999196,3.386231e-06
221.32499999991958,1.289821e-05,221.32499999991958,8.5866e-06,221.32499999991958,5.052234e-06,221.32499999991958,3.373728e-06
221.33999999991957,1.303293e-05,221.33999999991957,8.068993e-06,221.33999999991957,5.953326e-06,221.33999999991957,3.382069e-06
221.35499999991956,1.285445e-05,221.35499999991956,7.196016e-06,221.35499999991956,5.986361e-06,221.35499999991956,3.394541e-06
221.36999999991954,1.253711e-05,221.36999999991954,6.887957e-06,221.36999999991954,6.086705e-06,221.36999999991954,3.488681e-06
221.38499999991953,1.203024e-05,221.38499999991953,6.616753e-06,221.38499999991953,6.098266e-06,221.38499999991953,3.568524e-06
221.39999999991952,1.207698e-05,221.39999999991952,6.472542e-06,221.39999999991952,6.180865e-06,221.39999999991952,3.59605e-06
221.4149999999195,1.234462e-05,221.4149999999195,6.333946e-06,221.4149999999195,6.151165e-06,221.4149999999195,3.40283e-06
221.4299999999195,1.212239e-05,221.4299999999195,6.180865e-06,221.4299999999195,6.151165e-06,221.4299999999195,3.419349e-06
221.44499999991947,1.192793e-05,221.44499999991947,6.016875e-06,221.44499999991947,6.098266e-06,221.44499999991947,3.314757e-06
221.45999999991946,1.151451e-05,221.45999999991946,5.969867e-06,221.45999999991946,6.068162e-06,221.45999999991946,3.28916e-06
221.47499999991945,1.163499e-05,221.47499999991945,6.056544e-06,221.47499999991945,6.06584e-06,221.47499999991945,3.24605e-06
221.48999999991943,1.219769e-05,221.48999999991943,5.920107e-06,221.48999999991943,6.474718e-06,221.48999999991943,3.219907e-06
221.50499999991942,1.232521e-05,221.50499999991942,5.912964e-06,221.50499999991942,6.813935e-06,221.50499999991942,3.254718e-06
221.5199999999194,1.224954e-05,221.5199999999194,5.889093e-06,221.5199999999194,7.00959e-06,221.5199999999194,3.144655e-06
221.5349999999194,1.224379e-05,221.5349999999194,6.044903e-06,221.5349999999194,7.113323e-06,221.5349999999194,3.233005e-06
221.54999999991938,1.180208e-05,221.54999999991938,5.898653e-06,221.54999999991938,6.720261e-06,221.54999999991938,3.250386e-06
221.56499999991937,1.195977e-05,221.56499999991937,5.960421e-06,221.56499999991937,6.832516e-06,221.56499999991937,3.306247e-06
221.57999999991935,1.175065e-05,221.57999999991935,6.06584e-06,221.57999999991935,6.230803e-06,221.57999999991935,3.297714e-06
221.59499999991934,1.116166e-05,221.59499999991934,6.030905e-06,221.59499999991934,6.082075e-06,221.59499999991934,3.250386e-06
221.60999999991932,1.123838e-05,221.60999999991932,6.589018e-06,221.60999999991932,6.155743e-06,221.60999999991932,3.241707e-06
221.6249999999193,1.090504e-05,221.6249999999193,6.500773e-06,221.6249999999193,6.255622e-06,221.6249999999193,3.233005e-06
221.6399999999193,1.050098e-05,221.6399999999193,6.522406e-06,221.6399999999193,6.726546e-06,221.6399999999193,3.276286e-06
221.65499999991928,1.078031e-05,221.65499999991928,6.567604e-06,221.65499999991928,6.642251e-06,221.65499999991928,3.284874e-06
221.66999999991927,1.038497e-05,221.66999999991927,6.574036e-06,221.66999999991927,6.697164e-06,221.66999999991927,3.306247e-06
221.68499999991926,1.020711e-05,221.68499999991926,6.892046e-06,221.68499999991926,6.782854e-06,221.68499999991926,3.373728e-06
221.69999999991924,1.014898e-05,221.69999999991924,6.914493e-06,221.69999999991924,6.787006e-06,221.69999999991924,3.348582e-06
221.71499999991923,1.010168e-05,221.71499999991923,6.848989e-06,221.71499999991923,6.707672e-06,221.71499999991923,3.314757e-06
221.72999999991922,1.001485e-05,221.72999999991922,6.930771e-06,221.72999999991922,6.618881e-06,221.72999999991922,3.443979e-06
221.7449999999192,8.914992e-06,221.7449999999192,7.091506e-06,221.7449999999192,6.070483e-06,221.7449999999192,3.427579e-06
221.7599999999192,8.765202e-06,221.7599999999192,7.156758e-06,221.7599999999192,6.014533e-06,221.7599999999192,3.431686e-06
221.77499999991917,8.795684e-06,221.77499999991917,7.203842e-06,221.77499999991917,5.792623e-06,221.77499999991917,3.496747e-06
221.78999999991916,8.870637e-06,221.78999999991916,7.170523e-06,221.78999999991916,5.958057e-06,221.78999999991916,3.443979e-06
221.80499999991915,8.849969e-06,221.80499999991915,7.349037e-06,221.80499999991915,6.380479e-06,221.80499999991915,3.54476e-06
221.81999999991913,8.894426e-06,221.81999999991913,7.05566e-06,221.81999999991913,6.318359e-06,221.81999999991913,3.492716e-06
221.83499999991912,9.127357e-06,221.83499999991912,7.201887e-06,221.83499999991912,6.226279e-06,221.83499999991912,3.556662e-06
221.8499999999191,9.576237e-06,221.8499999999191,7.217518e-06,221.8499999999191,6.373853e-06,221.8499999999191,3.536803e-06
221.8649999999191,9.631973e-06,221.8649999999191,6.875675e-06,221.8649999999191,6.448557e-06,221.8649999999191,3.59605e-06
221.87999999991908,9.78145e-06,221.87999999991908,6.633762e-06,221.87999999991908,5.903427e-06,221.87999999991908,3.468433e-06
221.89499999991907,9.573294e-06,221.89499999991907,6.629514e-06,221.89499999991907,6.100575e-06,221.89499999991907,3.540784e-06
221.90999999991905,9.592404e-06,221.90999999991905,6.64861e-06,221.90999999991905,6.174023e-06,221.90999999991905,3.59605e-06
221.92499999991904,9.880319e-06,221.92499999991904,6.791156e-06,221.92499999991904,6.162605e-06,221.92499999991904,3.584279e-06
221.93999999991902,1.071872e-05,221.93999999991902,6.69506e-06,221.93999999991902,6.699267e-06,221.93999999991902,3.524834e-06
221.954999999919,1.078815e-05,221.954999999919,6.900217e-06,221.954999999919,6.887957e-06,221.954999999919,3.548731e-06
221.969999999919,1.075022e-05,221.969999999919,7.621908e-06,221.969999999919,7.508323e-06,221.969999999919,3.415227e-06
221.98499999991898,1.065677e-05,221.98499999991898,8.265616e-06,221.98499999991898,8.219473e-06,221.98499999991898,3.456227e-06
221.99999999991897,1.067131e-05,221.99999999991897,8.326743e-06,221.99999999991897,8.681231e-06,221.99999999991897,3.431686e-06
222.01499999991896,1.126342e-05,222.01499999991896,8.262207e-06,222.01499999991896,8.655229e-06,222.01499999991896,3.382069e-06
222.02999999991894,1.128466e-05,222.02999999991894,8.114256e-06,222.02999999991894,8.598076e-06,222.02999999991894,3.344373e-06
222.04499999991893,1.069109e-05,222.04499999991893,8.155816e-06,222.04499999991893,8.963841e-06,222.04499999991893,3.28916e-06
222.05999999991892,1.061306e-05,222.05999999991892,8.176516e-06,222.05999999991892,1.022366e-05,222.05999999991892,3.276286e-06
222.0749999999189,1.111233e-05,222.0749999999189,8.37566e-06,222.0749999999189,1.026491e-05,222.0749999999189,3.233005e-06
222.0899999999189,1.139769e-05,222.0899999999189,8.109047e-06,222.0899999999189,1.045527e-05,222.0899999999189,3.131187e-06
222.10499999991887,1.127467e-05,222.10499999991887,8.147174e-06,222.10499999991887,1.05251e-05,222.10499999991887,3.344373e-06
222.11999999991886,1.132827e-05,222.11999999991886,8.166172e-06,222.11999999991886,1.145194e-05,222.11999999991886,3.382069e-06
222.13499999991885,1.126342e-05,222.13499999991885,8.265616e-06,222.13499999991885,1.200562e-05,222.13499999991885,3.373728e-06
222.14999999991883,1.125466e-05,222.14999999991883,8.377342e-06,222.14999999991883,1.208281e-05,222.14999999991883,3.228645e-06
222.16499999991882,1.218151e-05,222.16499999991882,8.397496e-06,222.16499999991882,1.216647e-05,222.16499999991882,3.280583e-06
222.1799999999188,1.302428e-05,222.1799999999188,8.338578e-06,222.1799999999188,1.216762e-05,222.1799999999188,3.394541e-06
222.1949999999188,1.269788e-05,222.1949999999188,8.462665e-06,222.1949999999188,1.327071e-05,222.1949999999188,3.452149e-06
222.20999999991878,1.289384e-05,222.20999999991878,7.997096e-06,222.20999999991878,1.37575e-05,222.20999999991878,3.435788e-06
222.22499999991877,1.313521e-05,222.22499999991877,7.345202e-06,222.22499999991877,1.335958e-05,222.22499999991877,3.419349e-06
222.23999999991875,1.341429e-05,222.23999999991875,6.762054e-06,222.23999999991875,1.332051e-05,222.23999999991875,3.373728e-06
222.25499999991874,1.348342e-05,222.25499999991874,6.684531e-06,222.25499999991874,1.321326e-05,222.25499999991874,3.382069e-06
222.26999999991872,1.299288e-05,222.26999999991872,6.638008e-06,222.26999999991872,1.436068e-05,222.26999999991872,3.394541e-06
222.2849999999187,1.297009e-05,222.2849999999187,6.743279e-06,222.2849999999187,1.516878e-05,222.2849999999187,3.382069e-06
222.2999999999187,1.298311e-05,222.2999999999187,6.759971e-06,222.2999999999187,1.401717e-05,222.2999999999187,3.267676e-06
222.31499999991868,1.273776e-05,222.31499999991868,6.413511e-06,222.31499999991868,1.386764e-05,222.31499999991868,3.394541e-06
222.32999999991867,1.211541e-05,222.32999999991867,6.42229e-06,222.32999999991867,1.57546e-05,222.32999999991867,3.439886e-06
222.34499999991866,1.171102e-05,222.34499999991866,6.345057e-06,222.34499999991866,1.570355e-05,222.34499999991866,3.319004e-06
222.35999999991864,1.152673e-05,222.35999999991864,6.435437e-06,222.35999999991864,1.565773e-05,222.35999999991864,3.267676e-06
222.37499999991863,1.135807e-05,222.37499999991863,6.494269e-06,222.37499999991863,1.603905e-05,222.37499999991863,3.144655e-06
222.38999999991862,1.179492e-05,222.38999999991862,6.351713e-06,222.38999999991862,1.613624e-05,222.38999999991862,3.149131e-06
222.4049999999186,1.199623e-05,222.4049999999186,6.132817e-06,222.4049999999186,1.640463e-05,222.4049999999186,3.099535e-06
222.4199999999186,1.045392e-05,222.4199999999186,6.158032e-06,222.4199999999186,1.654912e-05,222.4199999999186,2.95052e-06
222.43499999991857,1.216415e-05,222.43499999991857,5.714275e-06,222.43499999991857,1.645779e-05,222.43499999991857,2.853437e-06
222.44999999991856,1.39628e-05,222.44999999991856,5.632336e-06,222.44999999991856,1.54257e-05,222.44999999991856,2.863294e-06
222.46499999991855,1.441453e-05,222.46499999991855,5.674694e-06,222.46499999991855,1.494518e-05,222.46499999991855,2.940956e-06
222.47999999991853,1.573581e-05,222.47999999991853,5.582091e-06,222.47999999991853,1.496308e-05,222.47999999991853,2.960054e-06
222.49499999991852,1.667209e-05,222.49499999991852,5.795054e-06,222.49499999991852,1.471723e-05,222.49499999991852,2.969556e-06
222.5099999999185,1.683437e-05,222.5099999999185,5.81689e-06,222.5099999999185,1.456038e-05,222.5099999999185,3.002579e-06
222.5249999999185,1.674207e-05,222.5249999999185,5.778013e-06,222.5249999999185,1.330463e-05,222.5249999999185,3.01662e-06
222.53999999991848,1.678157e-05,222.53999999991848,5.799914e-06,222.53999999991848,1.289165e-05,222.53999999991848,3.01662e-06
222.55499999991846,1.68126e-05,222.55499999991846,5.719203e-06,222.55499999991846,1.289493e-05,222.55499999991846,3.072146e-06
222.56999999991845,1.716335e-05,222.56999999991845,5.763367e-06,222.56999999991845,1.277861e-05,222.56999999991845,3.025945e-06
222.58499999991844,1.718222e-05,222.58499999991844,5.95096e-06,222.58499999991844,1.052376e-05,222.58499999991844,3.067557e-06
222.59999999991842,1.722889e-05,222.59999999991842,5.903427e-06,222.59999999991842,1.024156e-05,222.59999999991842,3.081303e-06
222.6149999999184,1.721171e-05,222.6149999999184,5.826569e-06,222.6149999999184,9.565934e-06,222.6149999999184,2.964809e-06
222.6299999999184,1.720844e-05,222.6299999999184,5.778013e-06,222.6299999999184,7.842351e-06,222.6299999999184,2.926552e-06
222.64499999991838,1.701167e-05,222.64499999991838,5.763367e-06,222.64499999991838,6.828391e-06,222.64499999991838,2.916909e-06
222.65999999991837,1.658228e-05,222.65999999991837,5.731505e-06,222.65999999991837,6.446372e-06,222.65999999991837,2.955291e-06
222.67499999991836,1.617635e-05,222.67499999991836,5.81689e-06,222.67499999991836,7.246734e-06,222.67499999991836,3.002579e-06
222.68999999991834,1.3737e-05,222.68999999991834,5.986361e-06,222.68999999991834,7.184261e-06,222.68999999991834,2.974296e-06
222.70499999991833,1.308686e-05,222.70499999991833,5.893875e-06,222.70499999991833,7.19993e-06,222.70499999991833,3.117661e-06
222.71999999991831,1.332473e-05,222.71999999991831,6.044903e-06,222.71999999991831,7.24479e-06,222.71999999991831,3.094987e-06
222.7349999999183,1.120574e-05,222.7349999999183,5.912964e-06,222.7349999999183,8.148903e-06,222.7349999999183,3.108612e-06
222.7499999999183,9.938602e-06,222.7499999999183,5.922486e-06,222.7499999999183,8.100356e-06,222.7499999999183,3.104077e-06
222.76499999991827,9.951351e-06,222.76499999991827,5.939112e-06,222.76499999991827,8.114256e-06,222.76499999991827,3.153601e-06
222.77999999991826,9.965496e-06,222.77999999991826,6.037908e-06,222.77999999991826,8.143716e-06,222.77999999991826,3.166973e-06
222.79499999991825,1.039175e-05,222.79499999991825,5.962784e-06,222.79499999991825,7.790086e-06,222.79499999991825,3.323245e-06
222.80999999991823,1.005696e-05,222.80999999991823,6.137409e-06,222.80999999991823,7.777418e-06,222.80999999991823,3.306247e-06
222.82499999991822,9.922999e-06,222.82499999991822,5.941484e-06,222.82499999991822,7.942303e-06,222.82499999991822,3.254718e-06
222.8399999999182,9.820256e-06,222.8399999999182,5.869926e-06,222.8399999999182,7.845942e-06,222.8399999999182,3.197958e-06
222.8549999999182,9.975386e-06,222.8549999999182,5.862722e-06,222.8549999999182,7.811755e-06,222.8549999999182,3.284874e-06
222.86999999991818,1.053045e-05,222.86999999991818,5.901041e-06,222.86999999991818,7.961788e-06,222.86999999991818,3.373728e-06
222.88499999991816,1.081814e-05,222.88499999991816,6.114414e-06,222.88499999991816,8.176516e-06,222.88499999991816,3.406967e-06
222.89999999991815,1.070426e-05,222.89999999991815,6.082075e-06,222.89999999991815,8.240013e-06,222.89999999991815,3.548731e-06
222.91499999991814,1.076069e-05,222.91499999991814,6.121322e-06,222.91499999991814,7.485775e-06,222.91499999991814,3.524834e-06
222.92999999991812,1.0462e-05,222.92999999991812,5.976941e-06,222.92999999991812,6.861319e-06,222.92999999991812,3.500774e-06
222.9449999999181,1.040259e-05,222.9449999999181,6.187698e-06,222.9449999999181,8.002378e-06,222.9449999999181,3.456227e-06
222.9599999999181,1.047815e-05,222.9599999999181,6.125922e-06,222.9599999999181,7.97593e-06,222.9599999999181,3.500774e-06
222.97499999991808,9.10263e-06,222.97499999991808,6.105191e-06,222.97499999991808,7.800928e-06,222.97499999991808,3.488681e-06
222.98999999991807,9.304663e-06,222.98999999991807,6.128222e-06,222.98999999991807,6.959168e-06,222.98999999991807,3.56062e-06
223.00499999991806,9.274335e-06,223.00499999991806,6.255622e-06,223.00499999991806,6.938897e-06,223.00499999991806,3.564574e-06
223.01999999991804,9.369536e-06,223.01999999991804,6.345057e-06,223.01999999991804,6.855157e-06,223.01999999991804,3.520835e-06
223.03499999991803,9.365025e-06,223.03499999991803,6.327271e-06,223.03499999991803,7.025649e-06,223.03499999991803,3.468433e-06
223.04999999991801,9.327345e-06,223.04999999991801,6.313899e-06,223.04999999991801,7.98652e-06,223.04999999991801,3.406967e-06
223.064999999918,9.411539e-06,223.064999999918,6.158032e-06,223.064999999918,7.95825e-06,223.064999999918,3.488681e-06
223.079999999918,9.53496e-06,223.079999999918,6.210422e-06,223.079999999918,7.90675e-06,223.079999999918,3.480596e-06
223.09499999991797,9.965496e-06,223.09499999991797,6.180865e-06,223.09499999991797,7.755652e-06,223.09499999991797,3.65048e-06
223.10999999991796,9.968323e-06,223.10999999991796,6.329497e-06,223.10999999991796,8.21433e-06,223.10999999991796,3.631134e-06
223.12499999991795,9.709175e-06,223.12499999991795,6.221753e-06,223.12499999991795,8.495891e-06,223.12499999991795,3.658189e-06
223.13999999991793,9.653885e-06,223.13999999991793,6.160319e-06,223.13999999991793,8.494233e-06,223.13999999991793,3.627253e-06
223.15499999991792,9.81021e-06,223.15499999991792,6.280343e-06,223.15499999991792,8.480955e-06,223.15499999991792,3.588207e-06
223.1699999999179,9.873189e-06,223.1699999999179,6.452925e-06,223.1699999999179,8.5866e-06,223.1699999999179,3.568524e-06
223.1849999999179,1.001204e-05,223.1849999999179,6.280343e-06,223.1849999999179,8.542191e-06,223.1849999999179,3.516832e-06
223.19999999991788,1.038633e-05,223.19999999991788,6.180865e-06,223.19999999991788,7.52706e-06,223.19999999991788,3.524834e-06
223.21499999991786,1.079076e-05,223.21499999991786,6.178585e-06,223.21499999991786,7.573703e-06,223.21499999991786,3.476546e-06
223.22999999991785,1.065149e-05,223.22999999991785,6.132817e-06,223.22999999991785,7.515824e-06,223.22999999991785,3.468433e-06
223.24499999991784,1.060775e-05,223.24499999991784,6.16489e-06,223.24499999991784,8.326743e-06,223.24499999991784,3.406967e-06
223.25999999991782,1.0762e-05,223.25999999991782,6.072803e-06,223.25999999991782,8.34702e-06,223.25999999991782,3.406967e-06
223.2749999999178,1.041748e-05,223.2749999999178,6.121322e-06,223.2749999999178,8.303025e-06,223.2749999999178,3.406967e-06
223.2899999999178,1.068713e-05,223.2899999999178,6.210422e-06,223.2899999999178,8.046266e-06,223.2899999999178,3.443979e-06
223.30499999991778,1.069241e-05,223.30499999991778,6.289309e-06,223.30499999991778,7.500814e-06,223.30499999991778,3.456227e-06
223.31999999991777,1.069109e-05,223.31999999991777,6.235322e-06,223.31999999991777,7.510198e-06,223.31999999991777,3.28916e-06
223.33499999991776,1.089857e-05,223.33499999991776,6.468188e-06,223.33499999991776,7.377733e-06,223.33499999991776,3.29344e-06
223.34999999991774,1.086621e-05,223.34999999991774,6.563313e-06,223.34999999991774,7.349037e-06,223.34999999991774,3.166973e-06
223.36499999991773,1.110599e-05,223.36499999991773,6.435437e-06,223.36499999991773,6.569749e-06,223.36499999991773,3.263362e-06
223.37999999991771,1.099509e-05,223.37999999991771,6.805661e-06,223.37999999991771,5.841057e-06,223.37999999991771,3.171418e-06
223.3949999999177,1.072529e-05,223.3949999999177,7.302889e-06,223.3949999999177,5.778013e-06,223.3949999999177,3.237359e-06
223.4099999999177,1.073317e-05,223.4099999999177,7.543885e-06,223.4099999999177,5.716739e-06,223.4099999999177,3.189136e-06
223.42499999991767,1.07266e-05,223.42499999991767,7.555081e-06,223.42499999991767,5.599728e-06,223.42499999991767,3.206755e-06
223.43999999991766,1.071741e-05,223.43999999991766,7.766543e-06,223.43999999991766,5.699464e-06,223.43999999991766,3.189136e-06
223.45499999991765,1.027314e-05,223.45499999991765,7.888914e-06,223.45499999991765,5.654801e-06,223.45499999991765,3.126685e-06
223.46999999991763,9.861767e-06,223.46999999991763,7.954708e-06,223.46999999991763,5.587136e-06,223.46999999991763,3.197958e-06
223.48499999991762,1.032102e-05,223.48499999991762,7.838757e-06,223.48499999991762,5.485359e-06,223.48499999991762,3.184716e-06
223.4999999999176,1.052108e-05,223.4999999999176,7.851327e-06,223.4999999999176,4.424985e-06,223.4999999999176,3.180289e-06
223.5149999999176,1.037276e-05,223.5149999999176,7.764728e-06,223.5149999999176,4.469331e-06,223.5149999999176,3.166973e-06
223.52999999991758,1.027863e-05,223.52999999991758,8.447671e-06,223.52999999991758,4.559819e-06,223.52999999991758,3.090432e-06
223.54499999991756,9.964083e-06,223.54499999991756,9.150478e-06,223.54499999991756,4.431347e-06,223.54499999991756,3.035241e-06
223.55999999991755,1.014065e-05,223.55999999991755,9.680115e-06,223.55999999991755,4.223002e-06,223.55999999991755,3.035241e-06
223.57499999991754,1.037683e-05,223.57499999991754,1.028958e-05,223.57499999991754,4.305587e-06,223.57499999991754,3.099535e-06
223.58999999991752,1.018915e-05,223.58999999991752,1.02498e-05,223.58999999991752,4.325173e-06,223.58999999991752,3.202359e-06
223.6049999999175,1.034828e-05,223.6049999999175,1.037411e-05,223.6049999999175,4.328428e-06,223.6049999999175,3.153601e-06
223.6199999999175,9.801591e-06,223.6199999999175,1.02498e-05,223.6199999999175,4.35762e-06,223.6199999999175,3.135683e-06
223.63499999991748,1.010168e-05,223.63499999991748,1.012814e-05,223.63499999991748,4.386617e-06,223.63499999991748,3.099535e-06
223.64999999991747,1.008214e-05,223.64999999991747,9.814517e-06,223.64999999991747,4.434525e-06,223.64999999991747,3.180289e-06
223.66499999991746,9.962669e-06,223.66499999991746,9.74827e-06,223.66499999991746,4.503868e-06,223.66499999991746,3.197958e-06
223.67999999991744,1.032921e-05,223.67999999991744,9.840318e-06,223.67999999991744,4.341427e-06,223.67999999991744,3.219907e-06
223.69499999991743,1.029095e-05,223.69499999991743,9.637821e-06,223.69499999991743,4.31539e-06,223.69499999991743,3.215529e-06
223.70999999991741,1.094501e-05,223.70999999991741,9.604145e-06,223.70999999991741,4.299038e-06,223.70999999991741,3.254718e-06
223.7249999999174,1.057983e-05,223.7249999999174,9.701918e-06,223.7249999999174,4.347911e-06,223.7249999999174,3.219907e-06
223.7399999999174,1.026628e-05,223.7399999999174,9.840318e-06,223.7399999999174,4.450379e-06,223.7399999999174,3.184716e-06
223.75499999991737,1.053714e-05,223.75499999991737,9.931514e-06,223.75499999991737,4.266145e-06,223.75499999991737,3.162522e-06
223.76999999991736,1.094887e-05,223.76999999991736,1.006816e-05,223.76999999991736,4.17604e-06,223.76999999991736,3.140172e-06
223.78499999991735,1.091665e-05,223.78499999991735,9.608544e-06,223.78499999991735,4.148967e-06,223.78499999991735,3.144655e-06
223.79999999991733,1.092697e-05,223.79999999991733,9.533483e-06,223.79999999991733,4.155752e-06,223.79999999991733,3.250386e-06
223.81499999991732,1.064752e-05,223.81499999991732,9.417524e-06,223.81499999991732,4.066665e-06,223.81499999991732,3.254718e-06
223.8299999999173,1.120071e-05,223.8299999999173,9.133529e-06,223.8299999999173,4.219664e-06,223.8299999999173,3.202359e-06
223.8449999999173,1.069504e-05,223.8449999999173,9.469733e-06,223.8449999999173,4.266145e-06,223.8449999999173,3.044509e-06
223.85999999991728,1.081293e-05,223.85999999991728,9.408545e-06,223.85999999991728,4.376973e-06,223.85999999991728,2.964809e-06
223.87499999991726,1.075677e-05,223.87499999991726,9.459313e-06,223.87499999991726,4.36408e-06,223.87499999991726,2.997883e-06
223.88999999991725,1.038497e-05,223.88999999991725,9.465269e-06,223.88999999991725,4.347911e-06,223.88999999991725,3.039879e-06
223.90499999991724,1.052644e-05,223.90499999991724,9.127357e-06,223.90499999991724,4.409039e-06,223.90499999991724,2.955291e-06
223.91999999991722,1.040665e-05,223.91999999991722,9.059196e-06,223.91999999991722,4.360851e-06,223.91999999991722,2.921734e-06
223.9349999999172,1.061572e-05,223.9349999999172,9.196546e-06,223.9349999999172,4.29248e-06,223.9349999999172,2.902385e-06
223.9499999999172,1.038904e-05,223.9499999999172,9.263696e-06,223.9499999999172,4.305587e-06,223.9499999999172,2.892662e-06
223.96499999991718,1.031966e-05,223.96499999991718,9.29406e-06,223.96499999991718,4.302314e-06,223.96499999991718,2.803635e-06
223.97999999991717,1.028547e-05,223.97999999991717,9.13507e-06,223.97999999991717,4.31539e-06,223.97999999991717,2.921734e-06
223.99499999991716,1.019054e-05,223.99499999991716,9.046747e-06,223.99499999991716,4.325173e-06,223.99499999991716,2.882905e-06
224.00999999991714,9.94852e-06,224.00999999991714,8.782863e-06,224.00999999991714,4.302314e-06,224.00999999991714,3.211145e-06
224.02499999991713,1.035509e-05,224.02499999991713,8.440998e-06,224.02499999991713,4.428167e-06,224.02499999991713,3.206755e-06
224.03999999991711,1.067922e-05,224.03999999991711,7.748384e-06,224.03999999991711,4.434525e-06,224.03999999991711,3.202359e-06
224.0549999999171,1.074497e-05,224.0549999999171,7.761099e-06,224.0549999999171,4.456705e-06,224.0549999999171,3.162522e-06
224.0699999999171,1.130711e-05,224.0699999999171,7.051666e-06,224.0699999999171,4.370531e-06,224.0699999999171,3.126685e-06
224.08499999991707,1.089987e-05,224.08499999991707,7.027653e-06,224.08499999991707,4.145571e-06,224.08499999991707,3.197958e-06
224.09999999991706,1.103473e-05,224.09999999991706,6.455107e-06,224.09999999991706,4.104592e-06,224.09999999991706,3.280583e-06
224.11499999991705,1.089211e-05,224.11499999991705,6.369431e-06,224.11499999991705,4.192873e-06,224.11499999991705,3.28916e-06
224.12999999991703,1.092052e-05,224.12999999991703,6.627389e-06,224.12999999991703,4.20294e-06,224.12999999991703,3.24605e-06
224.14499999991702,1.102068e-05,224.14499999991702,7.237009e-06,224.14499999991702,4.182782e-06,224.14499999991702,3.24605e-06
224.159999999917,1.100533e-05,224.159999999917,7.556945e-06,224.159999999917,4.077044e-06,224.159999999917,3.259043e-06
224.174999999917,1.051305e-05,224.174999999917,7.829767e-06,224.174999999917,4.209638e-06,224.174999999917,3.365367e-06
224.18999999991698,1.044449e-05,224.18999999991698,8.255384e-06,224.18999999991698,4.179412e-06,224.18999999991698,3.406967e-06
224.20499999991696,1.009052e-05,224.20499999991696,8.226325e-06,224.20499999991696,4.165909e-06,224.20499999991696,3.386231e-06
224.21999999991695,1.009052e-05,224.21999999991695,8.291141e-06,224.21999999991695,4.138769e-06,224.21999999991695,3.340158e-06
224.23499999991694,1.001204e-05,224.23499999991694,8.846786e-06,224.23499999991694,4.229668e-06,224.23499999991694,3.323245e-06
224.24999999991692,9.930095e-06,224.24999999991692,8.913411e-06,224.24999999991692,4.393035e-06,224.24999999991692,3.365367e-06
224.2649999999169,9.325834e-06,224.2649999999169,9.162785e-06,224.2649999999169,4.491339e-06,224.2649999999169,3.131187e-06
224.2799999999169,9.172005e-06,224.2799999999169,9.363521e-06,224.2799999999169,6.734918e-06,224.2799999999169,3.122176e-06
224.29499999991688,8.583318e-06,224.29499999991688,1.008633e-05,224.29499999991688,7.075597e-06,224.29499999991688,3.090432e-06
224.30999999991687,8.480955e-06,224.30999999991687,1.016285e-05,224.30999999991687,7.485775e-06,224.30999999991687,3.153601e-06
224.32499999991686,7.322153e-06,224.32499999991686,1.008074e-05,224.32499999991686,7.673483e-06,224.32499999991686,3.149131e-06
224.33999999991684,7.513949e-06,224.33999999991684,1.010726e-05,224.33999999991684,9.716427e-06,224.33999999991684,3.166973e-06
224.35499999991683,7.915653e-06,224.35499999991683,1.042559e-05,224.35499999991683,1.031283e-05,224.35499999991683,3.117661e-06
224.3699999999168,8.014691e-06,224.3699999999168,1.146301e-05,224.3699999999168,1.045258e-05,224.3699999999168,3.184716e-06
224.3849999999168,8.274134e-06,224.3849999999168,1.132827e-05,224.3849999999168,1.122333e-05,224.3849999999168,3.108612e-06
224.3999999999168,8.99365e-06,224.3999999999168,1.11288e-05,224.3999999999168,1.239814e-05,224.3999999999168,3.149131e-06
224.41499999991677,9.242383e-06,224.41499999991677,1.107678e-05,224.41499999991677,1.252587e-05,224.41499999991677,3.153601e-06
224.42999999991676,9.227129e-06,224.42999999991676,1.053981e-05,224.42999999991676,1.252137e-05,224.42999999991676,3.030597e-06
224.44499999991675,1.064222e-05,224.44499999991675,1.059447e-05,224.44499999991675,1.314379e-05,224.44499999991675,3.29344e-06
224.45999999991673,1.063163e-05,224.45999999991673,1.064884e-05,224.45999999991673,1.435773e-05,224.45999999991673,3.29344e-06
224.47499999991672,1.075546e-05,224.47499999991672,1.040124e-05,224.47499999991672,1.449833e-05,224.47499999991672,3.284874e-06
224.4899999999167,1.092955e-05,224.4899999999167,1.004575e-05,224.4899999999167,1.452454e-05,224.4899999999167,3.250386e-06
224.5049999999167,1.131832e-05,224.5049999999167,9.850334e-06,224.5049999999167,1.45226e-05,224.5049999999167,3.219907e-06
224.51999999991668,1.132951e-05,224.51999999991668,9.75838e-06,224.51999999991668,1.51567e-05,224.51999999991668,3.158065e-06
224.53499999991666,1.186161e-05,224.53499999991666,9.725122e-06,224.53499999991666,1.502509e-05,224.53499999991666,3.241707e-06
224.54999999991665,1.198918e-05,224.54999999991665,8.856334e-06,224.54999999991665,1.50354e-05,224.54999999991665,3.24605e-06
224.56499999991664,1.190784e-05,224.56499999991664,8.827657e-06,224.56499999991664,1.480883e-05,224.56499999991664,3.224279e-06
224.57999999991662,1.200445e-05,224.57999999991662,8.781259e-06,224.57999999991662,1.434988e-05,224.57999999991662,3.197958e-06
224.5949999999166,1.230462e-05,224.5949999999166,8.598076e-06,224.5949999999166,1.398598e-05,224.5949999999166,3.149131e-06
224.6099999999166,1.236515e-05,224.6099999999166,8.216045e-06,224.6099999999166,1.380962e-05,224.6099999999166,3.085871e-06
224.62499999991658,1.252362e-05,224.62499999991658,6.705572e-06,224.62499999991658,1.364337e-05,224.62499999991658,3.049133e-06
224.63999999991657,1.248532e-05,224.63999999991657,6.535352e-06,224.63999999991657,1.481264e-05,224.63999999991657,3.053749e-06
224.65499999991655,1.342899e-05,224.65499999991655,6.373853e-06,224.65499999991655,1.501195e-05,224.65499999991655,3.076727e-06
224.66999999991654,1.367018e-05,224.66999999991654,6.356147e-06,224.66999999991654,1.498566e-05,224.66999999991654,3.044509e-06
224.68499999991653,1.364337e-05,224.68499999991653,6.19225e-06,224.68499999991653,1.525121e-05,224.68499999991653,3.062961e-06
224.6999999999165,1.303833e-05,224.6999999999165,6.063518e-06,224.6999999999165,1.466833e-05,224.6999999999165,2.974296e-06
224.7149999999165,1.310622e-05,224.7149999999165,5.905813e-06,224.7149999999165,1.445844e-05,224.7149999999165,3.044509e-06
224.7299999999165,1.324095e-05,224.7299999999165,5.920107e-06,224.7299999999165,1.516042e-05,224.7299999999165,3.021286e-06
224.74499999991647,1.336168e-05,224.74499999991647,5.896265e-06,224.74499999991647,1.542296e-05,224.74499999991647,3.021286e-06
224.75999999991646,1.377796e-05,224.75999999991646,5.965146e-06,224.75999999991646,1.596069e-05,224.75999999991646,3.072146e-06
224.77499999991645,1.417208e-05,224.77499999991645,5.622323e-06,224.77499999991645,1.480503e-05,224.77499999991645,3.062961e-06
224.78999999991643,1.38717e-05,224.78999999991643,5.503306e-06,224.78999999991643,1.478694e-05,224.78999999991643,2.997883e-06
224.80499999991642,1.493387e-05,224.80499999991642,5.523745e-06,224.80499999991642,1.480978e-05,224.80499999991642,2.988471e-06
224.8199999999164,1.547676e-05,224.8199999999164,5.425972e-06,224.8199999999164,1.711815e-05,224.8199999999164,2.964809e-06
224.8349999999164,1.555574e-05,224.8349999999164,5.56946e-06,224.8349999999164,1.743856e-05,224.8349999999164,3.044509e-06
224.84999999991638,1.549949e-05,224.84999999991638,5.592176e-06,224.84999999991638,1.709675e-05,224.84999999991638,3.166973e-06
224.86499999991636,1.530652e-05,224.86499999991636,5.714275e-06,224.86499999991636,1.690951e-05,224.86499999991636,3.228645e-06
224.87999999991635,1.557927e-05,224.87999999991635,5.833818e-06,224.87999999991635,1.818048e-05,224.87999999991635,3.228645e-06
224.89499999991634,1.541565e-05,224.89499999991634,5.758477e-06,224.89499999991634,1.641579e-05,224.89499999991634,3.284874e-06
224.90999999991632,1.430564e-05,224.90999999991632,5.716739e-06,224.90999999991632,1.706706e-05,224.90999999991632,3.352786e-06
224.9249999999163,1.451095e-05,224.9249999999163,5.955692e-06,224.9249999999163,1.768003e-05,224.9249999999163,3.344373e-06
224.9399999999163,1.412529e-05,224.9399999999163,5.965146e-06,224.9399999999163,1.758656e-05,224.9399999999163,3.348582e-06
224.95499999991628,1.396179e-05,224.95499999991628,5.893875e-06,224.95499999991628,1.745229e-05,224.95499999991628,3.352786e-06
224.96999999991627,1.400008e-05,224.96999999991627,5.881913e-06,224.96999999991627,1.729499e-05,224.96999999991627,3.331712e-06
224.98499999991625,1.382797e-05,224.98499999991625,5.662269e-06,224.98499999991625,1.698349e-05,224.98499999991625,3.423466e-06
224.99999999991624,1.348551e-05,224.99999999991624,5.760922e-06,224.99999999991624,1.6887e-05,224.99999999991624,3.419349e-06
225.01499999991623,1.269566e-05,225.01499999991623,5.724127e-06,225.01499999991623,1.640034e-05,225.01499999991623,3.406967e-06
225.0299999999162,1.234462e-05,225.0299999999162,5.804769e-06,225.0299999999162,1.642437e-05,225.0299999999162,3.439886e-06
225.0449999999162,1.193619e-05,225.0449999999162,5.821732e-06,225.0449999999162,1.66704e-05,225.0449999999162,3.452149e-06
225.0599999999162,1.039853e-05,225.0599999999162,5.765811e-06,225.0599999999162,1.722235e-05,225.0599999999162,3.484641e-06
225.07499999991617,9.827426e-06,225.07499999991617,5.891484e-06,225.07499999991617,1.487716e-05,225.07499999991617,3.528828e-06
225.08999999991616,9.665551e-06,225.08999999991616,5.857914e-06,225.08999999991616,1.490838e-05,225.08999999991616,3.504795e-06
225.10499999991615,9.624658e-06,225.10499999991615,6.009847e-06,225.10499999991615,1.534146e-05,225.10499999991615,3.452149e-06
225.11999999991613,9.701918e-06,225.11999999991613,5.891484e-06,225.11999999991613,1.463565e-05,225.11999999991613,3.394541e-06
225.13499999991612,9.668466e-06,225.13499999991612,5.905813e-06,225.13499999991612,1.445844e-05,225.13499999991612,3.427579e-06
225.1499999999161,1.006816e-05,225.1499999999161,6.109804e-06,225.1499999999161,1.353348e-05,225.1499999999161,3.344373e-06
225.1649999999161,1.171703e-05,225.1649999999161,5.893875e-06,225.1649999999161,1.422962e-05,225.1649999999161,3.267676e-06
225.17999999991608,1.175065e-05,225.17999999991608,6.044903e-06,225.17999999991608,1.312448e-05,225.17999999991608,3.280583e-06
225.19499999991606,1.204662e-05,225.19499999991606,6.051891e-06,225.19499999991606,1.295052e-05,225.19499999991606,3.340158e-06
225.20999999991605,1.292875e-05,225.20999999991605,5.972226e-06,225.20999999991605,1.28993e-05,225.20999999991605,3.11314e-06
225.22499999991604,1.283361e-05,225.22499999991604,5.984008e-06,225.22499999991604,1.223343e-05,225.22499999991604,3.122176e-06
225.23999999991602,1.28369e-05,225.23999999991602,6.148874e-06,225.23999999991602,1.18414e-05,225.23999999991602,3.01662e-06
225.254999999916,1.305453e-05,225.254999999916,6.282586e-06,225.254999999916,1.180447e-05,225.254999999916,3.035241e-06
225.269999999916,1.322818e-05,225.269999999916,6.271365e-06,225.269999999916,1.227826e-05,225.269999999916,2.997883e-06
225.28499999991598,1.364646e-05,225.28499999991598,6.520246e-06,225.28499999991598,1.218382e-05,225.28499999991598,2.945742e-06
225.29999999991597,1.389098e-05,225.29999999991597,6.610363e-06,225.29999999991597,1.167246e-05,225.29999999991597,2.95052e-06
225.31499999991595,1.420683e-05,225.31499999991595,6.629514e-06,225.31499999991595,1.090245e-05,225.31499999991595,2.887788e-06
225.32999999991594,1.428396e-05,225.32999999991594,6.601833e-06,225.32999999991594,1.088435e-05,225.32999999991594,2.838588e-06
225.34499999991593,1.416015e-05,225.34499999991593,6.417902e-06,225.34499999991593,1.024156e-05,225.34499999991593,2.878015e-06
225.3599999999159,1.421872e-05,225.3599999999159,6.413511e-06,225.3599999999159,1.006536e-05,225.3599999999159,2.983753e-06
225.3749999999159,1.468273e-05,225.3749999999159,6.353931e-06,225.3749999999159,8.58824e-06,225.3749999999159,2.916909e-06
225.3899999999159,1.43646e-05,225.3899999999159,6.309435e-06,225.3899999999159,8.519072e-06,225.3899999999159,2.907234e-06
225.40499999991587,1.383306e-05,225.40499999991587,6.300498e-06,225.40499999991587,8.269024e-06,225.40499999991587,2.964809e-06
225.41999999991586,1.210843e-05,225.41999999991586,6.362793e-06,225.41999999991586,7.103415e-06,225.41999999991586,3.007266e-06
225.43499999991585,1.229317e-05,225.43499999991585,6.246608e-06,225.43499999991585,7.603404e-06,225.43499999991585,3.058359e-06
225.44999999991583,1.213168e-05,225.44999999991583,6.141998e-06,225.44999999991583,7.689987e-06,225.44999999991583,2.974296e-06
225.46499999991582,1.145809e-05,225.46499999991582,6.178585e-06,225.46499999991582,7.645896e-06,225.46499999991582,3.039879e-06
225.4799999999158,1.151573e-05,225.4799999999158,6.128222e-06,225.4799999999158,8.291141e-06,225.4799999999158,3.053749e-06
225.4949999999158,1.132827e-05,225.4949999999158,6.035575e-06,225.4949999999158,8.287742e-06,225.4949999999158,3.062961e-06
225.50999999991578,1.157065e-05,225.50999999991578,5.984008e-06,225.50999999991578,8.128133e-06,225.50999999991578,3.049133e-06
225.52499999991576,1.123211e-05,225.52499999991576,5.724127e-06,225.52499999991576,7.631143e-06,225.52499999991576,3.250386e-06
225.53999999991575,1.129465e-05,225.53999999991575,5.582091e-06,225.53999999991575,7.22727e-06,225.53999999991575,3.228645e-06
225.55499999991574,1.102962e-05,225.55499999991574,5.521194e-06,225.55499999991574,7.605257e-06,225.55499999991574,3.259043e-06
225.56999999991572,1.09643e-05,225.56999999991572,5.48279e-06,225.56999999991572,7.172487e-06,225.56999999991572,3.189136e-06
225.5849999999157,1.096044e-05,225.5849999999157,5.451871e-06,225.5849999999157,7.160693e-06,225.5849999999157,3.140172e-06
225.5999999999157,1.11288e-05,225.5999999999157,5.386888e-06,225.5999999999157,7.197973e-06,225.5999999999157,3.081303e-06
225.61499999991568,9.941437e-06,225.61499999991568,5.352786e-06,225.61499999991568,7.231167e-06,225.61499999991568,3.081303e-06
225.62999999991567,9.719326e-06,225.62999999991567,5.321112e-06,225.62999999991567,7.172487e-06,225.62999999991567,3.099535e-06
225.64499999991565,9.935768e-06,225.64499999991565,5.197909e-06,225.64499999991565,7.915653e-06,225.64499999991565,3.090432e-06
225.65999999991564,1.037276e-05,225.65999999991564,5.162558e-06,225.65999999991564,7.605257e-06,225.65999999991564,3.062961e-06
225.67499999991563,1.007235e-05,225.67499999991563,5.53139e-06,225.67499999991563,7.061647e-06,225.67499999991563,3.01662e-06
225.6899999999156,9.815953e-06,225.6899999999156,5.602244e-06,225.6899999999156,6.969281e-06,225.6899999999156,3.021286e-06
225.7049999999156,9.743934e-06,225.7049999999156,5.649817e-06,225.7049999999156,6.896133e-06,225.7049999999156,3.053749e-06
225.7199999999156,9.656803e-06,225.7199999999156,5.860319e-06,225.7199999999156,6.770382e-06,225.7199999999156,2.997883e-06
225.73499999991557,9.462292e-06,225.73499999991557,5.924864e-06,225.73499999991557,6.014533e-06,225.73499999991557,3.007266e-06
225.74999999991556,9.640744e-06,225.74999999991556,6.023894e-06,225.74999999991556,5.984008e-06,225.74999999991556,3.076727e-06
225.76499999991555,8.940237e-06,225.76499999991555,5.905813e-06,225.76499999991555,6.716067e-06,225.76499999991555,3.117661e-06
225.77999999991553,8.952834e-06,225.77999999991553,5.962784e-06,225.77999999991553,6.642251e-06,225.77999999991553,2.926552e-06
225.79499999991552,8.467658e-06,225.79499999991552,6.208153e-06,225.79499999991552,6.640129e-06,225.79499999991552,2.882905e-06
225.8099999999155,8.505834e-06,225.8099999999155,6.282586e-06,225.8099999999155,6.03324e-06,225.8099999999155,2.960054e-06
225.8249999999155,8.362194e-06,225.8249999999155,6.450741e-06,225.8249999999155,6.047233e-06,225.8249999999155,2.960054e-06
225.83999999991548,8.475971e-06,225.83999999991548,6.625263e-06,225.83999999991548,6.371642e-06,225.83999999991548,2.993181e-06
225.85499999991546,8.26732e-06,225.85499999991546,6.816002e-06,225.85499999991546,6.764137e-06,225.85499999991546,3.241707e-06
225.86999999991545,8.304722e-06,225.86999999991545,6.865424e-06,225.86999999991545,6.871577e-06,225.86999999991545,3.19355e-06
225.88499999991544,8.444335e-06,225.88499999991544,6.863372e-06,225.88499999991544,6.799448e-06,225.88499999991544,3.301983e-06
225.89999999991542,7.967094e-06,225.89999999991542,6.789081e-06,225.89999999991542,5.877121e-06,225.89999999991542,3.323245e-06
225.9149999999154,7.860292e-06,225.9149999999154,6.834577e-06,225.9149999999154,6.06584e-06,225.9149999999154,3.267676e-06
225.9299999999154,7.981227e-06,225.9299999999154,6.507271e-06,225.9299999999154,6.548272e-06,225.9299999999154,3.306247e-06
225.94499999991538,7.892485e-06,225.94499999991538,6.57832e-06,225.94499999991538,6.498606e-06,225.94499999991538,3.356985e-06
225.95999999991537,7.752019e-06,225.95999999991537,6.505105e-06,225.95999999991537,6.500773e-06,225.95999999991537,3.340158e-06
225.97499999991535,7.766543e-06,225.97499999991535,6.580461e-06,225.97499999991535,6.565459e-06,225.97499999991535,3.394541e-06
225.98999999991534,7.686323e-06,225.98999999991534,6.472542e-06,225.98999999991534,6.707672e-06,225.98999999991534,3.406967e-06
226.00499999991533,7.525189e-06,226.00499999991533,6.589018e-06,226.00499999991533,7.065636e-06,226.00499999991533,3.361178e-06
226.0199999999153,7.640368e-06,226.0199999999153,6.623136e-06,226.0199999999153,6.444187e-06,226.0199999999153,3.427579e-06
226.0349999999153,7.47636e-06,226.0349999999153,6.599699e-06,226.0349999999153,6.417902e-06,226.0349999999153,3.696496e-06
226.0499999999153,7.510198e-06,226.0499999999153,6.565459e-06,226.0499999999153,7.071614e-06,226.0499999999153,3.878734e-06
226.06499999991527,7.463159e-06,226.06499999991527,6.4921e-06,226.06499999991527,6.997522e-06,226.06499999991527,3.885991e-06
226.07999999991526,8.54384e-06,226.07999999991526,6.320588e-06,226.07999999991526,6.985433e-06,226.07999999991526,3.92925e-06
226.09499999991525,8.325052e-06,226.09499999991525,6.217223e-06,226.09499999991525,6.271365e-06,226.09499999991525,3.809105e-06
226.10999999991523,8.533942e-06,226.10999999991523,6.144291e-06,226.10999999991523,6.316129e-06,226.10999999991523,3.745709e-06
226.12499999991522,8.449338e-06,226.12499999991522,6.11902e-06,226.12499999991522,6.210422e-06,226.12499999991522,3.771943e-06
226.1399999999152,8.265616e-06,226.1399999999152,6.201342e-06,226.1399999999152,6.351713e-06,226.1399999999152,3.707911e-06
226.1549999999152,8.343643e-06,226.1549999999152,6.404719e-06,226.1549999999152,7.178377e-06,226.1549999999152,3.696496e-06
226.16999999991518,8.316587e-06,226.16999999991518,6.513761e-06,226.16999999991518,7.013608e-06,226.16999999991518,3.700305e-06
226.18499999991516,8.323359e-06,226.18499999991516,6.487759e-06,226.18499999991516,6.816002e-06,226.18499999991516,3.65048e-06
226.19999999991515,8.253678e-06,226.19999999991515,6.822199e-06,226.19999999991515,6.873626e-06,226.19999999991515,3.662038e-06
226.21499999991514,8.370614e-06,226.21499999991514,6.824264e-06,226.21499999991514,6.838698e-06,226.21499999991514,3.635012e-06
226.22999999991512,8.380704e-06,226.22999999991512,6.813935e-06,226.22999999991512,6.863372e-06,226.22999999991512,3.700305e-06
