X[s],a: EMG RMS 1-1,X[s].1,a: EMG RMS 1-2,X[s].2,a: EMG RMS 1-3,X[s].3,a: EMG RMS 1-4
392.0099999997644,1.084025e-05,392.0099999997644,0.004719824,392.0099999997644,2.465899e-05,392.0099999997644,8.000618e-06
392.02499999976436,1.123838e-05,392.02499999976436,0.004755666,392.02499999976436,2.459321e-05,392.02499999976436,8.042764e-06
392.03999999976435,1.216647e-05,392.03999999976435,0.004755857,392.03999999976435,2.635447e-05,392.03999999976435,8.475971e-06
392.05499999976433,1.500163e-05,392.05499999976433,0.004915782,392.05499999976433,4.345415e-05,392.05499999976433,8.827657e-06
392.0699999997643,1.656018e-05,392.0699999997643,0.005041213,392.0699999997643,4.502397e-05,392.0699999997643,9.612942e-06
392.0849999997643,1.811761e-05,392.0849999997643,0.005138742,392.0849999997643,4.592326e-05,392.0849999997643,9.743934e-06
392.0999999997643,1.849086e-05,392.0999999997643,0.005221542,392.0999999997643,5.118439e-05,392.0999999997643,1.37329e-05
392.1149999997643,1.889329e-05,392.1149999997643,0.005269726,392.1149999997643,5.244476e-05,392.1149999997643,1.377898e-05
392.12999999976427,1.985735e-05,392.12999999976427,0.005358576,392.12999999976427,5.340745e-05,392.12999999976427,1.598186e-05
392.14499999976425,2.154559e-05,392.14499999976425,0.005399328,392.14499999976425,6.212463e-05,392.14499999976425,1.980408e-05
392.15999999976424,2.628436e-05,392.15999999976424,0.005359381,392.15999999976424,6.382333e-05,392.15999999976424,2.005359e-05
392.1749999997642,2.667958e-05,392.1749999997642,0.005345666,392.1749999997642,6.624093e-05,392.1749999997642,2.177905e-05
392.1899999997642,3.317348e-05,392.1899999997642,0.005401888,392.1899999997642,6.644647e-05,392.1899999997642,2.339917e-05
392.2049999997642,4.011211e-05,392.2049999997642,0.005377416,392.2049999997642,6.634123e-05,392.2049999997642,2.338954e-05
392.2199999997642,4.180188e-05,392.2199999997642,0.005302525,392.2199999997642,6.566854e-05,392.2199999997642,2.33799e-05
392.23499999976417,4.338473e-05,392.23499999976417,0.005380894,392.23499999976417,6.710255e-05,392.23499999976417,2.361669e-05
392.24999999976416,4.488547e-05,392.24999999976416,0.0052927,392.24999999976416,6.759283e-05,392.24999999976416,2.400655e-05
392.26499999976414,4.692129e-05,392.26499999976414,0.005151971,392.26499999976414,6.768384e-05,392.26499999976414,2.402766e-05
392.27999999976413,4.730669e-05,392.27999999976413,0.005002976,392.27999999976413,6.774791e-05,392.27999999976413,2.396132e-05
392.2949999997641,4.762099e-05,392.2949999997641,0.004893122,392.2949999997641,6.257176e-05,392.2949999997641,2.393603e-05
392.3099999997641,4.694621e-05,392.3099999997641,0.004890772,392.3099999997641,5.69197e-05,392.3099999997641,2.371312e-05
392.3249999997641,4.642602e-05,392.3249999997641,0.004802491,392.3249999997641,5.561917e-05,392.3249999997641,2.349949e-05
392.3399999997641,4.623934e-05,392.3399999997641,0.004612292,392.3399999997641,5.512129e-05,392.3399999997641,2.314799e-05
392.35499999976406,4.60158e-05,392.35499999976406,0.004386512,392.35499999976406,4.995623e-05,392.35499999976406,2.092333e-05
392.36999999976405,4.596741e-05,392.36999999976405,0.004187315,392.36999999976405,4.836593e-05,392.36999999976405,2.099928e-05
392.38499999976403,4.494443e-05,392.38499999976403,0.004081653,392.38499999976403,4.614481e-05,392.38499999976403,1.850076e-05
392.399999999764,4.456547e-05,392.399999999764,0.003897233,392.399999999764,3.32655e-05,392.399999999764,1.59333e-05
392.414999999764,4.169728e-05,392.414999999764,0.003678608,392.414999999764,2.936259e-05,392.414999999764,1.525675e-05
392.429999999764,4.134206e-05,392.429999999764,0.0034691,392.429999999764,2.485189e-05,392.429999999764,1.232292e-05
392.444999999764,3.232003e-05,392.444999999764,0.003318766,392.444999999764,2.452151e-05,392.444999999764,1.115535e-05
392.45999999976397,2.692921e-05,392.45999999976397,0.003060171,392.45999999976397,2.458862e-05,392.45999999976397,1.105131e-05
392.47499999976395,2.51992e-05,392.47499999976395,0.002890205,392.47499999976395,1.852815e-05,392.47499999976395,1.08934e-05
392.48999999976394,2.270188e-05,392.48999999976394,0.002991523,392.48999999976394,1.513066e-05,392.48999999976394,1.014759e-05
392.5049999997639,1.799435e-05,392.5049999997639,0.003186064,392.5049999997639,1.440182e-05,392.5049999997639,9.959841e-06
392.5199999997639,1.391327e-05,392.5199999997639,0.003478892,392.5199999997639,1.355116e-05,392.5199999997639,9.817387e-06
392.5349999997639,1.283032e-05,392.5349999997639,0.003526003,392.5349999997639,1.339853e-05,392.5349999997639,9.808774e-06
392.5499999997639,1.255396e-05,392.5499999997639,0.003527392,392.5499999997639,1.182116e-05,392.5499999997639,1.034692e-05
392.56499999976387,1.304481e-05,392.56499999976387,0.003556133,392.56499999976387,1.212006e-05,392.56499999976387,1.077116e-05
392.57999999976386,1.678576e-05,392.57999999976386,0.003622222,392.57999999976386,1.21096e-05,392.57999999976386,1.052644e-05
392.59499999976384,1.761458e-05,392.59499999976384,0.003671422,392.59499999976384,1.452551e-05,392.59499999976384,1.082985e-05
392.60999999976383,1.790567e-05,392.60999999976383,0.003742716,392.60999999976383,1.546947e-05,392.60999999976383,1.103218e-05
392.6249999997638,1.926687e-05,392.6249999997638,0.003892374,392.6249999997638,1.549677e-05,392.6249999997638,1.095273e-05
392.6399999997638,1.982469e-05,392.6399999997638,0.004073237,392.6399999997638,1.56856e-05,392.6399999997638,1.040259e-05
392.6549999997638,2.24341e-05,392.6549999997638,0.004255445,392.6549999997638,1.639518e-05,392.6549999997638,1.023605e-05
392.6699999997638,2.306019e-05,392.6699999997638,0.004479166,392.6699999997638,1.998323e-05,392.6699999997638,1.043234e-05
392.68499999976376,2.451289e-05,392.68499999976376,0.004564371,392.68499999976376,1.995995e-05,392.68499999976376,9.623194e-06
392.69999999976375,2.612901e-05,392.69999999976375,0.004537243,392.69999999976375,2.097645e-05,392.69999999976375,9.73815e-06
392.71499999976373,2.686899e-05,392.71499999976373,0.004470343,392.71499999976373,3.096534e-05,392.71499999976373,1.028821e-05
392.7299999997637,2.826254e-05,392.7299999997637,0.004485647,392.7299999997637,3.923187e-05,392.7299999997637,1.169176e-05
392.7449999997637,2.853881e-05,392.7449999997637,0.004585135,392.7449999997637,4.16486e-05,392.7449999997637,1.150961e-05
392.7599999997637,2.949374e-05,392.7599999997637,0.004712494,392.7599999997637,4.601396e-05,392.7599999997637,1.325903e-05
392.7749999997637,3.004923e-05,392.7749999997637,0.004749658,392.7749999997637,5.250409e-05,392.7749999997637,1.390213e-05
392.78999999976367,3.058359e-05,392.78999999976367,0.00489478,392.78999999976367,5.408315e-05,392.78999999976367,1.474305e-05
392.80499999976365,2.985783e-05,392.80499999976365,0.004849061,392.80499999976365,5.435802e-05,392.80499999976365,1.451775e-05
392.81999999976364,2.889933e-05,392.81999999976364,0.00480125,392.81999999976364,5.518004e-05,392.81999999976364,1.414323e-05
392.8349999997636,2.707008e-05,392.8349999997636,0.004932965,392.8349999997636,5.561411e-05,392.8349999997636,1.43263e-05
392.8499999997636,2.717033e-05,392.8499999997636,0.005096325,392.8499999997636,5.887682e-05,392.8499999997636,1.799435e-05
392.8649999997636,2.729809e-05,392.8649999997636,0.005097074,392.8649999997636,6.033147e-05,392.8649999997636,2.03541e-05
392.8799999997636,2.747811e-05,392.8799999997636,0.00501059,392.8799999997636,6.143878e-05,392.8799999997636,2.075434e-05
392.89499999976357,2.732645e-05,392.89499999976357,0.005029718,392.89499999976357,6.244488e-05,392.89499999976357,2.235044e-05
392.90999999976356,2.74386e-05,392.90999999976356,0.005098433,392.90999999976356,6.247983e-05,392.90999999976356,2.280836e-05
392.92499999976354,3.176256e-05,392.92499999976354,0.005060678,392.92499999976354,6.145346e-05,392.92499999976354,2.278364e-05
392.93999999976353,3.04238e-05,392.93999999976353,0.00511656,392.93999999976353,6.213211e-05,392.93999999976353,2.28028e-05
392.9549999997635,2.977515e-05,392.9549999997635,0.005076408,392.9549999997635,6.24151e-05,392.9549999997635,2.246861e-05
392.9699999997635,2.971785e-05,392.9699999997635,0.005071151,392.9699999997635,5.836787e-05,392.9699999997635,2.288235e-05
392.9849999997635,2.851215e-05,392.9849999997635,0.005111059,392.9849999997635,5.493775e-05,392.9849999997635,2.21739e-05
392.9999999997635,2.794425e-05,392.9999999997635,0.00523045,392.9999999997635,5.286025e-05,392.9999999997635,2.22329e-05
393.01499999976346,2.831433e-05,393.01499999976346,0.0052437,393.01499999976346,4.554811e-05,393.01499999976346,2.151812e-05
393.02999999976345,2.7633e-05,393.02999999976345,0.005165295,393.02999999976345,4.224936e-05,393.02999999976345,2.090313e-05
393.04499999976343,2.7362e-05,393.04499999976343,0.005006685,393.04499999976343,4.154023e-05,393.04499999976343,2.07557e-05
393.0599999997634,2.749246e-05,393.0599999997634,0.004901499,393.0599999997634,4.121921e-05,393.0599999997634,2.06666e-05
393.0749999997634,2.740316e-05,393.0749999997634,0.004844868,393.0749999997634,4.108811e-05,393.0749999997634,2.078689e-05
393.0899999997634,2.729086e-05,393.0899999997634,0.004730731,393.0899999997634,4.255963e-05,393.0899999997634,2.047623e-05
393.1049999997634,2.690095e-05,393.1049999997634,0.004600167,393.1049999997634,3.720768e-05,393.1049999997634,1.545945e-05
393.11999999976337,2.6309e-05,393.11999999976337,0.004509993,393.11999999976337,3.489529e-05,393.11999999976337,1.36444e-05
393.13499999976335,2.514828e-05,393.13499999976335,0.004381308,393.13499999976335,3.365534e-05,393.13499999976335,1.315343e-05
393.14999999976334,2.528848e-05,393.14999999976334,0.004178202,393.14999999976334,3.226069e-05,393.14999999976334,1.086103e-05
393.1649999997633,2.067137e-05,393.1649999997633,0.004127777,393.1649999997633,3.138332e-05,393.1649999997633,1.025255e-05
393.1799999997633,1.591561e-05,393.1799999997633,0.004167874,393.1799999997633,3.208819e-05,393.1799999997633,9.986677e-06
393.1949999997633,1.57385e-05,393.1949999997633,0.004136106,393.1949999997633,3.145595e-05,393.1949999997633,1.002047e-05
393.2099999997633,1.512879e-05,393.2099999997633,0.003945897,393.2099999997633,2.992239e-05,393.2099999997633,9.680115e-06
393.22499999976327,1.463468e-05,393.22499999976327,0.003960147,393.22499999976327,2.889592e-05,393.22499999976327,8.45767e-06
393.23999999976326,1.567662e-05,393.23999999976326,0.004058499,393.23999999976326,2.824659e-05,393.23999999976326,8.328435e-06
393.25499999976324,1.582775e-05,393.25499999976324,0.004048684,393.25499999976324,2.83198e-05,393.25499999976324,8.115992e-06
393.26999999976323,1.366606e-05,393.26999999976323,0.003940163,393.26999999976323,2.777436e-05,393.26999999976323,7.519571e-06
393.2849999997632,1.377182e-05,393.2849999997632,0.003954151,393.2849999997632,2.766612e-05,393.2849999997632,7.30096e-06
393.2999999997632,1.37411e-05,393.2999999997632,0.004232563,393.2999999997632,2.77916e-05,393.2999999997632,7.021637e-06
393.3149999997632,1.365162e-05,393.3149999997632,0.004478021,393.3149999997632,2.709869e-05,393.3149999997632,6.877724e-06
393.3299999997632,1.367534e-05,393.3299999997632,0.004523614,393.3299999997632,2.628757e-05,393.3299999997632,6.716067e-06
393.34499999976316,1.327389e-05,393.34499999976316,0.004628778,393.34499999976316,2.165971e-05,393.34499999976316,6.398117e-06
393.35999999976315,1.334058e-05,393.35999999976315,0.004731304,393.35999999976315,2.210327e-05,393.35999999976315,6.737009e-06
393.37499999976313,1.391226e-05,393.37499999976313,0.004764955,393.37499999976313,2.220944e-05,393.37499999976313,7.66246e-06
393.3899999997631,1.404528e-05,393.3899999997631,0.004762215,393.3899999997631,2.337207e-05,393.3899999997631,9.558568e-06
393.4049999997631,1.352827e-05,393.4049999997631,0.004742641,393.4049999997631,2.994404e-05,393.4049999997631,9.81021e-06
393.4199999997631,1.385544e-05,393.4199999997631,0.004501521,393.4199999997631,3.082765e-05,393.4199999997631,1.060111e-05
393.4349999997631,1.387272e-05,393.4349999997631,0.00423745,393.4349999997631,3.277533e-05,393.4349999997631,1.055717e-05
393.44999999976307,1.398195e-05,393.44999999976307,0.003972932,393.44999999976307,3.350769e-05,393.44999999976307,1.052242e-05
393.46499999976305,1.404027e-05,393.46499999976305,0.003796451,393.46499999976305,3.362519e-05,393.46499999976305,1.069109e-05
393.47999999976304,1.344157e-05,393.47999999976304,0.003718505,393.47999999976304,3.345678e-05,393.47999999976304,1.086881e-05
393.494999999763,1.239473e-05,393.494999999763,0.00359481,393.494999999763,3.449006e-05,393.494999999763,1.073317e-05
393.509999999763,1.212123e-05,393.509999999763,0.003424129,393.509999999763,3.544641e-05,393.509999999763,1.05545e-05
393.524999999763,1.232292e-05,393.524999999763,0.003332194,393.524999999763,3.621345e-05,393.524999999763,1.083376e-05
393.539999999763,1.378818e-05,393.539999999763,0.003314206,393.539999999763,4.465515e-05,393.539999999763,1.095658e-05
393.55499999976297,1.408134e-05,393.55499999976297,0.003314217,393.55499999976297,5.228767e-05,393.55499999976297,1.138656e-05
393.56999999976296,1.629262e-05,393.56999999976296,0.003253844,393.56999999976296,5.318994e-05,393.56999999976296,1.255957e-05
393.58499999976294,1.840457e-05,393.58499999976294,0.003220453,393.58499999976294,9.100603e-05,393.58499999976294,1.397792e-05
393.59999999976293,3.14922e-05,393.59999999976293,0.00296638,393.59999999976293,0.0003115842,393.59999999976293,1.41193e-05
393.6149999997629,4.204314e-05,393.6149999997629,0.002723821,393.6149999997629,0.0006273717,393.6149999997629,1.398699e-05
393.6299999997629,0.0001291103,393.6299999997629,0.002848221,393.6299999997629,0.0006866314,393.6299999997629,1.323457e-05
393.6449999997629,0.0001985546,393.6449999997629,0.002969518,393.6449999997629,0.0008164495,393.6449999997629,1.295379e-05
393.6599999997629,0.000204617,393.6599999997629,0.003188907,393.6599999997629,0.0008455584,393.6599999997629,1.305992e-05
393.67499999976286,0.0002387495,393.67499999976286,0.003252171,393.67499999976286,0.0008470314,393.67499999976286,1.281164e-05
393.68999999976285,0.0002649622,393.68999999976285,0.003257539,393.68999999976285,0.0008544162,393.68999999976285,1.291458e-05
393.70499999976283,0.0002707068,393.70499999976283,0.003268968,393.70499999976283,0.0008616415,393.70499999976283,1.372366e-05
393.7199999997628,0.0002709087,393.7199999997628,0.003340112,393.7199999997628,0.0008646441,393.7199999997628,1.532676e-05
393.7349999997628,0.0002722288,393.7349999997628,0.003427705,393.7349999997628,0.0008648012,393.7349999997628,1.52207e-05
393.7499999997628,0.0002742195,393.7499999997628,0.003506473,393.7499999997628,0.0008648486,393.7499999997628,1.613449e-05
393.7649999997628,0.0002751818,393.7649999997628,0.003671215,393.7649999997628,0.0008649372,393.7649999997628,1.659926e-05
393.77999999976277,0.0002753094,393.77999999976277,0.003689636,393.77999999976277,0.0008648631,393.77999999976277,1.667547e-05
393.79499999976275,0.0002753113,393.79499999976275,0.003544068,393.79499999976275,0.0008642341,393.79499999976275,1.66086e-05
393.80999999976274,0.0002752987,393.80999999976274,0.003347843,393.80999999976274,0.0008637921,393.80999999976274,1.631163e-05
393.8249999997627,0.0002750608,393.8249999997627,0.003230725,393.8249999997627,0.0008633191,393.8249999997627,1.476215e-05
393.8399999997627,0.000274733,393.8399999997627,0.003194474,393.8399999997627,0.0008577422,393.8399999997627,1.396986e-05
393.8549999997627,0.0002720445,393.8549999997627,0.003346599,393.8549999997627,0.0007045182,393.8549999997627,1.410533e-05
393.8699999997627,0.0002692264,393.8699999997627,0.003515717,393.8699999997627,0.0005614742,393.8699999997627,1.408734e-05
393.88499999976267,0.0002187601,393.88499999976267,0.003340483,393.88499999976267,0.0004452877,393.88499999976267,1.415518e-05
393.89999999976266,0.0001732573,393.89999999976266,0.003379473,393.89999999976266,0.0002218756,393.89999999976266,1.338802e-05
393.91499999976264,0.0001646607,393.91499999976264,0.003293993,393.91499999976264,0.0001567654,393.91499999976264,1.326752e-05
393.92999999976263,0.000114875,393.92999999976263,0.003289812,393.92999999976263,0.0001487689,393.92999999976263,1.32845e-05
393.9449999997626,6.06447e-05,393.9449999997626,0.003325078,393.9449999997626,0.0001094311,393.9449999997626,1.32569e-05
393.9599999997626,4.339998e-05,393.9599999997626,0.00331746,393.9599999997626,6.175096e-05,393.9599999997626,1.214213e-05
393.9749999997626,4.298448e-05,393.9749999997626,0.003172185,393.9749999997626,2.367091e-05,393.9749999997626,9.898837e-06
393.9899999997626,3.619088e-05,393.9899999997626,0.003151721,393.9899999997626,2.035064e-05,393.9899999997626,9.777128e-06
394.00499999976256,2.520814e-05,394.00499999976256,0.003079916,394.00499999976256,1.773889e-05,394.00499999976256,8.122932e-06
394.01999999976255,1.885523e-05,394.01999999976255,0.00286092,394.01999999976255,1.240723e-05,394.01999999976255,7.610811e-06
394.03499999976253,1.791275e-05,394.03499999976253,0.002763629,394.03499999976253,8.98895e-06,394.03499999976253,7.377733e-06
394.0499999997625,1.706293e-05,394.0499999997625,0.002751451,394.0499999997625,7.717415e-06,394.0499999997625,7.457495e-06
394.0649999997625,1.676225e-05,394.0649999997625,0.00277871,394.0649999997625,7.90675e-06,394.0649999997625,7.457495e-06
394.0799999997625,1.702657e-05,394.0799999997625,0.002733907,394.0799999997625,8.405879e-06,394.0799999997625,7.719241e-06
394.0949999997625,1.916718e-05,394.0949999997625,0.00269084,394.0949999997625,1.041071e-05,394.0949999997625,7.746566e-06
394.10999999976246,2.008027e-05,394.10999999976246,0.002722058,394.10999999976246,1.24729e-05,394.10999999976246,7.653262e-06
394.12499999976245,2.051197e-05,394.12499999976245,0.002824118,394.12499999976245,1.527981e-05,394.12499999976245,8.41258e-06
394.13999999976244,2.171167e-05,394.13999999976244,0.002943095,394.13999999976244,1.70216e-05,394.13999999976244,9.500919e-06
394.1549999997624,2.209052e-05,394.1549999997624,0.002882274,394.1549999997624,2.494129e-05,394.1549999997624,1.236856e-05
394.1699999997624,2.139535e-05,394.1699999997624,0.003102688,394.1699999997624,2.603882e-05,394.1699999997624,1.239132e-05
394.1849999997624,1.982114e-05,394.1849999997624,0.003368641,394.1849999997624,2.850474e-05,394.1849999997624,1.464046e-05
394.1999999997624,1.969209e-05,394.1999999997624,0.003543978,394.1999999997624,2.960529e-05,394.1999999997624,1.659417e-05
394.21499999976237,1.909354e-05,394.21499999976237,0.00377461,394.21499999976237,3.027434e-05,394.21499999976237,1.670079e-05
394.22999999976236,1.879237e-05,394.22999999976236,0.003983097,394.22999999976236,3.219907e-05,394.22999999976236,1.681427e-05
394.24499999976234,1.926321e-05,394.24499999976234,0.004176594,394.24499999976234,3.474723e-05,394.24499999976234,2.182169e-05
394.25999999976233,1.921342e-05,394.25999999976233,0.004337943,394.25999999976233,3.64461e-05,394.25999999976233,2.678971e-05
394.2749999997623,1.944083e-05,394.2749999997623,0.004489746,394.2749999997623,3.80348e-05,394.2749999997623,2.730789e-05
394.2899999997623,1.90869e-05,394.2899999997623,0.004509685,394.2899999997623,3.943636e-05,394.2899999997623,2.814217e-05
394.3049999997623,1.899813e-05,394.3049999997623,0.004582993,394.3049999997623,3.999957e-05,394.3049999997623,2.884957e-05
394.3199999997623,1.902703e-05,394.3199999997623,0.004811504,394.3199999997623,4.063026e-05,394.3199999997623,2.903743e-05
394.33499999976226,1.883056e-05,394.33499999976226,0.005004331,394.33499999976226,4.055635e-05,394.33499999976226,2.936402e-05
394.34999999976225,1.688533e-05,394.34999999976225,0.005148305,394.34999999976225,4.024114e-05,394.34999999976225,2.992475e-05
394.36499999976223,1.685109e-05,394.36499999976223,0.005110189,394.36499999976223,3.951415e-05,394.36499999976223,2.995392e-05
394.3799999997622,1.597657e-05,394.3799999997622,0.004960126,394.3799999997622,3.82641e-05,394.3799999997622,2.9551e-05
394.3949999997622,1.642266e-05,394.3949999997622,0.004911591,394.3949999997622,3.793801e-05,394.3949999997622,2.870369e-05
394.4099999997622,1.57537e-05,394.4099999997622,0.004923925,394.4099999997622,3.388726e-05,394.4099999997622,2.868356e-05
394.4249999997622,1.575013e-05,394.4249999997622,0.004856362,394.4249999997622,3.269227e-05,394.4249999997622,2.877281e-05
394.43999999976216,1.603026e-05,394.43999999976216,0.004701133,394.43999999976216,3.148639e-05,394.43999999976216,2.748938e-05
394.45499999976215,1.586775e-05,394.45499999976215,0.004558437,394.45499999976215,3.108747e-05,394.45499999976215,2.631917e-05
394.46999999976214,1.802016e-05,394.46999999976214,0.004429453,394.46999999976214,3.145326e-05,394.46999999976214,2.624252e-05
394.4849999997621,1.779123e-05,394.4849999997621,0.004266705,394.4849999997621,2.658278e-05,394.4849999997621,2.579914e-05
394.4999999997621,1.786313e-05,394.4999999997621,0.004023578,394.4999999997621,2.68018e-05,394.4999999997621,2.036932e-05
394.5149999997621,1.763775e-05,394.5149999997621,0.003847873,394.5149999997621,2.500278e-05,394.5149999997621,1.519661e-05
394.5299999997621,1.714447e-05,394.5299999997621,0.003645513,394.5299999997621,2.300453e-05,394.5299999997621,1.411032e-05
394.54499999976207,1.720926e-05,394.54499999976207,0.003489961,394.54499999976207,2.145321e-05,394.54499999976207,1.388185e-05
394.55999999976206,1.701663e-05,394.55999999976206,0.003252115,394.55999999976206,2.046178e-05,394.55999999976206,1.304265e-05
394.57499999976204,1.695443e-05,394.57499999976204,0.002913026,394.57499999976204,2.01517e-05,394.57499999976204,1.260882e-05
394.58999999976203,1.662046e-05,394.58999999976203,0.002479659,394.58999999976203,2.027227e-05,394.58999999976203,1.102707e-05
394.604999999762,1.516599e-05,394.604999999762,0.001890566,394.604999999762,2.015589e-05,394.604999999762,9.834591e-06
394.619999999762,1.447402e-05,394.619999999762,0.00131379,394.619999999762,2.00557e-05,394.619999999762,9.433964e-06
394.634999999762,1.394968e-05,394.634999999762,0.001304049,394.634999999762,2.071086e-05,394.634999999762,9.357501e-06
394.649999999762,1.296248e-05,394.649999999762,0.001267795,394.649999999762,2.063385e-05,394.649999999762,8.638938e-06
394.66499999976196,1.284897e-05,394.66499999976196,0.00110699,394.66499999976196,2.159392e-05,394.66499999976196,7.448044e-06
394.67999999976195,1.284677e-05,394.67999999976195,0.001133854,394.67999999976195,2.131751e-05,394.67999999976195,6.535352e-06
394.69499999976193,1.251012e-05,394.69499999976193,0.001753717,394.69499999976193,2.076384e-05,394.69499999976193,6.093644e-06
394.7099999997619,1.224034e-05,394.7099999997619,0.002091756,394.7099999997619,2.1109e-05,394.7099999997619,6.091332e-06
394.7249999997619,8.492574e-06,394.7249999997619,0.002433763,394.7249999997619,2.310962e-05,394.7249999997619,5.748683e-06
394.7399999997619,8.43432e-06,394.7399999997619,0.002730005,394.7399999997619,2.304124e-05,394.7399999997619,5.733962e-06
394.7549999997619,8.212614e-06,394.7549999997619,0.002971793,394.7549999997619,2.30131e-05,394.7549999997619,5.102175e-06
394.76999999976186,8.570179e-06,394.76999999976186,0.003103414,394.76999999976186,2.291434e-05,394.76999999976186,4.547444e-06
394.78499999976185,8.632413e-06,394.78499999976185,0.003165897,394.78499999976185,2.257744e-05,394.78499999976185,4.469331e-06
394.79999999976184,8.892842e-06,394.79999999976184,0.003211681,394.79999999976184,2.204839e-05,394.79999999976184,4.152361e-06
394.8149999997618,8.768416e-06,394.8149999997618,0.003245602,394.8149999997618,2.200426e-05,394.8149999997618,4.36408e-06
394.8299999997618,9.287995e-06,394.8299999997618,0.003341683,394.8299999997618,2.191767e-05,394.8299999997618,4.581393e-06
394.8449999997618,9.179681e-06,394.8449999997618,0.003437042,394.8449999997618,2.25087e-05,394.8449999997618,4.584466e-06
394.8599999997618,8.835633e-06,394.8599999997618,0.003503276,394.8599999997618,2.422385e-05,394.8599999997618,4.873412e-06
394.87499999976177,8.708772e-06,394.87499999976177,0.003538979,394.87499999976177,2.433119e-05,394.87499999976177,4.956529e-06
394.88999999976176,8.632413e-06,394.88999999976176,0.003559466,394.88999999976176,2.583297e-05,394.88999999976176,5.227635e-06
394.90499999976174,8.479295e-06,394.90499999976174,0.003572849,394.90499999976174,2.509501e-05,394.90499999976174,5.850696e-06
394.9199999997617,8.439329e-06,394.9199999997617,0.003579481,394.9199999997617,2.428541e-05,394.9199999997617,6.224016e-06
394.9349999997617,9.176611e-06,394.9349999997617,0.003429168,394.9349999997617,2.428541e-05,394.9349999997617,6.692956e-06
394.9499999997617,9.661178e-06,394.9499999997617,0.003100943,394.9499999997617,2.440634e-05,394.9499999997617,7.556945e-06
394.9649999997617,1.264786e-05,394.9649999997617,0.002844222,394.9649999997617,2.57505e-05,394.9649999997617,7.842351e-06
394.9799999997617,1.42494e-05,394.9799999997617,0.002574788,394.9799999997617,2.67181e-05,394.9799999997617,7.779228e-06
394.99499999976166,1.457778e-05,394.99499999976166,0.002220167,394.99499999976166,2.728518e-05,394.99499999976166,8.277538e-06
395.00999999976165,1.701001e-05,395.00999999976165,0.001799825,395.00999999976165,3.812506e-05,395.00999999976165,8.853152e-06
395.02499999976163,1.749501e-05,395.02499999976163,0.001417007,395.02499999976163,4.416955e-05,395.02499999976163,9.573294e-06
395.0399999997616,1.759297e-05,395.0399999997616,0.001424584,395.0399999997616,4.51792e-05,395.0399999997616,9.614407e-06
395.0549999997616,1.962975e-05,395.0549999997616,0.001856075,395.0549999997616,4.901543e-05,395.0549999997616,1.097714e-05
395.0699999997616,2.115367e-05,395.0699999997616,0.00203941,395.0699999997616,4.950357e-05,395.0699999997616,1.173385e-05
395.0849999997616,2.148077e-05,395.0849999997616,0.002336461,395.0849999997616,5.017906e-05,395.0849999997616,1.174225e-05
395.09999999976156,2.153251e-05,395.09999999976156,0.00259142,395.09999999976156,5.03942e-05,395.09999999976156,1.186755e-05
395.11499999976155,2.167206e-05,395.11499999976155,0.002697355,395.11499999976155,4.9895e-05,395.11499999976155,1.172544e-05
395.12999999976154,2.207904e-05,395.12999999976154,0.00302615,395.12999999976154,4.997399e-05,395.12999999976154,1.1896e-05
395.1449999997615,2.215101e-05,395.1449999997615,0.003247893,395.1449999997615,4.956472e-05,395.1449999997615,1.173505e-05
395.1599999997615,2.205733e-05,395.1599999997615,0.003290917,395.1599999997615,4.965076e-05,395.1599999997615,1.162894e-05
395.1749999997615,2.201898e-05,395.1749999997615,0.003283733,395.1749999997615,4.962919e-05,395.1749999997615,1.139027e-05
395.1899999997615,2.191124e-05,395.1899999997615,0.003281921,395.1899999997615,4.931312e-05,395.1899999997615,1.109076e-05
395.20499999976147,2.173631e-05,395.20499999976147,0.003287975,395.20499999976147,4.886604e-05,395.20499999976147,1.069899e-05
395.21999999976146,2.022009e-05,395.21999999976146,0.003295012,395.21999999976146,4.669679e-05,395.21999999976146,1.06051e-05
395.23499999976144,1.891044e-05,395.23499999976144,0.003300353,395.23499999976144,4.4828e-05,395.23499999976144,1.044314e-05
395.2499999997614,1.871274e-05,395.2499999997614,0.003303734,395.2499999997614,4.36921e-05,395.2499999997614,1.02209e-05
395.2649999997614,1.660435e-05,395.2649999997614,0.003305468,395.2649999997614,3.352954e-05,395.2649999997614,9.818822e-06
395.2799999997614,1.515298e-05,395.2799999997614,0.003306093,395.2799999997614,2.840275e-05,395.2799999997614,8.838821e-06
395.2949999997614,1.488758e-05,395.2949999997614,0.003130994,395.2949999997614,2.500052e-05,395.2949999997614,8.712006e-06
395.3099999997614,1.180447e-05,395.3099999997614,0.002933177,395.3099999997614,1.882757e-05,395.3099999997614,6.69506e-06
395.32499999976136,9.292544e-06,395.32499999976136,0.002754252,395.32499999976136,1.804828e-05,395.32499999976136,6.005157e-06
395.33999999976135,8.794083e-06,395.33999999976135,0.002369972,395.33999999976135,1.478789e-05,395.33999999976135,5.746233e-06
395.35499999976133,8.856334e-06,395.35499999976133,0.001921984,395.35499999976133,1.33817e-05,395.35499999976133,5.682137e-06
395.3699999997613,1.201735e-05,395.3699999997613,0.001757557,395.3699999997613,1.19102e-05,395.3699999997613,5.592176e-06
395.3849999997613,1.207348e-05,395.3849999997613,0.001232323,395.3849999997613,1.068054e-05,395.3849999997613,5.313164e-06
395.3999999997613,1.241858e-05,395.3999999997613,0.0006170176,395.3999999997613,1.056917e-05,395.3999999997613,5.107694e-06
395.4149999997613,1.3103e-05,395.4149999997613,0.000281281,395.4149999997613,1.012536e-05,395.4149999997613,5.077266e-06
395.42999999976126,1.45971e-05,395.42999999976126,0.0002362029,395.42999999976126,1.003733e-05,395.42999999976126,5.189773e-06
395.44499999976125,1.484209e-05,395.44499999976125,0.000228209,395.44499999976125,9.784329e-06,395.44499999976125,5.273245e-06
395.45999999976124,1.505225e-05,395.45999999976124,0.0001894368,395.45999999976124,8.758771e-06,395.45999999976124,5.273245e-06
395.4749999997612,1.521607e-05,395.4749999997612,0.0001396745,395.4749999997612,8.663363e-06,395.4749999997612,6.33617e-06
395.4899999997612,1.586331e-05,395.4899999997612,9.697126e-05,395.4899999997612,9.199609e-06,395.4899999997612,6.629514e-06
395.5049999997612,1.603817e-05,395.5049999997612,0.0002683192,395.5049999997612,9.643665e-06,395.5049999997612,6.601833e-06
395.5199999997612,1.610041e-05,395.5199999997612,0.001217601,395.5199999997612,9.661178e-06,395.5199999997612,6.776621e-06
395.53499999976117,1.654997e-05,395.53499999976117,0.001770743,395.53499999976117,9.903105e-06,395.53499999976117,7.262268e-06
395.54999999976116,1.666194e-05,395.54999999976116,0.002180806,395.54999999976116,1.012536e-05,395.54999999976116,8.575109e-06
395.56499999976114,1.67227e-05,395.56499999976114,0.002417018,395.56499999976114,1.632458e-05,395.56499999976114,9.735256e-06
395.5799999997611,1.74135e-05,395.5799999997611,0.002670814,395.5799999997611,2.210327e-05,395.5799999997611,1.070689e-05
395.5949999997611,1.831481e-05,395.5949999997611,0.0029584,395.5949999997611,2.562767e-05,395.5949999997611,1.126842e-05
395.6099999997611,1.96928e-05,395.6099999997611,0.003285642,395.6099999997611,3.098672e-05,395.6099999997611,1.442527e-05
395.6249999997611,1.979198e-05,395.6249999997611,0.003429353,395.6249999997611,4.013492e-05,395.6249999997611,1.684942e-05
395.6399999997611,2.193116e-05,395.6399999997611,0.003532182,395.6399999997611,4.054384e-05,395.6399999997611,1.88081e-05
395.65499999976106,2.203497e-05,395.65499999976106,0.003721859,395.65499999976106,4.199754e-05,395.65499999976106,1.889702e-05
395.66999999976105,2.10348e-05,395.66999999976105,0.003918986,395.66999999976105,4.714891e-05,395.66999999976105,1.961037e-05
395.68499999976103,2.460008e-05,395.68499999976103,0.004198296,395.68499999976103,5.260568e-05,395.68499999976103,2.042319e-05
395.699999999761,2.861817e-05,395.699999999761,0.004355699,395.699999999761,5.529964e-05,395.699999999761,2.301739e-05
395.714999999761,2.96324e-05,395.714999999761,0.004503743,395.714999999761,6.322014e-05,395.714999999761,2.33799e-05
395.729999999761,2.975149e-05,395.729999999761,0.004644345,395.729999999761,6.847344e-05,395.729999999761,2.458232e-05
395.744999999761,2.971169e-05,395.744999999761,0.004732391,395.744999999761,7.060789e-05,395.744999999761,2.470351e-05
395.75999999976096,3.081577e-05,395.75999999976096,0.004773971,395.75999999976096,7.08471e-05,395.75999999976096,2.47132e-05
395.77499999976095,3.272673e-05,395.77499999976095,0.004699762,395.77499999976095,7.13061e-05,395.77499999976095,2.487455e-05
395.78999999976094,3.283845e-05,395.78999999976094,0.004651976,395.78999999976094,7.282646e-05,395.78999999976094,2.498869e-05
395.8049999997609,3.320956e-05,395.8049999997609,0.004801524,395.8049999997609,7.309483e-05,395.8049999997609,2.478833e-05
395.8199999997609,3.325407e-05,395.8199999997609,0.004942942,395.8199999997609,7.158234e-05,395.8199999997609,2.441961e-05
395.8349999997609,3.276845e-05,395.8349999997609,0.004993918,395.8349999997609,6.979684e-05,395.8349999997609,2.397249e-05
395.8499999997609,3.178339e-05,395.8499999997609,0.004980147,395.8499999997609,6.877826e-05,395.8499999997609,2.301739e-05
395.86499999976087,3.066271e-05,395.86499999976087,0.004870706,395.86499999976087,6.334391e-05,395.86499999976087,2.116831e-05
395.87999999976086,2.989225e-05,395.87999999976086,0.004824068,395.87999999976086,6.197071e-05,395.87999999976086,1.898107e-05
395.89499999976084,2.86231e-05,395.89499999976084,0.004796318,395.89499999976084,6.148348e-05,395.89499999976084,1.822382e-05
395.9099999997608,2.813966e-05,395.9099999997608,0.004723625,395.9099999997608,6.057707e-05,395.9099999997608,1.808337e-05
395.9249999997608,2.814817e-05,395.9249999997608,0.004625807,395.9249999997608,5.51591e-05,395.9249999997608,1.747407e-05
395.9399999997608,2.268015e-05,395.9399999997608,0.004422229,395.9399999997608,4.899502e-05,395.9399999997608,1.586153e-05
395.9549999997608,1.951965e-05,395.9549999997608,0.004317338,395.9549999997608,4.3282e-05,395.9549999997608,1.141375e-05
395.9699999997608,1.865016e-05,395.9699999997608,0.004166601,395.9699999997608,3.605361e-05,395.9699999997608,1.070689e-05
395.98499999976076,1.852967e-05,395.98499999976076,0.003991166,395.98499999976076,2.584497e-05,395.98499999976076,8.916571e-06
395.99999999976075,1.807012e-05,395.99999999976075,0.003848744,395.99999999976075,2.062019e-05,395.99999999976075,8.76681e-06
396.01499999976073,1.64518e-05,396.01499999976073,0.003717702,396.01499999976073,2.092401e-05,396.01499999976073,8.761987e-06
396.0299999997607,1.241744e-05,396.0299999997607,0.003773223,396.0299999997607,1.964266e-05,396.0299999997607,6.959168e-06
396.0449999997607,1.083245e-05,396.0449999997607,0.003773245,396.0449999997607,1.428593e-05,396.0449999997607,6.791156e-06
396.0599999997607,1.060643e-05,396.0599999997607,0.003772277,396.0599999997607,1.353556e-05,396.0599999997607,6.007502e-06
396.0749999997607,1.048621e-05,396.0749999997607,0.00376527,396.0749999997607,1.378e-05,396.0749999997607,5.974584e-06
396.08999999976066,1.062898e-05,396.08999999976066,0.003680518,396.08999999976066,1.392744e-05,396.08999999976066,6.05887e-06
396.10499999976065,1.050232e-05,396.10499999976065,0.003703107,396.10499999976065,1.409234e-05,396.10499999976065,6.070483e-06
396.11999999976064,9.785769e-06,396.11999999976064,0.003834408,396.11999999976064,1.442039e-05,396.11999999976064,6.125922e-06
396.1349999997606,9.604145e-06,396.1349999997606,0.00397119,396.1349999997606,1.569637e-05,396.1349999997606,6.158032e-06
396.1499999997606,9.629048e-06,396.1499999997606,0.004200888,396.1499999997606,1.619114e-05,396.1499999997606,6.378271e-06
396.1649999997606,9.336401e-06,396.1649999997606,0.004284279,396.1649999997606,1.646976e-05,396.1649999997606,6.251117e-06
396.1799999997606,9.517214e-06,396.1799999997606,0.004400732,396.1799999997606,1.629521e-05,396.1799999997606,6.072803e-06
396.19499999976057,9.433964e-06,396.19499999976057,0.004531456,396.19499999976057,1.624066e-05,396.19499999976057,5.979298e-06
396.20999999976056,8.69096e-06,396.20999999976056,0.004709041,396.20999999976056,1.477836e-05,396.20999999976056,5.355417e-06
396.22499999976054,8.718472e-06,396.22499999976054,0.004916913,396.22499999976054,1.501946e-05,396.22499999976054,5.425972e-06
396.2399999997605,8.578393e-06,396.2399999997605,0.005042724,396.2399999997605,1.537539e-05,396.2399999997605,5.955692e-06
396.2549999997605,9.184283e-06,396.2549999997605,0.005208305,396.2549999997605,1.472393e-05,396.2549999997605,5.974584e-06
396.2699999997605,1.038633e-05,396.2699999997605,0.005337697,396.2699999997605,1.468561e-05,396.2699999997605,7.071614e-06
396.2849999997605,1.078293e-05,396.2849999997605,0.005210892,396.2849999997605,1.502696e-05,396.2849999997605,8.474309e-06
396.2999999997605,1.300371e-05,396.2999999997605,0.005184058,396.2999999997605,1.769835e-05,396.2999999997605,8.561957e-06
396.31499999976046,1.336379e-05,396.31499999976046,0.005214088,396.31499999976046,2.08748e-05,396.31499999976046,8.555373e-06
396.32999999976045,1.334797e-05,396.32999999976045,0.005279352,396.32999999976045,2.257369e-05,396.32999999976045,8.598076e-06
396.34499999976043,1.327708e-05,396.34499999976043,0.005265138,396.34499999976043,3.043445e-05,396.34499999976043,9.696108e-06
396.3599999997604,1.427113e-05,396.3599999997604,0.005220945,396.3599999997604,4.198949e-05,396.3599999997604,1.1125e-05
396.3749999997604,1.479836e-05,396.3749999997604,0.005219413,396.3749999997604,4.241308e-05,396.3749999997604,1.227367e-05
396.3899999997604,1.53992e-05,396.3899999997604,0.005102563,396.3899999997604,4.251989e-05,396.3899999997604,1.35522e-05
396.4049999997604,1.545125e-05,396.4049999997604,0.004832971,396.4049999997604,4.27627e-05,396.4049999997604,1.355324e-05
396.41999999976036,1.557927e-05,396.41999999976036,0.004773826,396.41999999976036,4.268654e-05,396.41999999976036,1.419195e-05
396.43499999976035,1.615107e-05,396.43499999976035,0.004971838,396.43499999976035,4.269809e-05,396.43499999976035,1.513717e-05
396.44999999976034,1.621462e-05,396.44999999976034,0.005085554,396.44999999976034,4.28785e-05,396.44999999976034,1.519105e-05
396.4649999997603,1.654997e-05,396.4649999997603,0.004926076,396.4649999997603,4.320741e-05,396.4649999997603,1.563072e-05
396.4799999997603,1.745874e-05,396.4799999997603,0.004738576,396.4799999997603,4.378292e-05,396.4799999997603,1.708356e-05
396.4949999997603,1.817196e-05,396.4949999997603,0.004709656,396.4949999997603,4.474403e-05,396.4949999997603,1.751593e-05
396.5099999997603,1.822846e-05,396.5099999997603,0.004693214,396.5099999997603,4.601274e-05,396.5099999997603,1.810361e-05
396.52499999976027,1.812927e-05,396.52499999976027,0.004629273,396.52499999976027,4.610236e-05,396.52499999976027,1.815877e-05
396.53999999976025,1.83655e-05,396.53999999976025,0.00453685,396.53999999976025,4.827818e-05,396.53999999976025,1.852359e-05
396.55499999976024,1.720516e-05,396.55499999976024,0.004374729,396.55499999976024,4.727244e-05,396.55499999976024,1.862673e-05
396.5699999997602,1.690451e-05,396.5699999997602,0.004126664,396.5699999997602,4.567844e-05,396.5699999997602,1.886867e-05
396.5849999997602,1.750226e-05,396.5849999997602,0.004311665,396.5849999997602,4.530593e-05,396.5849999997602,1.9151e-05
396.5999999997602,1.759137e-05,396.5999999997602,0.004514199,396.5999999997602,3.776794e-05,396.5999999997602,1.833326e-05
396.6149999997602,1.669573e-05,396.6149999997602,0.004614917,396.6149999997602,3.008624e-05,396.6149999997602,1.786629e-05
396.6299999997602,1.668222e-05,396.6299999997602,0.004588842,396.6299999997602,2.98177e-05,396.6299999997602,1.709015e-05
396.64499999976016,1.615456e-05,396.64499999976016,0.004560313,396.64499999976016,2.905004e-05,396.64499999976016,1.636595e-05
396.65999999976015,1.611615e-05,396.65999999976015,0.004485973,396.65999999976015,2.899277e-05,396.65999999976015,1.62528e-05
396.67499999976013,1.587573e-05,396.67499999976013,0.004405659,396.67499999976013,2.89271e-05,396.67499999976013,1.547676e-05
396.6899999997601,1.541017e-05,396.6899999997601,0.004543406,396.6899999997601,2.865802e-05,396.6899999997601,1.480883e-05
396.7049999997601,1.515763e-05,396.7049999997601,0.004620737,396.7049999997601,2.828197e-05,396.7049999997601,1.469807e-05
396.7199999997601,1.414124e-05,396.7199999997601,0.004733532,396.7199999997601,2.750168e-05,396.7199999997601,1.393149e-05
396.7349999997601,1.281384e-05,396.7349999997601,0.004744851,396.7349999997601,2.671494e-05,396.7349999997601,1.132454e-05
396.74999999976006,1.194445e-05,396.74999999976006,0.004716887,396.74999999976006,2.404056e-05,396.74999999976006,1.105004e-05
396.76499999976005,1.064619e-05,396.76499999976005,0.004728476,396.76499999976005,2.266524e-05,396.76499999976005,9.981033e-06
396.77999999976004,1.05785e-05,396.77999999976004,0.004773623,396.77999999976004,2.227594e-05,396.77999999976004,9.649507e-06
396.79499999976,9.21338e-06,396.79499999976,0.004918108,396.79499999976,1.600652e-05,396.79499999976,7.98652e-06
396.80999999976,8.779654e-06,396.80999999976,0.005044485,396.80999999976,1.374623e-05,396.80999999976,7.485775e-06
396.82499999976,8.176516e-06,396.82499999976,0.005079832,396.82499999976,1.135187e-05,396.82499999976,6.840758e-06
396.83999999976,7.235062e-06,396.83999999976,0.004975704,396.83999999976,1.047008e-05,396.83999999976,6.123622e-06
396.85499999975997,7.461272e-06,396.85499999975997,0.004930525,396.85499999975997,1.070294e-05,396.85499999975997,5.986361e-06
396.86999999975995,7.047669e-06,396.86999999975995,0.004959961,396.86999999975995,9.557095e-06,396.86999999975995,5.746233e-06
396.88499999975994,7.438582e-06,396.88499999975994,0.004844631,396.88499999975994,9.318279e-06,396.88499999975994,5.334332e-06
396.8999999997599,9.125813e-06,396.8999999997599,0.004838772,396.8999999997599,9.699014e-06,396.8999999997599,5.513535e-06
396.9149999997599,1.024843e-05,396.9149999997599,0.004653807,396.9149999997599,9.50833e-06,396.9149999997599,6.014533e-06
396.9299999997599,1.034011e-05,396.9299999997599,0.004524334,396.9299999997599,9.94427e-06,396.9299999997599,6.260124e-06
396.9449999997599,1.127342e-05,396.9449999997599,0.0044359,396.9449999997599,1.029643e-05,396.9449999997599,6.291548e-06
396.9599999997599,1.131209e-05,396.9599999997599,0.004355398,396.9599999997599,1.074366e-05,396.9599999997599,6.608231e-06
396.97499999975986,1.127092e-05,396.97499999975986,0.004275458,396.97499999975986,1.105386e-05,396.97499999975986,6.865424e-06
396.98999999975985,1.124214e-05,396.98999999975985,0.004132997,396.98999999975985,1.102962e-05,396.98999999975985,7.238955e-06
397.00499999975983,1.171102e-05,397.00499999975983,0.003831296,397.00499999975983,1.113512e-05,397.00499999975983,7.260328e-06
397.0199999997598,1.259764e-05,397.0199999997598,0.003482102,397.0199999997598,1.103856e-05,397.0199999997598,7.555081e-06
397.0349999997598,1.280944e-05,397.0349999997598,0.003549256,397.0349999997598,1.11174e-05,397.0349999997598,7.521444e-06
397.0499999997598,1.29233e-05,397.0499999997598,0.003829554,397.0499999997598,1.168332e-05,397.0499999997598,7.59599e-06
397.0649999997598,1.2969e-05,397.0649999997598,0.003983881,397.0649999997598,1.226678e-05,397.0649999997598,7.678988e-06
397.07999999975976,1.298962e-05,397.07999999975976,0.004081643,397.07999999975976,1.246047e-05,397.07999999975976,7.66246e-06
397.09499999975975,1.331416e-05,397.09499999975975,0.00417408,397.09499999975975,1.235831e-05,397.09499999975975,8.207468e-06
397.10999999975974,1.332473e-05,397.10999999975974,0.004113467,397.10999999975974,1.223343e-05,397.10999999975974,8.669864e-06
397.1249999997597,1.336168e-05,397.1249999997597,0.003997407,397.1249999997597,1.241631e-05,397.1249999997597,8.892842e-06
397.1399999997597,1.297009e-05,397.1399999997597,0.004033939,397.1399999997597,1.282702e-05,397.1399999997597,9.023361e-06
397.1549999997597,1.193029e-05,397.1549999997597,0.0040086,397.1549999997597,1.408434e-05,397.1549999997597,9.042074e-06
397.1699999997597,1.102068e-05,397.1699999997597,0.004012918,397.1699999997597,1.492349e-05,397.1699999997597,9.13507e-06
397.18499999975967,1.119442e-05,397.18499999975967,0.004011471,397.18499999975967,3.459201e-05,397.18499999975967,9.028043e-06
397.19999999975965,1.085584e-05,397.19999999975965,0.004015125,397.19999999975965,3.484883e-05,397.19999999975965,9.23781e-06
397.21499999975964,1.094887e-05,397.21499999975964,0.004001375,397.21499999975964,3.498761e-05,397.21499999975964,8.848378e-06
397.2299999997596,1.113259e-05,397.2299999997596,0.004149585,397.2299999997596,3.507487e-05,397.2299999997596,8.91183e-06
397.2449999997596,1.123713e-05,397.2449999997596,0.004381901,397.2449999997596,3.526033e-05,397.2449999997596,8.832443e-06
397.2599999997596,1.111233e-05,397.2599999997596,0.004551794,397.2599999997596,3.559552e-05,397.2599999997596,8.973265e-06
397.2749999997596,9.938602e-06,397.2749999997596,0.004693553,397.2749999997596,3.560818e-05,397.2749999997596,8.966984e-06
397.2899999997596,1.044179e-05,397.2899999997596,0.004733082,397.2899999997596,3.573061e-05,397.2899999997596,9.028043e-06
397.30499999975956,1.053312e-05,397.30499999975956,0.004683822,397.30499999975956,3.55476e-05,397.30499999975956,9.629048e-06
397.31999999975955,1.103218e-05,397.31999999975955,0.004683805,397.31999999975955,3.537759e-05,397.31999999975955,9.399558e-06
397.33499999975953,1.128342e-05,397.33499999975953,0.004615522,397.33499999975953,3.528429e-05,397.33499999975953,9.362016e-06
397.3499999997595,1.143841e-05,397.3499999997595,0.004615522,397.3499999997595,3.535568e-05,397.3499999997595,8.752336e-06
397.3649999997595,1.273112e-05,397.3649999997595,0.004669106,397.3649999997595,3.532858e-05,397.3649999997595,8.41258e-06
397.3799999997595,1.429382e-05,397.3799999997595,0.004719482,397.3799999997595,3.525633e-05,397.3799999997595,8.306418e-06
397.3949999997595,1.445454e-05,397.3949999997595,0.004731736,397.3949999997595,3.488075e-05,397.3949999997595,8.770023e-06
397.40999999975946,1.664418e-05,397.40999999975946,0.00482694,397.40999999975946,3.432055e-05,397.40999999975946,8.210899e-06
397.42499999975945,1.660096e-05,397.42499999975945,0.004951826,397.42499999975945,2.77566e-05,397.42499999975945,7.997096e-06
397.43999999975944,1.631681e-05,397.43999999975944,0.005050959,397.43999999975944,1.346042e-05,397.43999999975944,8.309809e-06
397.4549999997594,1.720516e-05,397.4549999997594,0.005171306,397.4549999997594,1.249434e-05,397.4549999997594,8.350395e-06
397.4699999997594,1.953552e-05,397.4699999997594,0.00531301,397.4699999997594,1.19527e-05,397.4699999997594,8.277538e-06
397.4849999997594,2.013841e-05,397.4849999997594,0.005321413,397.4849999997594,1.16785e-05,397.4849999997594,8.128133e-06
397.4999999997594,2.001844e-05,397.4999999997594,0.005323282,397.4999999997594,1.053312e-05,397.4999999997594,7.951166e-06
397.51499999975937,2.003181e-05,397.51499999975937,0.005285856,397.51499999975937,1.003171e-05,397.51499999975937,7.737468e-06
397.52999999975935,2.00107e-05,397.52999999975935,0.005302691,397.52999999975935,9.669923e-06,397.52999999975935,7.495178e-06
397.54499999975934,1.981261e-05,397.54499999975934,0.005271647,397.54499999975934,9.1289e-06,397.54499999975934,7.417721e-06
397.5599999997593,1.935877e-05,397.5599999997593,0.005208031,397.5599999997593,8.864284e-06,397.5599999997593,6.859265e-06
397.5749999997593,1.933693e-05,397.5749999997593,0.00510517,397.5749999997593,8.765202e-06,397.5749999997593,6.734918e-06
397.5899999997593,1.94227e-05,397.5899999997593,0.00516415,397.5899999997593,9.145859e-06,397.5899999997593,6.757886e-06
397.6049999997593,1.895954e-05,397.6049999997593,0.005223508,397.6049999997593,8.846786e-06,397.6049999997593,6.57832e-06
397.6199999997593,1.856689e-05,397.6199999997593,0.005255584,397.6199999997593,8.710389e-06,397.6199999997593,6.494269e-06
397.63499999975926,1.787732e-05,397.63499999975926,0.005212343,397.63499999975926,8.629149e-06,397.63499999975926,6.411314e-06
397.64999999975925,1.691034e-05,397.64999999975925,0.005217131,397.64999999975925,8.813284e-06,397.64999999975925,5.462197e-06
397.66499999975923,1.58562e-05,397.66499999975923,0.005217131,397.66499999975923,8.509145e-06,397.66499999975923,5.56946e-06
397.6799999997592,2.04418e-05,397.6799999997592,0.005222203,397.6799999997592,8.301328e-06,397.6799999997592,5.365928e-06
397.6949999997592,2.064887e-05,397.6949999997592,0.005272992,397.6949999997592,7.564397e-06,397.6949999997592,5.088352e-06
397.7099999997592,1.874659e-05,397.7099999997592,0.005284391,397.7099999997592,8.014691e-06,397.7099999997592,4.812329e-06
397.7249999997592,1.644922e-05,397.7249999997592,0.005248189,397.7249999997592,8.117728e-06,397.7249999997592,4.762306e-06
397.73999999975916,1.643638e-05,397.73999999975916,0.005202759,397.73999999975916,7.908532e-06,397.73999999975916,4.768218e-06
397.75499999975915,1.650906e-05,397.75499999975915,0.00520276,397.75499999975915,8.068993e-06,397.75499999975915,4.753424e-06
397.76999999975914,1.642952e-05,397.76999999975914,0.005202177,397.76999999975914,8.062008e-06,397.76999999975914,4.672725e-06
397.7849999997591,1.617112e-05,397.7849999997591,0.005202177,397.7849999997591,8.532291e-06,397.7849999997591,4.578317e-06
397.7999999997591,1.618853e-05,397.7999999997591,0.005324769,397.7999999997591,8.489256e-06,397.7999999997591,4.285911e-06
397.8149999997591,1.614584e-05,397.8149999997591,0.005332615,397.8149999997591,8.489256e-06,397.8149999997591,4.252917e-06
397.8299999997591,1.62476e-05,397.8299999997591,0.005304595,397.8299999997591,8.352081e-06,397.8299999997591,4.114875e-06
397.84499999975907,1.565683e-05,397.84499999975907,0.005340351,397.84499999975907,7.68449e-06,397.84499999975907,4.118297e-06
397.85999999975905,1.557022e-05,397.85999999975905,0.005296613,397.85999999975905,7.470705e-06,397.85999999975905,4.094283e-06
397.87499999975904,1.502133e-05,397.87499999975904,0.005155407,397.87499999975904,7.377733e-06,397.87499999975904,4.11145e-06
397.889999999759,1.481359e-05,397.889999999759,0.005071187,397.889999999759,7.262268e-06,397.889999999759,4.485062e-06
397.904999999759,1.483449e-05,397.904999999759,0.00522704,397.904999999759,7.555081e-06,397.904999999759,4.331681e-06
397.919999999759,1.117931e-05,397.919999999759,0.005277217,397.919999999759,7.775606e-06,397.919999999759,4.199587e-06
397.934999999759,7.140994e-06,397.934999999759,0.005280236,397.934999999759,9.333384e-06,397.934999999759,4.503868e-06
397.949999999759,6.906339e-06,397.949999999759,0.005294799,397.949999999759,1.053045e-05,397.949999999759,4.867628e-06
397.96499999975896,7.573703e-06,397.96499999975896,0.005268407,397.96499999975896,1.104876e-05,397.96499999975896,5.770695e-06
397.97999999975895,7.826167e-06,397.97999999975895,0.005285335,397.97999999975895,1.29766e-05,397.97999999975895,5.778013e-06
397.99499999975893,7.845942e-06,397.99499999975893,0.005239337,397.99499999975893,1.570893e-05,397.99499999975893,6.194524e-06
398.0099999997589,7.913874e-06,398.0099999997589,0.005288494,398.0099999997589,1.663487e-05,398.0099999997589,6.650728e-06
398.0249999997589,8.091657e-06,398.0249999997589,0.005355945,398.0249999997589,1.754727e-05,398.0249999997589,7.031661e-06
398.0399999997589,9.125813e-06,398.0399999997589,0.005319807,398.0399999997589,1.948931e-05,398.0399999997589,7.27777e-06
398.0549999997589,1.214793e-05,398.0549999997589,0.005289174,398.0549999997589,2.062224e-05,398.0549999997589,7.62006e-06
398.06999999975886,1.227252e-05,398.06999999975886,0.005175152,398.06999999975886,2.176675e-05,398.06999999975886,8.154087e-06
398.08499999975885,1.360718e-05,398.08499999975885,0.005175143,398.08499999975885,2.384759e-05,398.08499999975885,8.62425e-06
398.09999999975884,1.405631e-05,398.09999999975884,0.005151944,398.09999999975884,2.502361e-05,398.09999999975884,8.803689e-06
398.1149999997588,1.519291e-05,398.1149999997588,0.005045189,398.1149999997588,2.512306e-05,398.1149999997588,8.813284e-06
398.1299999997588,1.671344e-05,398.1299999997588,0.004958137,398.1299999997588,2.605829e-05,398.1299999997588,9.130444e-06
398.1449999997588,1.687031e-05,398.1449999997588,0.004860746,398.1449999997588,2.772918e-05,398.1449999997588,9.020237e-06
398.1599999997588,1.783946e-05,398.1599999997588,0.004672632,398.1599999997588,2.998588e-05,398.1599999997588,1.008912e-05
398.17499999975877,1.873381e-05,398.17499999975877,0.004522375,398.17499999975877,3.102306e-05,398.17499999975877,1.031693e-05
398.18999999975875,1.889479e-05,398.18999999975875,0.004568963,398.18999999975875,3.308206e-05,398.18999999975875,1.027863e-05
398.20499999975874,1.91304e-05,398.20499999975874,0.004568969,398.20499999975874,3.656032e-05,398.20499999975874,1.088305e-05
398.2199999997587,2.151353e-05,398.2199999997587,0.004634379,398.2199999997587,4.041195e-05,398.2199999997587,1.431745e-05
398.2349999997587,2.302228e-05,398.2349999997587,0.004629296,398.2349999997587,4.461286e-05,398.2349999997587,1.68845e-05
398.2499999997587,2.442538e-05,398.2499999997587,0.004571039,398.2499999997587,5.702034e-05,398.2499999997587,1.787496e-05
398.2649999997587,2.687895e-05,398.2649999997587,0.004539598,398.2649999997587,6.01287e-05,398.2649999997587,2.00971e-05
398.2799999997587,2.778906e-05,398.2799999997587,0.004410595,398.2799999997587,5.999712e-05,398.2799999997587,2.049686e-05
398.29499999975866,2.824759e-05,398.29499999975866,0.004410774,398.29499999975866,6.006822e-05,398.29499999975866,2.047623e-05
398.30999999975865,2.727486e-05,398.30999999975865,0.004363341,398.30999999975865,6.018232e-05,398.30999999975865,2.069044e-05
398.32499999975863,2.737693e-05,398.32499999975863,0.004232805,398.32499999975863,5.970527e-05,398.32499999975863,2.039835e-05
398.3399999997586,2.67065e-05,398.3399999997586,0.004105572,398.3399999997586,5.919227e-05,398.3399999997586,2.035756e-05
398.3549999997586,2.675972e-05,398.3549999997586,0.004027965,398.3549999997586,5.879014e-05,398.3549999997586,2.044663e-05
398.3699999997586,2.80258e-05,398.3699999997586,0.004040697,398.3699999997586,5.877289e-05,398.3699999997586,2.050304e-05
398.3849999997586,2.756767e-05,398.3849999997586,0.004045235,398.3849999997586,5.818246e-05,398.3849999997586,2.062839e-05
398.39999999975856,2.760138e-05,398.39999999975856,0.004017849,398.39999999975856,5.75079e-05,398.39999999975856,2.059696e-05
398.41499999975855,2.684906e-05,398.41499999975855,0.003910076,398.41499999975855,5.632636e-05,398.41499999975855,2.005359e-05
398.42999999975854,2.636355e-05,398.42999999975854,0.003809909,398.42999999975854,5.579921e-05,398.42999999975854,2.027018e-05
398.4449999997585,2.637157e-05,398.4449999997585,0.003574317,398.4449999997585,5.174251e-05,398.4449999997585,2.026254e-05
398.4599999997585,2.59646e-05,398.4599999997585,0.003309271,398.4599999997585,5.0447e-05,398.4599999997585,1.976135e-05
398.4749999997585,2.430339e-05,398.4749999997585,0.002969427,398.4749999997585,4.649757e-05,398.4749999997585,1.682934e-05
398.4899999997585,2.321362e-05,398.4899999997585,0.002625853,398.4899999997585,4.155718e-05,398.4899999997585,1.398296e-05
398.50499999975847,2.205989e-05,398.50499999975847,0.002435604,398.50499999975847,2.1396e-05,398.50499999975847,1.374008e-05
398.51999999975845,1.850381e-05,398.51999999975845,0.002110837,398.51999999975845,1.549858e-05,398.51999999975845,9.848904e-06
398.53499999975844,1.813859e-05,398.53499999975844,0.001659194,398.53499999975844,1.337644e-05,398.53499999975844,9.552672e-06
398.5499999997584,1.709345e-05,398.5499999997584,0.0009797978,398.5499999997584,1.249773e-05,398.5499999997584,9.306177e-06
398.5649999997584,1.679835e-05,398.5649999997584,0.0005027192,398.5649999997584,1.223113e-05,398.5649999997584,9.001478e-06
398.5799999997584,1.707861e-05,398.5799999997584,0.0004832662,398.5799999997584,1.200327e-05,398.5799999997584,9.858911e-06
398.5949999997584,1.643809e-05,398.5949999997584,0.0004567322,398.5949999997584,1.244351e-05,398.5949999997584,9.784329e-06
398.6099999997584,1.589258e-05,398.6099999997584,0.0003789515,398.6099999997584,1.307609e-05,398.6099999997584,9.61001e-06
398.62499999975836,1.235033e-05,398.62499999975836,0.0002832116,398.62499999975836,1.400008e-05,398.62499999975836,9.506848e-06
398.63999999975834,1.294617e-05,398.63999999975834,0.000198085,398.63999999975834,1.438518e-05,398.63999999975834,9.366529e-06
398.65499999975833,1.288837e-05,398.65499999975833,0.0001415175,398.65499999975833,1.500538e-05,398.65499999975833,9.636359e-06
398.6699999997583,1.309977e-05,398.6699999997583,0.000109043,398.6699999997583,1.515391e-05,398.6699999997583,1.061704e-05
398.6849999997583,1.313414e-05,398.6849999997583,9.150093e-05,398.6849999997583,1.51827e-05,398.6849999997583,1.035917e-05
398.6999999997583,1.293855e-05,398.6999999997583,7.49123e-05,398.6999999997583,1.550586e-05,398.6999999997583,1.04053e-05
398.7149999997583,1.325053e-05,398.7149999997583,0.001163639,398.7149999997583,1.577604e-05,398.7149999997583,1.088952e-05
398.72999999975826,1.222191e-05,398.72999999975826,0.001744402,398.72999999975826,1.627705e-05,398.72999999975826,1.149737e-05
398.74499999975825,1.194091e-05,398.74499999975825,0.002187055,398.74499999975825,1.681511e-05,398.74499999975825,1.152673e-05
398.75999999975824,1.2884e-05,398.75999999975824,0.002347806,398.75999999975824,1.743694e-05,398.75999999975824,1.167729e-05
398.7749999997582,1.322286e-05,398.7749999997582,0.002667358,398.7749999997582,1.826706e-05,398.7749999997582,1.153284e-05
398.7899999997582,1.646634e-05,398.7899999997582,0.002877699,398.7899999997582,1.797947e-05,398.7899999997582,1.172905e-05
398.8049999997582,1.781734e-05,398.8049999997582,0.003048411,398.8049999997582,1.811061e-05,398.8049999997582,1.173745e-05
398.8199999997582,1.866073e-05,398.8199999997582,0.003354519,398.8199999997582,1.861311e-05,398.8199999997582,1.113006e-05
398.83499999975817,1.945748e-05,398.83499999975817,0.003604819,398.83499999975817,1.956506e-05,398.83499999975817,1.087658e-05
398.84999999975815,1.954561e-05,398.84999999975815,0.003802009,398.84999999975815,2.01468e-05,398.84999999975815,1.124214e-05
398.86499999975814,1.987154e-05,398.86499999975814,0.004063671,398.86499999975814,1.994654e-05,398.86499999975814,1.142978e-05
398.8799999997581,2.130694e-05,398.8799999997581,0.004247778,398.8799999997581,1.968064e-05,398.8799999997581,1.172424e-05
398.8949999997581,2.396426e-05,398.8949999997581,0.004444709,398.8949999997581,1.964266e-05,398.8949999997581,1.13878e-05
398.9099999997581,2.577784e-05,398.9099999997581,0.004609548,398.9099999997581,1.967491e-05,398.9099999997581,1.075022e-05
398.9249999997581,2.591627e-05,398.9249999997581,0.004669607,398.9249999997581,1.989067e-05,398.9249999997581,1.017947e-05
398.9399999997581,2.615003e-05,398.9399999997581,0.004749394,398.9399999997581,2.061473e-05,398.9399999997581,1.042288e-05
398.95499999975806,2.605234e-05,398.95499999975806,0.004762896,398.95499999975806,2.017894e-05,398.95499999975806,1.035373e-05
398.96999999975804,2.674866e-05,398.96999999975804,0.004756784,398.96999999975804,2.018243e-05,398.96999999975804,9.046747e-06
398.98499999975803,2.755796e-05,398.98499999975803,0.004713615,398.98499999975803,2.263975e-05,398.98499999975803,9.372543e-06
398.999999999758,2.847903e-05,398.999999999758,0.004713617,398.999999999758,3.024688e-05,398.999999999758,1.339222e-05
399.014999999758,2.818018e-05,399.014999999758,0.004907341,399.014999999758,3.155208e-05,399.014999999758,1.360304e-05
399.029999999758,2.859109e-05,399.029999999758,0.004944297,399.029999999758,3.684473e-05,399.029999999758,1.580994e-05
399.044999999758,2.682806e-05,399.044999999758,0.004859055,399.044999999758,3.824238e-05,399.044999999758,1.809972e-05
399.05999999975796,2.562217e-05,399.05999999975796,0.004903454,399.05999999975796,3.779665e-05,399.05999999975796,1.853424e-05
399.07499999975795,2.470636e-05,399.07499999975795,0.004901176,399.07499999975795,3.697639e-05,399.07499999975795,1.85593e-05
399.08999999975794,2.461267e-05,399.08999999975794,0.004857902,399.08999999975794,3.678159e-05,399.08999999975794,1.862446e-05
399.1049999997579,2.481786e-05,399.1049999997579,0.0047264,399.1049999997579,3.725724e-05,399.1049999997579,1.859873e-05
399.1199999997579,2.492999e-05,399.1199999997579,0.004466038,399.1199999997579,3.765776e-05,399.1199999997579,1.877737e-05
399.1349999997579,2.206819e-05,399.1349999997579,0.004527975,399.1349999997579,3.806146e-05,399.1349999997579,1.879912e-05
399.1499999997579,1.958089e-05,399.1499999997579,0.004694609,399.1499999997579,3.800034e-05,399.1499999997579,1.875635e-05
399.16499999975787,1.816188e-05,399.16499999975787,0.00472739,399.16499999975787,3.837549e-05,399.16499999975787,1.86713e-05
399.17999999975785,1.838849e-05,399.17999999975785,0.004787403,399.17999999975785,3.850156e-05,399.17999999975785,1.856916e-05
399.19499999975784,1.842523e-05,399.19499999975784,0.004823797,399.19499999975784,3.888455e-05,399.19499999975784,1.856992e-05
399.2099999997578,1.8067e-05,399.2099999997578,0.004981592,399.2099999997578,3.924335e-05,399.2099999997578,1.876612e-05
399.2249999997578,1.897365e-05,399.2249999997578,0.005026035,399.2249999997578,3.958503e-05,399.2249999997578,1.898923e-05
399.2399999997578,1.615543e-05,399.2399999997578,0.004934927,399.2399999997578,3.471315e-05,399.2399999997578,1.781971e-05
399.2549999997578,1.698432e-05,399.2549999997578,0.004794191,399.2549999997578,3.116622e-05,399.2549999997578,1.542753e-05
399.2699999997578,1.662216e-05,399.2699999997578,0.004771123,399.2699999997578,3.08797e-05,399.2699999997578,1.531757e-05
399.28499999975776,1.734785e-05,399.28499999975776,0.004790247,399.28499999975776,2.816968e-05,399.28499999975776,1.339117e-05
399.29999999975774,1.75553e-05,399.29999999975774,0.004790247,399.29999999975774,2.712726e-05,399.29999999975774,1.09231e-05
399.31499999975773,1.812927e-05,399.31499999975773,0.004790247,399.31499999975773,2.790288e-05,399.31499999975773,1.054783e-05
399.3299999997577,1.840075e-05,399.3299999997577,0.00480118,399.3299999997577,2.778247e-05,399.3299999997577,1.043369e-05
399.3449999997577,1.847181e-05,399.3449999997577,0.004766153,399.3449999997577,2.775711e-05,399.3449999997577,1.052376e-05
399.3599999997577,1.794496e-05,399.3599999997577,0.004715477,399.3599999997577,2.718173e-05,399.3599999997577,1.036596e-05
399.3749999997577,1.770949e-05,399.3749999997577,0.004647994,399.3749999997577,2.824709e-05,399.3749999997577,1.045392e-05
399.38999999975766,1.775556e-05,399.38999999975766,0.004436268,399.38999999975766,2.78751e-05,399.38999999975766,1.044314e-05
399.40499999975765,1.821841e-05,399.40499999975765,0.004277448,399.40499999975765,2.796038e-05,399.40499999975765,1.043909e-05
399.41999999975764,1.933329e-05,399.41999999975764,0.004253057,399.41999999975764,2.813716e-05,399.41999999975764,1.065942e-05
399.4349999997576,1.9176e-05,399.4349999997576,0.004318687,399.4349999997576,2.806297e-05,399.4349999997576,1.079337e-05
399.4499999997576,2.0151e-05,399.4499999997576,0.004272269,399.4499999997576,2.784932e-05,399.4499999997576,1.055717e-05
399.4649999997576,1.97756e-05,399.4649999997576,0.004148095,399.4649999997576,2.754927e-05,399.4649999997576,1.041207e-05
399.4799999997576,1.951604e-05,399.4799999997576,0.0039322,399.4799999997576,2.733573e-05,399.4799999997576,1.005556e-05
399.49499999975757,1.959168e-05,399.49499999975757,0.0038452,399.49499999975757,2.76381e-05,399.49499999975757,9.327345e-06
399.50999999975755,1.948208e-05,399.50999999975755,0.003712787,399.50999999975755,2.75462e-05,399.50999999975755,9.108818e-06
399.52499999975754,1.851599e-05,399.52499999975754,0.003350236,399.52499999975754,2.423315e-05,399.52499999975754,8.533942e-06
399.5399999997575,1.796457e-05,399.5399999997575,0.003235661,399.5399999997575,2.316319e-05,399.5399999997575,8.45767e-06
399.5549999997575,1.765611e-05,399.5549999997575,0.003073357,399.5549999997575,2.286203e-05,399.5549999997575,8.832443e-06
399.5699999997575,1.739731e-05,399.5699999997575,0.002855129,399.5699999997575,2.139074e-05,399.5699999997575,8.563602e-06
399.5849999997575,1.722235e-05,399.5849999997575,0.002675528,399.5849999997575,2.143941e-05,399.5849999997575,8.284342e-06
399.5999999997575,1.730232e-05,399.5999999997575,0.002881105,399.5999999997575,2.13769e-05,399.5999999997575,8.154087e-06
399.61499999975746,1.722807e-05,399.61499999975746,0.003186099,399.61499999975746,2.037831e-05,399.61499999975746,8.169621e-06
399.62999999975744,1.7142e-05,399.62999999975744,0.003367722,399.62999999975744,1.839692e-05,399.62999999975744,7.268085e-06
399.64499999975743,1.834247e-05,399.64499999975743,0.003556478,399.64499999975743,1.827631e-05,399.64499999975743,7.146909e-06
399.6599999997574,1.778093e-05,399.6599999997574,0.003683401,399.6599999997574,1.796457e-05,399.6599999997574,6.971302e-06
399.6749999997574,1.760658e-05,399.6749999997574,0.003696968,399.6749999997574,1.764733e-05,399.6749999997574,6.730734e-06
399.6899999997574,1.679164e-05,399.6899999997574,0.003542724,399.6899999997574,1.676393e-05,399.6899999997574,6.358363e-06
399.7049999997574,1.59845e-05,399.7049999997574,0.003708933,399.7049999997574,1.481454e-05,399.7049999997574,6.327271e-06
399.71999999975736,1.510923e-05,399.71999999975736,0.003830514,399.71999999975736,1.446233e-05,399.71999999975736,5.974584e-06
399.73499999975735,1.450707e-05,399.73499999975735,0.004030767,399.73499999975735,1.315664e-05,399.73499999975735,5.920107e-06
399.74999999975734,1.435675e-05,399.74999999975734,0.004212331,399.74999999975734,1.087269e-05,399.74999999975734,6.007502e-06
399.7649999997573,1.394463e-05,399.7649999997573,0.004338458,399.7649999997573,1.053981e-05,399.7649999997573,5.833818e-06
399.7799999997573,1.388693e-05,399.7799999997573,0.004540086,399.7799999997573,1.057583e-05,399.7799999997573,5.677176e-06
399.7949999997573,1.440866e-05,399.7949999997573,0.004705369,399.7949999997573,1.314057e-05,399.7949999997573,5.922486e-06
399.8099999997573,1.413426e-05,399.8099999997573,0.004865282,399.8099999997573,1.300805e-05,399.8099999997573,7.70097e-06
399.82499999975727,1.427508e-05,399.82499999975727,0.005075088,399.82499999975727,1.307609e-05,399.82499999975727,8.086432e-06
399.83999999975725,1.421476e-05,399.83999999975725,0.005027283,399.83999999975725,1.292984e-05,399.83999999975725,8.345331e-06
399.85499999975724,1.42316e-05,399.85499999975724,0.004921346,399.85499999975724,1.440475e-05,399.85499999975724,8.573465e-06
399.8699999997572,1.434399e-05,399.8699999997572,0.004797156,399.8699999997572,1.504289e-05,399.8699999997572,8.601352e-06
399.8849999997572,1.505225e-05,399.8849999997572,0.004653588,399.8849999997572,1.819597e-05,399.8849999997572,1.036325e-05
399.8999999997572,1.996348e-05,399.8999999997572,0.004470082,399.8999999997572,2.834864e-05,399.8999999997572,1.775794e-05
399.9149999997572,2.090919e-05,399.9149999997572,0.004209731,399.9149999997572,2.834317e-05,399.9149999997572,1.83371e-05
399.9299999997572,2.539021e-05,399.9299999997572,0.004058118,399.9299999997572,4.253082e-05,399.9299999997572,2.085928e-05
399.94499999975716,2.796995e-05,399.94499999975716,0.003952717,399.94499999975716,4.880778e-05,399.94499999975716,2.447148e-05
399.95999999975714,2.971738e-05,399.95999999975714,0.003767051,399.95999999975714,5.035365e-05,399.95999999975714,2.462412e-05
399.97499999975713,3.092118e-05,399.97499999975713,0.003522795,399.97499999975713,5.134788e-05,399.97499999975713,2.471719e-05
399.9899999997571,3.709506e-05,399.9899999997571,0.003198392,399.9899999997571,5.342433e-05,399.9899999997571,2.534857e-05
400.0049999997571,3.753523e-05,400.0049999997571,0.002937538,400.0049999997571,5.349943e-05,400.0049999997571,2.528792e-05
400.0199999997571,3.866439e-05,400.0199999997571,0.002751294,400.0199999997571,5.348468e-05,400.0199999997571,2.531576e-05
400.0349999997571,3.983123e-05,400.0349999997571,0.002469334,400.0349999997571,5.35147e-05,400.0349999997571,2.530797e-05
400.04999999975706,3.987294e-05,400.04999999975706,0.002102116,400.04999999975706,5.284373e-05,400.04999999975706,2.517906e-05
400.06499999975705,3.980399e-05,400.06499999975705,0.00165288,400.06499999975705,5.281147e-05,400.06499999975705,2.467384e-05
400.07999999975704,3.970832e-05,400.07999999975704,0.0009968408,400.07999999975704,5.277357e-05,400.07999999975704,2.463727e-05
400.094999999757,4.037742e-05,400.094999999757,0.0009371162,400.094999999757,5.27394e-05,400.094999999757,2.455537e-05
400.109999999757,4.055531e-05,400.109999999757,0.0006707248,400.109999999757,5.214333e-05,400.109999999757,2.439884e-05
400.124999999757,4.070197e-05,400.124999999757,0.000355865,400.124999999757,5.235686e-05,400.124999999757,2.44075e-05
400.139999999757,3.825379e-05,400.139999999757,0.0001408368,400.139999999757,4.675438e-05,400.139999999757,2.133667e-05
400.15499999975697,3.772092e-05,400.15499999975697,4.518637e-05,400.15499999975697,4.602253e-05,400.15499999975697,1.900777e-05
400.16999999975695,3.743038e-05,400.16999999975695,3.649747e-05,400.16999999975695,4.497859e-05,400.16999999975695,1.852663e-05
400.18499999975694,3.380235e-05,400.18499999975694,3.572863e-05,400.18499999975694,2.941052e-05,400.18499999975694,1.468945e-05
400.1999999997569,3.179846e-05,400.1999999997569,2.737641e-05,400.1999999997569,2.879483e-05,400.1999999997569,1.147406e-05
400.2149999997569,3.140037e-05,400.2149999997569,2.149716e-05,400.2149999997569,3.379277e-05,400.2149999997569,1.757855e-05
400.2299999997569,2.285833e-05,400.2299999997569,2.023889e-05,400.2299999997569,3.166929e-05,400.2299999997569,2.073057e-05
400.2449999997569,2.2817e-05,400.2449999997569,0.0004843098,400.2449999997569,3.244661e-05,400.2449999997569,2.424013e-05
400.2599999997569,2.205222e-05,400.2599999997569,0.001340051,400.2599999997569,4.053133e-05,400.2599999997569,2.428831e-05
400.27499999975686,2.114634e-05,400.27499999975686,0.001934091,400.27499999975686,4.504462e-05,400.27499999975686,2.60491e-05
400.28999999975684,1.908026e-05,400.28999999975684,0.002273413,400.28999999975684,4.578778e-05,400.28999999975684,2.67613e-05
400.30499999975683,1.934713e-05,400.30499999975683,0.002428143,400.30499999975683,4.623538e-05,400.30499999975683,2.880706e-05
400.3199999997568,1.967563e-05,400.3199999997568,0.002739751,400.3199999997568,4.851424e-05,400.3199999997568,2.881488e-05
400.3349999997568,1.977275e-05,400.3349999997568,0.002873087,400.3349999997568,4.901801e-05,400.3349999997568,2.897916e-05
400.3499999997568,2.038522e-05,400.3499999997568,0.003085585,400.3499999997568,4.942526e-05,400.3499999997568,2.909026e-05
400.3649999997568,1.985168e-05,400.3649999997568,0.003255134,400.3649999997568,4.996807e-05,400.3649999997568,2.912463e-05
400.37999999975676,2.113101e-05,400.37999999975676,0.003563528,400.37999999975676,4.992464e-05,400.37999999975676,2.919322e-05
400.39499999975675,2.096772e-05,400.39499999975675,0.003717429,400.39499999975675,5.019899e-05,400.39499999975675,2.924577e-05
400.40999999975674,2.032917e-05,400.40999999975674,0.003853667,400.40999999975674,5.041935e-05,400.40999999975674,2.896555e-05
400.4249999997567,2.152662e-05,400.4249999997567,0.003907628,400.4249999997567,5.064682e-05,400.4249999997567,2.920094e-05
400.4399999997567,2.313033e-05,400.4399999997567,0.00401123,400.4399999997567,5.009562e-05,400.4399999997567,2.891882e-05
400.4549999997567,2.371847e-05,400.4549999997567,0.004332607,400.4549999997567,4.747701e-05,400.4549999997567,2.899471e-05
400.4699999997567,2.373213e-05,400.4699999997567,0.004608357,400.4699999997567,4.566518e-05,400.4699999997567,2.491304e-05
400.48499999975667,2.34839e-05,400.48499999975667,0.0048454,400.48499999975667,4.373141e-05,400.48499999975667,1.988571e-05
400.49999999975665,2.45743e-05,400.49999999975665,0.004900539,400.49999999975665,4.254904e-05,400.49999999975665,1.91245e-05
400.51499999975664,2.475876e-05,400.51499999975664,0.004829274,400.51499999975664,3.438862e-05,400.51499999975664,1.784657e-05
400.5299999997566,2.559522e-05,400.5299999997566,0.004772179,400.5299999997566,2.909172e-05,400.5299999997566,1.627099e-05
400.5449999997566,2.549596e-05,400.5449999997566,0.004760799,400.5449999997566,2.91193e-05,400.5449999997566,1.409434e-05
400.5599999997566,2.597491e-05,400.5599999997566,0.004654584,400.5599999997566,2.837397e-05,400.5599999997566,1.090891e-05
400.5749999997566,2.621781e-05,400.5749999997566,0.004651367,400.5749999997566,2.445938e-05,400.5749999997566,1.060111e-05
400.58999999975657,2.679496e-05,400.58999999975657,0.004745604,400.58999999975657,2.3659e-05,400.58999999975657,1.031556e-05
400.60499999975656,2.701643e-05,400.60499999975656,0.004769513,400.60499999975656,2.304369e-05,400.60499999975656,1.022228e-05
400.61999999975654,2.631488e-05,400.61999999975654,0.004731601,400.61999999975654,2.208669e-05,400.61999999975654,1.001907e-05
400.63499999975653,2.687109e-05,400.63499999975653,0.004645221,400.63499999975653,2.145452e-05,400.63499999975653,9.701918e-06
400.6499999997565,2.753393e-05,400.6499999997565,0.004549527,400.6499999997565,2.003392e-05,400.6499999997565,9.390561e-06
400.6649999997565,2.749809e-05,400.6649999997565,0.004429561,400.6649999997565,1.946472e-05,400.6649999997565,9.250001e-06
400.6799999997565,2.584824e-05,400.6799999997565,0.004477241,400.6799999997565,1.778648e-05,400.6799999997565,8.427637e-06
400.6949999997565,2.611391e-05,400.6949999997565,0.004646919,400.6949999997565,1.45226e-05,400.6949999997565,8.308113e-06
400.70999999975646,2.557485e-05,400.70999999975646,0.004739883,400.70999999975646,1.135187e-05,400.70999999975646,7.603404e-06
400.72499999975645,2.600418e-05,400.72499999975645,0.004745395,400.72499999975645,1.142608e-05,400.72499999975645,7.645896e-06
400.73999999975644,2.584987e-05,400.73999999975644,0.004622255,400.73999999975644,1.126842e-05,400.73999999975644,8.289442e-06
400.7549999997564,2.461325e-05,400.7549999997564,0.004574604,400.7549999997564,1.118813e-05,400.7549999997564,8.430979e-06
400.7699999997564,2.523272e-05,400.7699999997564,0.004469021,400.7699999997564,2.334432e-05,400.7699999997564,1.211774e-05
400.7849999997564,2.432888e-05,400.7849999997564,0.00435193,400.7849999997564,2.438902e-05,400.7849999997564,1.222191e-05
400.7999999997564,2.460981e-05,400.7999999997564,0.004198483,400.7999999997564,2.475307e-05,400.7999999997564,1.222422e-05
400.81499999975637,2.432656e-05,400.81499999975637,0.00421794,400.81499999975637,2.629239e-05,400.81499999975637,1.226449e-05
400.82999999975635,2.421105e-05,400.82999999975635,0.004469417,400.82999999975635,3.095124e-05,400.82999999975635,1.334164e-05
400.84499999975634,2.247363e-05,400.84499999975634,0.004614363,400.84499999975634,3.089612e-05,400.84499999975634,1.377285e-05
400.8599999997563,2.181588e-05,400.8599999997563,0.00466277,400.8599999997563,3.078787e-05,400.8599999997563,1.373598e-05
400.8749999997563,2.215991e-05,400.8749999997563,0.00479171,400.8749999997563,3.097626e-05,400.8749999997563,1.380452e-05
400.8899999997563,2.207584e-05,400.8899999997563,0.004834931,400.8899999997563,3.128847e-05,400.8899999997563,1.402119e-05
400.9049999997563,2.157956e-05,400.9049999997563,0.004827939,400.9049999997563,3.217762e-05,400.9049999997563,1.440964e-05
400.91999999975627,2.139008e-05,400.91999999975627,0.004820271,400.91999999975627,3.240751e-05,400.91999999975627,1.446038e-05
400.93499999975626,2.117097e-05,400.93499999975626,0.004820271,400.93499999975626,3.271683e-05,400.93499999975626,1.39517e-05
400.94999999975624,2.045971e-05,400.94999999975624,0.004877093,400.94999999975624,3.366413e-05,400.94999999975624,1.423259e-05
400.96499999975623,2.084779e-05,400.96499999975623,0.004794474,400.96499999975623,3.366078e-05,400.96499999975623,1.44672e-05
400.9799999997562,2.195299e-05,400.9799999997562,0.00478743,400.9799999997562,3.383609e-05,400.9799999997562,1.428002e-05
400.9949999997562,2.236304e-05,400.9949999997562,0.004915445,400.9949999997562,3.406761e-05,400.9949999997562,1.412429e-05
401.0099999997562,2.243348e-05,401.0099999997562,0.004976658,401.0099999997562,3.390596e-05,401.0099999997562,1.39628e-05
401.0249999997562,2.124735e-05,401.0249999997562,0.004855448,401.0249999997562,2.753495e-05,401.0249999997562,1.085324e-05
401.03999999975616,2.04156e-05,401.03999999975616,0.004757583,401.03999999975616,2.616457e-05,401.03999999975616,1.039717e-05
401.05499999975615,2.009079e-05,401.05499999975615,0.004815011,401.05499999975615,2.538245e-05,401.05499999975615,1.06409e-05
401.06999999975613,2.017615e-05,401.06999999975613,0.004928964,401.06999999975613,2.261484e-05,401.06999999975613,1.066338e-05
401.0849999997561,2.188229e-05,401.0849999997561,0.004938958,401.0849999997561,2.171751e-05,401.0849999997561,1.106787e-05
401.0999999997561,2.205031e-05,401.0999999997561,0.004822901,401.0999999997561,2.314068e-05,401.0999999997561,1.08947e-05
401.1149999997561,2.28028e-05,401.1149999997561,0.004580012,401.1149999997561,2.400303e-05,401.1149999997561,1.114271e-05
401.1299999997561,2.250182e-05,401.1299999997561,0.004468151,401.1299999997561,2.464127e-05,401.1299999997561,1.17746e-05
401.14499999975607,2.212683e-05,401.14499999975607,0.004558589,401.14499999975607,2.413413e-05,401.14499999975607,1.204077e-05
401.15999999975605,2.255372e-05,401.15999999975605,0.004666453,401.15999999975605,2.312729e-05,401.15999999975605,1.177579e-05
401.17499999975604,2.269505e-05,401.17499999975604,0.00454127,401.17499999975604,2.30553e-05,401.17499999975604,1.163499e-05
401.189999999756,2.243222e-05,401.189999999756,0.004519619,401.189999999756,2.333225e-05,401.189999999756,1.172184e-05
401.204999999756,2.276261e-05,401.204999999756,0.00441645,401.204999999756,2.314981e-05,401.204999999756,1.111233e-05
401.219999999756,2.200426e-05,401.219999999756,0.004492139,401.219999999756,2.333286e-05,401.219999999756,1.143841e-05
401.234999999756,2.037969e-05,401.234999999756,0.004536532,401.234999999756,2.358148e-05,401.234999999756,1.154993e-05
401.24999999975597,2.053051e-05,401.24999999975597,0.004510276,401.24999999975597,2.422327e-05,401.24999999975597,1.152673e-05
401.26499999975596,2.05003e-05,401.26499999975596,0.004474406,401.26499999975596,2.399716e-05,401.26499999975596,1.158038e-05
401.27999999975594,2.046385e-05,401.27999999975594,0.004552309,401.27999999975594,2.495032e-05,401.27999999975594,1.143964e-05
401.29499999975593,2.254435e-05,401.29499999975593,0.004530925,401.29499999975593,2.81031e-05,401.29499999975593,1.304049e-05
401.3099999997559,2.313886e-05,401.3099999997559,0.004414182,401.3099999997559,2.839432e-05,401.3099999997559,1.413924e-05
401.3249999997559,2.321908e-05,401.3249999997559,0.004261744,401.3249999997559,3.027528e-05,401.3249999997559,1.48819e-05
401.3399999997559,2.272359e-05,401.3399999997559,0.00408728,401.3399999997559,3.465589e-05,401.3399999997559,1.647917e-05
401.3549999997559,2.261173e-05,401.3549999997559,0.004016809,401.3549999997559,3.673752e-05,401.3549999997559,1.790724e-05
401.36999999975586,2.350369e-05,401.36999999975586,0.003955439,401.36999999975586,4.022117e-05,401.36999999975586,1.88627e-05
401.38499999975585,2.338231e-05,401.38499999975585,0.003780982,401.38499999975585,4.023693e-05,401.38499999975585,1.874208e-05
401.39999999975583,2.342565e-05,401.39999999975583,0.003526289,401.39999999975583,4.032611e-05,401.39999999975583,1.866224e-05
401.4149999997558,2.284908e-05,401.4149999997558,0.00341987,401.4149999997558,4.007978e-05,401.4149999997558,1.855247e-05
401.4299999997558,2.278797e-05,401.4299999997558,0.003440338,401.4299999997558,3.992554e-05,401.4299999997558,1.852739e-05
401.4449999997558,2.239891e-05,401.4449999997558,0.003366488,401.4449999997558,3.939061e-05,401.4449999997558,1.837087e-05
401.4599999997558,2.174668e-05,401.4599999997558,0.003520339,401.4599999997558,3.890773e-05,401.4599999997558,1.832864e-05
401.47499999975577,2.153644e-05,401.47499999975577,0.003596345,401.47499999975577,3.852497e-05,401.47499999975577,1.808337e-05
401.48999999975575,2.150174e-05,401.48999999975575,0.003622229,401.48999999975575,3.787224e-05,401.48999999975575,1.803813e-05
401.50499999975574,2.118162e-05,401.50499999975574,0.003477495,401.50499999975574,3.765589e-05,401.50499999975574,1.801078e-05
401.5199999997557,2.125133e-05,401.5199999997557,0.003385219,401.5199999997557,3.712202e-05,401.5199999997557,1.800609e-05
401.5349999997557,2.114168e-05,401.5349999997557,0.003180651,401.5349999997557,3.648202e-05,401.5349999997557,1.789386e-05
401.5499999997557,1.764654e-05,401.5499999997557,0.003258833,401.5499999997557,3.391219e-05,401.5499999997557,1.598626e-05
401.5649999997557,1.758416e-05,401.5649999997557,0.003361251,401.5649999997557,3.344246e-05,401.5649999997557,1.468369e-05
401.57999999975567,1.521329e-05,401.57999999975567,0.003648159,401.57999999975567,2.851511e-05,401.57999999975567,1.273333e-05
401.59499999975566,1.369387e-05,401.59499999975566,0.003881606,401.59499999975566,2.29125e-05,401.59499999975566,1.073054e-05
401.60999999975564,1.2669e-05,401.60999999975564,0.004115706,401.60999999975564,1.841911e-05,401.60999999975564,7.466933e-06
401.62499999975563,9.164322e-06,401.62499999975563,0.004313189,401.62499999975563,9.76848e-06,401.62499999975563,5.533936e-06
401.6399999997556,9.12427e-06,401.6399999997556,0.004531467,401.6399999997556,6.863372e-06,401.6399999997556,4.192873e-06
401.6549999997556,8.390783e-06,401.6549999997556,0.004628697,401.6549999997556,6.338393e-06,401.6549999997556,4.049309e-06
401.6699999997556,8.345331e-06,401.6699999997556,0.004588981,401.6699999997556,6.784931e-06,401.6699999997556,3.885991e-06
401.6849999997556,8.200599e-06,401.6849999997556,0.004685513,401.6849999997556,6.942956e-06,401.6849999997556,3.867824e-06
401.69999999975556,8.216045e-06,401.69999999975556,0.004784164,401.69999999975556,7.413922e-06,401.69999999975556,4.399444e-06
401.71499999975555,8.246849e-06,401.71499999975555,0.00477735,401.71499999975555,7.811755e-06,401.71499999975555,4.321914e-06
401.72999999975553,8.082948e-06,401.72999999975553,0.00470575,401.72999999975553,8.192006e-06,401.72999999975553,4.282623e-06
401.7449999997555,7.851327e-06,401.7449999997555,0.004730945,401.7449999997555,8.632413e-06,401.7449999997555,4.169289e-06
401.7599999997555,8.927624e-06,401.7599999997555,0.004871939,401.7599999997555,9.062304e-06,401.7599999997555,4.199587e-06
401.7749999997555,8.601352e-06,401.7749999997555,0.0049652,401.7749999997555,9.618801e-06,401.7749999997555,4.209638e-06
401.7899999997555,8.681231e-06,401.7899999997555,0.004966164,401.7899999997555,1.092439e-05,401.7899999997555,4.444044e-06
401.80499999975547,8.723317e-06,401.80499999975547,0.004907447,401.80499999975547,1.137047e-05,401.80499999975547,4.687774e-06
401.81999999975545,8.755555e-06,401.81999999975545,0.00482146,401.81999999975545,1.139027e-05,401.81999999975545,4.882076e-06
401.83499999975544,8.70068e-06,401.83499999975544,0.004811524,401.83499999975544,1.126842e-05,401.83499999975544,4.928026e-06
401.8499999997554,8.355453e-06,401.8499999997554,0.004829207,401.8499999997554,1.190074e-05,401.8499999997554,5.12971e-06
401.8649999997554,8.166172e-06,401.8649999997554,0.005006514,401.8649999997554,1.197978e-05,401.8649999997554,5.104936e-06
401.8799999997554,8.131598e-06,401.8799999997554,0.005071469,401.8799999997554,1.211658e-05,401.8799999997554,5.273245e-06
401.8949999997554,8.014691e-06,401.8949999997554,0.005071485,401.8949999997554,1.374828e-05,401.8949999997554,5.291911e-06
401.90999999975537,7.717415e-06,401.90999999975537,0.005059915,401.90999999975537,1.661962e-05,401.90999999975537,5.469929e-06
401.92499999975536,8.042764e-06,401.92499999975536,0.005065104,401.92499999975536,1.671681e-05,401.92499999975536,5.505864e-06
401.93999999975534,9.518695e-06,401.93999999975534,0.005007939,401.93999999975534,1.708768e-05,401.93999999975534,5.721665e-06
401.95499999975533,1.012953e-05,401.95499999975533,0.005008264,401.95499999975533,1.73446e-05,401.95499999975533,5.464775e-06
401.9699999997553,1.005275e-05,401.9699999997553,0.004931502,401.9699999997553,1.896548e-05,401.9699999997553,5.451871e-06
401.9849999997553,1.010865e-05,401.9849999997553,0.004871156,401.9849999997553,1.883131e-05,401.9849999997553,6.132817e-06
401.9999999997553,1.100661e-05,401.9999999997553,0.004691546,401.9999999997553,1.869693e-05,401.9999999997553,6.322817e-06
402.0149999997553,1.300805e-05,402.0149999997553,0.00450533,402.0149999997553,1.860933e-05,402.0149999997553,6.591156e-06
402.02999999975526,1.404428e-05,402.02999999975526,0.004339649,402.02999999975526,1.874809e-05,402.02999999975526,6.910417e-06
402.04499999975525,1.39416e-05,402.04499999975525,0.004242643,402.04499999975525,1.897291e-05,402.04499999975525,7.287441e-06
402.05999999975523,1.395472e-05,402.05999999975523,0.00419614,402.05999999975523,1.912745e-05,402.05999999975523,7.329844e-06
402.0749999997552,1.402219e-05,402.0749999997552,0.004144645,402.0749999997552,2.041491e-05,402.0749999997552,7.308674e-06
402.0899999997552,1.414124e-05,402.0899999997552,0.004122805,402.0899999997552,2.077266e-05,402.0899999997552,7.270023e-06
402.1049999997552,1.408934e-05,402.1049999997552,0.004229214,402.1049999997552,2.052021e-05,402.1049999997552,7.27196e-06
402.1199999997552,1.399001e-05,402.1199999997552,0.004084026,402.1199999997552,2.164344e-05,402.1199999997552,7.345202e-06
402.13499999975517,1.41223e-05,402.13499999975517,0.004083982,402.13499999975517,2.388419e-05,402.13499999975517,7.412022e-06
402.14999999975515,1.466449e-05,402.14999999975515,0.004104646,402.14999999975515,2.308522e-05,402.14999999975515,7.387274e-06
402.16499999975514,1.489231e-05,402.16499999975514,0.004146331,402.16499999975514,2.244415e-05,402.16499999975514,7.335607e-06
402.1799999997551,1.586508e-05,402.1799999997551,0.004059267,402.1799999997551,3.258265e-05,402.1799999997551,7.352869e-06
402.1949999997551,2.396132e-05,402.1949999997551,0.004137825,402.1949999997551,4.113128e-05,402.1949999997551,7.551351e-06
402.2099999997551,2.468411e-05,402.2099999997551,0.004220528,402.2099999997551,4.31575e-05,402.2099999997551,7.645896e-06
402.2249999997551,2.59608e-05,402.2249999997551,0.004330083,402.2249999997551,4.320252e-05,402.2249999997551,7.781039e-06
402.23999999975507,2.592442e-05,402.23999999975507,0.004467283,402.23999999975507,4.321849e-05,402.23999999975507,7.203842e-06
402.25499999975506,2.715373e-05,402.25499999975506,0.004655038,402.25499999975506,4.320936e-05,402.25499999975506,7.618211e-06
402.26999999975504,2.809106e-05,402.26999999975504,0.004838026,402.26999999975504,4.45212e-05,402.26999999975504,8.155816e-06
402.28499999975503,2.922457e-05,402.28499999975503,0.004852616,402.28499999975503,5.185645e-05,402.28499999975503,8.098617e-06
402.299999999755,3.032409e-05,402.299999999755,0.004951674,402.299999999755,5.744835e-05,402.299999999755,8.40923e-06
402.314999999755,3.09526e-05,402.314999999755,0.00495526,402.314999999755,5.990948e-05,402.314999999755,8.45767e-06
402.329999999755,3.101171e-05,402.329999999755,0.004944403,402.329999999755,6.041337e-05,402.329999999755,8.449338e-06
402.344999999755,3.106798e-05,402.344999999755,0.004874101,402.344999999755,6.050191e-05,402.344999999755,8.594799e-06
402.35999999975496,3.172661e-05,402.35999999975496,0.004783058,402.35999999975496,6.084576e-05,402.35999999975496,8.962269e-06
402.37499999975495,3.279037e-05,402.37499999975495,0.004721208,402.37499999975495,6.343436e-05,402.37499999975495,8.849969e-06
402.38999999975493,3.275212e-05,402.38999999975493,0.004461105,402.38999999975493,6.556226e-05,402.38999999975493,8.818078e-06
402.4049999997549,3.249216e-05,402.4049999997549,0.004257869,402.4049999997549,6.696217e-05,402.4049999997549,9.013988e-06
402.4199999997549,3.25043e-05,402.4199999997549,0.004258713,402.4199999997549,6.644116e-05,402.4199999997549,9.046747e-06
402.4349999997549,3.202623e-05,402.4349999997549,0.004324655,402.4349999997549,6.238078e-05,402.4349999997549,9.052973e-06
402.4499999997549,2.60637e-05,402.4499999997549,0.004523148,402.4499999997549,5.799914e-05,402.4499999997549,8.750726e-06
402.46499999975487,2.587711e-05,402.46499999975487,0.004607571,402.46499999975487,5.646225e-05,402.46499999975487,8.797286e-06
402.47999999975485,3.054533e-05,402.47999999975485,0.004572841,402.47999999975485,5.603702e-05,402.47999999975485,8.857925e-06
402.49499999975484,3.018627e-05,402.49499999975484,0.004572841,402.49499999975484,5.585749e-05,402.49499999975484,8.903924e-06
402.5099999997548,2.90452e-05,402.5099999997548,0.004524782,402.5099999997548,5.577143e-05,402.5099999997548,8.591521e-06
402.5249999997548,2.795484e-05,402.5249999997548,0.004612457,402.5249999997548,5.399843e-05,402.5249999997548,8.399174e-06
402.5399999997548,2.589506e-05,402.5399999997548,0.004627939,402.5399999997548,4.683956e-05,402.5399999997548,8.723317e-06
402.5549999997548,2.521093e-05,402.5549999997548,0.00463107,402.5549999997548,3.947527e-05,402.5549999997548,8.547137e-06
402.56999999975477,2.464356e-05,402.56999999975477,0.004686357,402.56999999975477,3.554205e-05,402.56999999975477,9.47122e-06
402.58499999975476,2.484963e-05,402.58499999975476,0.004846138,402.58499999975476,3.350306e-05,402.58499999975476,9.664094e-06
402.59999999975474,2.488418e-05,402.59999999975474,0.004937971,402.59999999975474,3.467499e-05,402.59999999975474,1.080902e-05
402.61499999975473,2.376001e-05,402.61499999975473,0.005009576,402.61499999975473,3.486379e-05,402.61499999975473,1.083376e-05
402.6299999997547,2.344428e-05,402.6299999997547,0.005050894,402.6299999997547,2.910091e-05,402.6299999997547,1.108949e-05
402.6449999997547,2.337327e-05,402.6449999997547,0.004990937,402.6449999997547,2.669964e-05,402.6449999997547,1.117049e-05
402.6599999997547,2.33588e-05,402.6599999997547,0.005035599,402.6599999997547,2.870418e-05,402.6599999997547,1.146792e-05
402.6749999997547,2.320512e-05,402.6749999997547,0.004973953,402.6749999997547,2.942632e-05,402.6749999997547,1.160711e-05
402.68999999975466,2.305225e-05,402.68999999975466,0.005052411,402.68999999975466,3.014471e-05,402.68999999975466,1.172785e-05
402.70499999975465,2.337448e-05,402.70499999975465,0.005143899,402.70499999975465,3.595501e-05,402.70499999975465,1.182116e-05
402.71999999975463,2.249869e-05,402.71999999975463,0.005158385,402.71999999975463,3.606767e-05,402.71999999975463,1.193265e-05
402.7349999997546,1.663656e-05,402.7349999997546,0.005184674,402.7349999997546,3.705669e-05,402.7349999997546,1.255957e-05
402.7499999997546,1.952181e-05,402.7499999997546,0.005169632,402.7499999997546,4.373785e-05,402.7499999997546,1.454101e-05
402.7649999997546,2.183847e-05,402.7649999997546,0.005163501,402.7649999997546,4.457022e-05,402.7649999997546,1.554487e-05
402.7799999997546,2.295181e-05,402.7799999997546,0.005163503,402.7799999997546,4.755706e-05,402.7799999997546,1.623546e-05
402.79499999975457,2.391896e-05,402.79499999975457,0.005125714,402.79499999975457,4.872892e-05,402.79499999975457,1.676393e-05
402.80999999975455,2.500221e-05,402.80999999975455,0.004892071,402.80999999975455,4.917811e-05,402.80999999975455,1.670163e-05
402.82499999975454,2.554674e-05,402.82499999975454,0.004662583,402.82499999975454,4.947768e-05,402.82499999975454,1.632544e-05
402.8399999997545,2.53941e-05,402.8399999997545,0.004624666,402.8399999997545,4.950528e-05,402.8399999997545,1.644409e-05
402.8549999997545,2.502024e-05,402.8549999997545,0.004607689,402.8549999997545,4.936166e-05,402.8549999997545,1.608991e-05
402.8699999997545,2.519752e-05,402.8699999997545,0.004607075,402.8699999997545,4.93314e-05,402.8699999997545,1.581083e-05
402.8849999997545,2.533078e-05,402.8849999997545,0.004609504,402.8849999997545,4.924824e-05,402.8849999997545,1.574208e-05
402.89999999975447,2.544287e-05,402.89999999975447,0.004634793,402.89999999975447,4.654693e-05,402.89999999975447,1.551221e-05
402.91499999975446,2.65584e-05,402.91499999975446,0.004688896,402.91499999975446,4.257419e-05,402.91499999975446,1.544031e-05
402.92999999975444,2.642919e-05,402.92999999975444,0.004663011,402.92999999975444,4.24579e-05,402.92999999975444,1.521051e-05
402.94499999975443,2.648297e-05,402.94499999975443,0.004663011,402.94499999975443,4.14951e-05,402.94499999975443,1.526229e-05
402.9599999997544,2.562822e-05,402.9599999997544,0.004652374,402.9599999997544,3.714136e-05,402.9599999997544,1.529087e-05
402.9749999997544,2.484622e-05,402.9749999997544,0.004599454,402.9749999997544,3.705365e-05,402.9749999997544,1.476119e-05
402.9899999997544,2.24824e-05,402.9899999997544,0.004548425,402.9899999997544,2.837794e-05,402.9899999997544,1.306531e-05
403.0049999997544,2.182944e-05,403.0049999997544,0.004485091,403.0049999997544,2.651912e-05,403.0049999997544,1.168935e-05
403.01999999975436,2.058259e-05,403.01999999975436,0.004586458,403.01999999975436,2.477127e-05,403.01999999975436,1.057717e-05
403.03499999975435,1.91245e-05,403.03499999975435,0.004593437,403.03499999975435,1.829557e-05,403.03499999975435,8.380704e-06
403.04999999975433,1.851446e-05,403.04999999975433,0.004491726,403.04999999975433,1.714858e-05,403.04999999975433,7.645896e-06
403.0649999997543,1.697851e-05,403.0649999997543,0.004589922,403.0649999997543,1.615805e-05,403.0649999997543,7.632989e-06
403.0799999997543,1.591384e-05,403.0799999997543,0.004787855,403.0799999997543,1.575907e-05,403.0799999997543,7.067629e-06
403.0949999997543,1.701084e-05,403.0949999997543,0.004939993,403.0949999997543,1.57367e-05,403.0949999997543,7.019631e-06
403.1099999997543,2.023332e-05,403.1099999997543,0.004991061,403.1099999997543,1.457778e-05,403.1099999997543,6.174023e-06
403.12499999975427,2.035548e-05,403.12499999975427,0.00500785,403.12499999975427,1.402219e-05,403.12499999975427,6.239839e-06
403.13999999975425,2.024515e-05,403.13999999975425,0.00503743,403.13999999975425,1.379635e-05,403.13999999975425,6.498606e-06
403.15499999975424,2.010411e-05,403.15499999975424,0.004926292,403.15499999975424,1.303941e-05,403.15499999975424,6.640129e-06
403.1699999997542,1.857902e-05,403.1699999997542,0.00486481,403.1699999997542,1.296792e-05,403.1699999997542,6.707672e-06
403.1849999997542,1.893872e-05,403.1849999997542,0.005095479,403.1849999997542,1.3103e-05,403.1849999997542,6.922637e-06
403.1999999997542,1.896771e-05,403.1999999997542,0.005202284,403.1999999997542,1.320153e-05,403.1999999997542,6.776621e-06
403.2149999997542,1.990836e-05,403.2149999997542,0.005216161,403.2149999997542,1.311696e-05,403.2149999997542,6.511599e-06
403.22999999975417,2.001422e-05,403.22999999975417,0.005226433,403.22999999975417,1.343947e-05,403.22999999975417,6.734918e-06
403.24499999975416,1.976206e-05,403.24499999975416,0.005084192,403.24499999975416,1.514089e-05,403.24499999975416,6.894089e-06
403.25999999975414,1.890075e-05,403.25999999975414,0.005043913,403.25999999975414,1.560276e-05,403.25999999975414,7.063642e-06
403.27499999975413,1.885374e-05,403.27499999975413,0.005029576,403.27499999975413,1.677485e-05,403.27499999975413,7.337527e-06
403.2899999997541,1.906697e-05,403.2899999997541,0.004960792,403.2899999997541,1.74046e-05,403.2899999997541,7.46882e-06
403.3049999997541,1.892607e-05,403.3049999997541,0.004919749,403.3049999997541,1.779044e-05,403.3049999997541,7.333686e-06
403.3199999997541,1.930631e-05,403.3199999997541,0.00497572,403.3199999997541,2.087076e-05,403.3199999997541,8.323359e-06
403.3349999997541,1.932819e-05,403.3349999997541,0.004975908,403.3349999997541,2.104016e-05,403.3349999997541,8.787673e-06
403.34999999975406,1.785525e-05,403.34999999975406,0.004960651,403.34999999975406,2.109899e-05,403.34999999975406,8.922889e-06
403.36499999975405,1.527889e-05,403.36499999975405,0.005014618,403.36499999975405,2.149388e-05,403.36499999975405,8.985815e-06
403.37999999975403,1.567032e-05,403.37999999975403,0.00505323,403.37999999975403,2.301127e-05,403.37999999975403,9.187351e-06
403.394999999754,1.592269e-05,403.394999999754,0.004963958,403.394999999754,2.40792e-05,403.394999999754,9.185817e-06
403.409999999754,1.597921e-05,403.409999999754,0.004978267,403.409999999754,2.479287e-05,403.409999999754,9.674292e-06
403.424999999754,1.628397e-05,403.424999999754,0.00503374,403.424999999754,2.510174e-05,403.424999999754,1.151206e-05
403.439999999754,1.590676e-05,403.439999999754,0.004999274,403.439999999754,2.647978e-05,403.439999999754,1.136303e-05
403.45499999975397,1.605222e-05,403.45499999975397,0.004926611,403.45499999975397,2.700078e-05,403.45499999975397,1.201149e-05
403.46999999975395,1.733892e-05,403.46999999975395,0.00491871,403.46999999975395,2.735479e-05,403.46999999975395,1.262891e-05
403.48499999975394,1.710992e-05,403.48499999975394,0.00483775,403.48499999975394,2.704665e-05,403.48499999975394,1.262222e-05
403.4999999997539,1.755289e-05,403.4999999997539,0.004859273,403.4999999997539,2.68564e-05,403.4999999997539,1.256181e-05
403.5149999997539,1.763775e-05,403.5149999997539,0.004859273,403.5149999997539,2.671441e-05,403.5149999997539,1.258422e-05
403.5299999997539,1.732022e-05,403.5299999997539,0.004832502,403.5299999997539,2.591627e-05,403.5299999997539,1.253262e-05
403.5449999997539,1.706458e-05,403.5449999997539,0.004765792,403.5449999997539,2.553792e-05,403.5449999997539,1.249434e-05
403.55999999975387,1.704558e-05,403.55999999975387,0.004789019,403.55999999975387,2.484849e-05,403.55999999975387,1.225184e-05
403.57499999975386,1.677485e-05,403.57499999975386,0.00470108,403.57499999975386,2.246234e-05,403.57499999975386,1.169898e-05
403.58999999975384,1.676057e-05,403.58999999975384,0.004665795,403.58999999975384,2.180232e-05,403.58999999975384,1.152918e-05
403.60499999975383,1.657124e-05,403.60499999975383,0.004645783,403.60499999975383,2.06161e-05,403.60499999975383,1.127842e-05
403.6199999997538,1.570086e-05,403.6199999997538,0.004446429,403.6199999997538,2.02688e-05,403.6199999997538,1.122458e-05
403.6349999997538,1.542479e-05,403.6349999997538,0.004398844,403.6349999997538,1.98183e-05,403.6349999997538,1.12934e-05
403.6499999997538,1.546765e-05,403.6499999997538,0.004483075,403.6499999997538,1.945314e-05,403.6499999997538,1.117805e-05
403.6649999997538,1.528719e-05,403.6649999997538,0.004438294,403.6649999997538,1.824236e-05,403.6649999997538,1.005976e-05
403.67999999975376,1.509524e-05,403.67999999975376,0.004438294,403.67999999975376,1.752799e-05,403.67999999975376,8.692581e-06
403.69499999975375,1.408934e-05,403.69499999975375,0.004395525,403.69499999975375,1.590676e-05,403.69499999975375,8.231461e-06
403.70999999975373,1.339538e-05,403.70999999975373,0.004506005,403.70999999975373,1.609691e-05,403.70999999975373,8.145445e-06
403.7249999997537,1.222076e-05,403.7249999997537,0.004508262,403.7249999997537,1.638573e-05,403.7249999997537,8.550433e-06
403.7399999997537,1.19786e-05,403.7399999997537,0.004616713,403.7399999997537,1.679919e-05,403.7399999997537,9.313742e-06
403.7549999997537,1.138656e-05,403.7549999997537,0.004620345,403.7549999997537,1.609778e-05,403.7549999997537,9.217965e-06
403.7699999997537,1.147038e-05,403.7699999997537,0.004522868,403.7699999997537,1.76593e-05,403.7699999997537,9.858911e-06
403.78499999975367,1.156943e-05,403.78499999975367,0.004493063,403.78499999975367,1.890224e-05,403.78499999975367,1.128217e-05
403.79999999975365,1.168211e-05,403.79999999975365,0.004616918,403.79999999975365,1.874058e-05,403.79999999975365,1.138285e-05
403.81499999975364,1.195624e-05,403.81499999975364,0.004639235,403.81499999975364,1.880885e-05,403.81499999975364,1.166643e-05
403.8299999997536,1.161075e-05,403.8299999997536,0.004710716,403.8299999997536,1.896845e-05,403.8299999997536,1.182116e-05
403.8449999997536,1.15816e-05,403.8449999997536,0.004728435,403.8449999997536,1.882682e-05,403.8449999997536,1.176981e-05
403.8599999997536,1.145194e-05,403.8599999997536,0.00475846,403.8599999997536,1.892831e-05,403.8599999997536,1.177579e-05
403.8749999997536,1.160347e-05,403.8749999997536,0.004915188,403.8749999997536,1.802016e-05,403.8749999997536,1.170861e-05
403.88999999975357,1.081423e-05,403.88999999975357,0.004841513,403.88999999975357,1.776904e-05,403.88999999975357,1.156577e-05
403.90499999975356,1.01337e-05,403.90499999975356,0.00464276,403.90499999975356,1.764733e-05,403.90499999975356,1.148388e-05
403.91999999975354,9.533483e-06,403.91999999975354,0.004579902,403.91999999975354,1.716746e-05,403.91999999975354,1.108059e-05
403.93499999975353,9.44441e-06,403.93499999975353,0.004620362,403.93499999975353,1.6981e-05,403.93499999975353,1.106787e-05
403.9499999997535,9.457824e-06,403.9499999997535,0.004560814,403.9499999997535,1.6826e-05,403.9499999997535,1.097585e-05
403.9649999997535,8.985815e-06,403.9649999997535,0.004316515,403.9649999997535,1.623112e-05,403.9649999997535,1.060775e-05
403.9799999997535,8.829253e-06,403.9799999997535,0.004163289,403.9799999997535,1.496402e-05,403.9799999997535,9.804465e-06
403.9949999997535,9.224075e-06,403.9949999997535,0.004028867,403.9949999997535,1.434203e-05,403.9949999997535,9.1289e-06
404.00999999975346,9.333384e-06,404.00999999975346,0.003865062,404.00999999975346,1.414422e-05,404.00999999975346,9.087142e-06
404.02499999975345,8.982679e-06,404.02499999975345,0.003830721,404.02499999975345,1.118561e-05,404.02499999975345,7.790086e-06
404.03999999975343,8.876988e-06,404.03999999975343,0.003727105,404.03999999975343,9.502402e-06,404.03999999975343,5.814468e-06
404.0549999997534,8.857925e-06,404.0549999997534,0.003665444,404.0549999997534,9.325834e-06,404.0549999997534,5.765811e-06
404.0699999997534,8.671489e-06,404.0699999997534,0.00343589,404.0699999997534,8.470984e-06,404.0699999997534,4.720713e-06
404.0849999997534,8.92131e-06,404.0849999997534,0.003296868,404.0849999997534,7.982992e-06,404.0849999997534,4.305587e-06
404.0999999997534,8.981111e-06,404.0999999997534,0.00309876,404.0999999997534,7.874616e-06,404.0999999997534,4.409039e-06
404.11499999975337,8.91025e-06,404.11499999975337,0.003027229,404.11499999975337,7.327922e-06,404.11499999975337,4.249604e-06
404.12999999975335,8.957552e-06,404.12999999975335,0.002700838,404.12999999975335,7.033664e-06,404.12999999975335,4.256228e-06
404.14499999975334,8.938661e-06,404.14499999975334,0.002472485,404.14499999975334,6.94904e-06,404.14499999975334,4.179412e-06
404.1599999997533,9.228656e-06,404.1599999997533,0.002502421,404.1599999997533,6.384893e-06,404.1599999997533,4.20629e-06
404.1749999997533,9.306177e-06,404.1749999997533,0.002669291,404.1749999997533,5.901041e-06,404.1749999997533,4.325173e-06
404.1899999997533,9.374045e-06,404.1899999997533,0.002617849,404.1899999997533,5.8867e-06,404.1899999997533,4.34467e-06
404.2049999997533,9.47122e-06,404.2049999997533,0.002952053,404.2049999997533,5.729046e-06,404.2049999997533,4.376973e-06
404.21999999975327,9.432471e-06,404.21999999975327,0.003265459,404.21999999975327,5.649817e-06,404.21999999975327,4.453544e-06
404.23499999975326,9.121181e-06,404.23499999975326,0.003514381,404.23499999975326,5.599728e-06,404.23499999975326,4.469331e-06
404.24999999975324,8.553727e-06,404.24999999975324,0.003557456,404.24999999975324,5.584614e-06,404.24999999975324,4.312125e-06
404.26499999975323,8.553727e-06,404.26499999975323,0.003671887,404.26499999975323,6.000464e-06,404.26499999975323,4.370531e-06
404.2799999997532,8.480955e-06,404.2799999997532,0.003805577,404.2799999997532,7.174451e-06,404.2799999997532,4.354386e-06
404.2949999997532,8.379024e-06,404.2949999997532,0.003850905,404.2949999997532,7.28164e-06,404.2949999997532,4.431347e-06
404.3099999997532,8.753946e-06,404.3099999997532,0.003893795,404.3099999997532,7.375824e-06,404.3099999997532,4.777073e-06
404.3249999997532,8.34702e-06,404.3249999997532,0.004156065,404.3249999997532,8.66011e-06,404.3249999997532,4.759348e-06
404.33999999975316,8.192006e-06,404.33999999975316,0.00431708,404.33999999975316,9.469733e-06,404.33999999975316,4.732634e-06
404.35499999975315,8.030494e-06,404.35499999975315,0.004332613,404.35499999975315,1.135559e-05,404.35499999975315,4.672725e-06
404.36999999975313,7.8585e-06,404.36999999975313,0.004293344,404.36999999975313,1.172064e-05,404.36999999975313,4.70577e-06
404.3849999997531,7.822567e-06,404.3849999997531,0.004441035,404.3849999997531,1.283032e-05,404.3849999997531,4.785911e-06
404.3999999997531,7.849532e-06,404.3999999997531,0.004677169,404.3999999997531,1.399806e-05,404.3999999997531,5.195198e-06
404.4149999997531,7.375824e-06,404.4149999997531,0.004702234,404.4149999997531,1.412928e-05,404.4149999997531,5.035477e-06
404.4299999997531,7.506446e-06,404.4299999997531,0.004828705,404.4299999997531,1.426422e-05,404.4299999997531,5.018664e-06
404.44499999975307,7.379642e-06,404.44499999975307,0.004938396,404.44499999975307,1.42583e-05,404.44499999975307,5.091119e-06
404.45999999975305,7.466933e-06,404.45999999975305,0.004939486,404.45999999975305,1.431548e-05,404.45999999975305,5.007424e-06
404.47499999975304,7.440475e-06,404.47499999975304,0.004925859,404.47499999975304,1.45226e-05,404.47499999975304,4.95937e-06
404.489999999753,8.086432e-06,404.489999999753,0.004944236,404.489999999753,1.488568e-05,404.489999999753,5.518642e-06
404.504999999753,8.959125e-06,404.504999999753,0.005066075,404.504999999753,1.491688e-05,404.504999999753,5.922486e-06
404.519999999753,9.284961e-06,404.519999999753,0.004992101,404.519999999753,1.467217e-05,404.519999999753,5.915346e-06
404.534999999753,9.486082e-06,404.534999999753,0.005079622,404.534999999753,1.448861e-05,404.534999999753,5.869926e-06
404.54999999975297,1.04647e-05,404.54999999975297,0.005166244,404.54999999975297,1.450027e-05,404.54999999975297,5.884307e-06
404.56499999975296,1.114271e-05,404.56499999975296,0.005150392,404.56499999975296,1.397187e-05,404.56499999975296,5.743781e-06
404.57999999975294,1.147529e-05,404.57999999975294,0.005080686,404.57999999975294,1.32484e-05,404.57999999975294,5.743781e-06
404.59499999975293,1.213749e-05,404.59499999975293,0.005038793,404.59499999975293,1.326115e-05,404.59499999975293,5.908198e-06
404.6099999997529,1.316841e-05,404.6099999997529,0.004946957,404.6099999997529,1.206064e-05,404.6099999997529,6.183143e-06
404.6249999997529,1.318445e-05,404.6249999997529,0.004848957,404.6249999997529,1.195388e-05,404.6249999997529,6.077441e-06
404.6399999997529,1.337117e-05,404.6399999997529,0.004659467,404.6399999997529,1.086621e-05,404.6399999997529,6.246608e-06
404.6549999997529,1.346984e-05,404.6549999997529,0.004362972,404.6549999997529,1.178536e-05,404.6549999997529,5.993417e-06
404.66999999975286,1.3547e-05,404.66999999975286,0.004012316,404.66999999975286,1.182355e-05,404.66999999975286,6.155743e-06
404.68499999975285,1.354804e-05,404.68499999975285,0.003592996,404.68499999975285,1.203375e-05,404.68499999975285,6.169459e-06
404.69999999975283,1.354908e-05,404.69999999975283,0.003389597,404.69999999975283,1.250449e-05,404.69999999975283,6.139704e-06
404.7149999997528,1.391834e-05,404.7149999997528,0.003495221,404.7149999997528,1.353972e-05,404.7149999997528,6.148874e-06
404.7299999997528,1.410433e-05,404.7299999997528,0.003751977,404.7299999997528,1.414821e-05,404.7299999997528,6.260124e-06
404.7449999997528,1.382185e-05,404.7449999997528,0.003768163,404.7449999997528,1.388287e-05,404.7449999997528,5.770695e-06
404.7599999997528,1.337117e-05,404.7599999997528,0.003623819,404.7599999997528,1.391631e-05,404.7599999997528,5.399948e-06
404.77499999975277,1.330252e-05,404.77499999975277,0.003651257,404.77499999975277,1.397893e-05,404.77499999975277,5.318464e-06
404.78999999975275,1.296031e-05,404.78999999975275,0.003443263,404.78999999975275,1.467217e-05,404.78999999975275,5.339611e-06
404.80499999975274,1.197272e-05,404.80499999975274,0.003269265,404.80499999975274,1.521514e-05,404.80499999975274,5.334332e-06
404.8199999997527,1.152062e-05,404.8199999997527,0.003068086,404.8199999997527,1.522347e-05,404.8199999997527,5.34752e-06
404.8349999997527,1.105514e-05,404.8349999997527,0.002824766,404.8349999997527,1.514741e-05,404.8349999997527,5.365928e-06
404.8499999997527,1.03809e-05,404.8499999997527,0.00265231,404.8499999997527,1.49546e-05,404.8499999997527,4.942298e-06
404.8649999997527,9.583589e-06,404.8649999997527,0.002657849,404.8649999997527,1.50803e-05,404.8649999997527,4.976383e-06
404.87999999975267,9.645126e-06,404.87999999975267,0.002736268,404.87999999975267,1.51381e-05,404.87999999975267,4.930884e-06
404.89499999975266,9.52757e-06,404.89499999975266,0.002665939,404.89499999975266,1.530284e-05,404.89499999975266,5.010237e-06
404.90999999975264,9.23476e-06,404.90999999975264,0.002661772,404.90999999975264,1.507095e-05,404.90999999975264,4.876302e-06
404.92499999975263,9.283444e-06,404.92499999975263,0.002735228,404.92499999975263,1.507843e-05,404.92499999975263,4.70577e-06
404.9399999997526,9.303149e-06,404.9399999997526,0.002848609,404.9399999997526,1.496496e-05,404.9399999997526,4.660651e-06
404.9549999997526,9.188883e-06,404.9549999997526,0.002824072,404.9549999997526,1.416413e-05,404.9549999997526,4.821102e-06
404.9699999997526,9.219493e-06,404.9699999997526,0.002691709,404.9699999997526,1.308578e-05,404.9699999997526,4.654602e-06
404.9849999997526,9.309204e-06,404.9849999997526,0.002423504,404.9849999997526,1.272891e-05,404.9849999997526,4.572159e-06
404.99999999975256,9.611476e-06,404.99999999975256,0.002447162,404.99999999975256,1.315985e-05,404.99999999975256,5.052234e-06
405.01499999975255,9.404052e-06,405.01499999975255,0.002411798,405.01499999975255,1.319086e-05,405.01499999975255,4.93374e-06
405.02999999975253,9.551197e-06,405.02999999975253,0.002215852,405.02999999975253,1.357609e-05,405.02999999975253,5.107694e-06
405.0449999997525,9.767037e-06,405.0449999997525,0.002417281,405.0449999997525,1.324415e-05,405.0449999997525,5.373798e-06
405.0599999997525,9.691749e-06,405.0599999997525,0.00247823,405.0599999997525,1.297009e-05,405.0599999997525,5.526294e-06
405.0749999997525,9.78145e-06,405.0749999997525,0.002520634,405.0749999997525,1.314914e-05,405.0749999997525,5.60727e-06
405.0899999997525,9.741042e-06,405.0899999997525,0.002556885,405.0899999997525,1.273776e-05,405.0899999997525,5.579567e-06
405.10499999975247,1.00275e-05,405.10499999975247,0.002708707,405.10499999975247,1.216299e-05,405.10499999975247,5.469929e-06
405.11999999975245,1.006956e-05,405.11999999975245,0.00264339,405.11999999975245,1.223113e-05,405.11999999975245,5.490492e-06
405.13499999975244,1.054515e-05,405.13499999975244,0.002830516,405.13499999975244,1.231721e-05,405.13499999975244,5.431162e-06
405.1499999997524,1.089082e-05,405.1499999997524,0.003020266,405.1499999997524,1.233892e-05,405.1499999997524,5.831403e-06
405.1649999997524,1.119191e-05,405.1649999997524,0.003183484,405.1649999997524,1.157186e-05,405.1649999997524,5.819312e-06
405.1799999997524,1.126092e-05,405.1799999997524,0.003339884,405.1799999997524,1.144333e-05,405.1799999997524,5.850696e-06
405.1949999997524,1.135063e-05,405.1949999997524,0.003388703,405.1949999997524,1.154627e-05,405.1949999997524,6.035575e-06
405.20999999975237,1.128841e-05,405.20999999975237,0.003371052,405.20999999975237,1.155481e-05,405.20999999975237,5.969867e-06
405.22499999975236,1.107932e-05,405.22499999975236,0.003375723,405.22499999975236,1.16156e-05,405.22499999975236,5.988714e-06
405.23999999975234,1.121328e-05,405.23999999975234,0.003378498,405.23999999975234,1.124465e-05,405.23999999975234,6.030905e-06
405.25499999975233,1.090891e-05,405.25499999975233,0.00337378,405.25499999975233,1.038768e-05,405.25499999975233,5.743781e-06
405.2699999997523,1.090116e-05,405.2699999997523,0.00340215,405.2699999997523,1.029369e-05,405.2699999997523,5.743781e-06
405.2849999997523,1.135931e-05,405.2849999997523,0.003448353,405.2849999997523,9.634898e-06,405.2849999997523,5.533936e-06
405.2999999997523,1.130088e-05,405.2999999997523,0.003281516,405.2999999997523,9.322813e-06,405.2999999997523,5.289249e-06
405.3149999997523,1.184259e-05,405.3149999997523,0.003361278,405.3149999997523,9.195013e-06,405.3149999997523,5.235713e-06
405.32999999975226,1.187585e-05,405.32999999975226,0.003445474,405.32999999975226,9.577708e-06,405.32999999975226,5.203327e-06
405.34499999975225,1.186517e-05,405.34499999975225,0.003668563,405.34499999975225,9.685934e-06,405.34499999975225,5.216845e-06
405.35999999975223,1.21096e-05,405.35999999975223,0.0037815,405.35999999975223,9.076284e-06,405.35999999975223,5.299891e-06
405.3749999997522,1.206298e-05,405.3749999997522,0.003773833,405.3749999997522,9.040516e-06,405.3749999997522,5.368553e-06
405.3899999997522,1.169296e-05,405.3899999997522,0.00381747,405.3899999997522,7.998858e-06,405.3899999997522,4.930884e-06
405.4049999997522,1.181043e-05,405.4049999997522,0.00389366,405.4049999997522,7.406318e-06,405.4049999997522,4.858938e-06
405.4199999997522,1.169778e-05,405.4199999997522,0.003891147,405.4199999997522,7.466933e-06,405.4199999997522,4.826943e-06
405.43499999975216,1.16253e-05,405.43499999975216,0.003979414,405.43499999975216,7.341366e-06,405.43499999975216,4.642481e-06
405.44999999975215,1.196213e-05,405.44999999975215,0.0041269,405.44999999975215,7.352869e-06,405.44999999975215,4.4218e-06
405.46499999975214,1.209447e-05,405.46499999975214,0.004148642,405.46499999975214,7.60896e-06,405.46499999975214,4.447213e-06
405.4799999997521,1.231492e-05,405.4799999997521,0.00414112,405.4799999997521,8.063755e-06,405.4799999997521,4.321914e-06
405.4949999997521,1.257302e-05,405.4949999997521,0.004247179,405.4949999997521,8.573465e-06,405.4949999997521,4.31539e-06
405.5099999997521,1.279183e-05,405.5099999997521,0.004253732,405.5099999997521,8.959125e-06,405.5099999997521,4.331681e-06
405.5249999997521,1.289165e-05,405.5249999997521,0.004330213,405.5249999997521,9.342435e-06,405.5249999997521,4.4377e-06
405.53999999975207,1.337644e-05,405.53999999975207,0.004400816,405.53999999975207,9.876042e-06,405.53999999975207,4.459865e-06
405.55499999975206,1.351473e-05,405.55499999975206,0.004284852,405.55499999975206,9.811646e-06,405.55499999975206,4.305587e-06
405.56999999975204,1.342479e-05,405.56999999975204,0.004293327,405.56999999975204,9.788648e-06,405.56999999975204,4.38019e-06
405.58499999975203,1.379635e-05,405.58499999975203,0.004294827,405.58499999975203,9.110365e-06,405.58499999975203,4.299038e-06
405.599999999752,1.392441e-05,405.599999999752,0.004039817,405.599999999752,9.136613e-06,405.599999999752,4.318654e-06
405.614999999752,1.401315e-05,405.614999999752,0.00376767,405.614999999752,9.281926e-06,405.614999999752,4.236323e-06
405.629999999752,1.414323e-05,405.629999999752,0.003766305,405.629999999752,8.792481e-06,405.629999999752,4.199587e-06
405.644999999752,1.441844e-05,405.644999999752,0.003670088,405.644999999752,8.677985e-06,405.644999999752,4.599804e-06
405.65999999975196,1.442625e-05,405.65999999975196,0.003509219,405.65999999975196,8.42262e-06,405.65999999975196,4.67875e-06
405.67499999975195,1.485727e-05,405.67499999975195,0.003380649,405.67499999975195,8.598076e-06,405.67499999975195,4.990517e-06
405.68999999975193,1.480122e-05,405.68999999975193,0.003280031,405.68999999975193,8.834038e-06,405.68999999975193,5.121465e-06
405.7049999997519,1.515484e-05,405.7049999997519,0.003378638,405.7049999997519,8.990517e-06,405.7049999997519,5.249148e-06
405.7199999997519,1.537997e-05,405.7199999997519,0.003424867,405.7199999997519,8.760379e-06,405.7199999997519,5.281253e-06
405.7349999997519,1.545854e-05,405.7349999997519,0.003422412,405.7349999997519,8.110784e-06,405.7349999997519,5.096651e-06
405.7499999997519,1.638573e-05,405.7499999997519,0.003653502,405.7499999997519,8.781259e-06,405.7499999997519,5.181623e-06
405.76499999975186,1.623806e-05,405.76499999975186,0.003675146,405.76499999975186,8.66011e-06,405.76499999975186,5.137942e-06
405.77999999975185,1.696772e-05,405.77999999975185,0.003783334,405.77999999975185,8.530639e-06,405.77999999975185,5.444114e-06
405.79499999975184,1.68419e-05,405.79499999975184,0.003905519,405.79499999975184,9.490535e-06,405.79499999975184,5.431162e-06
405.8099999997518,1.763056e-05,405.8099999997518,0.004144903,405.8099999997518,9.922999e-06,405.8099999997518,5.687093e-06
405.8249999997518,1.995995e-05,405.8249999997518,0.0042189,405.8249999997518,1.070294e-05,405.8249999997518,5.891484e-06
405.8399999997518,2.052914e-05,405.8399999997518,0.004292322,405.8399999997518,1.092955e-05,405.8399999997518,5.920107e-06
405.8549999997518,2.096168e-05,405.8549999997518,0.004482332,405.8549999997518,1.092181e-05,405.8549999997518,6.167175e-06
405.86999999975177,2.120621e-05,405.86999999975177,0.004649432,405.86999999975177,1.105259e-05,405.86999999975177,6.169459e-06
405.88499999975176,2.258243e-05,405.88499999975176,0.004768434,405.88499999975176,1.102962e-05,405.88499999975176,6.063518e-06
405.89999999975174,2.398953e-05,405.89999999975174,0.004837957,405.89999999975174,1.130711e-05,405.89999999975174,6.023894e-06
405.9149999997517,2.405579e-05,405.9149999997517,0.004824754,405.9149999997517,1.140387e-05,405.9149999997517,5.920107e-06
405.9299999997517,2.46121e-05,405.9299999997517,0.004840664,405.9299999997517,1.222768e-05,405.9299999997517,5.787757e-06
405.9449999997517,2.516171e-05,405.9449999997517,0.004886579,405.9449999997517,1.22817e-05,405.9449999997517,5.867525e-06
405.9599999997517,2.544785e-05,405.9599999997517,0.004890245,405.9599999997517,1.22507e-05,405.9599999997517,5.898653e-06
405.9749999997517,2.542182e-05,405.9749999997517,0.00492055,405.9749999997517,1.225644e-05,405.9749999997517,5.922486e-06
405.98999999975166,2.558806e-05,405.98999999975166,0.00484286,405.98999999975166,1.194091e-05,405.98999999975166,6.144291e-06
406.00499999975165,2.533578e-05,406.00499999975165,0.004702714,406.00499999975165,1.120197e-05,406.00499999975165,6.262374e-06
406.01999999975163,2.566886e-05,406.01999999975163,0.004719542,406.01999999975163,1.10666e-05,406.01999999975163,6.320588e-06
406.0349999997516,2.552633e-05,406.0349999997516,0.004705955,406.0349999997516,1.055584e-05,406.0349999997516,6.300498e-06
406.0499999997516,2.542625e-05,406.0499999997516,0.004666697,406.0499999997516,9.847473e-06,406.0499999997516,6.402519e-06
406.0649999997516,2.551529e-05,406.0649999997516,0.004464274,406.0649999997516,8.918151e-06,406.0649999997516,6.535352e-06
406.0799999997516,2.315955e-05,406.0799999997516,0.004271976,406.0799999997516,8.811686e-06,406.0799999997516,6.494269e-06
406.09499999975156,2.34779e-05,406.09499999975156,0.004185601,406.09499999975156,8.671489e-06,406.09499999975156,6.533196e-06
406.10999999975155,2.362743e-05,406.10999999975155,0.00408074,406.10999999975155,8.625883e-06,406.10999999975155,6.678206e-06
406.12499999975154,2.329721e-05,406.12499999975154,0.003882796,406.12499999975154,8.712006e-06,406.12499999975154,6.692956e-06
406.1399999997515,2.308644e-05,406.1399999997515,0.00365197,406.1399999997515,9.254569e-06,406.1399999997515,6.928738e-06
406.1549999997515,2.230185e-05,406.1549999997515,0.003603259,406.1549999997515,9.040516e-06,406.1549999997515,6.957143e-06
406.1699999997515,2.222846e-05,406.1699999997515,0.003629867,406.1699999997515,8.802089e-06,406.1699999997515,7.091506e-06
406.1849999997515,2.263539e-05,406.1849999997515,0.003634159,406.1849999997515,8.721702e-06,406.1849999997515,7.30096e-06
406.19999999975147,2.178487e-05,406.19999999975147,0.003458988,406.19999999975147,8.542191e-06,406.19999999975147,7.392992e-06
406.21499999975146,2.204455e-05,406.21499999975146,0.003270385,406.21499999975146,8.849969e-06,406.21499999975146,7.525189e-06
406.22999999975144,2.231764e-05,406.22999999975144,0.003067059,406.22999999975144,8.798887e-06,406.22999999975144,7.470705e-06
406.2449999997514,2.275209e-05,406.2449999997514,0.00313672,406.2449999997514,8.8754e-06,406.2449999997514,7.425313e-06
406.2599999997514,2.327119e-05,406.2599999997514,0.003165482,406.2599999997514,8.810087e-06,406.2599999997514,7.235062e-06
406.2749999997514,2.37256e-05,406.2749999997514,0.003191147,406.2749999997514,8.98895e-06,406.2749999997514,7.470705e-06
406.2899999997514,2.360953e-05,406.2899999997514,0.003066323,406.2899999997514,9.012426e-06,406.2899999997514,7.398706e-06
406.3049999997514,2.403528e-05,406.3049999997514,0.002971314,406.3049999997514,9.198077e-06,406.3049999997514,7.238955e-06
406.31999999975136,2.426452e-05,406.31999999975136,0.002993761,406.31999999975136,9.339419e-06,406.31999999975136,7.266147e-06
406.33499999975135,2.479458e-05,406.33499999975135,0.003050527,406.33499999975135,9.40555e-06,406.33499999975135,7.423416e-06
406.34999999975133,2.524444e-05,406.34999999975133,0.00318244,406.34999999975133,9.404052e-06,406.34999999975133,7.532673e-06
406.3649999997513,2.556714e-05,406.3649999997513,0.003261384,406.3649999997513,9.402554e-06,406.3649999997513,7.581139e-06
406.3799999997513,2.597165e-05,406.3799999997513,0.003343201,406.3799999997513,9.20267e-06,406.3799999997513,7.68449e-06
406.3949999997513,2.622963e-05,406.3949999997513,0.003370175,406.3949999997513,9.077836e-06,406.3949999997513,7.702799e-06
406.4099999997513,2.677551e-05,406.4099999997513,0.003493094,406.4099999997513,9.125813e-06,406.4099999997513,7.899621e-06
406.42499999975126,2.722419e-05,406.42499999975126,0.003555907,406.42499999975126,9.717876e-06,406.42499999975126,8.049767e-06
406.43999999975125,2.77845e-05,406.43999999975125,0.003634376,406.43999999975125,9.292544e-06,406.43999999975125,8.341955e-06
406.45499999975124,2.850325e-05,406.45499999975124,0.003777744,406.45499999975124,9.30012e-06,406.45499999975124,8.419275e-06
406.4699999997512,2.920239e-05,406.4699999997512,0.003939854,406.4699999997512,9.374045e-06,406.4699999997512,8.604628e-06
406.4849999997512,2.999997e-05,406.4849999997512,0.003979738,406.4849999997512,9.577708e-06,406.4849999997512,8.932356e-06
