X[s],a: EMG RMS 1-1,X[s].1,a: EMG RMS 1-2,X[s].2,a: EMG RMS 1-3,X[s].3,a: EMG RMS 1-4
302.00999999984623,1.435871e-05,302.00999999984623,0.001323514,302.00999999984623,0.0005108858,302.00999999984623,1.087269e-05
302.0249999998462,1.457682e-05,302.0249999998462,0.001398351,302.0249999998462,0.0005400121,302.0249999998462,1.165314e-05
302.0399999998462,1.461445e-05,302.0399999998462,0.001429587,302.0399999998462,0.0005907144,302.0399999998462,1.447402e-05
302.0549999998462,1.502321e-05,302.0549999998462,0.001466655,302.0549999998462,0.0006272807,302.0549999998462,1.483924e-05
302.0699999998462,1.688367e-05,302.0699999998462,0.001492014,302.0699999998462,0.0007670276,302.0699999998462,1.514834e-05
302.08499999984616,2.100933e-05,302.08499999984616,0.001499595,302.08499999984616,0.0008085381,302.08499999984616,1.521699e-05
302.09999999984615,2.09065e-05,302.09999999984615,0.001506808,302.09999999984615,0.0008543598,302.09999999984615,1.534421e-05
302.11499999984613,2.233404e-05,302.11499999984613,0.001528028,302.11499999984613,0.0008590109,302.11499999984613,1.673534e-05
302.1299999998461,2.341121e-05,302.1299999998461,0.001534408,302.1299999998461,0.0008589895,302.1299999998461,1.655933e-05
302.1449999998461,2.35468e-05,302.1449999998461,0.001567755,302.1449999998461,0.0008642831,302.1449999998461,1.711239e-05
302.1599999998461,2.47246e-05,302.1599999998461,0.001576075,302.1599999998461,0.0008696446,302.1599999998461,1.786865e-05
302.1749999998461,2.487342e-05,302.1749999998461,0.001587323,302.1749999998461,0.0008723116,302.1749999998461,1.794182e-05
302.18999999984607,2.446054e-05,302.18999999984607,0.00158393,302.18999999984607,0.0008678141,302.18999999984607,1.785209e-05
302.20499999984605,2.445593e-05,302.20499999984605,0.001556732,302.20499999984605,0.0008449848,302.20499999984605,1.783393e-05
302.21999999984604,2.437169e-05,302.21999999984604,0.001276495,302.21999999984604,0.0008050003,302.21999999984604,1.740136e-05
302.234999999846,2.452495e-05,302.234999999846,0.001160589,302.234999999846,0.0007317459,302.234999999846,1.601707e-05
302.249999999846,2.449737e-05,302.249999999846,0.001150251,302.249999999846,0.0007313225,302.249999999846,1.601268e-05
302.264999999846,2.463098e-05,302.264999999846,0.001002246,302.264999999846,0.0007314588,302.264999999846,1.579746e-05
302.279999999846,2.46687e-05,302.279999999846,0.0009223055,302.279999999846,0.0006931581,302.279999999846,1.488568e-05
302.29499999984597,2.445938e-05,302.29499999984597,0.000881198,302.29499999984597,0.0006686217,302.29499999984597,1.315771e-05
302.30999999984596,2.420523e-05,302.30999999984596,0.0007999112,302.30999999984596,0.0006408102,302.30999999984596,1.267012e-05
302.32499999984594,2.282009e-05,302.32499999984594,0.0008043417,302.32499999984594,0.0004739535,302.32499999984594,1.259429e-05
302.33999999984593,2.22968e-05,302.33999999984593,0.0008285578,302.33999999984593,0.0003924161,302.33999999984593,1.284239e-05
302.3549999998459,2.219993e-05,302.3549999998459,0.0008779633,302.3549999998459,0.0003630711,302.3549999998459,1.370518e-05
302.3699999998459,2.12679e-05,302.3699999998459,0.001006215,302.3699999998459,0.0003648061,302.3699999998459,1.458551e-05
302.3849999998459,2.126193e-05,302.3849999998459,0.001005353,302.3849999998459,0.0003636288,302.3849999998459,1.501195e-05
302.3999999998459,2.146765e-05,302.3999999998459,0.0009832352,302.3999999998459,0.0003482341,302.3999999998459,1.668391e-05
302.41499999984586,2.064136e-05,302.41499999984586,0.0009479125,302.41499999984586,0.0003257506,302.41499999984586,1.619289e-05
302.42999999984585,2.056821e-05,302.42999999984585,0.0009256838,302.42999999984585,0.0003185018,302.42999999984585,1.628311e-05
302.44499999984583,2.064068e-05,302.44499999984583,0.0009259917,302.44499999984583,0.0003153921,302.44499999984583,1.630645e-05
302.4599999998458,1.999098e-05,302.4599999998458,0.0009214378,302.4599999998458,0.0002999401,302.4599999998458,1.631767e-05
302.4749999998458,2.017196e-05,302.4749999998458,0.0008992659,302.4749999998458,0.0002920761,302.4749999998458,1.618592e-05
302.4899999998458,2.045558e-05,302.4899999998458,0.0008806172,302.4899999998458,0.0002944058,302.4899999998458,1.603553e-05
302.5049999998458,2.054423e-05,302.5049999998458,0.0008800882,302.5049999998458,0.0002964516,302.5049999998458,1.601004e-05
302.51999999984577,2.011391e-05,302.51999999984577,0.0008787559,302.51999999984577,0.0003033451,302.51999999984577,1.607852e-05
302.53499999984575,1.971925e-05,302.53499999984575,0.0008723602,302.53499999984575,0.0002989242,302.53499999984575,1.610216e-05
302.54999999984574,1.989775e-05,302.54999999984574,0.0008719544,302.54999999984574,0.0002733595,302.54999999984574,1.60329e-05
302.5649999998457,1.97071e-05,302.5649999998457,0.0008475718,302.5649999998457,0.0002516693,302.5649999998457,1.613537e-05
302.5799999998457,1.887912e-05,302.5799999998457,0.0008388992,302.5799999998457,0.000248304,302.5799999998457,1.603114e-05
302.5949999998457,1.709922e-05,302.5949999998457,0.000813661,302.5949999998457,0.0002060388,302.5949999998457,1.589967e-05
302.6099999998457,1.603992e-05,302.6099999998457,0.0006498747,302.6099999998457,0.0001544071,302.6099999998457,1.390922e-05
302.62499999984567,1.537997e-05,302.62499999984567,0.0005042621,302.62499999984567,0.000146932,302.62499999984567,1.234919e-05
302.63999999984566,1.356778e-05,302.63999999984566,0.0004811705,302.63999999984566,0.0001459744,302.63999999984566,1.066338e-05
302.65499999984564,1.2884e-05,302.65499999984564,0.000466939,302.65499999984564,0.0001454861,302.65499999984564,7.693649e-06
302.66999999984563,1.21282e-05,302.66999999984563,0.0004637772,302.66999999984563,0.0001437561,302.66999999984563,7.320229e-06
302.6849999998456,1.191493e-05,302.6849999998456,0.0004660131,302.6849999998456,0.0001429616,302.6849999998456,6.877724e-06
302.6999999998456,1.191611e-05,302.6999999998456,0.0005151262,302.6999999998456,0.000142974,302.6999999998456,7.656943e-06
302.7149999998456,1.460674e-05,302.7149999998456,0.000626318,302.7149999998456,0.0001351517,302.7149999998456,8.632413e-06
302.7299999998456,1.410433e-05,302.7299999998456,0.0006841913,302.7299999998456,0.0001222633,302.7299999998456,8.857925e-06
302.74499999984556,1.305453e-05,302.74499999984556,0.0007361808,302.74499999984556,0.0001223959,302.74499999984556,8.998348e-06
302.75999999984555,2.263166e-05,302.75999999984555,0.001245479,302.75999999984555,0.0001177614,302.75999999984555,1.096558e-05
302.77499999984553,2.83213e-05,302.77499999984553,0.001760013,302.77499999984553,9.421397e-05,302.77499999984553,1.522255e-05
302.7899999998455,2.985311e-05,302.7899999998455,0.001908094,302.7899999998455,0.0001067294,302.7899999998455,1.606011e-05
302.8049999998455,3.344541e-05,302.8049999998455,0.00225922,302.8049999998455,0.0001282748,302.8049999998455,2.057437e-05
302.8199999998455,3.350474e-05,302.8199999998455,0.002308349,302.8199999998455,0.0001288796,302.8199999998455,2.128445e-05
302.8349999998455,3.348456e-05,302.8349999998455,0.002320375,302.8349999998455,0.0001324461,302.8349999998455,2.240897e-05
302.84999999984547,3.370553e-05,302.84999999984547,0.002338004,302.84999999984547,0.0001392698,302.84999999984547,2.291926e-05
302.86499999984545,3.382402e-05,302.86499999984545,0.002341717,302.86499999984545,0.0001411295,302.86499999984545,2.297512e-05
302.87999999984544,3.442097e-05,302.87999999984544,0.002351771,302.87999999984544,0.0001416269,302.87999999984544,2.375941e-05
302.8949999998454,3.452639e-05,302.8949999998454,0.002344105,302.8949999998454,0.0001417696,302.8949999998454,2.397778e-05
302.9099999998454,3.453904e-05,302.9099999998454,0.002338982,302.9099999998454,0.000142786,302.9099999998454,2.395956e-05
302.9249999998454,3.473668e-05,302.9249999998454,0.002343226,302.9249999998454,0.0001430174,302.9249999998454,2.405579e-05
302.9399999998454,3.479463e-05,302.9399999998454,0.002344635,302.9399999998454,0.0001415596,302.9399999998454,2.416621e-05
302.95499999984537,3.447126e-05,302.95499999984537,0.00231792,302.95499999984537,0.0001428619,302.95499999984537,2.372975e-05
302.96999999984536,3.343151e-05,302.96999999984536,0.002309454,302.96999999984536,0.0001443884,302.96999999984536,2.358685e-05
302.98499999984534,3.324093e-05,302.98499999984534,0.00229418,302.98499999984534,0.0001366306,302.98499999984534,2.351627e-05
302.99999999984533,3.358705e-05,302.99999999984533,0.00227249,302.99999999984533,0.0001307562,302.99999999984533,2.336483e-05
303.0149999998453,2.568258e-05,303.0149999998453,0.001903104,303.0149999998453,0.0001250354,303.0149999998453,2.158609e-05
303.0299999998453,2.286264e-05,303.0299999998453,0.001482965,303.0299999998453,0.00012295,303.0299999998453,1.950954e-05
303.0449999998453,1.973068e-05,303.0449999998453,0.001323253,303.0449999998453,0.0001045969,303.0449999998453,1.739245e-05
303.0599999998453,1.634614e-05,303.0599999998453,0.0007613933,303.0599999998453,0.0001031369,303.0599999998453,1.419195e-05
303.07499999984526,1.664841e-05,303.07499999984526,0.0007532057,303.07499999984526,0.0001423387,303.07499999984526,1.24729e-05
303.08999999984525,1.756492e-05,303.08999999984525,0.0007181939,303.08999999984525,0.0001564772,303.08999999984525,1.09553e-05
303.10499999984523,1.779044e-05,303.10499999984523,0.0006495739,303.10499999984523,0.0001555211,303.10499999984523,9.774246e-06
303.1199999998452,1.866752e-05,303.1199999998452,0.0006418919,303.1199999998452,0.0001772326,303.1199999998452,9.633435e-06
303.1349999998452,1.953696e-05,303.1349999998452,0.0008506784,303.1349999998452,0.0002012351,303.1349999998452,8.284342e-06
303.1499999998452,2.113434e-05,303.1499999998452,0.0008708556,303.1499999998452,0.0002037609,303.1499999998452,9.101082e-06
303.1649999998452,2.243913e-05,303.1649999998452,0.001336482,303.1649999998452,0.0002037382,303.1649999998452,9.96691e-06
303.17999999984517,2.31218e-05,303.17999999984517,0.001632196,303.17999999984517,0.0002102226,303.17999999984517,1.060908e-05
303.19499999984515,2.31151e-05,303.19499999984515,0.001653684,303.19499999984515,0.0002103251,303.19499999984515,1.140264e-05
303.20999999984514,2.332984e-05,303.20999999984514,0.001674044,303.20999999984514,0.000216032,303.20999999984514,1.170621e-05
303.2249999998451,2.388419e-05,303.2249999998451,0.001680009,303.2249999998451,0.0002221921,303.2249999998451,1.20548e-05
303.2399999998451,2.55048e-05,303.2399999998451,0.001686866,303.2399999998451,0.0002224549,303.2399999998451,1.200797e-05
303.2549999998451,2.638065e-05,303.2549999998451,0.001700436,303.2549999998451,0.0002223408,303.2549999998451,1.20968e-05
303.2699999998451,2.646169e-05,303.2699999998451,0.001707394,303.2699999998451,0.0002234914,303.2699999998451,1.220692e-05
303.28499999984507,2.632666e-05,303.28499999984507,0.001694097,303.28499999984507,0.0002233816,303.28499999984507,1.228285e-05
303.29999999984506,2.596297e-05,303.29999999984506,0.001685764,303.29999999984506,0.0002232369,303.29999999984506,1.226563e-05
303.31499999984504,2.525838e-05,303.31499999984504,0.001684602,303.31499999984504,0.000211104,303.31499999984504,1.21572e-05
303.32999999984503,2.47599e-05,303.32999999984503,0.00167218,303.32999999984503,0.0001837535,303.32999999984503,1.199388e-05
303.344999999845,2.444901e-05,303.344999999845,0.001665301,303.344999999845,0.0001745313,303.344999999845,1.19173e-05
303.359999999845,2.491021e-05,303.359999999845,0.001665972,303.359999999845,0.0001719359,303.359999999845,1.182355e-05
303.374999999845,2.583679e-05,303.374999999845,0.001627827,303.374999999845,0.000146989,303.374999999845,1.310085e-05
303.389999999845,2.512194e-05,303.389999999845,0.001525203,303.389999999845,0.0001231442,303.389999999845,1.321753e-05
303.40499999984496,2.536412e-05,303.40499999984496,0.001507036,303.40499999984496,0.0001215815,303.40499999984496,1.311267e-05
303.41999999984495,2.617103e-05,303.41999999984495,0.0009369879,303.41999999984495,0.0001144983,303.41999999984495,1.280944e-05
303.43499999984493,2.639453e-05,303.43499999984493,0.0006732579,303.43499999984493,9.939255e-05,303.43499999984493,1.253599e-05
303.4499999998449,2.690462e-05,303.4499999998449,0.0006767945,303.4499999998449,0.0001103593,303.4499999998449,1.192557e-05
303.4649999998449,2.664683e-05,303.4649999998449,0.0006995934,303.4649999998449,9.752475e-05,303.4649999998449,1.214909e-05
303.4799999998449,2.817568e-05,303.4799999998449,0.00068648,303.4799999998449,8.890704e-05,303.4799999998449,1.203024e-05
303.4949999998449,2.677235e-05,303.4949999998449,0.0007052055,303.4949999998449,8.462199e-05,303.4949999998449,1.208515e-05
303.50999999984487,2.643825e-05,303.50999999984487,0.0006916625,303.50999999984487,8.449522e-05,303.50999999984487,1.224034e-05
303.52499999984485,2.668961e-05,303.52499999984485,0.0007432325,303.52499999984485,8.873956e-05,303.52499999984485,1.220923e-05
303.53999999984484,2.69846e-05,303.53999999984484,0.0007833209,303.53999999984484,8.780906e-05,303.53999999984484,1.215604e-05
303.5549999998448,2.722316e-05,303.5549999998448,0.0007908556,303.5549999998448,8.80868e-05,303.5549999998448,1.230462e-05
303.5699999998448,2.726814e-05,303.5699999998448,0.0008386494,303.5699999998448,8.479111e-05,303.5699999998448,1.25562e-05
303.5849999998448,2.98616e-05,303.5849999998448,0.0009154006,303.5849999998448,8.527039e-05,303.5849999998448,1.278742e-05
303.5999999998448,3.033199e-05,303.5999999998448,0.001003216,303.5999999998448,8.663753e-05,303.5999999998448,1.281933e-05
303.61499999984477,2.936546e-05,303.61499999984477,0.00100345,303.61499999984477,9.466459e-05,303.61499999984477,1.230691e-05
303.62999999984476,2.753086e-05,303.62999999984476,0.001060195,303.62999999984476,0.0001085131,303.62999999984476,1.096301e-05
303.64499999984474,2.719209e-05,303.64499999984474,0.001099571,303.64499999984474,0.0001087277,303.64499999984474,1.084935e-05
303.65999999984473,2.511969e-05,303.65999999984473,0.001085417,303.65999999984473,0.0001092225,303.65999999984473,9.890295e-06
303.6749999998447,2.429817e-05,303.6749999998447,0.001081649,303.6749999998447,0.0001152213,303.6749999998447,9.595341e-06
303.6899999998447,2.394015e-05,303.6899999998447,0.001075862,303.6899999998447,0.000131099,303.6899999998447,9.442919e-06
303.7049999998447,2.34689e-05,303.7049999998447,0.001005524,303.7049999998447,0.0001244145,303.7049999998447,8.744285e-06
303.7199999998447,2.175704e-05,303.7199999998447,0.001000353,303.7199999998447,0.0001299902,303.7199999998447,8.723317e-06
303.73499999984466,2.094352e-05,303.73499999984466,0.0009941036,303.73499999984466,0.000137949,303.73499999984466,8.350395e-06
303.74999999984465,2.117364e-05,303.74999999984465,0.0009811833,303.74999999984465,0.0001384437,303.74999999984465,8.865873e-06
303.76499999984463,2.151288e-05,303.76499999984463,0.0009773955,303.76499999984463,0.0001381054,303.76499999984463,8.741063e-06
303.7799999998446,2.07957e-05,303.7799999998446,0.0009368938,303.7799999998446,0.0001359368,303.7799999998446,8.699061e-06
303.7949999998446,2.104819e-05,303.7949999998446,0.0009203016,303.7949999998446,0.0001501363,303.7949999998446,8.571823e-06
303.8099999998446,2.196774e-05,303.8099999998446,0.0009210836,303.8099999998446,0.0002522024,303.8099999998446,9.33791e-06
303.8249999998446,2.376771e-05,303.8249999998446,0.0009602547,303.8249999998446,0.000289504,303.8249999998446,1.165072e-05
303.83999999984457,2.134789e-05,303.83999999984457,0.0008287394,303.83999999984457,0.0003336587,303.83999999984457,1.1705e-05
303.85499999984455,2.351867e-05,303.85499999984455,0.0008298224,303.85499999984455,0.0004232935,303.85499999984455,1.313092e-05
303.86999999984454,2.494129e-05,303.86999999984454,0.0008701734,303.86999999984454,0.0004391923,303.86999999984454,1.474114e-05
303.8849999998445,2.449851e-05,303.8849999998445,0.0007648329,303.8849999998445,0.0004396442,303.8849999998445,1.502227e-05
303.8999999998445,2.456398e-05,303.8999999998445,0.0007444315,303.8999999998445,0.0004447153,303.8999999998445,1.505225e-05
303.9149999998445,2.549486e-05,303.9149999998445,0.0007714148,303.9149999998445,0.0004495345,303.9149999998445,1.516135e-05
303.9299999998445,2.57844e-05,303.9299999998445,0.0007797225,303.9299999998445,0.0004511289,303.9299999998445,1.518178e-05
303.94499999984447,2.590322e-05,303.94499999984447,0.0008064323,303.94499999984447,0.0004483088,303.94499999984447,1.522625e-05
303.95999999984446,2.598575e-05,303.95999999984446,0.0008108768,303.95999999984446,0.0004482138,303.95999999984446,1.527428e-05
303.97499999984444,2.623017e-05,303.97499999984444,0.0008097233,303.97499999984444,0.0004460796,303.97499999984444,1.545398e-05
303.98999999984443,2.589343e-05,303.98999999984443,0.0008050752,303.98999999984443,0.0004444242,303.98999999984443,1.567122e-05
304.0049999998444,2.660027e-05,304.0049999998444,0.0007794119,304.0049999998444,0.0004461157,304.0049999998444,1.562441e-05
304.0199999998444,2.655203e-05,304.0199999998444,0.0007960363,304.0199999998444,0.0004463539,304.0199999998444,1.563613e-05
304.0349999998444,2.692712e-05,304.0349999998444,0.0008730816,304.0349999998444,0.0004506466,304.0349999998444,1.797555e-05
304.0499999998444,2.67834e-05,304.0499999998444,0.0009642396,304.0499999998444,0.0004278717,304.0499999998444,2.018732e-05
304.06499999984436,2.523551e-05,304.06499999984436,0.0009324414,304.06499999984436,0.0003969687,304.06499999984436,1.97371e-05
304.07999999984435,2.299902e-05,304.07999999984435,0.0008784651,304.07999999984435,0.0003594084,304.07999999984435,1.893947e-05
304.09499999984433,2.187907e-05,304.09499999984433,0.000872097,304.09499999984433,0.000306686,304.09499999984433,1.877362e-05
304.1099999998443,1.955065e-05,304.1099999998443,0.0007980866,304.1099999998443,0.0002023312,304.1099999998443,1.771903e-05
304.1249999998443,1.872855e-05,304.1249999998443,0.0007768885,304.1249999998443,0.0001740797,304.1249999998443,1.695776e-05
304.1399999998443,1.872102e-05,304.1399999998443,0.0007745825,304.1399999998443,0.0001706963,304.1399999998443,1.703897e-05
304.1549999998443,1.850305e-05,304.1549999998443,0.0007892872,304.1549999998443,0.0001697615,304.1549999998443,1.710663e-05
304.16999999984426,1.719206e-05,304.16999999984426,0.000780377,304.16999999984426,0.0001617247,304.16999999984426,1.709592e-05
304.18499999984425,1.793397e-05,304.18499999984425,0.0007944906,304.18499999984425,0.0001546763,304.18499999984425,1.716089e-05
304.19999999984424,1.720762e-05,304.19999999984424,0.0007917837,304.19999999984424,0.0001547527,304.19999999984424,1.711404e-05
304.2149999998442,1.659332e-05,304.2149999998442,0.0007892528,304.2149999998442,0.0001555789,304.2149999998442,1.703814e-05
304.2299999998442,1.689701e-05,304.2299999998442,0.0007921272,304.2299999998442,0.0001552391,304.2299999998442,1.665602e-05
304.2449999998442,1.65065e-05,304.2449999998442,0.0007971694,304.2449999998442,0.0001523003,304.2449999998442,1.609778e-05
304.2599999998442,1.41691e-05,304.2599999998442,0.0007866435,304.2599999998442,0.0001430692,304.2599999998442,1.58233e-05
304.27499999984417,1.369181e-05,304.27499999984417,0.0007641914,304.27499999984417,0.0001419116,304.27499999984417,1.563162e-05
304.28999999984416,1.304157e-05,304.28999999984416,0.0005982645,304.28999999984416,0.0001281104,304.28999999984416,1.144456e-05
304.30499999984414,1.487243e-05,304.30499999984414,0.0005358996,304.30499999984414,0.0001150643,304.30499999984414,8.905506e-06
304.31999999984413,1.481359e-05,304.31999999984413,0.0005289451,304.31999999984413,0.000118039,304.31999999984413,7.899621e-06
304.3349999998441,1.5717e-05,304.3349999998441,0.0005079705,304.3349999998441,0.0001140293,304.3349999998441,7.103415e-06
304.3499999998441,1.56208e-05,304.3499999998441,0.0004896915,304.3499999998441,0.0001048586,304.3499999998441,7.170523e-06
304.3649999998441,1.613449e-05,304.3649999998441,0.0004969943,304.3649999998441,0.0001030034,304.3649999998441,7.36818e-06
304.3799999998441,1.70009e-05,304.3799999998441,0.0005002263,304.3799999998441,0.0001215065,304.3799999998441,7.545752e-06
304.39499999984406,1.786787e-05,304.39499999984406,0.0005187306,304.39499999984406,0.0001614825,304.39499999984406,7.553216e-06
304.40999999984405,1.831634e-05,304.40999999984405,0.0005079019,304.40999999984405,0.0001798261,304.40999999984405,7.031661e-06
304.42499999984403,1.865242e-05,304.42499999984403,0.0005718489,304.42499999984403,0.0001916877,304.42499999984403,7.92099e-06
304.439999999844,1.812383e-05,304.439999999844,0.0006962257,304.439999999844,0.0002376281,304.439999999844,7.924546e-06
304.454999999844,2.035756e-05,304.454999999844,0.0007462865,304.454999999844,0.0002408947,304.454999999844,1.111867e-05
304.469999999844,2.168116e-05,304.469999999844,0.0008213567,304.469999999844,0.0002535144,304.469999999844,1.254947e-05
304.484999999844,2.154429e-05,304.484999999844,0.0009961368,304.484999999844,0.0003158344,304.484999999844,1.388895e-05
304.49999999984396,2.170648e-05,304.49999999984396,0.001011178,304.49999999984396,0.0003657683,304.49999999984396,1.427903e-05
304.51499999984395,2.78751e-05,304.51499999984395,0.001046359,304.51499999984395,0.0004037113,304.51499999984395,1.615456e-05
304.52999999984394,2.850325e-05,304.52999999984394,0.00107782,304.52999999984394,0.0004139776,304.52999999984394,1.654656e-05
304.5449999998439,2.922554e-05,304.5449999998439,0.001092687,304.5449999998439,0.0004298217,304.5449999998439,1.692117e-05
304.5599999998439,3.032595e-05,304.5599999998439,0.001092419,304.5599999998439,0.0004517483,304.5599999998439,1.697353e-05
304.5749999998439,3.021333e-05,304.5749999998439,0.001093606,304.5749999998439,0.0004554612,304.5749999998439,1.699758e-05
304.5899999998439,2.998165e-05,304.5899999998439,0.001100714,304.5899999998439,0.0004643542,304.5899999998439,1.681846e-05
304.60499999984387,3.016433e-05,304.60499999984387,0.001105075,304.60499999984387,0.0004643468,304.60499999984387,1.67286e-05
304.61999999984386,2.973065e-05,304.61999999984386,0.001105331,304.61999999984386,0.0004657139,304.61999999984386,1.671175e-05
304.63499999984384,2.900054e-05,304.63499999984384,0.001107945,304.63499999984384,0.0004598618,304.63499999984384,1.668475e-05
304.6499999998438,2.890956e-05,304.6499999998438,0.001085995,304.6499999998438,0.000447333,304.6499999998438,1.657633e-05
304.6649999998438,2.841961e-05,304.6649999998438,0.001064605,304.6649999998438,0.0004385042,304.6649999998438,1.663656e-05
304.6799999998438,2.821565e-05,304.6799999998438,0.001010147,304.6799999998438,0.0004281521,304.6799999998438,1.633493e-05
304.6949999998438,2.782351e-05,304.6949999998438,0.0008848672,304.6949999998438,0.0004126133,304.6949999998438,1.597657e-05
304.7099999998438,2.574667e-05,304.7099999998438,0.0008321687,304.7099999998438,0.0004126874,304.7099999998438,1.303617e-05
304.72499999984376,2.542514e-05,304.72499999984376,0.0006864615,304.72499999984376,0.0003929218,304.72499999984376,1.268456e-05
304.73999999984375,2.562327e-05,304.73999999984375,0.000575689,304.73999999984375,0.0003205173,304.73999999984375,1.176023e-05
304.75499999984373,2.464813e-05,304.75499999984373,0.0005502529,304.75499999984373,0.0003038561,304.75499999984373,1.136675e-05
304.7699999998437,1.807947e-05,304.7699999998437,0.0004819241,304.7699999998437,0.0002438705,304.7699999998437,8.58824e-06
304.7849999998437,1.791117e-05,304.7849999998437,0.0004525477,304.7849999998437,0.0002388224,304.7849999998437,7.764728e-06
304.7999999998437,1.69644e-05,304.7999999998437,0.0005545519,304.7999999998437,0.0001804229,304.7999999998437,7.689987e-06
304.8149999998437,1.460192e-05,304.8149999998437,0.0005654829,304.8149999998437,0.000161172,304.8149999998437,7.781039e-06
304.82999999984366,1.810439e-05,304.82999999984366,0.0005782556,304.82999999984366,0.0001529596,304.82999999984366,8.948112e-06
304.84499999984365,1.952542e-05,304.84499999984365,0.0005934361,304.84499999984365,0.0001396953,304.84499999984365,9.480139e-06
304.85999999984364,2.325787e-05,304.85999999984364,0.0007958848,304.85999999984364,0.0001621438,304.85999999984364,1.348551e-05
304.8749999998436,2.381508e-05,304.8749999998436,0.000928827,304.8749999998436,0.000165402,304.8749999998436,1.61144e-05
304.8899999998436,2.490738e-05,304.8899999998436,0.0009295388,304.8899999998436,0.0001688254,304.8899999998436,1.635045e-05
304.9049999998436,2.567051e-05,304.9049999998436,0.0009483983,304.9049999998436,0.0001846526,304.9049999998436,1.767605e-05
304.9199999998436,2.556273e-05,304.9199999998436,0.0009399279,304.9199999998436,0.000199728,304.9199999998436,1.757615e-05
304.93499999984357,2.572313e-05,304.93499999984357,0.0009425083,304.93499999984357,0.0002073283,304.93499999984357,1.765452e-05
304.94999999984356,2.562052e-05,304.94999999984356,0.0009418286,304.94999999984356,0.0002068555,304.94999999984356,1.768561e-05
304.96499999984354,2.561723e-05,304.96499999984354,0.0009447968,304.96499999984354,0.000212269,304.96499999984354,1.757775e-05
304.9799999998435,2.575488e-05,304.9799999998435,0.0009430961,304.9799999998435,0.0002255949,304.9799999998435,1.776746e-05
304.9949999998435,2.594886e-05,304.9949999998435,0.0009410305,304.9949999998435,0.0002384917,304.9949999998435,1.797163e-05
305.0099999998435,2.572752e-05,305.0099999998435,0.0009416332,305.0099999998435,0.0002371341,305.0099999998435,1.809816e-05
305.0249999998435,2.591736e-05,305.0249999998435,0.0009703973,305.0249999998435,0.0002415073,305.0249999998435,1.877812e-05
305.0399999998435,2.611014e-05,305.0399999998435,0.0009139086,305.0399999998435,0.0002423044,305.0399999998435,1.882308e-05
305.05499999984346,2.526508e-05,305.05499999984346,0.0009027288,305.05499999984346,0.00023507,305.05499999984346,1.896028e-05
305.06999999984345,2.467384e-05,305.06999999984345,0.0009206395,305.06999999984345,0.0002319643,305.06999999984345,1.876987e-05
305.08499999984343,2.155213e-05,305.08499999984343,0.0008823626,305.08499999984343,0.0002211735,305.08499999984343,1.807324e-05
305.0999999998434,1.971496e-05,305.0999999998434,0.0008589495,305.0999999998434,0.0002140261,305.0999999998434,1.762497e-05
305.1149999998434,1.556751e-05,305.1149999998434,0.0006307065,305.1149999998434,0.0001926694,305.1149999998434,1.388693e-05
305.1299999998434,1.466641e-05,305.1299999998434,0.0005337949,305.1299999998434,0.000188406,305.1299999998434,1.225874e-05
305.1449999998434,1.266789e-05,305.1449999998434,0.000519369,305.1449999998434,0.0001829064,305.1449999998434,1.16616e-05
305.15999999984336,1.179969e-05,305.15999999984336,0.0004893356,305.15999999984336,0.0001660859,305.15999999984336,9.938602e-06
305.17499999984335,1.168211e-05,305.17499999984335,0.0005036695,305.17499999984335,0.0001463145,305.17499999984335,1.000359e-05
305.18999999984334,1.284458e-05,305.18999999984334,0.0005087879,305.18999999984334,0.0001364505,305.18999999984334,1.020573e-05
305.2049999998433,1.334481e-05,305.2049999998433,0.000503612,305.2049999998433,0.000137123,305.2049999998433,1.009191e-05
305.2199999998433,1.471149e-05,305.2199999998433,0.0005200724,305.2199999998433,0.0001293425,305.2199999998433,9.965496e-06
305.2349999998433,1.41203e-05,305.2349999998433,0.0005807527,305.2349999998433,9.865467e-05,305.2349999998433,9.275854e-06
305.2499999998433,1.347715e-05,305.2499999998433,0.0006255856,305.2499999998433,6.809116e-05,305.2499999998433,8.813284e-06
305.26499999984327,1.539279e-05,305.26499999984327,0.0006276646,305.26499999984327,6.807585e-05,305.26499999984327,1.070952e-05
305.27999999984326,1.710169e-05,305.27999999984326,0.0006084992,305.27999999984326,6.178129e-05,305.27999999984326,1.224379e-05
305.29499999984324,1.799043e-05,305.29499999984324,0.0007063125,305.29499999984324,7.137561e-05,305.29499999984324,1.305669e-05
305.3099999998432,1.839615e-05,305.3099999998432,0.000669866,305.3099999998432,8.26069e-05,305.3099999998432,1.377285e-05
305.3249999998432,1.849239e-05,305.3249999998432,0.0006750924,305.3249999998432,9.081792e-05,305.3249999998432,1.381676e-05
305.3399999998432,1.917526e-05,305.3399999998432,0.0007027945,305.3399999998432,0.0001052258,305.3399999998432,1.409834e-05
305.3549999998432,2.062498e-05,305.3549999998432,0.0007663061,305.3549999998432,0.0001094084,305.3549999998432,1.497719e-05
305.3699999998432,2.076248e-05,305.3699999998432,0.0007682961,305.3699999998432,0.0001118957,305.3699999998432,1.499317e-05
305.38499999984316,2.145058e-05,305.38499999984316,0.0007771603,305.38499999984316,0.0001252593,305.38499999984316,1.509524e-05
305.39999999984315,2.195299e-05,305.39999999984315,0.0007785443,305.39999999984315,0.0001298195,305.39999999984315,1.512134e-05
305.41499999984313,2.360476e-05,305.41499999984313,0.0009068228,305.41499999984313,0.0001554598,305.41499999984313,1.657888e-05
305.4299999998431,2.77774e-05,305.4299999998431,0.001199162,305.4299999998431,0.00024992,305.4299999998431,2.041491e-05
305.4449999998431,3.351021e-05,305.4449999998431,0.001693726,305.4449999998431,0.0003041772,305.4449999998431,3.082948e-05
305.4599999998431,4.297924e-05,305.4599999998431,0.001893892,305.4599999998431,0.0003237143,305.4599999998431,3.371807e-05
305.4749999998431,4.793235e-05,305.4749999998431,0.002141471,305.4749999998431,0.0003697323,305.4749999998431,3.860459e-05
305.48999999984306,4.815606e-05,305.48999999984306,0.002146865,305.48999999984306,0.0003829917,305.48999999984306,3.929931e-05
305.50499999984305,4.835486e-05,305.50499999984305,0.002142381,305.50499999984305,0.0003844814,305.50499999984305,3.930003e-05
305.51999999984304,4.744614e-05,305.51999999984304,0.002141678,305.51999999984304,0.0003836176,305.51999999984304,3.81738e-05
305.534999999843,4.765529e-05,305.534999999843,0.002189374,305.534999999843,0.000385105,305.534999999843,3.829097e-05
305.549999999843,4.816893e-05,305.549999999843,0.002325061,305.549999999843,0.0003903956,305.549999999843,4.035998e-05
305.564999999843,4.822476e-05,305.564999999843,0.002371721,305.564999999843,0.000390543,305.564999999843,4.080221e-05
305.579999999843,4.834116e-05,305.579999999843,0.002386226,305.579999999843,0.000388752,305.579999999843,4.086396e-05
305.59499999984297,4.858098e-05,305.59499999984297,0.002430309,305.59499999984297,0.000385403,305.59499999984297,4.141695e-05
305.60999999984296,4.835049e-05,305.60999999984296,0.002434119,305.60999999984296,0.0003893668,305.60999999984296,4.178401e-05
305.62499999984294,4.844654e-05,305.62499999984294,0.002484127,305.62499999984294,0.0004401493,305.62499999984294,4.209805e-05
305.6399999998429,4.819115e-05,305.6399999998429,0.002524153,305.6399999998429,0.0005057968,305.6399999998429,4.262611e-05
305.6549999998429,4.824199e-05,305.6549999998429,0.002522695,305.6549999998429,0.001069193,305.6549999998429,4.265419e-05
305.6699999998429,4.752357e-05,305.6699999998429,0.002522729,305.6699999998429,0.001427425,305.6699999998429,4.235026e-05
305.6849999998429,4.141389e-05,305.6849999998429,0.002336774,305.6849999998429,0.001663499,305.6849999998429,3.914884e-05
305.6999999998429,3.869462e-05,305.6999999998429,0.002085452,305.6999999998429,0.001926425,305.6999999998429,3.344077e-05
305.71499999984286,2.517683e-05,305.71499999984286,0.001882368,305.71499999984286,0.001941626,305.71499999984286,2.986773e-05
305.72999999984285,2.092872e-05,305.72999999984285,0.001706978,305.72999999984285,0.001954355,305.72999999984285,2.558201e-05
305.74499999984283,2.012582e-05,305.74499999984283,0.001682567,305.74499999984283,0.001975075,305.74499999984283,2.517683e-05
305.7599999998428,2.030768e-05,305.7599999998428,0.001639021,305.7599999998428,0.001982074,305.7599999998428,2.480764e-05
305.7749999998428,2.000929e-05,305.7749999998428,0.001636522,305.7749999998428,0.001982599,305.7749999998428,2.482524e-05
305.7899999998428,1.814791e-05,305.7899999998428,0.001527572,305.7899999998428,0.001982342,305.7899999998428,2.304247e-05
305.8049999998428,1.712638e-05,305.8049999998428,0.001348597,305.8049999998428,0.001981624,305.8049999998428,2.011742e-05
305.81999999984276,1.712474e-05,305.81999999984276,0.001316232,305.81999999984276,0.001981328,305.81999999984276,1.95888e-05
305.83499999984275,1.673113e-05,305.83499999984275,0.00125773,305.83499999984275,0.00198212,305.83499999984275,1.945966e-05
305.84999999984274,1.530376e-05,305.84999999984274,0.001193378,305.84999999984274,0.00198203,305.84999999984274,1.787732e-05
305.8649999998427,1.488095e-05,305.8649999998427,0.001176058,305.8649999998427,0.001979962,305.8649999998427,1.767445e-05
305.8799999998427,1.406332e-05,305.8799999998427,0.001027675,305.8799999998427,0.00195707,305.8799999998427,1.622938e-05
305.8949999998427,1.410233e-05,305.8949999998427,0.0009646433,305.8949999998427,0.001932431,305.8949999998427,1.530468e-05
305.9099999998427,1.378205e-05,305.9099999998427,0.0009542613,305.9099999998427,0.001522882,305.9099999998427,1.518734e-05
305.92499999984267,1.418996e-05,305.92499999984267,0.0007500714,305.92499999984267,0.001341605,305.92499999984267,1.264452e-05
305.93999999984266,1.41203e-05,305.93999999984266,0.0006343304,305.93999999984266,0.0008799295,305.93999999984266,1.049561e-05
305.95499999984264,1.441941e-05,305.95499999984264,0.0006125557,305.95499999984264,0.0004148663,305.95499999984264,1.028137e-05
305.9699999998426,1.426719e-05,305.9699999998426,0.0005626226,305.9699999998426,0.000380124,305.9699999998426,9.580649e-06
305.9849999998426,1.362684e-05,305.9849999998426,0.0005614619,305.9849999998426,0.0002944831,305.9849999998426,9.587998e-06
305.9999999998426,1.346565e-05,305.9999999998426,0.0005553949,305.9999999998426,0.0001759958,305.9999999998426,9.489051e-06
306.0149999998426,1.360718e-05,306.0149999998426,0.0005376735,306.0149999998426,0.0001240654,306.0149999998426,9.433964e-06
306.0299999998426,1.322392e-05,306.0299999998426,0.000531572,306.0299999998426,0.0001676045,306.0299999998426,9.375548e-06
306.04499999984256,1.284897e-05,306.04499999984256,0.0005294794,306.04499999984256,0.0004499618,306.04499999984256,9.390561e-06
306.05999999984255,1.210145e-05,306.05999999984255,0.0004686019,306.05999999984255,0.0005806722,306.05999999984255,8.395818e-06
306.07499999984253,1.196448e-05,306.07499999984253,0.0004672595,306.07499999984253,0.001202175,306.07499999984253,8.465993e-06
306.0899999998425,1.108441e-05,306.0899999998425,0.000432549,306.0899999998425,0.001686219,306.0899999998425,8.553727e-06
306.1049999998425,1.083245e-05,306.1049999998425,0.0003676839,306.1049999998425,0.001723085,306.1049999998425,7.275834e-06
306.1199999998425,1.07476e-05,306.1199999998425,0.0003856545,306.1199999998425,0.00189267,306.1199999998425,7.184261e-06
306.1349999998425,1.236401e-05,306.1349999998425,0.0006790214,306.1349999998425,0.002148695,306.1349999998425,8.8754e-06
306.14999999984246,1.284239e-05,306.14999999984246,0.0007876916,306.14999999984246,0.002266879,306.14999999984246,9.92016e-06
306.16499999984245,1.213168e-05,306.16499999984245,0.0008013534,306.16499999984245,0.002278271,306.16499999984245,9.959841e-06
306.17999999984244,1.322179e-05,306.17999999984244,0.0009372204,306.17999999984244,0.002359792,306.17999999984244,1.05184e-05
306.1949999998424,1.42108e-05,306.1949999998424,0.0009953306,306.1949999998424,0.002429974,306.1949999998424,1.085194e-05
306.2099999998424,1.404528e-05,306.2099999998424,0.0009992276,306.2099999998424,0.002447082,306.2099999998424,1.102324e-05
306.2249999998424,1.61406e-05,306.2249999998424,0.001047327,306.2249999998424,0.002448956,306.2249999998424,1.134318e-05
306.2399999998424,1.659162e-05,306.2399999998424,0.001058526,306.2399999998424,0.002464266,306.2399999998424,1.150349e-05
306.25499999984237,1.689784e-05,306.25499999984237,0.001061592,306.25499999984237,0.002477557,306.25499999984237,1.152551e-05
306.26999999984236,1.694945e-05,306.26999999984236,0.001063135,306.26999999984236,0.002481762,306.26999999984236,1.150349e-05
306.28499999984234,1.983748e-05,306.28499999984234,0.001065794,306.28499999984234,0.002477435,306.28499999984234,1.16483e-05
306.2999999998423,2.744322e-05,306.2999999998423,0.001087307,306.2999999998423,0.002427915,306.2999999998423,1.212704e-05
306.3149999998423,2.885689e-05,306.3149999998423,0.001105921,306.3149999998423,0.002390361,306.3149999998423,1.263895e-05
306.3299999998423,3.879569e-05,306.3299999998423,0.001097712,306.3299999998423,0.002030897,306.3299999998423,1.232521e-05
306.3449999998423,5.638186e-05,306.3449999998423,0.001096173,306.3449999998423,0.001721265,306.3449999998423,1.211774e-05
306.3599999998423,5.769474e-05,306.3599999998423,0.001097357,306.3599999998423,0.001723706,306.3599999998423,1.222652e-05
306.37499999984226,6.126452e-05,306.37499999984226,0.001066036,306.37499999984226,0.001544597,306.37499999984226,1.175544e-05
306.38999999984225,6.26959e-05,306.38999999984225,0.000879685,306.38999999984225,0.00119928,306.38999999984225,1.029232e-05
306.40499999984223,6.271186e-05,306.40499999984223,0.0009061938,306.40499999984223,0.001035825,306.40499999984223,1.15974e-05
306.4199999998422,6.266399e-05,306.4199999998422,0.0009076845,306.4199999998422,0.001003259,306.4199999998422,1.229546e-05
306.4349999998422,6.226799e-05,306.4349999998422,0.0007645636,306.4349999998422,0.0008044387,306.4349999998422,1.194209e-05
306.4499999998422,6.211647e-05,306.4499999998422,0.0007164104,306.4499999998422,0.0006278065,306.4499999998422,1.189482e-05
306.4649999998422,6.196865e-05,306.4649999998422,0.0007230318,306.4649999998422,0.0005769593,306.4649999998422,1.206765e-05
306.47999999984216,6.134516e-05,306.47999999984216,0.0006584052,306.47999999984216,0.000567015,306.47999999984216,1.17722e-05
306.49499999984215,6.134356e-05,306.49499999984215,0.0006544537,306.49499999984215,0.0005067478,306.49499999984215,1.172424e-05
306.50999999984214,6.130956e-05,306.50999999984214,0.0006574022,306.50999999984214,0.0004613879,306.50999999984214,1.187822e-05
306.5249999998421,6.106599e-05,306.5249999998421,0.0006692844,306.5249999998421,0.0004355224,306.5249999998421,1.184735e-05
306.5399999998421,5.947195e-05,306.5399999998421,0.0006669988,306.5399999998421,0.0003957617,306.5399999998421,1.175065e-05
306.5549999998421,5.558167e-05,306.5549999998421,0.0006143721,306.5549999998421,0.0003511918,306.5549999998421,1.111867e-05
306.5699999998421,5.503152e-05,306.5699999998421,0.0005904746,306.5699999998421,0.0003355911,306.5699999998421,1.069636e-05
306.58499999984207,4.348138e-05,306.58499999984207,0.0005863586,306.58499999984207,0.0003358434,306.58499999984207,1.070162e-05
306.59999999984205,2.534635e-05,306.59999999984205,0.0005882698,306.59999999984205,0.000312019,306.59999999984205,1.062898e-05
306.61499999984204,2.344969e-05,306.61499999984204,0.0005657624,306.61499999984204,0.0002272942,306.61499999984204,1.034692e-05
306.629999999842,1.332791e-05,306.629999999842,0.0005443113,306.629999999842,0.0001331919,306.629999999842,1.031966e-05
306.644999999842,8.987383e-06,306.644999999842,0.0004937517,306.644999999842,7.888753e-05,306.644999999842,9.851764e-06
306.659999999842,9.141237e-06,306.659999999842,0.0004180739,306.659999999842,7.232199e-05,306.659999999842,7.708283e-06
306.674999999842,9.626121e-06,306.674999999842,0.0003952672,306.674999999842,6.878215e-05,306.674999999842,7.673483e-06
306.689999999842,9.587998e-06,306.689999999842,0.0004045203,306.689999999842,5.827995e-05,306.689999999842,7.47636e-06
306.70499999984196,9.668466e-06,306.70499999984196,0.0004606403,306.70499999984196,4.569324e-05,306.70499999984196,7.205797e-06
306.71999999984195,1.064355e-05,306.71999999984195,0.0005028769,306.71999999984195,3.958787e-05,306.71999999984195,7.137048e-06
306.73499999984193,1.123838e-05,306.73499999984193,0.0005022212,306.73499999984193,4.480223e-05,306.73499999984193,7.525189e-06
306.7499999998419,1.115661e-05,306.7499999998419,0.0005059839,306.7499999998419,4.970152e-05,306.7499999998419,8.088174e-06
306.7649999998419,1.200093e-05,306.7649999998419,0.0005027727,306.7649999998419,4.88695e-05,306.7649999998419,7.908532e-06
306.7799999998419,1.289821e-05,306.7799999998419,0.0004909612,306.7799999998419,5.324235e-05,306.7799999998419,7.979462e-06
306.7949999998419,1.386764e-05,306.7949999998419,0.0005412094,306.7949999998419,5.289036e-05,306.7949999998419,8.856334e-06
306.80999999984186,1.447596e-05,306.80999999984186,0.0005892863,306.80999999984186,5.288663e-05,306.80999999984186,1.001204e-05
306.82499999984185,1.463468e-05,306.82499999984185,0.0006172717,306.82499999984185,5.407169e-05,306.82499999984185,1.071346e-05
306.83999999984184,1.465777e-05,306.83999999984184,0.0006222424,306.83999999984184,5.420309e-05,306.83999999984184,1.07777e-05
306.8549999998418,1.491121e-05,306.8549999998418,0.0006262134,306.8549999998418,5.424803e-05,306.8549999998418,1.105769e-05
306.8699999998418,1.550404e-05,306.8699999998418,0.0006313873,306.8699999998418,5.418776e-05,306.8699999998418,1.127592e-05
306.8849999998418,1.620419e-05,306.8849999998418,0.0006501986,306.8849999998418,5.179149e-05,306.8849999998418,1.152062e-05
306.8999999998418,1.631336e-05,306.8999999998418,0.0006372965,306.8999999998418,5.103776e-05,306.8999999998418,1.164588e-05
306.91499999984177,1.622157e-05,306.91499999984177,0.000628911,306.91499999984177,5.102203e-05,306.91499999984177,1.160954e-05
306.92999999984175,1.648943e-05,306.92999999984175,0.0006477485,306.92999999984175,5.057445e-05,306.92999999984175,1.136055e-05
306.94499999984174,1.648857e-05,306.94499999984174,0.0006354738,306.94499999984174,5.023882e-05,306.94499999984174,1.165435e-05
306.9599999998417,1.648259e-05,306.9599999998417,0.0005693099,306.9599999998417,5.136598e-05,306.9599999998417,1.169537e-05
306.9749999998417,1.612402e-05,306.9749999998417,0.0005209992,306.9749999998417,5.253896e-05,306.9749999998417,1.162773e-05
306.9899999998417,1.55666e-05,306.9899999998417,0.000517063,306.9899999998417,4.781347e-05,306.9899999998417,1.116671e-05
307.0049999998417,1.558198e-05,307.0049999998417,0.0005164747,307.0049999998417,4.530095e-05,307.0049999998417,1.071741e-05
307.0199999998417,1.505225e-05,307.0199999998417,0.0005142729,307.0199999998417,4.637016e-05,307.0199999998417,1.093857e-05
307.03499999984166,1.422169e-05,307.03499999984166,0.0005027215,307.03499999984166,4.526736e-05,307.03499999984166,1.09643e-05
307.04999999984165,1.346356e-05,307.04999999984165,0.0004729148,307.04999999984165,4.525179e-05,307.04999999984165,1.048218e-05
307.06499999984163,1.294944e-05,307.06499999984163,0.000413554,307.06499999984163,4.712321e-05,307.06499999984163,9.262176e-06
307.0799999998416,1.290039e-05,307.0799999998416,0.000377245,307.0799999998416,4.644968e-05,307.0799999998416,8.681231e-06
307.0949999998416,1.246839e-05,307.0949999998416,0.0003682051,307.0949999998416,5.501539e-05,307.0949999998416,8.694202e-06
307.1099999998416,1.252025e-05,307.1099999998416,0.0003810909,307.1099999998416,5.756177e-05,307.1099999998416,8.596438e-06
307.1249999998416,1.299396e-05,307.1249999998416,0.0004237179,307.1249999998416,6.139038e-05,307.1249999998416,9.680115e-06
307.13999999984156,1.261775e-05,307.13999999984156,0.0004098956,307.13999999984156,8.043763e-05,307.13999999984156,9.414533e-06
307.15499999984155,1.289821e-05,307.15499999984155,0.0004147045,307.15499999984155,8.63114e-05,307.15499999984155,9.411539e-06
307.16999999984154,1.293529e-05,307.16999999984154,0.0004141914,307.16999999984154,8.608244e-05,307.16999999984154,9.555621e-06
307.1849999998415,1.271119e-05,307.1849999998415,0.0003948014,307.1849999998415,8.675858e-05,307.1849999998415,9.366529e-06
307.1999999998415,1.294617e-05,307.1999999998415,0.0003921786,307.1999999998415,8.69519e-05,307.1999999998415,9.274335e-06
307.2149999998415,1.277971e-05,307.2149999998415,0.0004039775,307.2149999998415,8.640259e-05,307.2149999998415,9.315255e-06
307.2299999998415,1.259429e-05,307.2299999998415,0.000427576,307.2299999998415,8.599354e-05,307.2299999998415,9.321302e-06
307.24499999984147,1.252925e-05,307.24499999984147,0.0004299228,307.24499999984147,8.567384e-05,307.24499999984147,9.144318e-06
307.25999999984145,1.273776e-05,307.25999999984145,0.0004340769,307.25999999984145,8.543741e-05,307.25999999984145,9.170469e-06
307.27499999984144,1.299721e-05,307.27499999984144,0.000473603,307.27499999984144,8.442767e-05,307.27499999984144,9.558568e-06
307.2899999998414,1.300371e-05,307.2899999998414,0.0004725673,307.2899999998414,8.602237e-05,307.2899999998414,9.593873e-06
307.3049999998414,1.331733e-05,307.3049999998414,0.0004465741,307.3049999998414,8.661769e-05,307.3049999998414,9.20267e-06
307.3199999998414,1.315664e-05,307.3199999998414,0.0004472359,307.3199999998414,8.576127e-05,307.3199999998414,9.216436e-06
307.3349999998414,1.316734e-05,307.3349999998414,0.0004595238,307.3349999998414,8.526874e-05,307.3349999998414,9.39506e-06
307.3499999998414,1.331522e-05,307.3499999998414,0.0004732763,307.3499999998414,7.6918e-05,307.3499999998414,9.74827e-06
307.36499999984136,1.216415e-05,307.36499999984136,0.0004318321,307.36499999984136,7.949925e-05,307.36499999984136,8.771629e-06
307.37999999984135,1.107423e-05,307.37999999984135,0.0003932372,307.37999999984135,7.968014e-05,307.37999999984135,7.845942e-06
307.39499999984133,1.068318e-05,307.39499999984133,0.000386741,307.39499999984133,6.242683e-05,307.39499999984133,7.560672e-06
307.4099999998413,1.023743e-05,307.4099999998413,0.0003603786,307.4099999998413,5.856183e-05,307.4099999998413,6.959168e-06
307.4249999998413,1.001626e-05,307.4249999998413,0.0003593879,307.4249999998413,6.412632e-05,307.4249999998413,6.898175e-06
307.4399999998413,9.848904e-06,307.4399999998413,0.0003580302,307.4399999998413,7.208886e-05,307.4399999998413,7.103415e-06
307.4549999998413,9.790087e-06,307.4549999998413,0.0003566485,307.4549999998413,7.699744e-05,307.4549999998413,6.747456e-06
307.46999999984126,9.627584e-06,307.46999999984126,0.000330051,307.46999999984126,7.918678e-05,307.46999999984126,6.569749e-06
307.48499999984125,9.487566e-06,307.48499999984125,0.0003023844,307.48499999984125,7.709453e-05,307.48499999984125,6.400318e-06
307.49999999984124,9.730914e-06,307.49999999984124,0.0003108857,307.49999999984124,8.422872e-05,307.49999999984124,6.53104e-06
307.5149999998412,1.098098e-05,307.5149999998412,0.000326778,307.5149999998412,9.334878e-05,307.5149999998412,6.4921e-06
307.5299999998412,1.194445e-05,307.5299999998412,0.0003008267,307.5299999998412,0.0001014941,307.5299999998412,5.711809e-06
307.5449999998412,1.141375e-05,307.5449999998412,0.0002924534,307.5449999998412,9.986254e-05,307.5449999998412,5.599728e-06
307.5599999998412,1.078031e-05,307.5599999998412,0.0002886914,307.5599999998412,0.0001061056,307.5599999998412,5.376418e-06
307.57499999984117,1.138656e-05,307.57499999984117,0.0002975278,307.57499999984117,0.0001141512,307.57499999984117,5.438937e-06
307.58999999984115,1.194327e-05,307.58999999984115,0.0002806947,307.58999999984115,0.0001168801,307.58999999984115,5.233022e-06
307.60499999984114,1.210145e-05,307.60499999984114,0.0002773327,307.60499999984114,0.0001244118,307.60499999984114,4.864733e-06
307.6199999998411,1.206298e-05,307.6199999998411,0.0002792716,307.6199999998411,0.0001227506,307.6199999998411,4.93374e-06
307.6349999998411,1.195977e-05,307.6349999998411,0.0002774297,307.6349999998411,0.000124882,307.6349999998411,4.956529e-06
307.6499999998411,1.20548e-05,307.6499999998411,0.0003215329,307.6499999998411,0.000128953,307.6499999998411,5.214144e-06
307.6649999998411,1.21896e-05,307.6649999998411,0.0003415881,307.6649999998411,0.000132382,307.6649999998411,5.441526e-06
307.6799999998411,1.244237e-05,307.6799999998411,0.0003423015,307.6799999998411,0.0001423205,307.6799999998411,5.490492e-06
307.69499999984106,1.287087e-05,307.69499999984106,0.0003382661,307.69499999984106,0.0001415623,307.69499999984106,5.619817e-06
307.70999999984105,1.293855e-05,307.70999999984105,0.0003638387,307.70999999984105,0.0001369501,307.70999999984105,5.551726e-06
307.72499999984103,1.304805e-05,307.72499999984103,0.0003774751,307.72499999984103,0.0001369316,307.72499999984103,5.748683e-06
307.739999999841,1.322286e-05,307.739999999841,0.0003854399,307.739999999841,0.0001370363,307.739999999841,6.869526e-06
307.754999999841,1.268234e-05,307.754999999841,0.000370099,307.754999999841,0.0001338629,307.754999999841,6.669763e-06
307.769999999841,1.118813e-05,307.769999999841,0.0003475485,307.769999999841,0.0001295731,307.769999999841,6.97938e-06
307.784999999841,1.034964e-05,307.784999999841,0.000363391,307.784999999841,0.0001238719,307.784999999841,7.993573e-06
307.79999999984096,1.015731e-05,307.79999999984096,0.0003699031,307.79999999984096,0.0001241374,307.79999999984096,8.155816e-06
307.81499999984095,1.002469e-05,307.81499999984095,0.0003687169,307.81499999984095,0.0001177346,307.81499999984095,8.24514e-06
307.82999999984094,9.496471e-06,307.82999999984094,0.0003657207,307.82999999984094,0.0001140672,307.82999999984094,8.11252e-06
307.8449999998409,9.278891e-06,307.8449999998409,0.0004099276,307.8449999998409,0.0001114414,307.8449999998409,8.614445e-06
307.8599999998409,1.016562e-05,307.8599999998409,0.000469104,307.8599999998409,0.0001162403,307.8599999998409,9.815953e-06
307.8749999998409,1.169658e-05,307.8749999998409,0.0005001855,307.8749999998409,0.000115375,307.8749999998409,1.014065e-05
307.8899999998409,1.204896e-05,307.8899999998409,0.0005251106,307.8899999998409,0.0001058156,307.8899999998409,1.071083e-05
307.90499999984087,1.255508e-05,307.90499999984087,0.0005198166,307.90499999984087,0.0001005767,307.90499999984087,1.071478e-05
307.91999999984085,1.266011e-05,307.91999999984085,0.0005307348,307.91999999984085,9.334968e-05,307.91999999984085,1.076855e-05
307.93499999984084,1.252925e-05,307.93499999984084,0.0005300691,307.93499999984084,8.029126e-05,307.93499999984084,1.072004e-05
307.9499999998408,1.216183e-05,307.9499999998408,0.0005279491,307.9499999998408,7.605497e-05,307.9499999998408,1.056784e-05
307.9649999998408,1.187467e-05,307.9649999998408,0.0005177555,307.9649999998408,7.467066e-05,307.9649999998408,1.063958e-05
307.9799999998408,1.188652e-05,307.9799999998408,0.0005105432,307.9799999998408,7.263316e-05,307.9799999998408,1.033875e-05
307.9949999998408,1.168332e-05,307.9949999998408,0.0005078476,307.9949999998408,7.273762e-05,307.9949999998408,9.821691e-06
308.0099999998408,1.185329e-05,308.0099999998408,0.0005056155,308.0099999998408,7.250427e-05,308.0099999998408,9.823125e-06
308.02499999984076,1.287963e-05,308.02499999984076,0.0004974835,308.02499999984076,7.2651e-05,308.02499999984076,9.427989e-06
308.03999999984075,1.343528e-05,308.03999999984075,0.000486227,308.03999999984075,7.162287e-05,308.03999999984075,8.573465e-06
308.05499999984073,1.373905e-05,308.05499999984073,0.0004806929,308.05499999984073,6.986481e-05,308.05499999984073,8.557019e-06
308.0699999998407,1.435871e-05,308.0699999998407,0.0004813072,308.0699999998407,6.707756e-05,308.0699999998407,8.612809e-06
308.0849999998407,1.53286e-05,308.0849999998407,0.000480919,308.0849999998407,6.65255e-05,308.0849999998407,8.708772e-06
308.0999999998407,1.742967e-05,308.0999999998407,0.0004150587,308.0999999998407,5.454403e-05,308.0999999998407,8.016449e-06
308.1149999998407,1.760258e-05,308.1149999998407,0.000403397,308.1149999998407,4.206558e-05,308.1149999998407,8.114256e-06
308.12999999984066,1.689117e-05,308.12999999984066,0.0003494645,308.12999999984066,4.942498e-05,308.12999999984066,7.534543e-06
308.14499999984065,1.740136e-05,308.14499999984065,0.0003734831,308.14499999984065,5.639135e-05,308.14499999984065,7.10738e-06
308.15999999984064,1.754245e-05,308.15999999984064,0.0004283112,308.15999999984064,5.659632e-05,308.15999999984064,7.845942e-06
308.1749999998406,1.769994e-05,308.1749999998406,0.0004486602,308.1749999998406,5.72548e-05,308.1749999998406,9.408545e-06
308.1899999998406,1.806467e-05,308.1899999998406,0.0005296182,308.1899999998406,5.645526e-05,308.1899999998406,1.011979e-05
308.2049999998406,2.182169e-05,308.2049999998406,0.0006219786,308.2049999998406,5.694717e-05,308.2049999998406,1.219191e-05
308.2199999998406,2.213511e-05,308.2199999998406,0.0006373671,308.2199999998406,5.704455e-05,308.2199999998406,1.226104e-05
308.23499999984057,2.256558e-05,308.23499999984057,0.0006586433,308.23499999984057,5.660727e-05,308.23499999984057,1.249547e-05
308.24999999984055,2.256995e-05,308.24999999984055,0.0006586424,308.24999999984055,6.284828e-05,308.24999999984055,1.248306e-05
308.26499999984054,2.256496e-05,308.26499999984054,0.0006603902,308.26499999984054,7.304124e-05,308.26499999984054,1.254947e-05
308.2799999998405,2.206372e-05,308.2799999998405,0.0006660876,308.2799999998405,7.452071e-05,308.2799999998405,1.293746e-05
308.2949999998405,2.180232e-05,308.2949999998405,0.000668408,308.2949999998405,7.780622e-05,308.2949999998405,1.313092e-05
308.3099999998405,2.232206e-05,308.3099999998405,0.0007593421,308.3099999998405,9.388341e-05,308.3099999998405,1.482214e-05
308.3249999998405,2.249994e-05,308.3249999998405,0.000769978,308.3249999998405,9.770772e-05,308.3249999998405,1.556298e-05
308.3399999998405,2.320937e-05,308.3399999998405,0.0007807431,308.3399999998405,9.716804e-05,308.3399999998405,1.559734e-05
308.35499999984046,2.292418e-05,308.35499999984046,0.0008091324,308.35499999984046,9.680289e-05,308.35499999984046,1.580637e-05
308.36999999984045,2.369708e-05,308.36999999984045,0.0008115862,308.36999999984045,9.601608e-05,308.36999999984045,1.564423e-05
308.38499999984043,2.461611e-05,308.38499999984043,0.0008100896,308.38499999984043,9.129394e-05,308.38499999984043,1.562621e-05
308.3999999998404,2.519528e-05,308.3999999998404,0.0007888398,308.3999999998404,8.840542e-05,308.3999999998404,1.560276e-05
308.4149999998404,2.481786e-05,308.4149999998404,0.0007607802,308.4149999998404,8.864792e-05,308.4149999998404,1.50279e-05
308.4299999998404,2.475421e-05,308.4299999998404,0.00075393,308.4299999998404,8.843585e-05,308.4299999998404,1.420683e-05
308.4449999998404,2.416038e-05,308.4449999998404,0.0006628931,308.4449999998404,8.810375e-05,308.4449999998404,1.316627e-05
308.45999999984036,2.163238e-05,308.45999999984036,0.0006287576,308.45999999984036,8.801864e-05,308.45999999984036,1.219653e-05
308.47499999984035,2.183911e-05,308.47499999984035,0.0006002366,308.47499999984035,8.911151e-05,308.47499999984035,1.204779e-05
308.48999999984034,2.161413e-05,308.48999999984034,0.0005886158,308.48999999984034,9.042635e-05,308.48999999984034,1.195388e-05
308.5049999998403,2.153317e-05,308.5049999998403,0.00058961,308.5049999998403,8.621146e-05,308.5049999998403,1.197743e-05
308.5199999998403,2.166036e-05,308.5199999998403,0.0005818704,308.5199999998403,8.535394e-05,308.5199999998403,1.173505e-05
308.5349999998403,2.241777e-05,308.5349999998403,0.0005859517,308.5349999998403,8.178548e-05,308.5349999998403,1.139398e-05
308.5499999998403,2.339375e-05,308.5499999998403,0.0006425842,308.5499999998403,7.853677e-05,308.5499999998403,1.142978e-05
308.56499999984027,2.319662e-05,308.56499999984027,0.0006267357,308.56499999984027,6.791488e-05,308.56499999984027,8.642199e-06
308.57999999984025,2.223416e-05,308.57999999984025,0.000630865,308.57999999984025,6.668898e-05,308.57999999984025,8.019962e-06
308.59499999984024,2.131818e-05,308.59499999984024,0.0006406241,308.59499999984024,6.929653e-05,308.59499999984024,7.808148e-06
308.6099999998402,1.782603e-05,308.6099999998402,0.0007079979,308.6099999998402,7.877978e-05,308.6099999998402,7.341366e-06
308.6249999998402,2.069657e-05,308.6249999998402,0.0008912489,308.6249999998402,8.320905e-05,308.6249999998402,1.173745e-05
308.6399999998402,2.039006e-05,308.6399999998402,0.0009188629,308.6399999998402,9.448615e-05,308.6399999998402,1.254834e-05
308.6549999998402,2.006272e-05,308.6549999998402,0.0009815774,308.6549999998402,9.48008e-05,308.6549999998402,1.359164e-05
308.6699999998402,2.038107e-05,308.6699999998402,0.0009878015,308.6699999998402,9.539863e-05,308.6699999998402,1.384019e-05
308.68499999984016,2.171102e-05,308.68499999984016,0.001023252,308.68499999984016,9.611593e-05,308.68499999984016,1.461445e-05
308.69999999984014,2.225886e-05,308.69999999984014,0.001052393,308.69999999984014,0.0001048178,308.69999999984014,1.530745e-05
308.71499999984013,2.250933e-05,308.71499999984013,0.00109445,308.71499999984013,0.0001067728,308.71499999984013,1.593065e-05
308.7299999998401,2.241463e-05,308.7299999998401,0.001098008,308.7299999998401,0.0001069898,308.7299999998401,1.595098e-05
308.7449999998401,2.256995e-05,308.7449999998401,0.001100653,308.7449999998401,0.0001055873,308.7449999998401,1.59845e-05
308.7599999998401,2.238507e-05,308.7599999998401,0.001096761,308.7599999998401,0.0001042215,308.7599999998401,1.591473e-05
308.7749999998401,2.2375e-05,308.7749999998401,0.00110233,308.7749999998401,0.0001003688,308.7749999998401,1.589879e-05
308.78999999984006,2.225e-05,308.78999999984006,0.00112783,308.78999999984006,0.0001003209,308.78999999984006,1.613537e-05
308.80499999984005,2.201386e-05,308.80499999984005,0.001072822,308.80499999984005,9.584911e-05,308.80499999984005,1.649455e-05
308.81999999984004,2.229364e-05,308.81999999984004,0.001021452,308.81999999984004,9.493622e-05,308.81999999984004,1.6678e-05
308.83499999984,2.260986e-05,308.83499999984,0.001030651,308.83499999984,9.649828e-05,308.83499999984,1.669995e-05
308.84999999984,2.34899e-05,308.84999999984,0.001049626,308.84999999984,9.436188e-05,308.84999999984,1.744583e-05
308.86499999984,2.395544e-05,308.86499999984,0.0009729628,308.86499999984,8.786599e-05,308.86499999984,1.735434e-05
308.87999999984,2.149781e-05,308.87999999984,0.0007841815,308.87999999984,8.557514e-05,308.87999999984,1.445551e-05
308.89499999983997,2.151484e-05,308.89499999983997,0.0007636419,308.89499999983997,7.906857e-05,308.89499999983997,1.408834e-05
308.90999999983995,2.189773e-05,308.90999999983995,0.0007133248,308.90999999983995,8.065134e-05,308.90999999983995,1.338486e-05
308.92499999983994,2.112635e-05,308.92499999983994,0.000693134,308.92499999983994,7.963044e-05,308.92499999983994,1.278302e-05
308.9399999998399,2.110233e-05,308.9399999998399,0.0006331909,308.9399999998399,7.69742e-05,308.9399999998399,1.232978e-05
308.9549999998399,1.984813e-05,308.9549999998399,0.0005539266,308.9549999998399,6.36494e-05,308.9549999998399,1.123713e-05
308.9699999998399,1.969781e-05,308.9699999998399,0.0005243178,308.9699999998399,6.254721e-05,308.9699999998399,1.101684e-05
308.9849999998399,1.92559e-05,308.9849999998399,0.0005100751,308.9849999998399,6.167083e-05,308.9849999998399,1.081163e-05
308.9999999998399,1.963621e-05,308.9999999998399,0.0005297338,308.9999999998399,6.066839e-05,308.9999999998399,1.083376e-05
309.01499999983986,2.085523e-05,309.01499999983986,0.0005402312,309.01499999983986,6.438632e-05,309.01499999983986,1.095915e-05
309.02999999983984,2.356295e-05,309.02999999983984,0.00052061,309.02999999983984,6.586217e-05,309.02999999983984,1.094887e-05
309.04499999983983,2.356355e-05,309.04499999983983,0.0005206937,309.04499999983983,6.666637e-05,309.04499999983983,1.037547e-05
309.0599999998398,2.290573e-05,309.0599999998398,0.0007223645,309.0599999998398,6.781192e-05,309.0599999998398,9.710626e-06
309.0749999998398,2.428077e-05,309.0749999998398,0.001221037,309.0749999998398,7.244946e-05,309.0749999998398,1.193619e-05
309.0899999998398,2.413646e-05,309.0899999998398,0.001252071,309.0899999998398,7.49918e-05,309.0899999998398,1.230462e-05
309.1049999998398,2.451576e-05,309.1049999998398,0.001252982,309.1049999998398,7.466065e-05,309.1049999998398,1.137542e-05
309.11999999983976,2.326877e-05,309.11999999983976,0.001370385,309.11999999983976,9.127882e-05,309.11999999983976,1.12484e-05
309.13499999983975,2.393132e-05,309.13499999983975,0.001418156,309.13499999983975,0.0001609559,309.13499999983975,1.160468e-05
309.14999999983974,2.454677e-05,309.14999999983974,0.001417306,309.14999999983974,0.0001867076,309.14999999983974,1.176143e-05
309.1649999998397,2.572368e-05,309.1649999998397,0.001419366,309.1649999998397,0.0003123466,309.1649999998397,1.211774e-05
309.1799999998397,2.656211e-05,309.1799999998397,0.001420373,309.1799999998397,0.0003326044,309.1799999998397,1.253487e-05
309.1949999998397,2.603612e-05,309.1949999998397,0.0014208,309.1949999998397,0.0003921407,309.1949999998397,1.253262e-05
309.2099999998397,2.707893e-05,309.2099999998397,0.001419639,309.2099999998397,0.0004434599,309.2099999998397,1.266011e-05
309.22499999983967,2.720763e-05,309.22499999983967,0.001420012,309.22499999983967,0.0004467007,309.22499999983967,1.310837e-05
309.23999999983965,2.725729e-05,309.23999999983965,0.001422541,309.23999999983965,0.0004593497,309.23999999983965,1.366709e-05
309.25499999983964,2.668275e-05,309.25499999983964,0.001414577,309.25499999983964,0.0004642959,309.25499999983964,1.387272e-05
309.2699999998396,2.618287e-05,309.2699999998396,0.001415364,309.2699999998396,0.0004645759,309.2699999998396,1.397389e-05
309.2849999998396,2.39425e-05,309.2849999998396,0.001414277,309.2849999998396,0.0004648407,309.2849999998396,1.470478e-05
309.2999999998396,2.438267e-05,309.2999999998396,0.001412576,309.2999999998396,0.0004648704,309.2999999998396,1.543118e-05
309.3149999998396,2.358028e-05,309.3149999998396,0.001204611,309.3149999998396,0.0004646867,309.3149999998396,1.508123e-05
309.3299999998396,2.180942e-05,309.3299999998396,0.0007504893,309.3299999998396,0.0004647268,309.3299999998396,1.256966e-05
309.34499999983956,2.250244e-05,309.34499999983956,0.0008061548,309.34499999983956,0.0004637185,309.34499999983956,1.305776e-05
309.35999999983954,2.237248e-05,309.35999999983954,0.000842386,309.35999999983954,0.0004639267,309.35999999983954,1.333636e-05
309.37499999983953,2.29512e-05,309.37499999983953,0.0007110585,309.37499999983953,0.0004534376,309.37499999983953,1.32154e-05
309.3899999998395,2.472004e-05,309.3899999998395,0.0006831951,309.3899999998395,0.0004366054,309.3899999998395,1.332368e-05
309.4049999998395,2.401476e-05,309.4049999998395,0.0007047096,309.4049999998395,0.0004110343,309.4049999998395,1.318765e-05
309.4199999998395,2.304369e-05,309.4199999998395,0.0007375173,309.4199999998395,0.0003245885,309.4199999998395,1.278302e-05
309.4349999998395,2.361669e-05,309.4349999998395,0.0007378777,309.4349999998395,0.00031411,309.4349999998395,1.244916e-05
309.44999999983946,2.387003e-05,309.44999999983946,0.0009060567,309.44999999983946,0.0002085953,309.44999999983946,1.241971e-05
309.46499999983945,2.702112e-05,309.46499999983945,0.0009928735,309.46499999983945,0.0001349536,309.46499999983945,1.280284e-05
309.47999999983944,2.70732e-05,309.47999999983944,0.001072838,309.47999999983944,0.0001224288,309.47999999983944,1.268567e-05
309.4949999998394,2.698513e-05,309.4949999998394,0.001129307,309.4949999998394,8.932513e-05,309.4949999998394,1.347088e-05
309.5099999998394,2.843051e-05,309.5099999998394,0.001134913,309.5099999998394,9.107797e-05,309.5099999998394,1.327283e-05
309.5249999998394,2.971643e-05,309.5249999998394,0.001133473,309.5249999998394,9.076905e-05,309.5249999998394,1.300696e-05
309.5399999998394,3.03974e-05,309.5399999998394,0.001132094,309.5399999998394,0.0001144641,309.5399999998394,1.223343e-05
309.55499999983937,3.06434e-05,309.55499999983937,0.001080867,309.55499999983937,0.0001918904,309.55499999983937,1.123337e-05
309.56999999983935,3.162878e-05,309.56999999983935,0.001067329,309.56999999983935,0.0002386771,309.56999999983935,1.157673e-05
309.58499999983934,3.167284e-05,309.58499999983934,0.00108055,309.58499999983934,0.0002487647,309.58499999983934,1.232978e-05
309.5999999998393,3.859547e-05,309.5999999998393,0.001048259,309.5999999998393,0.0003231081,309.5999999998393,1.224379e-05
309.6149999998393,4.611274e-05,309.6149999998393,0.001023024,309.6149999998393,0.0003719761,309.6149999998393,1.297226e-05
309.6299999998393,4.740694e-05,309.6299999998393,0.001040865,309.6299999998393,0.0003773012,309.6299999998393,1.425237e-05
309.6449999998393,4.703644e-05,309.6449999998393,0.001046355,309.6449999998393,0.0003811487,309.6449999998393,1.511948e-05
309.6599999998393,4.989049e-05,309.6599999998393,0.001023029,309.6599999998393,0.0003943288,309.6599999998393,1.52318e-05
309.67499999983926,5.16774e-05,309.67499999983926,0.001016652,309.67499999983926,0.0004009447,309.67499999983926,1.589524e-05
309.68999999983924,5.21328e-05,309.68999999983924,0.0009976587,309.68999999983924,0.0004020655,309.68999999983924,1.596951e-05
309.70499999983923,5.070381e-05,309.70499999983923,0.0007563452,309.70499999983923,0.0004019554,309.70499999983923,1.534146e-05
309.7199999998392,4.955875e-05,309.7199999998392,0.000689036,309.7199999998392,0.0004021163,309.7199999998392,1.501665e-05
309.7349999998392,4.950272e-05,309.7349999998392,0.0005625034,309.7349999998392,0.0004014077,309.7349999998392,1.447304e-05
309.7499999998392,4.946372e-05,309.7499999998392,0.000514753,309.7499999998392,0.0003980243,309.7499999998392,1.386053e-05
309.7649999998392,4.858242e-05,309.7649999998392,0.0005090057,309.7649999998392,0.000394526,309.7649999998392,1.375852e-05
309.77999999983916,4.761833e-05,309.77999999983916,0.0005080324,309.77999999983916,0.0003942042,309.77999999983916,1.38137e-05
309.79499999983915,4.70529e-05,309.79499999983915,0.0005048504,309.79499999983915,0.0003816878,309.79499999983915,1.366297e-05
309.80999999983914,4.653512e-05,309.80999999983914,0.0005246777,309.80999999983914,0.0003374993,309.80999999983914,1.357505e-05
309.8249999998391,4.564975e-05,309.8249999998391,0.0005185467,309.8249999998391,0.0003114494,309.8249999998391,1.30048e-05
309.8399999998391,4.525366e-05,309.8399999998391,0.0005622456,309.8399999998391,0.000300355,309.8399999998391,1.232292e-05
309.8549999998391,3.631367e-05,309.8549999998391,0.0008370416,309.8549999998391,0.0002167897,309.8549999998391,1.208864e-05
309.8699999998391,2.747657e-05,309.8699999998391,0.0008659579,309.8699999998391,0.0001459251,309.8699999998391,1.082335e-05
309.88499999983907,2.542126e-05,309.88499999983907,0.000863897,309.88499999983907,0.0001498628,309.88499999983907,8.916571e-06
309.89999999983905,2.338351e-05,309.89999999983905,0.0008927065,309.89999999983905,0.0001415332,309.89999999983905,8.233172e-06
309.91499999983904,1.632976e-05,309.91499999983904,0.0008945913,309.91499999983904,0.0001092123,309.91499999983904,7.495178e-06
309.929999999839,1.088435e-05,309.929999999839,0.0009054738,309.929999999839,9.341711e-05,309.929999999839,6.307202e-06
309.944999999839,9.145859e-06,309.944999999839,0.0009068587,309.944999999839,9.107612e-05,309.944999999839,6.171741e-06
309.959999999839,9.018676e-06,309.959999999839,0.0009071901,309.959999999839,9.100633e-05,309.959999999839,6.589018e-06
309.974999999839,8.880161e-06,309.974999999839,0.0009062445,309.974999999839,9.07231e-05,309.974999999839,7.15085e-06
309.989999999839,1.086751e-05,309.989999999839,0.0009070183,309.989999999839,9.090536e-05,309.989999999839,7.60896e-06
310.00499999983896,1.246952e-05,310.00499999983896,0.0009188361,310.00499999983896,9.118123e-05,310.00499999983896,7.963557e-06
310.01999999983894,1.266456e-05,310.01999999983894,0.0009402325,310.01999999983894,9.320078e-05,310.01999999983894,8.651973e-06
310.03499999983893,1.497814e-05,310.03499999983893,0.0009573026,310.03499999983893,9.43974e-05,310.03499999983893,8.95126e-06
310.0499999998389,3.458387e-05,310.0499999998389,0.001138783,310.0499999998389,9.410626e-05,310.0499999998389,1.375545e-05
310.0649999998389,3.600826e-05,310.0649999998389,0.001132648,310.0649999998389,9.466385e-05,310.0649999998389,1.464623e-05
310.0799999998389,4.03523e-05,310.0799999998389,0.001147293,310.0799999998389,9.216146e-05,310.0799999998389,1.477741e-05
310.0949999998389,4.247515e-05,310.0949999998389,0.001077978,310.0949999998389,7.997536e-05,310.0949999998389,1.497249e-05
310.10999999983886,4.247216e-05,310.10999999983886,0.000863276,310.10999999983886,7.395202e-05,310.10999999983886,1.483069e-05
310.12499999983885,4.250896e-05,310.12499999983885,0.0008482934,310.12499999983885,6.716256e-05,310.12499999983885,1.482024e-05
310.13999999983884,4.271194e-05,310.13999999983884,0.0008340913,310.13999999983884,5.142436e-05,310.13999999983884,1.481264e-05
310.1549999998388,4.269149e-05,310.1549999998388,0.0008193493,310.1549999998388,4.792e-05,310.1549999998388,1.47067e-05
310.1699999998388,4.298612e-05,310.1699999998388,0.0008266977,310.1699999998388,4.874337e-05,310.1699999998388,1.478408e-05
310.1849999998388,4.319795e-05,310.1849999998388,0.0008241729,310.1849999998388,4.938049e-05,310.1849999998388,1.485442e-05
310.1999999998388,4.310524e-05,310.1999999998388,0.0008237952,310.1999999998388,4.86314e-05,310.1999999998388,1.481739e-05
310.21499999983877,4.326345e-05,310.21499999983877,0.0008309113,310.21499999983877,4.855487e-05,310.21499999983877,1.477645e-05
310.22999999983875,4.33883e-05,310.22999999983875,0.0008490779,310.22999999983875,4.744407e-05,310.22999999983875,1.47936e-05
310.24499999983874,4.283347e-05,310.24499999983874,0.0008473714,310.24499999983874,4.609013e-05,310.24499999983874,1.46318e-05
310.2599999998387,4.258676e-05,310.2599999998387,0.0008306441,310.2599999998387,4.44829e-05,310.2599999998387,1.422665e-05
310.2749999998387,4.276863e-05,310.2749999998387,0.0008000063,310.2749999998387,3.749768e-05,310.2749999998387,1.36846e-05
310.2899999998387,3.847813e-05,310.2899999998387,0.0007307509,310.2899999998387,3.471802e-05,310.2899999998387,1.292875e-05
310.3049999998387,2.449622e-05,310.3049999998387,0.0004569502,310.3049999998387,3.430413e-05,310.3049999998387,8.338578e-06
310.31999999983867,2.308278e-05,310.31999999983867,0.000445409,310.31999999983867,3.063191e-05,310.31999999983867,7.791894e-06
310.33499999983866,1.624153e-05,310.33499999983866,0.0004144676,310.33499999983866,2.461153e-05,310.33499999983866,7.160693e-06
310.34999999983864,1.319833e-05,310.34999999983864,0.0004064749,310.34999999983864,2.055931e-05,310.34999999983864,7.00557e-06
310.36499999983863,1.310837e-05,310.36499999983863,0.0004027004,310.36499999983863,1.766967e-05,310.36499999983863,6.916529e-06
310.3799999998386,1.249885e-05,310.3799999998386,0.0003878783,310.3799999998386,1.628397e-05,310.3799999998386,6.642251e-06
310.3949999998386,1.198801e-05,310.3949999998386,0.0003844986,310.3949999998386,1.592004e-05,310.3949999998386,6.518086e-06
310.4099999998386,1.226563e-05,310.4099999998386,0.0003605008,310.4099999998386,1.520218e-05,310.4099999998386,6.448557e-06
310.4249999998386,1.155725e-05,310.4249999998386,0.0003122885,310.4249999998386,1.309116e-05,310.4249999998386,5.841057e-06
310.43999999983856,1.079337e-05,310.43999999983856,0.0003020455,310.43999999983856,9.893143e-06,310.43999999983856,5.674694e-06
310.45499999983855,1.15304e-05,310.45499999983855,0.0003014316,310.45499999983855,8.169621e-06,310.45499999983855,5.729046e-06
310.46999999983854,1.118561e-05,310.46999999983854,0.0002706836,310.46999999983854,8.115992e-06,310.46999999983854,5.614802e-06
310.4849999998385,1.055717e-05,310.4849999998385,0.0002077301,310.4849999998385,8.012934e-06,310.4849999998385,5.099414e-06
310.4999999998385,1.048218e-05,310.4999999998385,0.0001959762,310.4999999998385,8.122932e-06,310.4999999998385,4.503868e-06
310.5149999998385,1.001344e-05,310.5149999998385,0.0001843708,310.5149999998385,8.095138e-06,310.5149999998385,4.581393e-06
310.5299999998385,9.447393e-06,310.5299999998385,0.0001581,310.5299999998385,7.699141e-06,310.5299999998385,4.302314e-06
310.54499999983847,9.627584e-06,310.54499999983847,0.0001493118,310.54499999983847,7.750201e-06,310.54499999983847,4.05626e-06
310.55999999983845,9.618801e-06,310.55999999983845,0.0001576491,310.55999999983845,7.691819e-06,310.55999999983845,4.162526e-06
310.57499999983844,9.480139e-06,310.57499999983844,0.0001563244,310.57499999983844,7.186222e-06,310.57499999983844,4.169289e-06
310.5899999998384,9.54382e-06,310.5899999998384,0.0001643906,310.5899999998384,6.900217e-06,310.5899999998384,4.196231e-06
310.6049999998384,9.558568e-06,310.6049999998384,0.0001846561,310.6049999998384,7.68449e-06,310.6049999998384,4.259536e-06
310.6199999998384,1.004434e-05,310.6199999998384,0.0001976778,310.6199999998384,1.146424e-05,310.6199999998384,4.34467e-06
310.6349999998384,1.187229e-05,310.6349999998384,0.0002145237,310.6349999998384,1.264341e-05,310.6349999998384,4.412233e-06
310.64999999983837,1.352515e-05,310.64999999983837,0.0002762672,310.64999999983837,1.282922e-05,310.64999999983837,4.506994e-06
310.66499999983836,1.329192e-05,310.66499999983836,0.0003031626,310.66499999983836,1.376875e-05,310.66499999983836,4.902232e-06
310.67999999983834,1.407834e-05,310.67999999983834,0.000319101,310.67999999983834,1.454101e-05,310.67999999983834,5.104936e-06
310.69499999983833,1.552492e-05,310.69499999983833,0.0003577217,310.69499999983833,1.543666e-05,310.69499999983833,5.302549e-06
310.7099999998383,1.559824e-05,310.7099999998383,0.0003670327,310.7099999998383,1.53992e-05,310.7099999998383,5.358047e-06
310.7249999998383,1.564243e-05,310.7249999998383,0.0003671769,310.7249999998383,1.529364e-05,310.7249999998383,5.554263e-06
310.7399999998383,1.581528e-05,310.7399999998383,0.0003664196,310.7399999998383,1.54722e-05,310.7399999998383,5.624828e-06
310.7549999998383,1.585887e-05,310.7549999998383,0.0003650607,310.7549999998383,1.62233e-05,310.7549999998383,5.554263e-06
310.76999999983826,1.582419e-05,310.76999999983826,0.000365185,310.76999999983826,1.68536e-05,310.76999999983826,5.554263e-06
310.78499999983825,1.576979e-05,310.78499999983825,0.0003640018,310.78499999983825,1.684524e-05,310.78499999983825,5.619817e-06
310.79999999983823,1.571162e-05,310.79999999983823,0.000360694,310.79999999983823,1.701829e-05,310.79999999983823,5.632336e-06
310.8149999998382,1.578229e-05,310.8149999998382,0.0003551022,310.8149999998382,1.815412e-05,310.8149999998382,5.669728e-06
310.8299999998382,1.572417e-05,310.8299999998382,0.0003536625,310.8299999998382,1.93209e-05,310.8299999998382,5.743781e-06
310.8449999998382,1.550586e-05,310.8449999998382,0.0003488475,310.8449999998382,1.959528e-05,310.8449999998382,5.760922e-06
310.8599999998382,1.553399e-05,310.8599999998382,0.0003362981,310.8599999998382,1.882008e-05,310.8599999998382,5.672212e-06
310.87499999983817,1.516692e-05,310.87499999983817,0.0003332097,310.87499999983817,1.72583e-05,310.87499999983817,5.738873e-06
310.88999999983815,1.320153e-05,310.88999999983815,0.0003099483,310.88999999983815,1.736976e-05,310.88999999983815,5.561867e-06
310.90499999983814,1.117553e-05,310.90499999983814,0.000242007,310.90499999983814,1.754406e-05,310.90499999983814,5.241091e-06
310.9199999998381,1.072004e-05,310.9199999998381,0.0002307562,310.9199999998381,1.739326e-05,310.9199999998381,5.060592e-06
310.9349999998381,9.328855e-06,310.9349999998381,0.000201598,310.9349999998381,1.659332e-05,310.9349999998381,4.812329e-06
310.9499999998381,7.087532e-06,310.9499999998381,0.0001597398,310.9499999998381,1.595716e-05,310.9499999998381,4.782967e-06
310.9649999998381,6.526725e-06,310.9649999998381,0.0001469302,310.9649999998381,1.593419e-05,310.9649999998381,4.478776e-06
310.97999999983807,6.351713e-06,310.97999999983807,0.0001476689,310.97999999983807,1.59333e-05,310.97999999983807,4.39624e-06
310.99499999983806,5.910582e-06,310.99499999983806,0.0001431681,310.99499999983806,1.577336e-05,310.99499999983806,4.31539e-06
311.00999999983804,5.75603e-06,311.00999999983804,0.0001361099,311.00999999983804,1.478789e-05,311.00999999983804,4.325173e-06
311.02499999983803,5.828986e-06,311.02499999983803,0.0001384147,311.02499999983803,1.436754e-05,311.02499999983803,4.256228e-06
311.039999999838,5.521194e-06,311.039999999838,0.0001387097,311.039999999838,1.444479e-05,311.039999999838,4.259536e-06
311.054999999838,5.444114e-06,311.054999999838,0.0001443146,311.054999999838,1.382899e-05,311.054999999838,4.242968e-06
311.069999999838,5.433755e-06,311.069999999838,0.0001440031,311.069999999838,1.197508e-05,311.069999999838,4.223002e-06
311.084999999838,5.462197e-06,311.084999999838,0.0001450756,311.084999999838,1.032512e-05,311.084999999838,4.249604e-06
311.09999999983796,5.326404e-06,311.09999999983796,0.0001442956,311.09999999983796,9.690296e-06,311.09999999983796,4.142171e-06
311.11499999983795,5.694519e-06,311.11499999983795,0.0001544283,311.11499999983795,9.349971e-06,311.11499999983795,4.393035e-06
311.12999999983793,6.009847e-06,311.12999999983793,0.0001649265,311.12999999983793,7.998858e-06,311.12999999983793,4.389827e-06
311.1449999998379,5.953326e-06,311.1449999998379,0.0001558864,311.1449999998379,7.229218e-06,311.1449999998379,4.447213e-06
311.1599999998379,5.969867e-06,311.1599999998379,0.0001518321,311.1599999998379,6.06584e-06,311.1599999998379,4.412233e-06
311.1749999998379,5.962784e-06,311.1749999998379,0.0001513835,311.1749999998379,5.922486e-06,311.1749999998379,4.463023e-06
311.1899999998379,5.905813e-06,311.1899999998379,0.0001417138,311.1899999998379,5.604757e-06,311.1899999998379,4.593675e-06
311.20499999983787,6.457289e-06,311.20499999983787,0.0001817181,311.20499999983787,5.574516e-06,311.20499999983787,4.612038e-06
311.21999999983785,6.446372e-06,311.21999999983785,0.0002398071,311.21999999983785,5.397339e-06,311.21999999983785,4.602866e-06
311.23499999983784,6.659195e-06,311.23499999983784,0.0002402395,311.23499999983784,5.415577e-06,311.23499999983784,4.633369e-06
311.2499999998378,6.977362e-06,311.2499999998378,0.0002409275,311.2499999998378,5.659781e-06,311.2499999998378,4.602866e-06
311.2649999998378,7.111343e-06,311.2649999998378,0.0002499589,311.2649999998378,6.468188e-06,311.2649999998378,4.556728e-06
311.2799999998378,7.40822e-06,311.2799999998378,0.0002891497,311.2799999998378,6.743279e-06,311.2799999998378,4.593675e-06
311.2949999998378,7.699141e-06,311.2949999998378,0.0002952018,311.2949999998378,6.496438e-06,311.2949999998378,4.771172e-06
311.30999999983777,7.762914e-06,311.30999999983777,0.0003154806,311.30999999983777,7.438582e-06,311.30999999983777,4.738583e-06
311.32499999983776,7.693649e-06,311.32499999983776,0.0003543298,311.32499999983776,7.757469e-06,311.32499999983776,4.794733e-06
311.33999999983774,7.764728e-06,311.33999999983774,0.0003657841,311.33999999983774,7.883556e-06,311.33999999983774,4.747494e-06
311.35499999983773,7.800928e-06,311.35499999983773,0.0003644443,311.35499999983773,8.133331e-06,311.35499999983773,4.66971e-06
311.3699999998377,7.584854e-06,311.3699999998377,0.0003694007,311.3699999998377,8.795684e-06,311.3699999998377,4.494475e-06
311.3849999998377,7.571843e-06,311.3849999998377,0.0003756069,311.3849999998377,8.892842e-06,311.3849999998377,4.223002e-06
311.3999999998377,8.026986e-06,311.3999999998377,0.0003767286,311.3999999998377,9.167396e-06,311.3999999998377,4.199587e-06
311.4149999998377,8.533942e-06,311.4149999998377,0.0003796687,311.4149999998377,9.589467e-06,311.4149999998377,4.272744e-06
311.42999999983766,8.790878e-06,311.42999999983766,0.000378096,311.42999999983766,9.700467e-06,311.42999999983766,4.114875e-06
311.44499999983765,8.718472e-06,311.44499999983765,0.0003756032,311.44499999983765,9.586528e-06,311.44499999983765,4.042345e-06
311.45999999983763,8.914992e-06,311.45999999983763,0.0003440667,311.45999999983763,1.058915e-05,311.45999999983763,3.957827e-06
311.4749999998376,8.794083e-06,311.4749999998376,0.0003241013,311.4749999998376,1.120071e-05,311.4749999998376,3.845909e-06
311.4899999998376,9.910215e-06,311.4899999998376,0.0003222391,311.4899999998376,1.146055e-05,311.4899999998376,3.771943e-06
311.5049999998376,1.398095e-05,311.5049999998376,0.0003380934,311.5049999998376,1.268789e-05,311.5049999998376,4.104592e-06
311.5199999998376,1.594656e-05,311.5199999998376,0.0003314301,311.5199999998376,1.46952e-05,311.5199999998376,4.469331e-06
311.53499999983757,1.63401e-05,311.53499999983757,0.0003068878,311.53499999983757,1.554396e-05,311.53499999983757,4.780021e-06
311.54999999983755,1.835092e-05,311.54999999983755,0.0003269312,311.54999999983755,1.579211e-05,311.54999999983755,5.246463e-06
311.56499999983754,1.899368e-05,311.56499999983754,0.0003008558,311.56499999983754,1.538364e-05,311.56499999983754,5.214144e-06
311.5799999998375,1.900629e-05,311.5799999998375,0.0002558092,311.5799999998375,1.534697e-05,311.5799999998375,5.216845e-06
311.5949999998375,1.898849e-05,311.5949999998375,0.0002470225,311.5949999998375,1.54722e-05,311.5949999998375,5.219545e-06
311.6099999998375,1.895954e-05,311.6099999998375,0.0002475222,311.6099999998375,1.551403e-05,311.6099999998375,5.235713e-06
311.6249999998375,1.894393e-05,311.6249999998375,0.0002317987,311.6249999998375,1.509057e-05,311.6249999998375,5.222243e-06
311.63999999983747,1.881559e-05,311.63999999983747,0.0002259564,311.63999999983747,1.497061e-05,311.63999999983747,5.310512e-06
311.65499999983746,1.860478e-05,311.65499999983746,0.0002254954,311.65499999983746,1.48942e-05,311.65499999983746,5.2679e-06
311.66999999983744,1.83225e-05,311.66999999983744,0.0002173372,311.66999999983744,1.466161e-05,311.66999999983744,5.273245e-06
311.68499999983743,1.81005e-05,311.68499999983743,0.000216055,311.68499999983743,1.456521e-05,311.68499999983743,5.310512e-06
311.6999999998374,1.802329e-05,311.6999999998374,0.0002168773,311.6999999998374,1.454392e-05,311.6999999998374,5.286585e-06
311.7149999998374,1.792061e-05,311.7149999998374,0.0002137905,311.7149999998374,1.37062e-05,311.7149999998374,5.249148e-06
311.7299999998374,1.78978e-05,311.7299999998374,0.0002153315,311.7299999998374,1.322818e-05,311.7299999998374,5.376418e-06
311.7449999998374,1.673113e-05,311.7449999998374,0.0002159688,311.7449999998374,1.306963e-05,311.7449999998374,5.407768e-06
311.75999999983736,1.242765e-05,311.75999999983736,0.0001797182,311.75999999983736,1.19031e-05,311.75999999983736,5.113207e-06
311.77499999983735,1.083376e-05,311.77499999983735,0.0001719881,311.77499999983735,8.352081e-06,311.77499999983735,4.864733e-06
311.78999999983733,9.672836e-06,311.78999999983733,0.0001440185,311.78999999983733,7.207752e-06,311.78999999983733,4.666692e-06
311.8049999998373,6.446372e-06,311.8049999998373,9.686036e-05,311.8049999998373,6.920602e-06,311.8049999998373,4.148967e-06
311.8199999998373,5.521194e-06,311.8199999998373,8.777873e-05,311.8199999998373,7.329844e-06,311.8199999998373,4.347911e-06
311.8349999998373,5.639834e-06,311.8349999998373,8.794499e-05,311.8349999998373,7.2971e-06,311.8349999998373,4.627284e-06
311.8499999998373,5.582091e-06,311.8499999998373,0.0001021277,311.8499999998373,7.804539e-06,311.8499999998373,4.726678e-06
311.86499999983727,5.592176e-06,311.86499999983727,0.0001288748,311.86499999983727,7.896054e-06,311.86499999983727,4.876302e-06
311.87999999983725,5.672212e-06,311.87999999983725,0.0001293284,311.87999999983725,1.019054e-05,311.87999999983725,4.928026e-06
311.89499999983724,5.657291e-06,311.89499999983724,0.000152227,311.89499999983724,1.415119e-05,311.89499999983724,5.410373e-06
311.9099999998372,5.587136e-06,311.9099999998372,0.0002092376,311.9099999998372,1.542113e-05,311.9099999998372,5.694519e-06
311.9249999998372,5.571988e-06,311.9249999998372,0.0002282064,311.9249999998372,2.352406e-05,311.9249999998372,6.095956e-06
311.9399999998372,5.848288e-06,311.9399999998372,0.0002301692,311.9399999998372,3.082217e-05,311.9399999998372,6.153455e-06
311.9549999998372,6.470365e-06,311.9549999998372,0.0002594766,311.9549999998372,3.117119e-05,311.9549999998372,6.593293e-06
311.96999999983717,6.701369e-06,311.96999999983717,0.0003010714,311.96999999983717,4.828751e-05,311.96999999983717,7.166593e-06
311.98499999983716,6.784931e-06,311.98499999983716,0.0003024741,311.98499999983716,8.026213e-05,311.98499999983716,7.160693e-06
311.99999999983714,8.26732e-06,311.99999999983714,0.0003271638,311.99999999983714,8.680679e-05,311.99999999983714,7.354785e-06
312.01499999983713,9.18275e-06,312.01499999983713,0.0003647476,312.01499999983713,9.913455e-05,312.01499999983713,7.784659e-06
312.0299999998371,9.739596e-06,312.0299999998371,0.000384287,312.0299999998371,0.000169325,312.0299999998371,8.070739e-06
312.0449999998371,1.101684e-05,312.0449999998371,0.0004253701,312.0449999998371,0.0001964994,312.0449999998371,8.311504e-06
312.0599999998371,1.110726e-05,312.0599999998371,0.0004312389,312.0599999998371,0.0002099246,312.0599999998371,8.397496e-06
312.0749999998371,1.100917e-05,312.0749999998371,0.0004335507,312.0749999998371,0.0002336964,312.0749999998371,8.294538e-06
312.08999999983706,1.097072e-05,312.08999999983706,0.0004354111,312.08999999983706,0.0002403584,312.08999999983706,8.1264e-06
312.10499999983705,1.111486e-05,312.10499999983705,0.0004308532,312.10499999983705,0.0002405408,312.10499999983705,8.098617e-06
312.11999999983703,1.106278e-05,312.11999999983703,0.0004234873,312.11999999983703,0.000241812,312.11999999983703,7.954708e-06
312.134999999837,1.109076e-05,312.134999999837,0.0004220929,312.134999999837,0.000243148,312.134999999837,7.894269e-06
312.149999999837,1.121831e-05,312.149999999837,0.0004098119,312.149999999837,0.0002434566,312.149999999837,7.547619e-06
312.164999999837,1.141992e-05,312.164999999837,0.0003816057,312.164999999837,0.0002434124,312.164999999837,7.304818e-06
312.179999999837,1.137914e-05,312.179999999837,0.0003751563,312.179999999837,0.0002424868,312.179999999837,7.00557e-06
312.19499999983697,1.12158e-05,312.19499999983697,0.0003742727,312.19499999983697,0.00024196,312.19499999983697,7.041671e-06
312.20999999983695,1.071741e-05,312.20999999983695,0.0003462321,312.20999999983695,0.0002417541,312.20999999983695,6.54612e-06
312.22499999983694,1.060244e-05,312.22499999983694,0.0003187523,312.22499999983694,0.0002363596,312.22499999983694,6.114414e-06
312.2399999998369,1.056384e-05,312.2399999998369,0.0003178159,312.2399999998369,0.0002267588,312.2399999998369,6.114414e-06
312.2549999998369,9.10263e-06,312.2549999998369,0.0002690115,312.2549999998369,0.0002251044,312.2549999998369,5.444114e-06
312.2699999998369,8.432649e-06,312.2699999998369,0.0002389511,312.2699999998369,0.0002134324,312.2699999998369,4.83569e-06
312.2849999998369,7.345202e-06,312.2849999998369,0.0001833934,312.2849999998369,0.0001515773,312.2849999998369,4.497608e-06
312.29999999983687,5.780451e-06,312.29999999983687,8.977173e-05,312.29999999983687,0.0001332421,312.29999999983687,3.599965e-06
312.31499999983686,5.594695e-06,312.31499999983686,7.737176e-05,312.31499999983686,0.0001048989,312.31499999983686,3.516832e-06
312.32999999983684,5.556798e-06,312.32999999983684,6.32021e-05,312.32999999983684,5.537117e-05,312.32999999983684,3.642754e-06
312.34499999983683,5.559333e-06,312.34499999983683,5.87374e-05,312.34499999983683,3.547461e-05,312.34499999983683,3.642754e-06
312.3599999998368,5.137942e-06,312.3599999998368,5.891389e-05,312.3599999998368,3.425029e-05,312.3599999998368,3.611685e-06
312.3749999998368,5.262549e-06,312.3749999998368,5.984973e-05,312.3749999998368,2.589833e-05,312.3749999998368,3.54476e-06
312.3899999998368,5.018664e-06,312.3899999998368,5.782692e-05,312.3899999998368,1.440573e-05,312.3899999998368,3.500774e-06
312.4049999998368,4.599804e-06,312.4049999998368,5.701787e-05,312.4049999998368,6.947012e-06,312.4049999998368,3.439886e-06
312.41999999983676,4.354386e-06,312.41999999983676,5.723733e-05,312.41999999983676,5.95096e-06,312.41999999983676,3.476546e-06
312.43499999983675,4.434525e-06,312.43499999983675,5.627683e-05,312.43499999983675,5.315815e-06,312.43499999983675,3.572469e-06
312.44999999983673,4.510119e-06,312.44999999983673,5.563791e-05,312.44999999983673,4.633369e-06,312.44999999983673,3.348582e-06
312.4649999998367,4.544346e-06,312.4649999998367,5.595979e-05,312.4649999998367,4.226336e-06,312.4649999998367,3.267676e-06
312.4799999998367,4.510119e-06,312.4799999998367,5.497569e-05,312.4799999998367,4.000309e-06,312.4799999998367,3.280583e-06
312.4949999998367,4.522595e-06,312.4949999998367,4.602376e-05,312.4949999998367,3.520835e-06,312.4949999998367,3.166973e-06
312.5099999998367,4.491339e-06,312.5099999998367,3.957577e-05,312.5099999998367,3.520835e-06,312.5099999998367,3.224279e-06
312.52499999983667,4.599804e-06,312.52499999983667,3.82619e-05,312.52499999983667,3.54476e-06,312.52499999983667,3.158065e-06
312.53999999983665,4.596741e-06,312.53999999983665,3.652872e-05,312.53999999983665,3.508812e-06,312.53999999983665,3.099535e-06
312.55499999983664,4.651575e-06,312.55499999983664,3.288646e-05,312.55499999983664,3.584279e-06,312.55499999983664,3.153601e-06
312.5699999998366,4.702775e-06,312.5699999998366,2.912414e-05,312.5699999998366,3.556662e-06,312.5699999998366,3.158065e-06
312.5849999998366,4.651575e-06,312.5849999998366,2.901802e-05,312.5849999998366,3.528828e-06,312.5849999998366,3.049133e-06
312.5999999998366,4.687774e-06,312.5999999998366,2.88183e-05,312.5999999998366,3.484641e-06,312.5999999998366,3.007266e-06
312.6149999998366,4.687774e-06,312.6149999998366,2.803384e-05,312.6149999998366,3.592131e-06,312.6149999998366,3.007266e-06
312.62999999983657,4.672725e-06,312.62999999983657,2.643399e-05,312.62999999983657,3.607783e-06,312.62999999983657,3.049133e-06
312.64499999983656,4.645514e-06,312.64499999983656,2.834814e-05,312.64499999983656,3.638885e-06,312.64499999983656,3.011947e-06
312.65999999983654,4.584466e-06,312.65999999983654,2.950998e-05,312.65999999983654,3.615583e-06,312.65999999983654,2.926552e-06
312.67499999983653,4.593675e-06,312.67499999983653,3.534014e-05,312.67499999983653,3.696496e-06,312.67499999983653,2.813666e-06
312.6899999998365,4.562907e-06,312.6899999998365,3.71876e-05,312.6899999998365,3.745709e-06,312.6899999998365,2.653929e-06
312.7049999998365,4.434525e-06,312.7049999998365,3.938989e-05,312.7049999998365,3.696496e-06,312.7049999998365,2.627256e-06
312.7199999998365,4.513241e-06,312.7199999998365,4.175433e-05,312.7199999998365,3.696496e-06,312.7199999998365,2.701278e-06
312.7349999998365,4.618143e-06,312.7349999998365,4.827468e-05,312.7349999998365,3.665883e-06,312.7349999998365,2.737538e-06
312.74999999983646,4.663672e-06,312.74999999983646,5.004244e-05,312.74999999983646,3.662038e-06,312.74999999983646,2.773325e-06
312.76499999983645,4.639445e-06,312.76499999983645,7.018949e-05,312.76499999983645,3.707911e-06,312.76499999983645,2.768241e-06
312.77999999983643,4.69378e-06,312.77999999983643,8.095555e-05,312.77999999983643,3.805405e-06,312.77999999983643,3.162522e-06
312.7949999998364,4.744526e-06,312.7949999998364,8.519701e-05,312.7949999998364,3.779404e-06,312.7949999998364,3.158065e-06
312.8099999998364,4.711753e-06,312.8099999998364,9.55217e-05,312.8099999998364,3.820184e-06,312.8099999998364,3.211145e-06
312.8249999998364,4.666692e-06,312.8249999998364,9.604175e-05,312.8249999998364,4.035369e-06,312.8249999998364,3.215529e-06
312.8399999998364,4.759348e-06,312.8399999998364,9.630071e-05,312.8399999998364,4.463023e-06,312.8399999998364,3.202359e-06
312.85499999983637,4.928026e-06,312.85499999983637,9.735647e-05,312.85499999983637,4.633369e-06,312.85499999983637,3.280583e-06
312.86999999983635,4.993339e-06,312.86999999983635,9.943733e-05,312.86999999983635,5.110451e-06,312.86999999983635,3.267676e-06
312.88499999983634,4.945147e-06,312.88499999983634,0.0001004711,312.88499999983634,5.151632e-06,312.88499999983634,3.28916e-06
312.8999999998363,5.032679e-06,312.8999999998363,0.0001003291,312.8999999998363,5.12971e-06,312.8999999998363,3.319004e-06
312.9149999998363,5.024275e-06,312.9149999998363,9.968012e-05,312.9149999998363,5.227635e-06,312.9149999998363,3.352786e-06
312.9299999998363,4.884961e-06,312.9299999998363,9.671307e-05,312.9299999998363,5.206033e-06,312.9299999998363,3.373728e-06
312.9449999998363,4.990517e-06,312.9449999998363,9.654382e-05,312.9449999998363,5.216845e-06,312.9449999998363,3.443979e-06
312.95999999983627,5.038274e-06,312.95999999983627,9.713034e-05,312.95999999983627,5.259872e-06,312.95999999983627,3.452149e-06
312.97499999983626,5.091119e-06,312.97499999983626,0.0001012196,312.97499999983626,5.503306e-06,312.97499999983626,3.456227e-06
312.98999999983624,5.007424e-06,312.98999999983624,0.0001003011,312.98999999983624,6.426676e-06,312.98999999983624,3.56062e-06
313.00499999983623,4.984868e-06,313.00499999983623,9.785337e-05,313.00499999983623,6.680315e-06,313.00499999983623,3.476546e-06
313.0199999998362,4.967884e-06,313.0199999998362,8.90174e-05,313.0199999998362,6.589018e-06,313.0199999998362,3.524834e-06
313.0349999998362,5.132455e-06,313.0349999998362,8.764736e-05,313.0349999998362,6.682424e-06,313.0349999998362,3.301983e-06
313.0499999998362,5.135199e-06,313.0499999998362,8.439997e-05,313.0499999998362,7.003558e-06,313.0499999998362,3.276286e-06
313.0649999998362,5.197909e-06,313.0649999998362,8.108647e-05,313.0649999998362,7.270023e-06,313.0649999998362,3.237359e-06
313.07999999983616,5.132455e-06,313.07999999983616,8.188067e-05,313.07999999983616,7.655103e-06,313.07999999983616,3.271984e-06
313.09499999983615,5.587136e-06,313.09499999983615,8.598305e-05,313.09499999983615,8.202317e-06,313.09499999983615,3.386231e-06
313.10999999983613,5.979298e-06,313.10999999983613,9.054545e-05,313.10999999983613,8.971695e-06,313.10999999983613,3.54476e-06
313.1249999998361,6.014533e-06,313.1249999998361,9.194692e-05,313.1249999998361,8.883333e-06,313.1249999998361,3.528828e-06
313.1399999998361,6.06584e-06,313.1399999998361,9.195581e-05,313.1399999998361,9.265217e-06,313.1399999998361,3.627253e-06
313.1549999998361,6.051891e-06,313.1549999998361,9.254371e-05,313.1549999998361,9.442919e-06,313.1549999998361,3.638885e-06
313.1699999998361,6.237581e-06,313.1699999998361,9.271115e-05,313.1699999998361,9.44441e-06,313.1699999998361,3.54476e-06
313.18499999983607,6.439814e-06,313.18499999983607,9.879493e-05,313.18499999983607,9.497953e-06,313.18499999983607,3.540784e-06
313.19999999983605,6.433248e-06,313.19999999983605,0.0001063601,313.19999999983605,9.746825e-06,313.19999999983605,3.592131e-06
313.21499999983604,6.446372e-06,313.21499999983604,0.0001051926,313.21499999983604,9.778569e-06,313.21499999983604,3.584279e-06
313.229999999836,6.424483e-06,313.229999999836,9.8886e-05,313.229999999836,9.483111e-06,313.229999999836,3.460301e-06
313.244999999836,6.409116e-06,313.244999999836,0.0001007297,313.244999999836,9.076284e-06,313.244999999836,3.512824e-06
313.259999999836,6.459471e-06,313.259999999836,0.0001064179,313.259999999836,9.706273e-06,313.259999999836,3.568524e-06
313.274999999836,6.353931e-06,313.274999999836,0.0001046021,313.274999999836,9.732362e-06,313.274999999836,3.373728e-06
313.28999999983597,6.13052e-06,313.28999999983597,0.0001012885,313.28999999983597,9.706273e-06,313.28999999983597,3.352786e-06
313.30499999983596,5.998116e-06,313.30499999983596,9.95138e-05,313.30499999983596,1.009889e-05,313.30499999983596,3.390388e-06
313.31999999983594,5.991066e-06,313.31999999983594,9.832112e-05,313.31999999983594,1.164225e-05,313.31999999983594,3.431686e-06
313.33499999983593,6.095956e-06,313.33499999983593,0.0001000363,313.33499999983593,1.1896e-05,313.33499999983593,3.390388e-06
313.3499999998359,5.934367e-06,313.3499999998359,9.767889e-05,313.3499999998359,1.137171e-05,313.3499999998359,3.166973e-06
313.3649999998359,5.513535e-06,313.3649999998359,9.31468e-05,313.3649999998359,1.090633e-05,313.3649999998359,3.062961e-06
313.3799999998359,5.546649e-06,313.3799999998359,9.168718e-05,313.3799999998359,1.142362e-05,313.3799999998359,3.090432e-06
313.3949999998359,5.521194e-06,313.3949999998359,9.111679e-05,313.3949999998359,1.198566e-05,313.3949999998359,3.122176e-06
313.40999999983586,5.379038e-06,313.40999999983586,9.267498e-05,313.40999999983586,1.223804e-05,313.40999999983586,3.131187e-06
313.42499999983585,5.297233e-06,313.42499999983585,9.127218e-05,313.42499999983585,1.226104e-05,313.42499999983585,3.599965e-06
313.43999999983583,5.001795e-06,313.43999999983583,8.539321e-05,313.43999999983583,1.2215e-05,313.43999999983583,3.685046e-06
313.4549999998358,4.996159e-06,313.4549999998358,7.713928e-05,313.4549999998358,1.213284e-05,313.4549999998358,3.677393e-06
313.4699999998358,5.057808e-06,313.4699999998358,7.611996e-05,313.4699999998358,1.216647e-05,313.4699999998358,3.692683e-06
313.4849999998358,4.965048e-06,313.4849999998358,7.541345e-05,313.4849999998358,1.216183e-05,313.4849999998358,3.70411e-06
313.4999999998358,5.010237e-06,313.4999999998358,7.012242e-05,313.4999999998358,1.146178e-05,313.4999999998358,3.753223e-06
313.51499999983577,4.95937e-06,313.51499999983577,6.369143e-05,313.51499999983577,1.159011e-05,313.51499999983577,3.723076e-06
313.52999999983575,5.010237e-06,313.52999999983575,6.233244e-05,313.52999999983575,1.154627e-05,313.52999999983575,3.83123e-06
313.54499999983574,4.982041e-06,313.54499999983574,6.126797e-05,313.54499999983574,1.144948e-05,313.54499999983574,3.794284e-06
313.5599999998357,5.093886e-06,313.5599999998357,6.03289e-05,313.5599999998357,1.050768e-05,313.5599999998357,3.812802e-06
313.5749999998357,5.001795e-06,313.5749999998357,5.594645e-05,313.5749999998357,8.335198e-06,313.5749999998357,3.79057e-06
313.5899999998357,4.672725e-06,313.5899999998357,5.097949e-05,313.5899999998357,7.896054e-06,313.5899999998357,3.834905e-06
313.6049999998357,4.491339e-06,313.6049999998357,4.822972e-05,313.6049999998357,7.938755e-06,313.6049999998357,3.834905e-06
313.61999999983567,4.572159e-06,313.61999999983567,4.626371e-05,313.61999999983567,7.748384e-06,313.61999999983567,3.805405e-06
313.63499999983566,4.654602e-06,313.63499999983566,4.450095e-05,313.63499999983566,7.011599e-06,313.63499999983566,3.809105e-06
313.64999999983564,4.581393e-06,313.64999999983564,4.422183e-05,313.64999999983564,5.976941e-06,313.64999999983564,3.719291e-06
313.66499999983563,4.651575e-06,313.66499999983563,6.039658e-05,313.66499999983563,6.688745e-06,313.66499999983563,3.552699e-06
313.6799999998356,4.596741e-06,313.6799999998356,6.68965e-05,313.6799999998356,7.270023e-06,313.6799999998356,3.153601e-06
313.6949999998356,4.513241e-06,313.6949999998356,9.484685e-05,313.6949999998356,7.273898e-06,313.6949999998356,3.215529e-06
313.7099999998356,4.48192e-06,313.7099999998356,0.0001318969,313.7099999998356,9.672836e-06,313.7099999998356,3.323245e-06
313.7249999998356,4.424985e-06,313.7249999998356,0.000135513,313.7249999998356,1.148511e-05,313.7249999998356,3.297714e-06
313.73999999983556,4.832776e-06,313.73999999983556,0.0001444227,313.73999999983556,1.163257e-05,313.73999999983556,3.228645e-06
313.75499999983555,4.83569e-06,313.75499999983555,0.0001560787,313.75499999983555,1.217919e-05,313.75499999983555,3.162522e-06
313.76999999983553,4.853136e-06,313.76999999983553,0.0001581437,313.76999999983553,1.230233e-05,313.76999999983553,3.099535e-06
313.7849999998355,4.738583e-06,313.7849999998355,0.0001584617,313.7849999998355,1.23697e-05,313.7849999998355,3.117661e-06
313.7999999998355,4.785911e-06,313.7999999998355,0.0001588492,313.7999999998355,1.244011e-05,313.7999999998355,3.108612e-06
313.8149999998355,5.00461e-06,313.8149999998355,0.0001590917,313.8149999998355,1.256966e-05,313.8149999998355,3.171418e-06
313.8299999998355,5.029879e-06,313.8299999998355,0.0001593385,313.8299999998355,1.252812e-05,313.8299999998355,3.153601e-06
313.84499999983547,5.170737e-06,313.84499999983547,0.0001623021,313.84499999983547,1.245595e-05,313.84499999983547,3.099535e-06
313.85999999983545,5.14616e-06,313.85999999983545,0.0001627238,313.85999999983545,1.249209e-05,313.85999999983545,3.140172e-06
313.87499999983544,5.233022e-06,313.87499999983544,0.0001638471,313.87499999983544,1.290694e-05,313.87499999983544,3.171418e-06
313.8899999998354,5.350154e-06,313.8899999998354,0.0001654771,313.8899999998354,1.308794e-05,313.8899999998354,3.158065e-06
313.9049999998354,5.457037e-06,313.9049999998354,0.0001663587,313.9049999998354,1.279844e-05,313.9049999998354,3.135683e-06
313.9199999998354,5.510979e-06,313.9199999998354,0.0001571903,313.9199999998354,1.284787e-05,313.9199999998354,3.166973e-06
313.9349999998354,5.826569e-06,313.9349999998354,0.0001569918,313.9349999998354,1.346356e-05,313.9349999998354,3.135683e-06
313.94999999983537,5.924864e-06,313.94999999983537,0.0001331731,313.94999999983537,1.360718e-05,313.94999999983537,2.997883e-06
313.96499999983536,6.300498e-06,313.96499999983536,0.0001037889,313.96499999983536,1.180805e-05,313.96499999983536,2.921734e-06
313.97999999983534,6.340615e-06,313.97999999983534,0.0001026105,313.97999999983534,1.09347e-05,313.97999999983534,2.95052e-06
313.99499999983533,6.167175e-06,313.99499999983533,9.25335e-05,313.99499999983533,1.106787e-05,313.99499999983533,2.940956e-06
314.0099999998353,6.242096e-06,314.0099999998353,8.161341e-05,314.0099999998353,1.085713e-05,314.0099999998353,3.01662e-06
314.0249999998353,6.275856e-06,314.0249999998353,7.842602e-05,314.0249999998353,1.087399e-05,314.0249999998353,3.025945e-06
314.0399999998353,6.329497e-06,314.0399999998353,8.330819e-05,314.0399999998353,1.076985e-05,314.0399999998353,3.094987e-06
314.0549999998353,6.210422e-06,314.0549999998353,8.70552e-05,314.0549999998353,1.071346e-05,314.0549999998353,3.021286e-06
314.06999999983526,6.255622e-06,314.06999999983526,8.757517e-05,314.06999999983526,1.090245e-05,314.06999999983526,3.002579e-06
314.08499999983525,6.201342e-06,314.08499999983525,8.564671e-05,314.08499999983525,1.093084e-05,314.08499999983525,2.988471e-06
314.09999999983523,6.061194e-06,314.09999999983523,8.282404e-05,314.09999999983523,1.094887e-05,314.09999999983523,3.044509e-06
314.1149999998352,6.737009e-06,314.1149999998352,9.089002e-05,314.1149999998352,1.093213e-05,314.1149999998352,2.945742e-06
314.1299999998352,6.764137e-06,314.1299999998352,9.087948e-05,314.1299999998352,1.041477e-05,314.1299999998352,2.926552e-06
314.1449999998352,6.855157e-06,314.1449999998352,8.868875e-05,314.1449999998352,9.694656e-06,314.1449999998352,3.076727e-06
314.1599999998352,6.902258e-06,314.1599999998352,8.904145e-05,314.1599999998352,9.742488e-06,314.1599999998352,3.104077e-06
314.17499999983517,6.997522e-06,314.17499999983517,8.786262e-05,314.17499999983517,9.184283e-06,314.17499999983517,3.126685e-06
314.18999999983515,6.863372e-06,314.18999999983515,8.796982e-05,314.18999999983515,7.954708e-06,314.18999999983515,3.215529e-06
314.20499999983514,6.908378e-06,314.20499999983514,9.137199e-05,314.20499999983514,7.142966e-06,314.20499999983514,3.263362e-06
314.2199999998351,6.621009e-06,314.2199999998351,9.323191e-05,314.2199999998351,7.133099e-06,314.2199999998351,3.215529e-06
314.2349999998351,6.595429e-06,314.2349999998351,9.136859e-05,314.2349999998351,6.820134e-06,314.2349999998351,3.271984e-06
314.2499999998351,6.623136e-06,314.2499999998351,8.561002e-05,314.2499999998351,6.318359e-06,314.2499999998351,3.306247e-06
314.2649999998351,6.4921e-06,314.2649999998351,8.457487e-05,314.2649999998351,5.998116e-06,314.2649999998351,3.382069e-06
314.27999999983507,6.470365e-06,314.27999999983507,8.861168e-05,314.27999999983507,5.910582e-06,314.27999999983507,3.348582e-06
314.29499999983506,6.468188e-06,314.29499999983506,8.704759e-05,314.29499999983506,5.924864e-06,314.29499999983506,3.331712e-06
314.30999999983504,6.400318e-06,314.30999999983504,8.631238e-05,314.30999999983504,5.556798e-06,314.30999999983504,3.36955e-06
314.32499999983503,6.356147e-06,314.32499999983503,8.65492e-05,314.32499999983503,5.294573e-06,314.32499999983503,3.456227e-06
314.339999999835,6.342836e-06,314.339999999835,8.91044e-05,314.339999999835,5.251831e-06,314.339999999835,3.536803e-06
314.354999999835,6.347276e-06,314.354999999835,8.681198e-05,314.354999999835,5.029879e-06,314.354999999835,3.662038e-06
314.369999999835,5.627332e-06,314.369999999835,7.763676e-05,314.369999999835,4.708762e-06,314.369999999835,3.654337e-06
314.384999999835,5.533936e-06,314.384999999835,7.573164e-05,314.384999999835,4.525708e-06,314.384999999835,3.654337e-06
314.39999999983496,5.446701e-06,314.39999999983496,7.561753e-05,314.39999999983496,4.52882e-06,314.39999999983496,3.580347e-06
314.41499999983495,5.238403e-06,314.41499999983495,7.402894e-05,314.41499999983495,4.485062e-06,314.41499999983495,3.658189e-06
314.42999999983493,5.041069e-06,314.42999999983493,7.842512e-05,314.42999999983493,4.186148e-06,314.42999999983493,3.669723e-06
314.4449999998349,4.841512e-06,314.4449999998349,7.706967e-05,314.4449999998349,4.305587e-06,314.4449999998349,3.635012e-06
314.4599999998349,4.899358e-06,314.4599999998349,8.583647e-05,314.4599999998349,4.654602e-06,314.4599999998349,3.57641e-06
314.4749999998349,4.887844e-06,314.4749999998349,9.201951e-05,314.4749999998349,4.982041e-06,314.4749999998349,3.552699e-06
314.4899999998349,5.157098e-06,314.4899999998349,0.0001172567,314.4899999998349,5.104936e-06,314.4899999998349,3.623367e-06
314.50499999983487,5.544109e-06,314.50499999983487,0.0001596163,314.50499999983487,5.307859e-06,314.50499999983487,3.771943e-06
314.51999999983485,5.632336e-06,314.51999999983485,0.0001640283,314.51999999983485,7.40061e-06,314.51999999983485,3.842245e-06
314.53499999983484,5.809621e-06,314.53499999983484,0.0001864943,314.53499999983484,9.989498e-06,314.53499999983484,3.878734e-06
314.5499999998348,7.129148e-06,314.5499999998348,0.0002028409,314.5499999998348,1.017532e-05,314.5499999998348,4.000309e-06
314.5649999998348,7.532673e-06,314.5649999998348,0.0002084443,314.5649999998348,1.126467e-05,314.5649999998348,4.045829e-06
314.5799999998348,7.612662e-06,314.5799999998348,0.0002088207,314.5799999998348,1.210145e-05,314.5799999998348,3.954266e-06
314.5949999998348,8.026986e-06,314.5949999998348,0.0002097325,314.5949999998348,1.291567e-05,314.5949999998348,3.911283e-06
314.60999999983477,8.50749e-06,314.60999999983477,0.0002121732,314.60999999983477,1.326009e-05,314.60999999983477,3.957827e-06
314.62499999983476,8.658483e-06,314.62499999983476,0.0002206803,314.62499999983476,1.337538e-05,314.62499999983476,4.216325e-06
314.63999999983474,8.808488e-06,314.63999999983474,0.0002314036,314.63999999983474,1.466257e-05,314.63999999983474,4.354386e-06
314.65499999983473,9.009299e-06,314.65499999983473,0.0002337753,314.65499999983473,1.79732e-05,314.65499999983473,4.402644e-06
314.6699999998347,9.499437e-06,314.6699999998347,0.0002378683,314.6699999998347,1.860403e-05,314.6699999998347,4.370531e-06
314.6849999998347,9.790087e-06,314.6849999998347,0.000238232,314.6849999998347,1.959456e-05,314.6849999998347,4.418613e-06
314.6999999998347,9.79584e-06,314.6999999998347,0.0002374571,314.6999999998347,2.061951e-05,314.6999999998347,4.522595e-06
314.7149999998347,9.814517e-06,314.7149999998347,0.0002310681,314.7149999998347,2.073601e-05,314.7149999998347,4.547444e-06
314.72999999983466,9.797278e-06,314.72999999983466,0.00022985,314.72999999983466,2.064e-05,314.72999999983466,4.581393e-06
314.74499999983465,9.662636e-06,314.74499999983465,0.000204348,314.74499999983465,2.060106e-05,314.74499999983465,4.472482e-06
314.75999999983463,9.545296e-06,314.75999999983463,0.0001810592,314.75999999983463,2.051197e-05,314.75999999983463,4.289197e-06
314.7749999998346,9.532005e-06,314.7749999998346,0.0001787999,314.7749999998346,1.950015e-05,314.7749999998346,4.226336e-06
314.7899999998346,9.365025e-06,314.7899999998346,0.0001554527,314.7899999998346,1.850076e-05,314.7899999998346,4.131956e-06
314.8049999998346,8.650345e-06,314.8049999998346,0.0001307588,314.8049999998346,1.840228e-05,314.8049999998346,4.118297e-06
314.8199999998346,8.500864e-06,314.8199999998346,0.0001224927,314.8199999998346,1.79426e-05,314.8199999998346,3.982663e-06
314.83499999983457,8.43599e-06,314.83499999983457,0.0001224539,314.83499999983457,1.742159e-05,314.83499999983457,3.896851e-06
314.84999999983455,7.93343e-06,314.84999999983455,0.0001219788,314.84999999983455,1.687532e-05,314.84999999983455,3.904074e-06
314.86499999983454,7.42721e-06,314.86499999983454,0.0001163893,314.86499999983454,1.673281e-05,314.86499999983454,3.779404e-06
314.8799999998345,7.429107e-06,314.8799999998345,8.990674e-05,314.8799999998345,1.662301e-05,314.8799999998345,3.340158e-06
314.8949999998345,8.703918e-06,314.8949999998345,7.38426e-05,314.8949999998345,1.475451e-05,314.8949999998345,3.314757e-06
314.9099999998345,1.060377e-05,314.9099999998345,7.519739e-05,314.9099999998345,1.072398e-05,314.9099999998345,3.319004e-06
314.9249999998345,1.050634e-05,314.9249999998345,6.715018e-05,314.9249999998345,1.034692e-05,314.9249999998345,3.284874e-06
314.93999999983447,1.188652e-05,314.93999999983447,7.426737e-05,314.93999999983447,8.183403e-06,314.93999999983447,3.131187e-06
314.95499999983446,1.319086e-05,314.95499999983446,7.909654e-05,314.95499999983446,6.233063e-06,314.95499999983446,3.058359e-06
314.96999999983444,1.352619e-05,314.96999999983444,7.937832e-05,314.96999999983444,6.121322e-06,314.96999999983444,3.002579e-06
314.98499999983443,1.35116e-05,314.98499999983443,7.935542e-05,314.98499999983443,6.132817e-06,314.98499999983443,2.912075e-06
314.9999999998344,1.345833e-05,314.9999999998344,7.750401e-05,314.9999999998344,6.139704e-06,314.9999999998344,2.993181e-06
315.0149999998344,1.343843e-05,315.0149999998344,7.784152e-05,315.0149999998344,6.174023e-06,315.0149999998344,2.964809e-06
315.0299999998344,1.338591e-05,315.0299999998344,8.219422e-05,315.0299999998344,6.121322e-06,315.0299999998344,3.044509e-06
315.0449999998344,1.336168e-05,315.0449999998344,8.556493e-05,315.0449999998344,6.021555e-06,315.0449999998344,3.072146e-06
315.05999999983436,1.334903e-05,315.05999999983436,8.618613e-05,315.05999999983436,5.848288e-06,315.05999999983436,3.025945e-06
315.07499999983435,1.337117e-05,315.07499999983435,8.924656e-05,315.07499999983435,5.814468e-06,315.07499999983435,3.197958e-06
315.08999999983433,1.338486e-05,315.08999999983433,9.089094e-05,315.08999999983433,5.790191e-06,315.08999999983433,3.233005e-06
315.1049999998343,1.339853e-05,315.1049999998343,9.099813e-05,315.1049999998343,5.490492e-06,315.1049999998343,3.197958e-06
315.1199999998343,1.334586e-05,315.1199999998343,9.075182e-05,315.1199999998343,5.299891e-06,315.1199999998343,3.211145e-06
315.1349999998343,1.321966e-05,315.1349999998343,9.03503e-05,315.1349999998343,5.334332e-06,315.1349999998343,3.267676e-06
315.1499999998343,1.176023e-05,315.1499999998343,8.439296e-05,315.1499999998343,5.241091e-06,315.1499999998343,3.202359e-06
315.16499999983427,9.447393e-06,315.16499999983427,7.731876e-05,315.16499999983427,4.768218e-06,315.16499999983427,3.189136e-06
315.17999999983425,9.266738e-06,315.17999999983425,7.445944e-05,315.17999999983425,4.636408e-06,315.17999999983425,3.215529e-06
315.19499999983424,7.59599e-06,315.19499999983424,6.267905e-05,315.19499999983424,4.639445e-06,315.19499999983424,3.19355e-06
315.2099999998342,5.687093e-06,315.2099999998342,5.93776e-05,315.2099999998342,4.179412e-06,315.2099999998342,3.180289e-06
315.2249999998342,5.082812e-06,315.2249999998342,5.924888e-05,315.2249999998342,4.131956e-06,315.2249999998342,3.206755e-06
315.2399999998342,5.015856e-06,315.2399999998342,5.924412e-05,315.2399999998342,4.196231e-06,315.2399999998342,3.24605e-06
315.2549999998342,5.032679e-06,315.2549999998342,5.905336e-05,315.2549999998342,4.305587e-06,315.2549999998342,3.233005e-06
315.26999999983417,4.950841e-06,315.26999999983417,5.531951e-05,315.26999999983417,4.229668e-06,315.26999999983417,3.162522e-06
315.28499999983416,4.990517e-06,315.28499999983416,4.565376e-05,315.28499999983416,4.299038e-06,315.28499999983416,3.175857e-06
315.29999999983414,4.544346e-06,315.29999999983414,4.157006e-05,315.29999999983414,4.152361e-06,315.29999999983414,3.171418e-06
315.31499999983413,4.618143e-06,315.31499999983413,4.244595e-05,315.31499999983413,4.249604e-06,315.31499999983413,3.126685e-06
315.3299999998341,4.4218e-06,315.3299999998341,3.508892e-05,315.3299999998341,4.189512e-06,315.3299999998341,3.104077e-06
315.3449999998341,4.409039e-06,315.3449999998341,3.363231e-05,315.3449999998341,4.035369e-06,315.3449999998341,3.085871e-06
315.3599999998341,4.562907e-06,315.3599999998341,4.408943e-05,315.3599999998341,4.0632e-06,315.3599999998341,3.211145e-06
315.3749999998341,4.463023e-06,315.3749999998341,4.992972e-05,315.3749999998341,4.01437e-06,315.3749999998341,3.219907e-06
315.38999999983406,4.633369e-06,315.38999999983406,5.044114e-05,315.38999999983406,3.982663e-06,315.38999999983406,3.153601e-06
315.40499999983405,4.590608e-06,315.40499999983405,5.318067e-05,315.40499999983405,4.216325e-06,315.40499999983405,3.158065e-06
315.41999999983403,4.596741e-06,315.41999999983403,5.268006e-05,315.41999999983403,4.216325e-06,315.41999999983403,3.153601e-06
315.434999999834,4.562907e-06,315.434999999834,5.445511e-05,315.434999999834,4.196231e-06,315.434999999834,3.11314e-06
315.449999999834,4.702775e-06,315.449999999834,5.55066e-05,315.449999999834,4.341427e-06,315.449999999834,3.131187e-06
315.464999999834,4.720713e-06,315.464999999834,5.61164e-05,315.464999999834,4.645514e-06,315.464999999834,3.206755e-06
315.479999999834,4.847328e-06,315.479999999834,5.8867e-05,315.479999999834,4.624239e-06,315.479999999834,3.237359e-06
315.49499999983396,4.893604e-06,315.49499999983396,6.287853e-05,315.49499999983396,4.618143e-06,315.49499999983396,3.237359e-06
315.50999999983395,4.945147e-06,315.50999999983395,6.407336e-05,315.50999999983395,4.466178e-06,315.50999999983395,3.352786e-06
315.52499999983394,4.890725e-06,315.52499999983394,6.376681e-05,315.52499999983394,4.553636e-06,315.52499999983394,3.267676e-06
315.5399999998339,4.93374e-06,315.5399999998339,6.450938e-05,315.5399999998339,4.440873e-06,315.5399999998339,3.344373e-06
315.5549999998339,4.987693e-06,315.5549999998339,6.499408e-05,315.5549999998339,4.415424e-06,315.5549999998339,3.327482e-06
315.5699999998339,4.788854e-06,315.5699999998339,6.329631e-05,315.5699999998339,4.389827e-06,315.5699999998339,3.241707e-06
315.5849999998339,4.765263e-06,315.5849999998339,6.31189e-05,315.5849999998339,4.402644e-06,315.5849999998339,3.250386e-06
315.59999999983387,4.780021e-06,315.59999999983387,6.264061e-05,315.59999999983387,4.472482e-06,315.59999999983387,3.180289e-06
315.61499999983386,4.896482e-06,315.61499999983386,5.39418e-05,315.61499999983386,4.38019e-06,315.61499999983386,3.117661e-06
315.62999999983384,4.832776e-06,315.62999999983384,4.864009e-05,315.62999999983384,4.463023e-06,315.62999999983384,3.131187e-06
315.64499999983383,4.720713e-06,315.64499999983383,4.926225e-05,315.64499999983383,4.572159e-06,315.64499999983383,3.099535e-06
315.6599999998338,4.744526e-06,315.6599999998338,4.675498e-05,315.6599999998338,4.456705e-06,315.6599999998338,3.081303e-06
315.6749999998338,4.747494e-06,315.6749999998338,4.517952e-05,315.6749999998338,4.488202e-06,315.6749999998338,3.049133e-06
315.6899999998338,4.936594e-06,315.6899999998338,4.292545e-05,315.6899999998338,4.424985e-06,315.6899999998338,2.993181e-06
315.7049999998338,4.996159e-06,315.7049999998338,4.151309e-05,315.7049999998338,4.321914e-06,315.7049999998338,3.058359e-06
315.71999999983376,4.916579e-06,315.71999999983376,4.171383e-05,315.71999999983376,4.165909e-06,315.71999999983376,3.035241e-06
315.73499999983375,4.984868e-06,315.73499999983375,3.861189e-05,315.73499999983375,4.325173e-06,315.73499999983375,3.025945e-06
315.74999999983373,4.847328e-06,315.74999999983373,3.162878e-05,315.74999999983373,4.702775e-06,315.74999999983373,2.868209e-06
315.7649999998337,4.928026e-06,315.7649999998337,3.118881e-05,315.7649999998337,4.950841e-06,315.7649999998337,2.798606e-06
315.7799999998337,4.979213e-06,315.7799999998337,3.021473e-05,315.7799999998337,4.864733e-06,315.7799999998337,2.768241e-06
315.7949999998337,5.102175e-06,315.7949999998337,2.931841e-05,315.7949999998337,4.910845e-06,315.7949999998337,2.752932e-06
315.8099999998337,5.091119e-06,315.8099999998337,2.888861e-05,315.8099999998337,4.916579e-06,315.8099999998337,2.711688e-06
315.82499999983366,5.121465e-06,315.82499999983366,3.523675e-05,315.82499999983366,4.939447e-06,315.82499999983366,2.838588e-06
315.83999999983365,5.336972e-06,315.83999999983365,4.700708e-05,315.83999999983365,5.510979e-06,315.83999999983365,2.823661e-06
315.85499999983364,5.376418e-06,315.85499999983364,4.814494e-05,315.85499999983364,5.60727e-06,315.85499999983364,2.793568e-06
315.8699999998336,5.262549e-06,315.8699999998336,4.927683e-05,315.8699999998336,5.584614e-06,315.8699999998336,2.848496e-06
315.8849999998336,5.238403e-06,315.8849999998336,5.124627e-05,315.8849999998336,5.677176e-06,315.8849999998336,2.882905e-06
315.8999999998336,5.371176e-06,315.8999999998336,5.25963e-05,315.8999999998336,5.662269e-06,315.8999999998336,2.848496e-06
315.9149999998336,5.344885e-06,315.9149999998336,5.445537e-05,315.9149999998336,5.564399e-06,315.9149999998336,2.863294e-06
315.92999999983357,5.536481e-06,315.92999999983357,5.350812e-05,315.92999999983357,5.684616e-06,315.92999999983357,2.921734e-06
315.94499999983356,5.469929e-06,315.94499999983356,5.334227e-05,315.94499999983356,5.629835e-06,315.94499999983356,2.926552e-06
315.95999999983354,5.305204e-06,315.95999999983354,5.372146e-05,315.95999999983354,5.782887e-06,315.95999999983354,2.873116e-06
315.9749999998335,5.238403e-06,315.9749999998335,5.61066e-05,315.9749999998335,5.508422e-06,315.9749999998335,2.892662e-06
315.9899999998335,5.165286e-06,315.9899999998335,5.739119e-05,315.9899999998335,5.425972e-06,315.9899999998335,2.833621e-06
316.0049999998335,5.184341e-06,316.0049999998335,5.856375e-05,316.0049999998335,4.998978e-06,316.0049999998335,2.848496e-06
316.0199999998335,5.189773e-06,316.0199999998335,5.921416e-05,316.0199999998335,5.010237e-06,316.0199999998335,2.955291e-06
316.0349999998335,5.088352e-06,316.0349999998335,6.445127e-05,316.0349999998335,5.068936e-06,316.0349999998335,3.237359e-06
316.04999999983346,4.984868e-06,316.04999999983346,6.576756e-05,316.04999999983346,5.096651e-06,316.04999999983346,3.528828e-06
316.06499999983345,5.140683e-06,316.06499999983345,6.88806e-05,316.06499999983345,5.132455e-06,316.06499999983345,3.540784e-06
316.07999999983343,4.939447e-06,316.07999999983343,6.839851e-05,316.07999999983343,5.208738e-06,316.07999999983343,3.532818e-06
316.0949999998334,4.899358e-06,316.0949999998334,6.487063e-05,316.0949999998334,4.519479e-06,316.0949999998334,3.592131e-06
316.1099999998334,4.782967e-06,316.1099999998334,6.479611e-05,316.1099999998334,4.729657e-06,316.1099999998334,3.615583e-06
316.1249999998334,4.756387e-06,316.1249999998334,6.394505e-05,316.1249999998334,4.762306e-06,316.1249999998334,3.603876e-06
316.1399999998334,4.79767e-06,316.1399999998334,6.280703e-05,316.1399999998334,4.642481e-06,316.1399999998334,3.564574e-06
316.15499999983336,4.684768e-06,316.15499999983336,6.201615e-05,316.15499999983336,4.578317e-06,316.15499999983336,3.56062e-06
316.16999999983335,4.765263e-06,316.16999999983335,6.10706e-05,316.16999999983335,5.041069e-06,316.16999999983335,3.619477e-06
316.18499999983334,4.559819e-06,316.18499999983334,6.102607e-05,316.18499999983334,5.315815e-06,316.18499999983334,3.603876e-06
316.1999999998333,4.590608e-06,316.1999999998333,7.55357e-05,316.1999999998333,5.307859e-06,316.1999999998333,3.730636e-06
316.2149999998333,4.777073e-06,316.2149999998333,8.487199e-05,316.2149999998333,5.178904e-06,316.2149999998333,3.745709e-06
316.2299999998333,4.882076e-06,316.2299999998333,0.0001068116,316.2299999998333,5.384273e-06,316.2299999998333,3.70411e-06
316.2449999998333,4.919443e-06,316.2449999998333,0.0001148227,316.2449999998333,5.485359e-06,316.2449999998333,3.812802e-06
316.25999999983327,4.919443e-06,316.25999999983327,0.0001153222,316.25999999983327,5.436346e-06,316.25999999983327,3.786851e-06
316.27499999983326,5.055022e-06,316.27499999983326,0.0001146226,316.27499999983326,5.485359e-06,316.27499999983326,3.642754e-06
316.28999999983324,4.996159e-06,316.28999999983324,0.000112484,316.28999999983324,5.428567e-06,316.28999999983324,3.406967e-06
316.3049999998332,4.913713e-06,316.3049999998332,0.0001143243,316.3049999998332,5.457037e-06,316.3049999998332,3.344373e-06
316.3199999998332,4.936594e-06,316.3199999998332,0.0001210867,316.3199999998332,5.278585e-06,316.3199999998332,3.361178e-06
316.3349999998332,4.861837e-06,316.3349999998332,0.0001214755,316.3349999998332,5.233022e-06,316.3349999998332,3.468433e-06
316.3499999998332,4.812329e-06,316.3499999998332,0.0001199598,316.3499999998332,5.154366e-06,316.3499999998332,3.488681e-06
316.3649999998332,4.83569e-06,316.3649999998332,0.0001205968,316.3649999998332,4.861837e-06,316.3649999998332,3.435788e-06
316.37999999983316,4.856038e-06,316.37999999983316,0.0001209987,316.37999999983316,4.81818e-06,316.37999999983316,3.484641e-06
316.39499999983315,4.890725e-06,316.39499999983315,0.0001211373,316.39499999983315,4.884961e-06,316.39499999983315,3.480596e-06
