X[s],a: EMG RMS 1-1,X[s].1,a: EMG RMS 1-2,X[s].2,a: EMG RMS 1-3,X[s].3,a: EMG RMS 1-4
106.00500000000363,2.522769e-05,106.00500000000363,1.963262e-05,106.00500000000363,3.288389e-05,106.00500000000363,2.858369e-06
106.02000000000363,2.423199e-05,106.02000000000363,1.977418e-05,106.02000000000363,3.252899e-05,106.02000000000363,2.887788e-06
106.03500000000363,2.212238e-05,106.03500000000363,1.95016e-05,106.03500000000363,3.231915e-05,106.03500000000363,2.897527e-06
106.05000000000364,1.970138e-05,106.05000000000364,1.784972e-05,106.05000000000364,3.165994e-05,106.05000000000364,2.926552e-06
106.06500000000364,1.951315e-05,106.06500000000364,1.793318e-05,106.06500000000364,2.982998e-05,106.06500000000364,2.887788e-06
106.08000000000364,2.000295e-05,106.08000000000364,1.819597e-05,106.08000000000364,2.927851e-05,106.08000000000364,2.882905e-06
106.09500000000364,1.964338e-05,106.09500000000364,1.80272e-05,106.09500000000364,2.827948e-05,106.09500000000364,2.887788e-06
106.11000000000364,1.831865e-05,106.11000000000364,1.849467e-05,106.11000000000364,2.889543e-05,106.11000000000364,2.897527e-06
106.12500000000364,1.796928e-05,106.12500000000364,1.913776e-05,106.12500000000364,2.839084e-05,106.12500000000364,2.926552e-06
106.14000000000364,1.84901e-05,106.14000000000364,1.951243e-05,106.14000000000364,2.267518e-05,106.14000000000364,2.95052e-06
106.15500000000364,2.118827e-05,106.15500000000364,1.952253e-05,106.15500000000364,1.93835e-05,106.15500000000364,2.988471e-06
106.17000000000364,2.151942e-05,106.17000000000364,1.989208e-05,106.17000000000364,1.827323e-05,106.17000000000364,3.062961e-06
106.18500000000364,2.169999e-05,106.18500000000364,1.870446e-05,106.18500000000364,1.502321e-05,106.18500000000364,3.158065e-06
106.20000000000364,2.109098e-05,106.20000000000364,1.713214e-05,106.20000000000364,1.679667e-05,106.20000000000364,3.202359e-06
106.21500000000364,2.03541e-05,106.21500000000364,1.745632e-05,106.21500000000364,1.786629e-05,106.21500000000364,3.323245e-06
106.23000000000364,1.951604e-05,106.23000000000364,1.787338e-05,106.23000000000364,1.879237e-05,106.23000000000364,3.323245e-06
106.24500000000364,2.022775e-05,106.24500000000364,1.812228e-05,106.24500000000364,1.993311e-05,106.24500000000364,3.297714e-06
106.26000000000364,2.055725e-05,106.26000000000364,1.798103e-05,106.26000000000364,2.029866e-05,106.26000000000364,3.327482e-06
106.27500000000364,2.070745e-05,106.27500000000364,1.853803e-05,106.27500000000364,2.341963e-05,106.27500000000364,3.419349e-06
106.29000000000364,2.105555e-05,106.29000000000364,1.858509e-05,106.29000000000364,2.373747e-05,106.29000000000364,3.415227e-06
106.30500000000364,2.180619e-05,106.30500000000364,1.859873e-05,106.30500000000364,2.366496e-05,106.30500000000364,3.356985e-06
106.32000000000365,2.339315e-05,106.32000000000365,1.803657e-05,106.32000000000365,2.40909e-05,106.32000000000365,3.386231e-06
106.33500000000365,2.330023e-05,106.33500000000365,1.844891e-05,106.33500000000365,2.822813e-05,106.33500000000365,3.356985e-06
106.35000000000365,2.602259e-05,106.35000000000365,1.896474e-05,106.35000000000365,2.887397e-05,106.35000000000365,3.250386e-06
106.36500000000365,2.88442e-05,106.36500000000365,1.739326e-05,106.36500000000365,2.838588e-05,106.36500000000365,3.263362e-06
106.38000000000365,2.887885e-05,106.38000000000365,1.644409e-05,106.38000000000365,2.847358e-05,106.38000000000365,3.284874e-06
106.39500000000365,2.763147e-05,106.39500000000365,1.623546e-05,106.39500000000365,2.702008e-05,106.39500000000365,3.382069e-06
106.41000000000365,2.73759e-05,106.41000000000365,1.659162e-05,106.41000000000365,2.730995e-05,106.41000000000365,3.36955e-06
106.42500000000365,2.745503e-05,106.42500000000365,1.611353e-05,106.42500000000365,2.732645e-05,106.42500000000365,3.382069e-06
106.44000000000365,2.74581e-05,106.44000000000365,1.599772e-05,106.44000000000365,2.730376e-05,106.44000000000365,3.310505e-06
106.45500000000365,2.754518e-05,106.45500000000365,1.605046e-05,106.45500000000365,2.585314e-05,106.45500000000365,3.259043e-06
106.47000000000365,2.78225e-05,106.47000000000365,1.53644e-05,106.47000000000365,2.651487e-05,106.47000000000365,3.254718e-06
106.48500000000365,2.601284e-05,106.48500000000365,1.368152e-05,106.48500000000365,2.529962e-05,106.48500000000365,3.271984e-06
106.50000000000365,2.569026e-05,106.50000000000365,1.344576e-05,106.50000000000365,2.48048e-05,106.50000000000365,3.241707e-06
106.51500000000365,2.841267e-05,106.51500000000365,1.295813e-05,106.51500000000365,2.339857e-05,106.51500000000365,3.28916e-06
106.53000000000365,2.822963e-05,106.53000000000365,1.185924e-05,106.53000000000365,2.172076e-05,106.53000000000365,3.352786e-06
106.54500000000365,2.806146e-05,106.54500000000365,1.211541e-05,106.54500000000365,2.169869e-05,106.54500000000365,3.331712e-06
106.56000000000365,2.668222e-05,106.56000000000365,1.186992e-05,106.56000000000365,2.172659e-05,106.56000000000365,3.301983e-06
106.57500000000366,2.609071e-05,106.57500000000366,1.206882e-05,106.57500000000366,2.256745e-05,106.57500000000366,3.386231e-06
106.59000000000366,2.573025e-05,106.59000000000366,1.085713e-05,106.59000000000366,1.662894e-05,106.59000000000366,3.415227e-06
106.60500000000366,2.051541e-05,106.60500000000366,1.249998e-05,106.60500000000366,1.613799e-05,106.60500000000366,3.419349e-06
106.62000000000366,1.979483e-05,106.62000000000366,1.254048e-05,106.62000000000366,1.647832e-05,106.62000000000366,3.435788e-06
106.63500000000366,1.985593e-05,106.63500000000366,1.273554e-05,106.63500000000366,1.567662e-05,106.63500000000366,3.344373e-06
106.65000000000366,1.914291e-05,106.65000000000366,1.298854e-05,106.65000000000366,1.596687e-05,106.65000000000366,3.189136e-06
106.66500000000366,1.864411e-05,106.66500000000366,1.304697e-05,106.66500000000366,1.611003e-05,106.66500000000366,3.211145e-06
106.68000000000366,2.025837e-05,106.68000000000366,1.300588e-05,106.68000000000366,1.785919e-05,106.68000000000366,3.250386e-06
106.69500000000366,1.987791e-05,106.69500000000366,1.314593e-05,106.69500000000366,1.828864e-05,106.69500000000366,3.271984e-06
106.71000000000366,1.994018e-05,106.71000000000366,1.310192e-05,106.71000000000366,1.699924e-05,106.71000000000366,3.171418e-06
106.72500000000366,1.971425e-05,106.72500000000366,1.312126e-05,106.72500000000366,1.827014e-05,106.72500000000366,3.19355e-06
106.74000000000366,1.975351e-05,106.74000000000366,1.331416e-05,106.74000000000366,1.850609e-05,106.74000000000366,3.171418e-06
106.75500000000366,1.921782e-05,106.75500000000366,1.355948e-05,106.75500000000366,1.851066e-05,106.75500000000366,3.166973e-06
106.77000000000366,1.446818e-05,106.77000000000366,1.434497e-05,106.77000000000366,1.856309e-05,106.77000000000366,3.081303e-06
106.78500000000366,1.466449e-05,106.78500000000366,1.484019e-05,106.78500000000366,1.930266e-05,106.78500000000366,2.916909e-06
106.80000000000366,1.630126e-05,106.80000000000366,1.468753e-05,106.80000000000366,1.909797e-05,106.80000000000366,2.979029e-06
106.81500000000366,1.769596e-05,106.81500000000366,1.469328e-05,106.81500000000366,1.866526e-05,106.81500000000366,2.936162e-06
106.83000000000366,1.735597e-05,106.83000000000366,1.468369e-05,106.83000000000366,1.732266e-05,106.83000000000366,2.783465e-06
106.84500000000367,1.748776e-05,106.84500000000367,1.403023e-05,106.84500000000367,1.729499e-05,106.84500000000367,2.843547e-06
106.86000000000367,1.746681e-05,106.86000000000367,1.287853e-05,106.86000000000367,1.723216e-05,106.86000000000367,2.848496e-06
106.87500000000367,1.73965e-05,106.87500000000367,1.286869e-05,106.87500000000367,1.682265e-05,106.87500000000367,2.798606e-06
106.89000000000367,1.638659e-05,106.89000000000367,1.310085e-05,106.89000000000367,1.820062e-05,106.89000000000367,2.813666e-06
106.90500000000367,1.677317e-05,106.90500000000367,1.246726e-05,106.90500000000367,1.672018e-05,106.90500000000367,2.858369e-06
106.92000000000367,1.609428e-05,106.92000000000367,1.240496e-05,106.92000000000367,1.655252e-05,106.92000000000367,2.878015e-06
106.93500000000367,1.516971e-05,106.93500000000367,1.227941e-05,106.93500000000367,1.535155e-05,106.93500000000367,2.853437e-06
106.95000000000367,1.50457e-05,106.95000000000367,1.21711e-05,106.95000000000367,1.592269e-05,106.95000000000367,2.916909e-06
106.96500000000367,1.481549e-05,106.96500000000367,1.240041e-05,106.96500000000367,1.58482e-05,106.96500000000367,2.964809e-06
106.98000000000367,1.485632e-05,106.98000000000367,1.243671e-05,106.98000000000367,1.524104e-05,106.98000000000367,2.926552e-06
106.99500000000367,1.516971e-05,106.99500000000367,1.19173e-05,106.99500000000367,1.517435e-05,106.99500000000367,2.907234e-06
107.01000000000367,1.546401e-05,107.01000000000367,1.165314e-05,107.01000000000367,1.515484e-05,107.01000000000367,2.887788e-06
107.02500000000367,1.544122e-05,107.02500000000367,1.055717e-05,107.02500000000367,1.494612e-05,107.02500000000367,2.818668e-06
107.04000000000367,1.508964e-05,107.04000000000367,9.823125e-06,107.04000000000367,1.589436e-05,107.04000000000367,2.848496e-06
107.05500000000367,1.113006e-05,107.05500000000367,9.664094e-06,107.05500000000367,1.607852e-05,107.05500000000367,2.848496e-06
107.07000000000367,1.093599e-05,107.07000000000367,9.457824e-06,107.07000000000367,1.607502e-05,107.07000000000367,2.902385e-06
107.08500000000367,1.080902e-05,107.08500000000367,9.526091e-06,107.08500000000367,1.619202e-05,107.08500000000367,2.960054e-06
107.10000000000367,1.083376e-05,107.10000000000367,9.483111e-06,107.10000000000367,1.635389e-05,107.10000000000367,2.921734e-06
107.11500000000368,1.0972e-05,107.11500000000368,9.554146e-06,107.11500000000368,1.678744e-05,107.11500000000368,3.049133e-06
107.13000000000368,1.067394e-05,107.13000000000368,9.653885e-06,107.13000000000368,1.494989e-05,107.13000000000368,3.062961e-06
107.14500000000368,1.117049e-05,107.14500000000368,9.153557e-06,107.14500000000368,1.465584e-05,107.14500000000368,3.126685e-06
107.16000000000368,1.062898e-05,107.16000000000368,9.104177e-06,107.16000000000368,1.464719e-05,107.16000000000368,3.144655e-06
107.17500000000368,1.048084e-05,107.17500000000368,9.439935e-06,107.17500000000368,1.474783e-05,107.17500000000368,3.058359e-06
107.19000000000368,1.015592e-05,107.19000000000368,9.52757e-06,107.19000000000368,1.470095e-05,107.19000000000368,3.076727e-06
107.20500000000368,1.101301e-05,107.20500000000368,9.387561e-06,107.20500000000368,1.443015e-05,107.20500000000368,3.085871e-06
107.22000000000368,1.131956e-05,107.22000000000368,9.099535e-06,107.22000000000368,1.353348e-05,107.22000000000368,3.171418e-06
107.23500000000368,1.124966e-05,107.23500000000368,9.091791e-06,107.23500000000368,1.345309e-05,107.23500000000368,3.215529e-06
107.25000000000368,1.08012e-05,107.25000000000368,9.257612e-06,107.25000000000368,1.343738e-05,107.25000000000368,3.24605e-06
107.26500000000368,1.109203e-05,107.26500000000368,9.585059e-06,107.26500000000368,1.344157e-05,107.26500000000368,3.237359e-06
107.28000000000368,1.185567e-05,107.28000000000368,9.257612e-06,107.28000000000368,1.220808e-05,107.28000000000368,3.284874e-06
107.29500000000368,1.198331e-05,107.29500000000368,9.248478e-06,107.29500000000368,1.309224e-05,107.29500000000368,3.250386e-06
107.31000000000368,1.19102e-05,107.31000000000368,9.35449e-06,107.31000000000368,1.294182e-05,107.31000000000368,3.237359e-06
107.32500000000368,1.194327e-05,107.32500000000368,9.10263e-06,107.32500000000368,1.289274e-05,107.32500000000368,3.215529e-06
107.34000000000368,1.293202e-05,107.34000000000368,9.506848e-06,107.34000000000368,1.262445e-05,107.34000000000368,3.162522e-06
107.35500000000368,1.300046e-05,107.35500000000368,9.585059e-06,107.35500000000368,1.242198e-05,107.35500000000368,3.166973e-06
107.37000000000369,1.299396e-05,107.37000000000369,9.420515e-06,107.37000000000369,1.146424e-05,107.37000000000369,3.122176e-06
107.38500000000369,1.297335e-05,107.38500000000369,9.253046e-06,107.38500000000369,1.170019e-05,107.38500000000369,3.085871e-06
107.40000000000369,1.247629e-05,107.40000000000369,9.549722e-06,107.40000000000369,1.168694e-05,107.40000000000369,3.030597e-06
107.41500000000369,1.208165e-05,107.41500000000369,1.151328e-05,107.41500000000369,1.172665e-05,107.41500000000369,3.166973e-06
107.43000000000369,1.2134e-05,107.43000000000369,1.174345e-05,107.43000000000369,1.147161e-05,107.43000000000369,3.166973e-06
107.44500000000369,1.195035e-05,107.44500000000369,1.305992e-05,107.44500000000369,1.008493e-05,107.44500000000369,3.099535e-06
107.46000000000369,1.122082e-05,107.46000000000369,1.358646e-05,107.46000000000369,9.37705e-06,107.46000000000369,3.053749e-06
107.47500000000369,1.088694e-05,107.47500000000369,1.378e-05,107.47500000000369,1.095787e-05,107.47500000000369,3.01662e-06
107.49000000000369,1.086492e-05,107.49000000000369,1.361443e-05,107.49000000000369,1.092697e-05,107.49000000000369,3.062961e-06
107.50500000000369,1.076331e-05,107.50500000000369,1.416711e-05,107.50500000000369,1.102962e-05,107.50500000000369,3.090432e-06
107.52000000000369,1.001907e-05,107.52000000000369,1.539096e-05,107.52000000000369,1.129465e-05,107.52000000000369,3.104077e-06
107.53500000000369,9.677204e-06,107.53500000000369,1.562531e-05,107.53500000000369,1.145563e-05,107.53500000000369,3.085871e-06
107.55000000000369,9.820256e-06,107.55000000000369,1.577068e-05,107.55000000000369,1.008074e-05,107.55000000000369,3.180289e-06
107.56500000000369,1.000781e-05,107.56500000000369,1.616677e-05,107.56500000000369,1.002609e-05,107.56500000000369,3.099535e-06
107.5800000000037,9.97821e-06,107.5800000000037,1.599419e-05,107.5800000000037,1.006256e-05,107.5800000000037,3.108612e-06
107.5950000000037,8.845193e-06,107.5950000000037,1.58979e-05,107.5950000000037,1.009331e-05,107.5950000000037,3.171418e-06
107.6100000000037,8.810087e-06,107.6100000000037,1.575907e-05,107.6100000000037,1.188771e-05,107.6100000000037,3.323245e-06
107.6250000000037,9.598277e-06,107.6250000000037,1.574386e-05,107.6250000000037,1.291676e-05,107.6250000000037,3.352786e-06
107.6400000000037,9.739596e-06,107.6400000000037,1.563883e-05,107.6400000000037,1.285445e-05,107.6400000000037,3.340158e-06
107.6550000000037,1.004715e-05,107.6550000000037,1.479646e-05,107.6550000000037,1.304481e-05,107.6550000000037,3.319004e-06
107.6700000000037,1.014759e-05,107.6700000000037,1.379431e-05,107.6700000000037,1.37134e-05,107.6700000000037,3.394541e-06
107.6850000000037,1.03142e-05,107.6850000000037,1.345623e-05,107.6850000000037,1.440475e-05,107.6850000000037,3.40283e-06
107.7000000000037,1.084675e-05,107.7000000000037,1.275544e-05,107.7000000000037,1.422665e-05,107.7000000000037,3.488681e-06
107.7150000000037,1.086492e-05,107.7150000000037,1.193855e-05,107.7150000000037,1.351994e-05,107.7150000000037,3.496747e-06
107.7300000000037,1.077508e-05,107.7300000000037,1.196095e-05,107.7300000000037,1.35709e-05,107.7300000000037,3.394541e-06
107.7450000000037,1.157673e-05,107.7450000000037,1.188534e-05,107.7450000000037,1.433908e-05,107.7450000000037,3.327482e-06
107.7600000000037,1.150961e-05,107.7600000000037,1.051706e-05,107.7600000000037,1.450804e-05,107.7600000000037,3.314757e-06
107.7750000000037,1.138533e-05,107.7750000000037,8.715239e-06,107.7750000000037,1.447207e-05,107.7750000000037,3.280583e-06
107.7900000000037,1.150472e-05,107.7900000000037,8.270727e-06,107.7900000000037,1.375647e-05,107.7900000000037,3.356985e-06
107.8050000000037,1.217457e-05,107.8050000000037,7.963557e-06,107.8050000000037,1.367843e-05,107.8050000000037,3.344373e-06
107.8200000000037,1.250111e-05,107.8200000000037,7.63668e-06,107.8200000000037,1.373905e-05,107.8200000000037,3.4111e-06
107.8350000000037,1.212123e-05,107.8350000000037,7.71559e-06,107.8350000000037,1.47526e-05,107.8350000000037,3.415227e-06
107.8500000000037,1.216299e-05,107.8500000000037,7.62745e-06,107.8500000000037,1.723706e-05,107.8500000000037,3.263362e-06
107.8650000000037,1.215024e-05,107.8650000000037,7.549485e-06,107.8650000000037,1.544852e-05,107.8650000000037,3.228645e-06
107.8800000000037,1.246839e-05,107.8800000000037,7.438582e-06,107.8800000000037,1.543209e-05,107.8800000000037,3.259043e-06
107.8950000000037,1.304049e-05,107.8950000000037,7.521444e-06,107.8950000000037,1.588727e-05,107.8950000000037,3.310505e-06
107.9100000000037,1.287416e-05,107.9100000000037,7.519571e-06,107.9100000000037,1.584465e-05,107.9100000000037,3.197958e-06
107.9250000000037,1.273554e-05,107.9250000000037,7.493299e-06,107.9250000000037,1.550222e-05,107.9250000000037,3.158065e-06
107.9400000000037,1.257078e-05,107.9400000000037,7.30096e-06,107.9400000000037,1.583576e-05,107.9400000000037,3.122176e-06
107.95500000000371,1.217225e-05,107.95500000000371,7.34712e-06,107.95500000000371,1.596334e-05,107.95500000000371,3.135683e-06
107.97000000000371,1.280944e-05,107.97000000000371,7.140994e-06,107.97000000000371,1.602675e-05,107.97000000000371,3.067557e-06
107.98500000000371,1.303725e-05,107.98500000000371,6.981399e-06,107.98500000000371,1.570624e-05,107.98500000000371,3.085871e-06
108.00000000000371,1.231835e-05,108.00000000000371,7.421518e-06,108.00000000000371,1.509897e-05,108.00000000000371,3.131187e-06
108.01500000000371,1.247968e-05,108.01500000000371,8.274134e-06,108.01500000000371,1.541383e-05,108.01500000000371,3.171418e-06
108.03000000000371,1.24129e-05,108.03000000000371,8.319974e-06,108.03000000000371,1.578854e-05,108.03000000000371,3.189136e-06
108.04500000000371,1.248194e-05,108.04500000000371,8.316587e-06,108.04500000000371,1.606274e-05,108.04500000000371,3.340158e-06
108.06000000000371,1.171703e-05,108.06000000000371,8.216045e-06,108.06000000000371,1.658483e-05,108.06000000000371,3.331712e-06
108.07500000000371,1.194917e-05,108.07500000000371,8.269024e-06,108.07500000000371,1.641837e-05,108.07500000000371,3.344373e-06
108.09000000000371,1.209912e-05,108.09000000000371,9.262176e-06,108.09000000000371,1.595981e-05,108.09000000000371,3.319004e-06
108.10500000000371,1.194681e-05,108.10500000000371,9.242383e-06,108.10500000000371,1.448472e-05,108.10500000000371,3.327482e-06
108.12000000000371,1.21282e-05,108.12000000000371,9.318279e-06,108.12000000000371,1.436656e-05,108.12000000000371,3.314757e-06
108.13500000000371,1.082985e-05,108.13500000000371,9.43695e-06,108.13500000000371,1.423753e-05,108.13500000000371,3.28916e-06
108.15000000000371,1.154261e-05,108.15000000000371,9.831725e-06,108.15000000000371,1.383204e-05,108.15000000000371,3.219907e-06
108.16500000000372,1.198683e-05,108.16500000000372,9.837455e-06,108.16500000000372,1.380962e-05,108.16500000000372,3.254718e-06
108.18000000000372,1.2215e-05,108.18000000000372,9.743934e-06,108.18000000000372,1.271119e-05,108.18000000000372,3.28916e-06
108.19500000000372,1.219422e-05,108.19500000000372,1.151206e-05,108.19500000000372,1.319833e-05,108.19500000000372,3.259043e-06
108.21000000000372,1.186636e-05,108.21000000000372,1.219076e-05,108.21000000000372,1.322605e-05,108.21000000000372,3.224279e-06
108.22500000000372,1.193501e-05,108.22500000000372,1.25461e-05,108.22500000000372,1.290803e-05,108.22500000000372,3.19355e-06
108.24000000000372,1.171583e-05,108.24000000000372,1.29124e-05,108.24000000000372,1.316734e-05,108.24000000000372,3.280583e-06
108.25500000000372,1.183664e-05,108.25500000000372,1.305992e-05,108.25500000000372,1.439693e-05,108.25500000000372,3.206755e-06
108.27000000000372,1.174105e-05,108.27000000000372,1.273001e-05,108.27000000000372,1.509057e-05,108.27000000000372,3.310505e-06
108.28500000000372,1.20396e-05,108.28500000000372,1.272891e-05,108.28500000000372,1.506348e-05,108.28500000000372,3.117661e-06
108.30000000000372,1.227023e-05,108.30000000000372,1.303725e-05,108.30000000000372,1.580192e-05,108.30000000000372,3.035241e-06
108.31500000000372,1.235147e-05,108.31500000000372,1.30286e-05,108.31500000000372,1.547585e-05,108.31500000000372,3.021286e-06
108.33000000000372,1.237084e-05,108.33000000000372,1.287634e-05,108.33000000000372,1.622938e-05,108.33000000000372,2.997883e-06
108.34500000000372,1.230462e-05,108.34500000000372,1.223459e-05,108.34500000000372,1.699178e-05,108.34500000000372,2.988471e-06
108.36000000000372,1.199741e-05,108.36000000000372,1.234348e-05,108.36000000000372,1.709757e-05,108.36000000000372,3.025945e-06
108.37500000000372,1.232978e-05,108.37500000000372,1.271229e-05,108.37500000000372,1.711898e-05,108.37500000000372,2.921734e-06
108.39000000000372,1.305776e-05,108.39000000000372,1.247629e-05,108.39000000000372,1.856765e-05,108.39000000000372,2.993181e-06
108.40500000000372,1.396986e-05,108.40500000000372,1.19232e-05,108.40500000000372,2.066387e-05,108.40500000000372,2.945742e-06
108.42000000000372,1.38137e-05,108.42000000000372,1.193383e-05,108.42000000000372,2.098116e-05,108.42000000000372,2.969556e-06
108.43500000000373,1.436362e-05,108.43500000000373,1.198801e-05,108.43500000000373,2.077808e-05,108.43500000000373,2.955291e-06
108.45000000000373,1.411132e-05,108.45000000000373,1.047008e-05,108.45000000000373,2.120355e-05,108.45000000000373,2.993181e-06
108.46500000000373,1.442137e-05,108.46500000000373,9.749715e-06,108.46500000000373,2.123807e-05,108.46500000000373,2.979029e-06
108.48000000000373,1.475451e-05,108.48000000000373,9.408545e-06,108.48000000000373,2.112101e-05,108.48000000000373,2.926552e-06
108.49500000000373,1.487622e-05,108.49500000000373,9.1289e-06,108.49500000000373,2.13993e-05,108.49500000000373,3.030597e-06
108.51000000000373,1.545125e-05,108.51000000000373,8.935509e-06,108.51000000000373,2.099458e-05,108.51000000000373,3.025945e-06
108.52500000000373,1.549222e-05,108.52500000000373,9.723673e-06,108.52500000000373,2.074144e-05,108.52500000000373,2.960054e-06
108.54000000000373,1.64518e-05,108.54000000000373,9.653885e-06,108.54000000000373,2.074212e-05,108.54000000000373,3.039879e-06
108.55500000000373,1.639776e-05,108.55500000000373,9.665551e-06,108.55500000000373,2.01531e-05,108.55500000000373,3.039879e-06
108.57000000000373,1.571521e-05,108.57000000000373,1.034692e-05,108.57000000000373,2.0282e-05,108.57000000000373,3.189136e-06
108.58500000000373,1.582686e-05,108.58500000000373,1.048756e-05,108.58500000000373,1.988642e-05,108.58500000000373,3.135683e-06
108.60000000000373,1.579211e-05,108.60000000000373,1.052242e-05,108.60000000000373,1.830019e-05,108.60000000000373,3.166973e-06
108.61500000000373,1.602059e-05,108.61500000000373,1.053446e-05,108.61500000000373,1.875861e-05,108.61500000000373,3.108612e-06
108.63000000000373,1.622678e-05,108.63000000000373,1.07082e-05,108.63000000000373,1.89417e-05,108.63000000000373,3.108612e-06
108.64500000000373,1.549313e-05,108.64500000000373,1.108695e-05,108.64500000000373,1.782366e-05,108.64500000000373,3.067557e-06
108.66000000000373,1.43322e-05,108.66000000000373,1.098483e-05,108.66000000000373,1.550313e-05,108.66000000000373,3.184716e-06
108.67500000000373,1.47067e-05,108.67500000000373,1.092181e-05,108.67500000000373,1.539554e-05,108.67500000000373,3.140172e-06
108.69000000000374,1.645608e-05,108.69000000000374,1.056517e-05,108.69000000000374,1.728929e-05,108.69000000000374,3.180289e-06
108.70500000000374,1.64278e-05,108.70500000000374,1.04647e-05,108.70500000000374,1.695443e-05,108.70500000000374,3.197958e-06
108.72000000000374,1.656273e-05,108.72000000000374,1.045258e-05,108.72000000000374,1.700753e-05,108.72000000000374,3.219907e-06
108.73500000000374,1.625367e-05,108.73500000000374,1.131209e-05,108.73500000000374,1.654742e-05,108.73500000000374,3.233005e-06
108.75000000000374,1.630126e-05,108.75000000000374,1.158038e-05,108.75000000000374,1.63263e-05,108.75000000000374,3.215529e-06
108.76500000000374,1.612314e-05,108.76500000000374,1.129714e-05,108.76500000000374,1.665518e-05,108.76500000000374,3.250386e-06
108.78000000000374,1.519012e-05,108.78000000000374,1.090374e-05,108.78000000000374,1.703814e-05,108.78000000000374,3.319004e-06
108.79500000000374,1.56172e-05,108.79500000000374,1.094629e-05,108.79500000000374,1.802251e-05,108.79500000000374,3.29344e-06
108.81000000000374,1.577247e-05,108.81000000000374,1.056117e-05,108.81000000000374,1.847943e-05,108.81000000000374,3.29344e-06
108.82500000000374,1.607764e-05,108.82500000000374,1.022228e-05,108.82500000000374,1.827014e-05,108.82500000000374,3.180289e-06
108.84000000000374,1.684022e-05,108.84000000000374,9.874615e-06,108.84000000000374,2.102006e-05,108.84000000000374,3.158065e-06
108.85500000000374,1.684942e-05,108.85500000000374,9.94002e-06,108.85500000000374,2.303391e-05,108.85500000000374,3.215529e-06
108.87000000000374,1.647233e-05,108.87000000000374,9.518695e-06,108.87000000000374,2.435665e-05,108.87000000000374,3.263362e-06
108.88500000000374,1.685193e-05,108.88500000000374,9.304663e-06,108.88500000000374,2.752779e-05,108.88500000000374,3.386231e-06
108.90000000000374,1.730232e-05,108.90000000000374,9.018676e-06,108.90000000000374,3.161141e-05,108.90000000000374,3.323245e-06
108.91500000000374,1.814791e-05,108.91500000000374,9.262176e-06,108.91500000000374,3.253982e-05,108.91500000000374,3.280583e-06
108.93000000000374,1.682265e-05,108.93000000000374,9.233234e-06,108.93000000000374,3.244096e-05,108.93000000000374,3.348582e-06
108.94500000000374,1.715761e-05,108.94500000000374,1.042153e-05,108.94500000000374,3.143893e-05,108.94500000000374,3.419349e-06
108.96000000000375,1.886867e-05,108.96000000000375,1.043504e-05,108.96000000000375,3.131322e-05,108.96000000000375,3.361178e-06
108.97500000000375,1.898701e-05,108.97500000000375,9.913058e-06,108.97500000000375,3.124702e-05,108.97500000000375,3.40283e-06
108.99000000000375,1.915836e-05,108.99000000000375,1.006956e-05,108.99000000000375,3.119242e-05,108.99000000000375,3.356985e-06
109.00500000000375,1.893947e-05,109.00500000000375,1.151695e-05,109.00500000000375,3.100853e-05,109.00500000000375,3.297714e-06
109.02000000000375,1.911198e-05,109.02000000000375,1.212123e-05,109.02000000000375,3.048578e-05,109.02000000000375,3.306247e-06
109.03500000000375,1.929755e-05,109.03500000000375,1.278081e-05,109.03500000000375,2.946985e-05,109.03500000000375,3.206755e-06
109.05000000000375,1.923321e-05,109.05000000000375,1.438126e-05,109.05000000000375,2.915266e-05,109.05000000000375,3.126685e-06
109.06500000000375,1.940239e-05,109.06500000000375,1.480978e-05,109.06500000000375,2.887544e-05,109.06500000000375,3.202359e-06
109.08000000000375,1.903961e-05,109.08000000000375,1.503446e-05,109.08000000000375,2.846715e-05,109.08000000000375,3.241707e-06
109.09500000000375,1.967563e-05,109.09500000000375,1.512321e-05,109.09500000000375,2.653717e-05,109.09500000000375,3.301983e-06
109.11000000000375,1.971711e-05,109.11000000000375,1.577426e-05,109.11000000000375,2.473428e-05,109.11000000000375,3.28916e-06
109.12500000000375,1.981332e-05,109.12500000000375,1.582864e-05,109.12500000000375,2.233783e-05,109.12500000000375,3.237359e-06
109.14000000000375,1.883879e-05,109.14000000000375,1.599683e-05,109.14000000000375,2.154821e-05,109.14000000000375,3.263362e-06
109.15500000000375,1.875335e-05,109.15500000000375,1.594038e-05,109.15500000000375,1.610741e-05,109.15500000000375,3.224279e-06
109.17000000000375,1.773889e-05,109.17000000000375,1.597304e-05,109.17000000000375,1.643295e-05,109.17000000000375,3.171418e-06
109.18500000000375,1.780468e-05,109.18500000000375,1.581528e-05,109.18500000000375,1.67488e-05,109.18500000000375,3.044509e-06
109.20000000000375,1.671344e-05,109.20000000000375,1.537448e-05,109.20000000000375,1.892533e-05,109.20000000000375,3.025945e-06
109.21500000000376,1.43793e-05,109.21500000000376,1.546947e-05,109.21500000000376,1.960174e-05,109.21500000000376,3.044509e-06
109.23000000000376,1.430466e-05,109.23000000000376,1.561539e-05,109.23000000000376,1.960677e-05,109.23000000000376,3.030597e-06
109.24500000000376,1.479836e-05,109.24500000000376,1.47268e-05,109.24500000000376,1.959599e-05,109.24500000000376,3.01662e-06
109.26000000000376,1.482119e-05,109.26000000000376,1.333213e-05,109.26000000000376,2.060926e-05,109.26000000000376,3.094987e-06
109.27500000000376,1.466641e-05,109.27500000000376,1.328344e-05,109.27500000000376,2.429469e-05,109.27500000000376,3.090432e-06
109.29000000000376,1.527151e-05,109.29000000000376,1.288728e-05,109.29000000000376,2.585532e-05,109.29000000000376,3.206755e-06
109.30500000000376,1.767286e-05,109.30500000000376,1.266789e-05,109.30500000000376,3.330993e-05,109.30500000000376,3.267676e-06
109.32000000000376,2.080044e-05,109.32000000000376,1.2397e-05,109.32000000000376,3.896959e-05,109.32000000000376,3.219907e-06
109.33500000000376,2.139732e-05,109.33500000000376,1.210262e-05,109.33500000000376,4.109325e-05,109.33500000000376,3.202359e-06
109.35000000000376,2.369173e-05,109.35000000000376,1.214097e-05,109.35000000000376,5.186542e-05,109.35000000000376,3.108612e-06
109.36500000000376,2.426917e-05,109.36500000000376,1.139522e-05,109.36500000000376,5.383645e-05,109.36500000000376,3.122176e-06
109.38000000000376,2.449506e-05,109.38000000000376,1.146547e-05,109.38000000000376,5.707788e-05,109.38000000000376,3.021286e-06
109.39500000000376,2.627471e-05,109.39500000000376,1.148265e-05,109.39500000000376,6.078322e-05,109.39500000000376,2.974296e-06
109.41000000000376,2.630471e-05,109.41000000000376,1.201031e-05,109.41000000000376,6.074032e-05,109.41000000000376,2.988471e-06
109.42500000000376,2.967943e-05,109.42500000000376,1.317055e-05,109.42500000000376,6.155217e-05,109.42500000000376,2.945742e-06
109.44000000000376,3.062639e-05,109.44000000000376,1.311052e-05,109.44000000000376,6.347609e-05,109.44000000000376,2.931361e-06
109.45500000000376,3.084044e-05,109.45500000000376,1.290476e-05,109.45500000000376,6.423913e-05,109.45500000000376,2.921734e-06
109.47000000000376,3.184804e-05,109.47000000000376,1.28358e-05,109.47000000000376,6.599657e-05,109.47000000000376,2.897527e-06
109.48500000000377,3.402623e-05,109.48500000000377,1.309332e-05,109.48500000000377,7.091725e-05,109.48500000000377,2.828646e-06
109.50000000000377,3.44541e-05,109.50000000000377,1.304697e-05,109.50000000000377,7.131934e-05,109.50000000000377,2.863294e-06
109.51500000000377,3.478491e-05,109.51500000000377,1.291349e-05,109.51500000000377,7.400363e-05,109.51500000000377,2.737538e-06
109.53000000000377,3.502543e-05,109.53000000000377,1.291131e-05,109.53000000000377,7.397468e-05,109.53000000000377,2.758045e-06
109.54500000000377,3.472573e-05,109.54500000000377,1.139027e-05,109.54500000000377,7.784514e-05,109.54500000000377,2.758045e-06
109.56000000000377,3.33522e-05,109.56000000000377,1.094114e-05,109.56000000000377,7.349574e-05,109.56000000000377,2.74781e-06
109.57500000000377,3.156771e-05,109.57500000000377,1.095787e-05,109.57500000000377,7.283284e-05,109.57500000000377,2.732388e-06
109.59000000000377,3.141427e-05,109.59000000000377,1.099765e-05,109.59000000000377,6.958763e-05,109.59000000000377,2.690828e-06
109.60500000000377,2.962242e-05,109.60500000000377,1.118057e-05,109.60500000000377,6.564279e-05,109.60500000000377,2.696058e-06
109.62000000000377,2.969936e-05,109.62000000000377,1.176622e-05,109.62000000000377,6.66038e-05,109.62000000000377,2.722057e-06
109.63500000000377,2.980872e-05,109.63500000000377,1.179611e-05,109.63500000000377,6.326469e-05,109.63500000000377,2.74781e-06
109.65000000000377,3.163324e-05,109.65000000000377,1.4281e-05,109.65000000000377,5.974065e-05,109.65000000000377,2.838588e-06
109.66500000000377,3.218769e-05,109.66500000000377,1.632717e-05,109.66500000000377,5.887658e-05,109.66500000000377,2.858369e-06
109.68000000000377,2.858123e-05,109.68000000000377,1.615107e-05,109.68000000000377,5.77716e-05,109.68000000000377,2.853437e-06
109.69500000000377,2.824809e-05,109.69500000000377,1.869467e-05,109.69500000000377,5.494878e-05,109.69500000000377,2.868209e-06
109.71000000000377,2.760393e-05,109.71000000000377,2.138415e-05,109.71000000000377,5.451639e-05,109.71000000000377,2.964809e-06
109.72500000000377,2.62865e-05,109.72500000000377,2.205094e-05,109.72500000000377,5.07027e-05,109.72500000000377,3.039879e-06
109.74000000000377,2.387003e-05,109.74000000000377,2.201002e-05,109.74000000000377,4.53367e-05,109.74000000000377,3.090432e-06
109.75500000000378,2.314738e-05,109.75500000000378,2.219231e-05,109.75500000000378,4.398291e-05,109.75500000000378,3.149131e-06
109.77000000000378,2.27056e-05,109.77000000000378,2.219485e-05,109.77000000000378,3.90328e-05,109.77000000000378,3.180289e-06
109.78500000000378,2.20535e-05,109.78500000000378,2.219739e-05,109.78500000000378,3.918192e-05,109.78500000000378,3.11314e-06
109.80000000000378,2.199978e-05,109.80000000000378,2.293523e-05,109.80000000000378,3.168307e-05,109.80000000000378,3.104077e-06
109.81500000000378,2.297144e-05,109.81500000000378,2.363875e-05,109.81500000000378,3.108611e-05,109.81500000000378,3.140172e-06
109.83000000000378,2.341662e-05,109.83000000000378,2.39272e-05,109.83000000000378,3.050288e-05,109.83000000000378,3.126685e-06
109.84500000000378,2.519025e-05,109.84500000000378,2.390835e-05,109.84500000000378,2.989461e-05,109.84500000000378,3.117661e-06
109.86000000000378,2.806196e-05,109.86000000000378,2.379437e-05,109.86000000000378,2.078418e-05,109.86000000000378,3.104077e-06
109.87500000000378,2.888178e-05,109.87500000000378,2.301249e-05,109.87500000000378,1.883729e-05,109.87500000000378,3.122176e-06
109.89000000000378,2.69177e-05,109.89000000000378,2.328693e-05,109.89000000000378,2.480196e-05,109.89000000000378,3.085871e-06
109.90500000000378,2.533189e-05,109.90500000000378,2.194015e-05,109.90500000000378,2.49791e-05,109.90500000000378,3.039879e-06
109.92000000000378,2.569684e-05,109.92000000000378,2.045352e-05,109.92000000000378,2.551695e-05,109.92000000000378,3.030597e-06
109.93500000000378,2.78068e-05,109.93500000000378,2.019708e-05,109.93500000000378,2.558806e-05,109.93500000000378,3.062961e-06
109.95000000000378,2.786601e-05,109.95000000000378,1.777142e-05,109.95000000000378,2.558696e-05,109.95000000000378,3.01662e-06
109.96500000000378,2.776168e-05,109.96500000000378,1.735597e-05,109.96500000000378,2.558421e-05,109.96500000000378,3.002579e-06
109.98000000000378,2.755132e-05,109.98000000000378,1.712967e-05,109.98000000000378,2.730273e-05,109.98000000000378,2.974296e-06
109.99500000000378,2.756972e-05,109.99500000000378,1.711898e-05,109.99500000000378,2.719106e-05,109.99500000000378,2.897527e-06
110.01000000000379,2.898985e-05,110.01000000000379,1.760258e-05,110.01000000000379,2.667905e-05,110.01000000000379,2.873116e-06
110.02500000000379,3.052365e-05,110.02500000000379,1.796457e-05,110.02500000000379,2.64702e-05,110.02500000000379,2.803635e-06
110.04000000000379,3.078055e-05,110.04000000000379,1.795124e-05,110.04000000000379,2.62806e-05,110.04000000000379,2.711688e-06
110.05500000000379,3.090706e-05,110.05500000000379,1.713049e-05,110.05500000000379,2.396662e-05,110.05500000000379,2.727227e-06
110.07000000000379,3.079336e-05,110.07000000000379,1.63263e-05,110.07000000000379,2.452151e-05,110.07000000000379,2.680338e-06
110.08500000000379,3.126775e-05,110.08500000000379,1.616067e-05,110.08500000000379,2.542958e-05,110.08500000000379,2.742679e-06
110.10000000000379,2.889153e-05,110.10000000000379,1.611877e-05,110.10000000000379,2.55754e-05,110.10000000000379,2.813666e-06
110.11500000000379,2.660027e-05,110.11500000000379,1.608816e-05,110.11500000000379,2.811262e-05,110.11500000000379,2.798606e-06
110.13000000000379,2.709713e-05,110.13000000000379,1.6068e-05,110.13000000000379,2.74986e-05,110.13000000000379,2.783465e-06
110.14500000000379,2.730841e-05,110.14500000000379,1.575192e-05,110.14500000000379,2.586839e-05,110.14500000000379,2.868209e-06
110.16000000000379,2.857433e-05,110.16000000000379,1.43489e-05,110.16000000000379,3.050242e-05,110.16000000000379,2.873116e-06
110.17500000000379,2.79926e-05,110.17500000000379,1.32792e-05,110.17500000000379,4.680948e-05,110.17500000000379,2.878015e-06
110.19000000000379,2.776472e-05,110.19000000000379,1.431745e-05,110.19000000000379,4.844014e-05,110.19000000000379,2.868209e-06
110.20500000000379,2.785033e-05,110.20500000000379,1.42494e-05,110.20500000000379,4.846543e-05,110.20500000000379,2.863294e-06
110.2200000000038,2.818418e-05,110.2200000000038,1.187467e-05,110.2200000000038,4.838078e-05,110.2200000000038,2.823661e-06
110.2350000000038,2.825058e-05,110.2350000000038,1.240382e-05,110.2350000000038,4.755646e-05,110.2350000000038,2.823661e-06
110.2500000000038,2.823711e-05,110.2500000000038,1.3209e-05,110.2500000000038,4.7096e-05,110.2500000000038,2.902385e-06
110.2650000000038,2.609556e-05,110.2650000000038,1.3892e-05,110.2650000000038,4.745564e-05,110.2650000000038,2.887788e-06
110.2800000000038,2.703207e-05,110.2800000000038,1.395775e-05,110.2800000000038,4.753009e-05,110.2800000000038,3.011947e-06
110.2950000000038,2.733109e-05,110.2950000000038,1.470286e-05,110.2950000000038,4.708732e-05,110.2950000000038,3.049133e-06
110.3100000000038,2.998494e-05,110.3100000000038,1.505693e-05,110.3100000000038,4.708313e-05,110.3100000000038,3.049133e-06
110.3250000000038,3.14667e-05,110.3250000000038,1.593507e-05,110.3250000000038,4.954397e-05,110.3250000000038,3.108612e-06
110.3400000000038,3.097762e-05,110.3400000000038,1.610741e-05,110.3400000000038,4.932798e-05,110.3400000000038,3.166973e-06
110.3550000000038,3.074208e-05,110.3550000000038,1.635475e-05,110.3550000000038,5.207629e-05,110.3550000000038,3.144655e-06
110.3700000000038,3.00839e-05,110.3700000000038,1.642952e-05,110.3700000000038,5.101016e-05,110.3700000000038,3.153601e-06
110.3850000000038,2.894657e-05,110.3850000000038,1.651077e-05,110.3850000000038,5.133004e-05,110.3850000000038,3.233005e-06
110.4000000000038,2.905829e-05,110.4000000000038,1.763616e-05,110.4000000000038,4.908464e-05,110.4000000000038,3.211145e-06
110.4150000000038,2.802831e-05,110.4150000000038,1.921196e-05,110.4150000000038,4.67869e-05,110.4150000000038,3.140172e-06
110.4300000000038,2.674339e-05,110.4300000000038,1.909354e-05,110.4300000000038,3.733278e-05,110.4300000000038,3.11314e-06
110.4450000000038,2.639666e-05,110.4450000000038,1.884701e-05,110.4450000000038,3.764204e-05,110.4450000000038,3.044509e-06
110.4600000000038,2.728002e-05,110.4600000000038,1.926248e-05,110.4600000000038,3.764503e-05,110.4600000000038,3.049133e-06
110.4750000000038,2.759117e-05,110.4750000000038,1.875185e-05,110.4750000000038,3.764541e-05,110.4750000000038,3.007266e-06
110.4900000000038,3.135548e-05,110.4900000000038,1.85099e-05,110.4900000000038,3.764354e-05,110.4900000000038,2.988471e-06
110.5050000000038,3.161943e-05,110.5050000000038,1.847104e-05,110.5050000000038,3.764578e-05,110.5050000000038,2.983753e-06
110.5200000000038,3.193329e-05,110.5200000000038,1.720516e-05,110.5200000000038,3.734561e-05,110.5200000000038,2.955291e-06
110.5350000000038,3.342181e-05,110.5350000000038,1.701415e-05,110.5350000000038,3.725535e-05,110.5350000000038,2.892662e-06
110.5500000000038,3.330063e-05,110.5500000000038,1.693864e-05,110.5500000000038,3.748454e-05,110.5500000000038,2.823661e-06
110.5650000000038,2.895971e-05,110.5650000000038,1.693116e-05,110.5650000000038,3.560541e-05,110.5650000000038,2.843547e-06
110.5800000000038,3.641555e-05,110.5800000000038,1.66991e-05,110.5800000000038,3.520956e-05,110.5800000000038,2.696058e-06
110.59500000000381,3.700571e-05,110.59500000000381,1.774921e-05,110.59500000000381,3.938954e-05,110.59500000000381,2.737538e-06
110.61000000000381,3.711139e-05,110.61000000000381,1.82871e-05,110.61000000000381,3.532738e-05,110.61000000000381,2.742679e-06
110.62500000000381,3.773324e-05,110.62500000000381,1.867205e-05,110.62500000000381,3.517994e-05,110.62500000000381,2.659232e-06
110.64000000000381,3.810141e-05,110.64000000000381,1.826011e-05,110.64000000000381,3.586754e-05,110.64000000000381,2.621889e-06
110.65500000000381,3.825379e-05,110.65500000000381,1.844815e-05,110.65500000000381,3.507045e-05,110.65500000000381,2.878015e-06
110.67000000000381,3.805961e-05,110.67000000000381,1.886569e-05,110.67000000000381,2.985311e-05,110.67000000000381,3.021286e-06
110.68500000000381,3.800627e-05,110.68500000000381,1.916056e-05,110.68500000000381,2.751243e-05,110.68500000000381,3.108612e-06
110.70000000000381,3.909843e-05,110.70000000000381,1.898256e-05,110.70000000000381,2.725832e-05,110.70000000000381,3.126685e-06
110.71500000000381,3.945029e-05,110.71500000000381,1.850685e-05,110.71500000000381,2.723196e-05,110.71500000000381,3.166973e-06
110.73000000000381,3.953838e-05,110.73000000000381,1.838466e-05,110.73000000000381,2.718277e-05,110.73000000000381,3.19355e-06
110.74500000000381,3.645846e-05,110.74500000000381,1.856234e-05,110.74500000000381,2.718329e-05,110.74500000000381,3.19355e-06
110.76000000000381,3.641323e-05,110.76000000000381,1.933912e-05,110.76000000000381,2.718484e-05,110.76000000000381,3.197958e-06
110.77500000000381,3.495015e-05,110.77500000000381,1.954489e-05,110.77500000000381,2.695744e-05,110.77500000000381,3.24605e-06
110.79000000000381,3.410976e-05,110.79000000000381,1.928514e-05,110.79000000000381,2.839432e-05,110.79000000000381,3.276286e-06
110.80500000000382,3.364781e-05,110.80500000000382,1.91105e-05,110.80500000000382,2.916474e-05,110.80500000000382,3.431686e-06
110.82000000000382,3.515791e-05,110.82000000000382,1.867507e-05,110.82000000000382,3.101353e-05,110.82000000000382,3.423466e-06
110.83500000000382,2.648616e-05,110.83500000000382,1.842523e-05,110.83500000000382,2.801826e-05,110.83500000000382,3.464369e-06
110.85000000000382,2.656529e-05,110.85000000000382,1.756252e-05,110.85000000000382,3.154226e-05,110.85000000000382,3.456227e-06
110.86500000000382,2.704665e-05,110.86500000000382,1.686614e-05,110.86500000000382,3.454801e-05,110.86500000000382,3.382069e-06
110.88000000000382,2.738464e-05,110.88000000000382,1.700007e-05,110.88000000000382,3.592444e-05,110.88000000000382,3.390388e-06
110.89500000000382,2.707737e-05,110.89500000000382,1.701829e-05,110.89500000000382,3.55365e-05,110.89500000000382,3.327482e-06
110.91000000000382,2.699557e-05,110.91000000000382,1.532676e-05,110.91000000000382,3.589227e-05,110.91000000000382,3.215529e-06
110.92500000000382,2.77992e-05,110.92500000000382,1.463661e-05,110.92500000000382,3.591229e-05,110.92500000000382,3.202359e-06
110.94000000000382,2.779666e-05,110.94000000000382,1.396885e-05,110.94000000000382,3.591817e-05,110.94000000000382,3.166973e-06
110.95500000000382,2.546058e-05,110.95500000000382,1.393351e-05,110.95500000000382,3.591268e-05,110.95500000000382,3.254718e-06
110.97000000000382,2.494186e-05,110.97000000000382,1.40232e-05,110.97000000000382,3.590797e-05,110.97000000000382,3.276286e-06
110.98500000000382,2.481502e-05,110.98500000000382,1.413127e-05,110.98500000000382,3.590719e-05,110.98500000000382,3.280583e-06
111.00000000000382,2.817668e-05,111.00000000000382,1.325159e-05,111.00000000000382,3.591346e-05,111.00000000000382,3.263362e-06
111.01500000000382,2.859848e-05,111.01500000000382,1.306855e-05,111.01500000000382,3.589895e-05,111.01500000000382,3.233005e-06
111.03000000000382,2.805996e-05,111.03000000000382,1.365678e-05,111.03000000000382,3.578143e-05,111.03000000000382,3.284874e-06
111.04500000000382,2.804087e-05,111.04500000000382,1.422566e-05,111.04500000000382,3.424742e-05,111.04500000000382,3.327482e-06
111.06000000000382,2.733264e-05,111.06000000000382,1.366503e-05,111.06000000000382,3.18144e-05,111.06000000000382,3.184716e-06
111.07500000000383,2.588581e-05,111.07500000000383,1.389909e-05,111.07500000000383,2.986255e-05,111.07500000000383,3.206755e-06
111.09000000000383,2.591627e-05,111.09000000000383,1.452842e-05,111.09000000000383,2.261609e-05,111.09000000000383,3.158065e-06
111.10500000000383,2.557154e-05,111.10500000000383,1.454683e-05,111.10500000000383,1.93726e-05,111.10500000000383,3.237359e-06
111.12000000000383,2.45634e-05,111.12000000000383,1.50204e-05,111.12000000000383,1.560908e-05,111.12000000000383,3.301983e-06
111.13500000000383,2.361431e-05,111.13500000000383,1.460481e-05,111.13500000000383,1.183545e-05,111.13500000000383,3.306247e-06
111.15000000000383,2.336905e-05,111.15000000000383,1.409034e-05,111.15000000000383,9.003043e-06,111.15000000000383,3.439886e-06
111.16500000000383,2.370837e-05,111.16500000000383,1.38351e-05,111.16500000000383,7.041671e-06,111.16500000000383,3.423466e-06
111.18000000000383,2.351567e-05,111.18000000000383,1.391226e-05,111.18000000000383,8.065501e-06,111.18000000000383,3.36955e-06
111.19500000000383,2.362445e-05,111.19500000000383,1.415717e-05,111.19500000000383,1.063428e-05,111.19500000000383,3.390388e-06
111.21000000000383,2.31218e-05,111.21000000000383,1.42316e-05,111.21000000000383,1.372264e-05,111.21000000000383,3.356985e-06
111.22500000000383,2.342745e-05,111.22500000000383,1.43263e-05,111.22500000000383,1.407133e-05,111.22500000000383,3.356985e-06
111.24000000000383,2.409031e-05,111.24000000000383,1.408934e-05,111.24000000000383,1.410433e-05,111.24000000000383,3.327482e-06
111.25500000000383,1.947485e-05,111.25500000000383,1.363304e-05,111.25500000000383,1.540102e-05,111.25500000000383,3.394541e-06
111.27000000000383,1.971996e-05,111.27000000000383,1.258981e-05,111.27000000000383,1.970138e-05,111.27000000000383,3.386231e-06
111.28500000000383,1.923394e-05,111.28500000000383,1.33004e-05,111.28500000000383,2.007325e-05,111.28500000000383,3.319004e-06
111.30000000000383,1.934057e-05,111.30000000000383,1.354804e-05,111.30000000000383,2.189066e-05,111.30000000000383,3.241707e-06
111.31500000000383,1.885822e-05,111.31500000000383,1.363924e-05,111.31500000000383,2.192666e-05,111.31500000000383,3.340158e-06
111.33000000000384,1.868336e-05,111.33000000000384,1.350222e-05,111.33000000000384,2.405286e-05,111.33000000000384,3.310505e-06
111.34500000000384,1.857978e-05,111.34500000000384,1.314379e-05,111.34500000000384,2.424419e-05,111.34500000000384,3.419349e-06
111.36000000000384,1.878787e-05,111.36000000000384,1.381268e-05,111.36000000000384,2.872724e-05,111.36000000000384,3.536803e-06
111.37500000000384,1.870747e-05,111.37500000000384,1.387272e-05,111.37500000000384,2.992475e-05,111.37500000000384,3.448066e-06
111.39000000000384,1.880061e-05,111.39000000000384,1.427607e-05,111.39000000000384,2.999762e-05,111.39000000000384,3.406967e-06
111.40500000000384,1.881185e-05,111.40500000000384,1.396683e-05,111.40500000000384,3.111058e-05,111.40500000000384,3.377901e-06
111.42000000000384,1.772618e-05,111.42000000000384,1.457971e-05,111.42000000000384,3.098126e-05,111.42000000000384,3.464369e-06
111.43500000000384,1.704641e-05,111.43500000000384,1.729173e-05,111.43500000000384,3.072375e-05,111.43500000000384,3.435788e-06
111.45000000000384,2.298493e-05,111.45000000000384,1.744098e-05,111.45000000000384,2.95753e-05,111.45000000000384,3.419349e-06
111.46500000000384,2.314251e-05,111.46500000000384,1.736652e-05,111.46500000000384,2.868651e-05,111.46500000000384,3.361178e-06
111.48000000000384,2.303024e-05,111.48000000000384,1.764414e-05,111.48000000000384,2.853042e-05,111.48000000000384,3.348582e-06
111.49500000000384,2.308217e-05,111.49500000000384,1.772062e-05,111.49500000000384,2.855263e-05,111.49500000000384,3.323245e-06
111.51000000000384,2.291496e-05,111.51000000000384,1.790095e-05,111.51000000000384,2.710648e-05,111.51000000000384,3.267676e-06
111.52500000000384,2.342504e-05,111.52500000000384,1.803188e-05,111.52500000000384,2.496387e-05,111.52500000000384,3.301983e-06
111.54000000000384,2.387947e-05,111.54000000000384,1.801312e-05,111.54000000000384,2.469723e-05,111.54000000000384,3.327482e-06
111.55500000000384,2.434798e-05,111.55500000000384,1.742967e-05,111.55500000000384,2.310657e-05,111.55500000000384,3.361178e-06
111.57000000000384,2.445938e-05,111.57000000000384,1.723052e-05,111.57000000000384,2.305469e-05,111.57000000000384,3.28916e-06
111.58500000000384,2.466813e-05,111.58500000000384,1.710251e-05,111.58500000000384,2.077469e-05,111.58500000000384,3.206755e-06
111.60000000000385,2.411661e-05,111.60000000000385,1.76617e-05,111.60000000000385,2.048517e-05,111.60000000000385,3.099535e-06
111.61500000000385,2.402473e-05,111.61500000000385,1.764414e-05,111.61500000000385,1.16253e-05,111.61500000000385,3.049133e-06
111.63000000000385,2.415922e-05,111.63000000000385,1.753603e-05,111.63000000000385,1.091665e-05,111.63000000000385,3.094987e-06
111.64500000000385,2.423432e-05,111.64500000000385,1.774921e-05,111.64500000000385,9.190417e-06,111.64500000000385,3.085871e-06
111.66000000000385,2.44709e-05,111.66000000000385,1.773969e-05,111.66000000000385,5.696992e-06,111.66000000000385,3.053749e-06
111.67500000000385,2.409616e-05,111.67500000000385,1.742482e-05,111.67500000000385,5.644828e-06,111.67500000000385,3.166973e-06
111.69000000000385,2.22329e-05,111.69000000000385,1.540285e-05,111.69000000000385,5.865124e-06,111.69000000000385,3.263362e-06
111.70500000000385,1.888211e-05,111.70500000000385,1.525767e-05,111.70500000000385,7.508323e-06,111.70500000000385,3.250386e-06
111.72000000000385,1.81285e-05,111.72000000000385,1.537265e-05,111.72000000000385,8.035755e-06,111.72000000000385,3.29344e-06
111.73500000000385,1.721498e-05,111.73500000000385,1.467505e-05,111.73500000000385,9.404052e-06,111.73500000000385,3.237359e-06
111.75000000000385,1.715761e-05,111.75000000000385,1.466737e-05,111.75000000000385,9.74827e-06,111.75000000000385,3.237359e-06
111.76500000000385,1.68352e-05,111.76500000000385,1.449736e-05,111.76500000000385,1.007375e-05,111.76500000000385,3.24605e-06
111.78000000000385,1.481073e-05,111.78000000000385,1.376159e-05,111.78000000000385,1.37329e-05,111.78000000000385,3.175857e-06
111.79500000000385,1.438224e-05,111.79500000000385,1.328874e-05,111.79500000000385,1.471723e-05,111.79500000000385,3.197958e-06
111.81000000000385,1.383408e-05,111.81000000000385,1.312877e-05,111.81000000000385,1.878862e-05,111.81000000000385,3.135683e-06
111.82500000000385,1.717648e-05,111.82500000000385,1.33353e-05,111.82500000000385,1.966417e-05,111.82500000000385,3.099535e-06
111.84000000000385,1.823387e-05,111.84000000000385,1.335325e-05,111.84000000000385,2.562767e-05,111.84000000000385,3.090432e-06
111.85500000000386,2.216691e-05,111.85500000000386,1.178775e-05,111.85500000000386,2.854918e-05,111.85500000000386,3.081303e-06
111.87000000000386,2.314373e-05,111.87000000000386,1.135683e-05,111.87000000000386,2.958673e-05,111.87000000000386,3.067557e-06
111.88500000000386,2.288851e-05,111.88500000000386,1.081554e-05,111.88500000000386,3.041686e-05,111.88500000000386,3.094987e-06
111.90000000000386,2.356833e-05,111.90000000000386,1.035373e-05,111.90000000000386,3.106436e-05,111.90000000000386,3.007266e-06
111.91500000000386,2.507928e-05,111.91500000000386,9.512773e-06,111.91500000000386,3.251036e-05,111.91500000000386,3.002579e-06
111.93000000000386,2.51281e-05,111.93000000000386,9.465269e-06,111.93000000000386,3.315054e-05,111.93000000000386,2.778399e-06
111.94500000000386,2.541739e-05,111.94500000000386,9.555621e-06,111.94500000000386,3.49078e-05,111.94500000000386,2.788521e-06
111.96000000000386,2.563537e-05,111.96000000000386,9.733809e-06,111.96000000000386,3.466808e-05,111.96000000000386,2.940956e-06
111.97500000000386,2.579368e-05,111.97500000000386,1.097714e-05,111.97500000000386,3.491264e-05,111.97500000000386,2.882905e-06
111.99000000000386,2.561667e-05,111.99000000000386,1.122207e-05,111.99000000000386,3.492797e-05,111.99000000000386,2.940956e-06
112.00500000000386,2.560953e-05,112.00500000000386,1.128217e-05,112.00500000000386,3.530824e-05,112.00500000000386,2.912075e-06
112.02000000000386,2.557044e-05,112.02000000000386,1.150839e-05,112.02000000000386,3.508611e-05,112.02000000000386,2.921734e-06
112.03500000000386,2.564416e-05,112.03500000000386,1.16483e-05,112.03500000000386,3.43878e-05,112.03500000000386,2.907234e-06
112.05000000000386,2.566228e-05,112.05000000000386,1.179969e-05,112.05000000000386,3.343024e-05,112.05000000000386,2.907234e-06
112.06500000000386,2.523048e-05,112.06500000000386,1.173985e-05,112.06500000000386,3.234486e-05,112.06500000000386,2.95052e-06
112.08000000000386,2.341121e-05,112.08000000000386,1.135683e-05,112.08000000000386,3.025899e-05,112.08000000000386,2.916909e-06
112.09500000000386,2.17428e-05,112.09500000000386,1.132454e-05,112.09500000000386,2.804891e-05,112.09500000000386,2.997883e-06
112.11000000000386,2.025976e-05,112.11000000000386,1.159254e-05,112.11000000000386,2.469153e-05,112.11000000000386,2.907234e-06
112.12500000000387,1.975565e-05,112.12500000000387,1.103856e-05,112.12500000000387,2.384464e-05,112.12500000000387,2.988471e-06
112.14000000000387,2.027435e-05,112.14000000000387,1.10666e-05,112.14000000000387,2.417379e-05,112.14000000000387,2.988471e-06
112.15500000000387,1.940747e-05,112.15500000000387,1.145932e-05,112.15500000000387,2.46367e-05,112.15500000000387,3.072146e-06
112.17000000000387,1.809349e-05,112.17000000000387,1.248871e-05,112.17000000000387,2.422385e-05,112.17000000000387,3.158065e-06
112.18500000000387,1.828864e-05,112.18500000000387,1.238791e-05,112.18500000000387,2.159979e-05,112.18500000000387,3.158065e-06
112.20000000000387,2.106023e-05,112.20000000000387,1.240496e-05,112.20000000000387,2.578166e-05,112.20000000000387,3.01662e-06
112.21500000000387,2.188937e-05,112.21500000000387,1.207932e-05,112.21500000000387,2.853437e-05,112.21500000000387,2.988471e-06
112.23000000000387,2.225506e-05,112.23000000000387,1.094887e-05,112.23000000000387,3.046082e-05,112.23000000000387,2.945742e-06
112.24500000000387,2.415747e-05,112.24500000000387,1.11604e-05,112.24500000000387,4.865109e-05,112.24500000000387,2.897527e-06
112.26000000000387,2.799059e-05,112.26000000000387,1.128342e-05,112.26000000000387,5.075213e-05,112.26000000000387,2.936162e-06
112.27500000000387,2.908106e-05,112.27500000000387,1.178655e-05,112.27500000000387,5.132785e-05,112.27500000000387,2.95052e-06
112.29000000000387,2.998165e-05,112.29000000000387,1.239473e-05,112.29000000000387,5.137202e-05,112.29000000000387,2.997883e-06
112.30500000000387,2.990261e-05,112.30500000000387,1.280944e-05,112.30500000000387,5.118824e-05,112.30500000000387,3.11314e-06
112.32000000000387,2.984697e-05,112.32000000000387,1.345309e-05,112.32000000000387,5.095738e-05,112.32000000000387,3.131187e-06
112.33500000000387,2.987292e-05,112.33500000000387,1.417407e-05,112.33500000000387,5.154994e-05,112.33500000000387,3.19355e-06
112.35000000000387,3.022731e-05,112.35000000000387,1.503071e-05,112.35000000000387,5.14386e-05,112.35000000000387,3.215529e-06
112.36500000000387,2.983895e-05,112.36500000000387,1.573313e-05,112.36500000000387,5.143121e-05,112.36500000000387,3.158065e-06
112.38000000000388,2.992663e-05,112.38000000000388,1.633752e-05,112.38000000000388,5.09372e-05,112.38000000000388,3.122176e-06
112.39500000000388,2.96248e-05,112.39500000000388,1.885747e-05,112.39500000000388,5.15021e-05,112.39500000000388,3.158065e-06
112.41000000000388,2.958721e-05,112.41000000000388,1.925663e-05,112.41000000000388,5.093554e-05,112.41000000000388,3.149131e-06
112.42500000000388,2.990261e-05,112.42500000000388,1.861841e-05,112.42500000000388,5.049557e-05,112.42500000000388,3.122176e-06
112.44000000000388,3.012882e-05,112.44000000000388,1.911271e-05,112.44000000000388,5.018271e-05,112.44000000000388,3.104077e-06
112.45500000000388,2.834417e-05,112.45500000000388,1.935805e-05,112.45500000000388,4.790354e-05,112.45500000000388,3.108612e-06
112.47000000000388,2.744836e-05,112.47000000000388,1.964482e-05,112.47000000000388,4.838893e-05,112.47000000000388,3.149131e-06
112.48500000000388,2.769868e-05,112.48500000000388,1.983393e-05,112.48500000000388,4.728495e-05,112.48500000000388,3.224279e-06
112.50000000000388,2.607775e-05,112.50000000000388,1.959024e-05,112.50000000000388,2.984367e-05,112.50000000000388,3.361178e-06
112.51500000000388,2.248867e-05,112.51500000000388,1.998464e-05,112.51500000000388,3.20082e-05,112.51500000000388,3.382069e-06
112.53000000000388,2.36602e-05,112.53000000000388,2.046247e-05,112.53000000000388,3.620022e-05,112.53000000000388,3.536803e-06
112.54500000000388,2.299718e-05,112.54500000000388,2.004376e-05,112.54500000000388,3.7216e-05,112.54500000000388,3.520835e-06
112.56000000000388,2.376712e-05,112.56000000000388,1.946689e-05,112.56000000000388,3.846532e-05,112.56000000000388,3.435788e-06
112.57500000000388,2.467555e-05,112.57500000000388,1.928733e-05,112.57500000000388,4.276534e-05,112.57500000000388,3.419349e-06
112.59000000000388,2.443691e-05,112.59000000000388,1.865091e-05,112.59000000000388,4.33909e-05,112.59000000000388,3.406967e-06
112.60500000000388,2.461611e-05,112.60500000000388,1.873231e-05,112.60500000000388,4.50915e-05,112.60500000000388,3.435788e-06
112.62000000000388,2.525615e-05,112.62000000000388,1.842599e-05,112.62000000000388,4.549581e-05,112.62000000000388,3.460301e-06
112.63500000000388,2.525782e-05,112.63500000000388,1.729499e-05,112.63500000000388,4.702506e-05,112.63500000000388,3.448066e-06
112.65000000000389,2.502868e-05,112.65000000000389,1.528995e-05,112.65000000000389,4.764288e-05,112.65000000000389,3.348582e-06
112.66500000000389,2.514772e-05,112.66500000000389,1.520125e-05,112.66500000000389,4.781907e-05,112.66500000000389,3.284874e-06
112.68000000000389,2.51606e-05,112.68000000000389,1.516971e-05,112.68000000000389,4.839271e-05,112.68000000000389,3.250386e-06
112.69500000000389,2.540408e-05,112.69500000000389,1.477264e-05,112.69500000000389,4.949162e-05,112.69500000000389,3.263362e-06
112.71000000000389,2.545283e-05,112.71000000000389,1.445551e-05,112.71000000000389,4.959512e-05,112.71000000000389,3.390388e-06
112.72500000000389,2.560898e-05,112.72500000000389,1.40041e-05,112.72500000000389,5.012007e-05,112.72500000000389,3.365367e-06
112.74000000000389,2.546445e-05,112.74000000000389,1.390315e-05,112.74000000000389,5.067129e-05,112.74000000000389,3.340158e-06
112.75500000000389,2.505343e-05,112.75500000000389,1.378205e-05,112.75500000000389,5.021555e-05,112.75500000000389,3.297714e-06
112.77000000000389,2.405637e-05,112.77000000000389,1.282263e-05,112.77000000000389,5.483843e-05,112.77000000000389,3.267676e-06
112.78500000000389,2.388773e-05,112.78500000000389,1.182593e-05,112.78500000000389,5.445227e-05,112.78500000000389,3.025945e-06
112.80000000000389,2.470294e-05,112.80000000000389,1.189837e-05,112.80000000000389,5.815558e-05,112.80000000000389,3.085871e-06
112.81500000000389,2.342083e-05,112.81500000000389,1.189718e-05,112.81500000000389,6.567025e-05,112.81500000000389,3.104077e-06
112.83000000000389,2.35761e-05,112.83000000000389,1.215488e-05,112.83000000000389,6.357566e-05,112.83000000000389,3.072146e-06
112.84500000000389,2.38889e-05,112.84500000000389,1.151328e-05,112.84500000000389,6.287629e-05,112.84500000000389,3.19355e-06
112.8600000000039,3.190946e-05,112.8600000000039,1.002609e-05,112.8600000000039,6.148256e-05,112.8600000000039,3.206755e-06
112.8750000000039,3.137299e-05,112.8750000000039,1.106023e-05,112.8750000000039,6.071411e-05,112.8750000000039,3.348582e-06
112.8900000000039,3.212198e-05,112.8900000000039,1.382593e-05,112.8900000000039,5.97878e-05,112.8900000000039,3.472492e-06
112.9050000000039,3.207985e-05,112.9050000000039,1.477645e-05,112.9050000000039,5.87772e-05,112.9050000000039,3.588207e-06
112.9200000000039,3.273792e-05,112.9200000000039,1.468177e-05,112.9200000000039,5.859574e-05,112.9200000000039,3.524834e-06
112.9350000000039,3.179226e-05,112.9350000000039,1.466545e-05,112.9350000000039,5.81316e-05,112.9350000000039,3.56062e-06
112.9500000000039,3.203679e-05,112.9500000000039,1.485821e-05,112.9500000000039,5.763392e-05,112.9500000000039,3.623367e-06
112.9650000000039,3.213031e-05,112.9650000000039,1.567841e-05,112.9650000000039,5.654228e-05,112.9650000000039,3.512824e-06
112.9800000000039,3.19227e-05,112.9800000000039,1.560456e-05,112.9800000000039,5.616934e-05,112.9800000000039,3.568524e-06
112.9950000000039,3.297842e-05,112.9950000000039,1.620941e-05,112.9950000000039,5.267311e-05,112.9950000000039,3.528828e-06
113.0100000000039,3.446963e-05,113.0100000000039,1.68193e-05,113.0100000000039,5.238402e-05,113.0100000000039,3.552699e-06
113.0250000000039,3.430331e-05,113.0250000000039,1.746681e-05,113.0250000000039,4.546639e-05,113.0250000000039,3.572469e-06
113.0400000000039,3.426715e-05,113.0400000000039,1.765212e-05,113.0400000000039,4.225102e-05,113.0400000000039,3.564574e-06
113.0550000000039,3.400636e-05,113.0550000000039,1.761218e-05,113.0550000000039,2.300208e-05,113.0550000000039,3.512824e-06
113.0700000000039,3.438657e-05,113.0700000000039,1.769118e-05,113.0700000000039,2.192217e-05,113.0700000000039,3.504795e-06
113.0850000000039,3.438821e-05,113.0850000000039,1.796301e-05,113.0850000000039,2.208988e-05,113.0850000000039,3.356985e-06
113.1000000000039,3.214433e-05,113.1000000000039,1.816808e-05,113.1000000000039,2.232206e-05,113.1000000000039,3.319004e-06
113.1150000000039,2.702112e-05,113.1150000000039,1.780073e-05,113.1150000000039,2.290204e-05,113.1150000000039,3.335938e-06
113.1300000000039,2.981014e-05,113.1300000000039,1.673786e-05,113.1300000000039,2.367924e-05,113.1300000000039,3.254718e-06
113.1450000000039,2.970884e-05,113.1450000000039,1.410233e-05,113.1450000000039,2.725677e-05,113.1450000000039,3.19355e-06
113.1600000000039,3.048763e-05,113.1600000000039,1.407133e-05,113.1600000000039,2.906023e-05,113.1600000000039,3.140172e-06
113.1750000000039,3.012602e-05,113.1750000000039,1.401315e-05,113.1750000000039,2.976758e-05,113.1750000000039,3.153601e-06
113.1900000000039,3.078558e-05,113.1900000000039,1.402219e-05,113.1900000000039,3.588207e-05,113.1900000000039,3.090432e-06
113.2050000000039,3.100762e-05,113.2050000000039,1.413526e-05,113.2050000000039,3.500814e-05,113.2050000000039,3.076727e-06
113.2200000000039,3.078375e-05,113.2200000000039,1.343318e-05,113.2200000000039,3.49191e-05,113.2200000000039,3.122176e-06
113.23500000000391,3.051904e-05,113.23500000000391,1.352203e-05,113.23500000000391,3.485166e-05,113.23500000000391,3.044509e-06
113.25000000000391,2.939183e-05,113.25000000000391,1.307394e-05,113.25000000000391,3.453577e-05,113.25000000000391,3.062961e-06
113.26500000000391,2.920094e-05,113.26500000000391,1.178058e-05,113.26500000000391,3.412669e-05,113.26500000000391,3.025945e-06
113.28000000000391,3.048024e-05,113.28000000000391,1.191966e-05,113.28000000000391,3.710418e-05,113.28000000000391,3.085871e-06
113.29500000000391,3.061075e-05,113.29500000000391,1.187111e-05,113.29500000000391,3.732146e-05,113.29500000000391,3.117661e-06
113.31000000000391,3.054164e-05,113.31000000000391,1.179611e-05,113.31000000000391,3.692683e-05,113.31000000000391,3.180289e-06
113.32500000000391,3.118294e-05,113.32500000000391,1.118813e-05,113.32500000000391,3.793764e-05,113.32500000000391,3.197958e-06
113.34000000000391,3.163012e-05,113.34000000000391,1.100149e-05,113.34000000000391,3.803591e-05,113.34000000000391,3.323245e-06
113.35500000000391,3.170529e-05,113.35500000000391,1.049427e-05,113.35500000000391,4.033344e-05,113.35500000000391,3.310505e-06
113.37000000000391,2.856694e-05,113.37000000000391,1.162167e-05,113.37000000000391,4.140402e-05,113.37000000000391,3.233005e-06
113.38500000000391,2.792862e-05,113.38500000000391,1.261999e-05,113.38500000000391,4.204883e-05,113.38500000000391,3.297714e-06
113.40000000000391,2.806949e-05,113.40000000000391,1.287634e-05,113.40000000000391,3.978204e-05,113.40000000000391,3.284874e-06
113.41500000000391,2.761362e-05,113.41500000000391,1.431647e-05,113.41500000000391,3.914991e-05,113.41500000000391,3.394541e-06
113.43000000000391,2.768953e-05,113.43000000000391,1.501758e-05,113.43000000000391,3.759373e-05,113.43000000000391,3.472492e-06
113.44500000000392,2.714024e-05,113.44500000000392,1.49612e-05,113.44500000000392,3.32854e-05,113.44500000000392,3.56062e-06
113.46000000000392,2.727744e-05,113.46000000000392,1.431548e-05,113.46000000000392,3.280068e-05,113.46000000000392,3.496747e-06
113.47500000000392,2.772766e-05,113.47500000000392,1.507843e-05,113.47500000000392,3.274351e-05,113.47500000000392,3.460301e-06
113.49000000000392,2.878211e-05,113.49000000000392,1.716664e-05,113.49000000000392,3.260253e-05,113.49000000000392,3.508812e-06
113.50500000000392,2.773985e-05,113.50500000000392,1.751754e-05,113.50500000000392,3.275168e-05,113.50500000000392,3.468433e-06
113.52000000000392,2.590812e-05,113.52000000000392,1.864638e-05,113.52000000000392,3.038999e-05,113.52000000000392,3.500774e-06
113.53500000000392,2.566008e-05,113.53500000000392,1.877512e-05,113.53500000000392,3.003423e-05,113.53500000000392,3.456227e-06
113.55000000000392,2.509501e-05,113.55000000000392,1.878187e-05,113.55000000000392,2.905053e-05,113.55000000000392,3.423466e-06
113.56500000000392,2.426684e-05,113.56500000000392,1.887465e-05,113.56500000000392,2.847507e-05,113.56500000000392,3.40283e-06
113.58000000000392,2.333165e-05,113.58000000000392,1.882308e-05,113.58000000000392,2.6806e-05,113.58000000000392,3.323245e-06
113.59500000000392,2.190738e-05,113.59500000000392,1.883355e-05,113.59500000000392,2.782402e-05,113.59500000000392,3.237359e-06
113.61000000000392,2.344788e-05,113.61000000000392,1.896845e-05,113.61000000000392,2.427961e-05,113.61000000000392,3.237359e-06
113.62500000000392,2.34064e-05,113.62500000000392,1.792532e-05,113.62500000000392,2.474681e-05,113.62500000000392,3.241707e-06
113.64000000000392,2.362862e-05,113.64000000000392,1.741673e-05,113.64000000000392,2.292049e-05,113.64000000000392,3.202359e-06
113.65500000000392,2.303268e-05,113.65500000000392,1.760178e-05,113.65500000000392,2.260737e-05,113.65500000000392,3.189136e-06
113.67000000000392,2.155932e-05,113.67000000000392,1.635045e-05,113.67000000000392,2.215419e-05,113.67000000000392,3.140172e-06
113.68500000000392,2.097444e-05,113.68500000000392,1.547585e-05,113.68500000000392,2.095764e-05,113.68500000000392,3.162522e-06
113.70000000000393,2.024585e-05,113.70000000000393,1.557746e-05,113.70000000000393,2.125332e-05,113.70000000000393,3.081303e-06
113.71500000000393,1.958017e-05,113.71500000000393,1.54056e-05,113.71500000000393,2.161153e-05,113.71500000000393,3.076727e-06
113.73000000000393,1.902925e-05,113.73000000000393,1.482784e-05,113.73000000000393,2.375348e-05,113.73000000000393,3.175857e-06
113.74500000000393,1.946328e-05,113.74500000000393,1.193973e-05,113.74500000000393,2.381804e-05,113.74500000000393,3.202359e-06
113.76000000000393,1.937114e-05,113.76000000000393,1.232178e-05,113.76000000000393,2.377245e-05,113.76000000000393,3.224279e-06
113.77500000000393,1.850609e-05,113.77500000000393,1.084675e-05,113.77500000000393,2.300025e-05,113.77500000000393,3.340158e-06
113.79000000000393,1.82632e-05,113.79000000000393,1.039446e-05,113.79000000000393,2.26441e-05,113.79000000000393,3.439886e-06
113.80500000000393,2.120289e-05,113.80500000000393,1.035509e-05,113.80500000000393,2.43144e-05,113.80500000000393,3.448066e-06
113.82000000000393,2.168571e-05,113.82000000000393,1.008074e-05,113.82000000000393,2.432888e-05,113.82000000000393,3.431686e-06
113.83500000000393,2.179521e-05,113.83500000000393,1.008633e-05,113.83500000000393,2.334493e-05,113.83500000000393,3.448066e-06
113.85000000000393,2.153513e-05,113.85000000000393,9.803028e-06,113.85000000000393,2.186812e-05,113.85000000000393,3.472492e-06
113.86500000000393,2.051953e-05,113.86500000000393,9.633435e-06,113.86500000000393,1.971711e-05,113.86500000000393,3.439886e-06
113.88000000000393,2.038798e-05,113.88000000000393,9.565934e-06,113.88000000000393,1.850533e-05,113.88000000000393,3.443979e-06
113.89500000000393,1.994018e-05,113.89500000000393,9.136613e-06,113.89500000000393,2.109031e-05,113.89500000000393,3.373728e-06
113.91000000000393,2.1151e-05,113.91000000000393,8.835633e-06,113.91000000000393,2.118162e-05,113.91000000000393,3.340158e-06
113.92500000000393,2.085252e-05,113.92500000000393,8.853152e-06,113.92500000000393,2.121617e-05,113.92500000000393,3.361178e-06
113.94000000000393,2.07618e-05,113.94000000000393,8.715239e-06,113.94000000000393,2.307973e-05,113.94000000000393,3.348582e-06
113.95500000000393,2.124934e-05,113.95500000000393,8.658483e-06,113.95500000000393,2.295181e-05,113.95500000000393,3.386231e-06
113.97000000000394,2.077266e-05,113.97000000000394,9.133529e-06,113.97000000000394,2.134723e-05,113.97000000000394,3.390388e-06
113.98500000000394,2.33401e-05,113.98500000000394,8.651973e-06,113.98500000000394,2.07231e-05,113.98500000000394,3.280583e-06
114.00000000000394,2.312607e-05,114.00000000000394,8.456004e-06,114.00000000000394,2.235926e-05,114.00000000000394,3.144655e-06
114.01500000000394,2.317718e-05,114.01500000000394,8.301328e-06,114.01500000000394,2.330205e-05,114.01500000000394,3.126685e-06
114.03000000000394,2.340459e-05,114.03000000000394,7.968863e-06,114.03000000000394,2.34617e-05,114.03000000000394,3.01662e-06
114.04500000000394,2.349889e-05,114.04500000000394,9.469733e-06,114.04500000000394,2.209307e-05,114.04500000000394,2.955291e-06
114.06000000000394,2.004376e-05,114.06000000000394,1.027588e-05,114.06000000000394,2.163238e-05,114.06000000000394,2.907234e-06
114.07500000000394,1.999943e-05,114.07500000000394,1.139769e-05,114.07500000000394,2.180038e-05,114.07500000000394,2.936162e-06
114.09000000000394,2.003602e-05,114.09000000000394,1.209447e-05,114.09000000000394,2.275828e-05,114.09000000000394,2.926552e-06
114.10500000000394,1.934567e-05,114.10500000000394,1.219307e-05,114.10500000000394,2.34617e-05,114.10500000000394,3.002579e-06
114.12000000000394,2.001703e-05,114.12000000000394,1.223228e-05,114.12000000000394,2.314616e-05,114.12000000000394,2.960054e-06
114.13500000000394,2.027157e-05,114.13500000000394,1.212936e-05,114.13500000000394,2.265219e-05,114.13500000000394,3.011947e-06
114.15000000000394,1.949148e-05,114.15000000000394,1.358335e-05,114.15000000000394,2.079841e-05,114.15000000000394,2.983753e-06
114.16500000000394,1.917232e-05,114.16500000000394,1.432139e-05,114.16500000000394,2.126856e-05,114.16500000000394,2.912075e-06
114.18000000000394,1.919582e-05,114.18000000000394,1.454973e-05,114.18000000000394,2.148929e-05,114.18000000000394,2.868209e-06
114.19500000000394,1.869316e-05,114.19500000000394,1.50279e-05,114.19500000000394,2.047761e-05,114.19500000000394,2.833621e-06
114.21000000000394,1.848324e-05,114.21000000000394,1.483544e-05,114.21000000000394,2.046866e-05,114.21000000000394,2.803635e-06
114.22500000000394,1.852891e-05,114.22500000000394,1.481834e-05,114.22500000000394,2.055931e-05,114.22500000000394,2.868209e-06
114.24000000000395,1.352619e-05,114.24000000000395,1.450027e-05,114.24000000000395,2.159523e-05,114.24000000000395,2.882905e-06
114.25500000000395,1.364646e-05,114.25500000000395,1.451386e-05,114.25500000000395,2.00564e-05,114.25500000000395,2.955291e-06
114.27000000000395,1.346147e-05,114.27000000000395,1.44925e-05,114.27000000000395,1.964195e-05,114.27000000000395,3.025945e-06
114.28500000000395,1.315021e-05,114.28500000000395,1.493858e-05,114.28500000000395,1.94857e-05,114.28500000000395,3.01662e-06
114.30000000000395,1.342059e-05,114.30000000000395,1.385544e-05,114.30000000000395,1.948353e-05,114.30000000000395,3.085871e-06
114.31500000000395,1.3451e-05,114.31500000000395,1.385239e-05,114.31500000000395,1.868412e-05,114.31500000000395,3.11314e-06
114.33000000000395,1.425928e-05,114.33000000000395,1.295052e-05,114.33000000000395,1.987933e-05,114.33000000000395,3.117661e-06
114.34500000000395,1.45507e-05,114.34500000000395,1.290912e-05,114.34500000000395,1.840764e-05,114.34500000000395,3.180289e-06
114.36000000000395,1.409334e-05,114.36000000000395,1.285883e-05,114.36000000000395,1.958665e-05,114.36000000000395,3.284874e-06
114.37500000000395,1.397187e-05,114.37500000000395,1.290257e-05,114.37500000000395,1.958449e-05,114.37500000000395,3.241707e-06
114.39000000000395,1.626406e-05,114.39000000000395,1.3061e-05,114.39000000000395,2.186168e-05,114.39000000000395,3.310505e-06
114.40500000000395,1.724687e-05,114.40500000000395,1.153406e-05,114.40500000000395,2.39272e-05,114.40500000000395,3.348582e-06
114.42000000000395,1.781576e-05,114.42000000000395,1.133448e-05,114.42000000000395,2.492491e-05,114.42000000000395,3.448066e-06
114.43500000000395,1.8067e-05,114.43500000000395,1.111867e-05,114.43500000000395,2.741703e-05,114.43500000000395,3.452149e-06
114.45000000000395,1.866979e-05,114.45000000000395,1.069767e-05,114.45000000000395,2.83198e-05,114.45000000000395,3.464369e-06
114.46500000000395,1.978415e-05,114.46500000000395,1.060111e-05,114.46500000000395,2.902482e-05,114.46500000000395,3.415227e-06
114.48000000000395,2.026045e-05,114.48000000000395,1.060111e-05,114.48000000000395,2.968085e-05,114.48000000000395,3.365367e-06
114.49500000000396,2.032986e-05,114.49500000000396,1.118183e-05,114.49500000000396,3.227117e-05,114.49500000000396,3.331712e-06
114.51000000000396,2.063249e-05,114.51000000000396,1.118183e-05,114.51000000000396,3.219994e-05,114.51000000000396,3.263362e-06
114.52500000000396,2.125398e-05,114.52500000000396,1.115913e-05,114.52500000000396,3.377984e-05,114.52500000000396,3.271984e-06
114.54000000000396,2.16037e-05,114.54000000000396,1.06356e-05,114.54000000000396,3.389682e-05,114.54000000000396,3.284874e-06
114.55500000000396,2.112968e-05,114.55500000000396,1.05585e-05,114.55500000000396,3.391593e-05,114.55500000000396,3.175857e-06
114.57000000000396,2.106291e-05,114.57000000000396,1.107551e-05,114.57000000000396,3.366288e-05,114.57000000000396,3.140172e-06
114.58500000000396,2.365483e-05,114.58500000000396,1.077901e-05,114.58500000000396,3.289331e-05,114.58500000000396,3.158065e-06
114.60000000000396,2.490851e-05,114.60000000000396,1.081684e-05,114.60000000000396,3.206316e-05,114.60000000000396,3.002579e-06
114.61500000000396,2.576144e-05,114.61500000000396,1.085973e-05,114.61500000000396,3.162968e-05,114.61500000000396,2.979029e-06
114.63000000000396,2.541351e-05,114.63000000000396,1.110853e-05,114.63000000000396,3.159536e-05,114.63000000000396,2.921734e-06
114.64500000000396,2.369767e-05,114.64500000000396,1.11212e-05,114.64500000000396,2.957054e-05,114.64500000000396,2.838588e-06
114.66000000000396,2.329963e-05,114.66000000000396,1.043774e-05,114.66000000000396,2.944212e-05,114.66000000000396,2.742679e-06
114.67500000000396,2.3018e-05,114.67500000000396,1.03904e-05,114.67500000000396,2.73182e-05,114.67500000000396,2.706488e-06
114.69000000000396,2.315164e-05,114.69000000000396,1.064487e-05,114.69000000000396,2.608315e-05,114.69000000000396,2.798606e-06
114.70500000000396,2.321908e-05,114.70500000000396,1.093986e-05,114.70500000000396,2.401183e-05,114.70500000000396,2.921734e-06
114.72000000000396,2.221769e-05,114.72000000000396,1.101429e-05,114.72000000000396,2.403235e-05,114.72000000000396,2.926552e-06
114.73500000000396,2.220373e-05,114.73500000000396,1.106023e-05,114.73500000000396,2.114234e-05,114.73500000000396,2.969556e-06
114.75000000000396,2.204264e-05,114.75000000000396,1.068845e-05,114.75000000000396,1.833402e-05,114.75000000000396,2.979029e-06
114.76500000000397,2.158805e-05,114.76500000000397,1.076985e-05,114.76500000000397,1.765531e-05,114.76500000000397,2.969556e-06
114.78000000000397,2.090919e-05,114.78000000000397,1.092052e-05,114.78000000000397,1.445844e-05,114.78000000000397,3.030597e-06
114.79500000000397,2.087278e-05,114.79500000000397,1.047412e-05,114.79500000000397,1.479932e-05,114.79500000000397,3.067557e-06
114.81000000000397,2.083833e-05,114.81000000000397,1.075022e-05,114.81000000000397,1.710498e-05,114.81000000000397,3.104077e-06
114.82500000000397,1.902407e-05,114.82500000000397,1.068186e-05,114.82500000000397,1.832326e-05,114.82500000000397,3.202359e-06
114.84000000000397,1.632889e-05,114.84000000000397,1.071609e-05,114.84000000000397,1.907509e-05,114.84000000000397,3.233005e-06
114.85500000000397,1.588372e-05,114.85500000000397,1.160226e-05,114.85500000000397,1.923101e-05,114.85500000000397,3.365367e-06
114.87000000000397,1.459516e-05,114.87000000000397,1.152307e-05,114.87000000000397,1.977774e-05,114.87000000000397,3.356985e-06
114.88500000000397,1.446525e-05,114.88500000000397,1.168694e-05,114.88500000000397,2.090987e-05,114.88500000000397,3.394541e-06
114.90000000000397,1.552038e-05,114.90000000000397,1.302752e-05,114.90000000000397,2.115233e-05,114.90000000000397,3.435788e-06
114.91500000000397,1.542113e-05,114.91500000000397,1.309654e-05,114.91500000000397,1.985451e-05,114.91500000000397,3.476546e-06
114.93000000000397,1.479456e-05,114.93000000000397,1.305129e-05,114.93000000000397,1.901444e-05,114.93000000000397,3.439886e-06
114.94500000000397,1.42494e-05,114.94500000000397,1.32845e-05,114.94500000000397,1.895954e-05,114.94500000000397,3.415227e-06
114.96000000000397,1.647917e-05,114.96000000000397,1.349596e-05,114.96000000000397,1.975921e-05,114.96000000000397,3.323245e-06
114.97500000000397,1.8158e-05,114.97500000000397,1.358853e-05,114.97500000000397,2.013911e-05,114.97500000000397,3.348582e-06
114.99000000000397,1.774525e-05,114.99000000000397,1.362063e-05,114.99000000000397,2.054971e-05,114.99000000000397,3.344373e-06
115.00500000000397,1.775398e-05,115.00500000000397,1.335852e-05,115.00500000000397,2.06475e-05,115.00500000000397,3.280583e-06
115.02000000000398,1.791432e-05,115.02000000000398,1.401918e-05,115.02000000000398,2.063795e-05,115.02000000000398,3.276286e-06
115.03500000000398,1.796457e-05,115.03500000000398,1.38412e-05,115.03500000000398,2.065432e-05,115.03500000000398,3.206755e-06
115.05000000000398,1.774842e-05,115.05000000000398,1.403926e-05,115.05000000000398,1.87308e-05,115.05000000000398,3.189136e-06
115.06500000000398,1.791589e-05,115.06500000000398,1.423259e-05,115.06500000000398,2.070813e-05,115.06500000000398,3.122176e-06
115.08000000000398,1.72485e-05,115.08000000000398,1.408334e-05,115.08000000000398,2.063317e-05,115.08000000000398,3.076727e-06
115.09500000000398,1.70918e-05,115.09500000000398,1.385239e-05,115.09500000000398,2.067001e-05,115.09500000000398,3.044509e-06
115.11000000000398,1.735029e-05,115.11000000000398,1.333002e-05,115.11000000000398,2.018313e-05,115.11000000000398,2.960054e-06
115.12500000000398,1.72632e-05,115.12500000000398,1.316841e-05,115.12500000000398,1.97585e-05,115.12500000000398,2.907234e-06
115.14000000000398,1.722153e-05,115.14000000000398,1.222422e-05,115.14000000000398,1.95247e-05,115.14000000000398,2.828646e-06
115.15500000000398,1.722971e-05,115.15500000000398,1.103345e-05,115.15500000000398,2.212874e-05,115.15500000000398,2.711688e-06
115.17000000000398,1.739974e-05,115.17000000000398,1.098098e-05,115.17000000000398,2.214783e-05,115.17000000000398,2.763147e-06
115.18500000000398,1.739731e-05,115.18500000000398,1.114018e-05,115.18500000000398,2.217961e-05,115.18500000000398,2.783465e-06
115.20000000000398,1.731941e-05,115.20000000000398,1.078554e-05,115.20000000000398,2.231006e-05,115.20000000000398,2.813666e-06
115.21500000000398,1.288291e-05,115.21500000000398,1.034556e-05,115.21500000000398,2.275518e-05,115.21500000000398,2.763147e-06
115.23000000000398,1.254048e-05,115.23000000000398,1.081814e-05,115.23000000000398,2.176093e-05,115.23000000000398,2.887788e-06
115.24500000000398,1.258869e-05,115.24500000000398,1.114145e-05,115.24500000000398,2.165906e-05,115.24500000000398,2.892662e-06
115.26000000000398,1.27278e-05,115.26000000000398,1.057983e-05,115.26000000000398,2.252184e-05,115.26000000000398,2.873116e-06
115.27500000000398,1.264118e-05,115.27500000000398,1.040259e-05,115.27500000000398,2.365841e-05,115.27500000000398,2.912075e-06
115.29000000000399,1.272891e-05,115.29000000000399,1.020159e-05,115.29000000000399,2.423432e-05,115.29000000000399,2.964809e-06
115.30500000000399,1.25225e-05,115.30500000000399,9.719326e-06,115.30500000000399,2.409441e-05,115.30500000000399,3.085871e-06
115.32000000000399,1.257302e-05,115.32000000000399,9.205732e-06,115.32000000000399,2.168636e-05,115.32000000000399,3.081303e-06
115.33500000000399,1.291567e-05,115.33500000000399,8.800488e-06,115.33500000000399,2.135713e-05,115.33500000000399,3.072146e-06
115.35000000000399,1.306316e-05,115.35000000000399,8.830848e-06,115.35000000000399,2.161022e-05,115.35000000000399,3.140172e-06
115.36500000000399,1.219191e-05,115.36500000000399,8.91025e-06,115.36500000000399,2.197736e-05,115.36500000000399,3.219907e-06
115.38000000000399,1.231149e-05,115.38000000000399,8.913411e-06,115.38000000000399,2.17402e-05,115.38000000000399,3.197958e-06
115.39500000000399,1.20968e-05,115.39500000000399,8.963841e-06,115.39500000000399,2.191638e-05,115.39500000000399,3.19355e-06
115.41000000000399,1.184021e-05,115.41000000000399,8.886504e-06,115.41000000000399,1.923321e-05,115.41000000000399,3.206755e-06
115.42500000000399,1.220346e-05,115.42500000000399,8.702299e-06,115.42500000000399,1.974424e-05,115.42500000000399,3.219907e-06
115.44000000000399,1.266344e-05,115.44000000000399,8.313199e-06,115.44000000000399,2.105354e-05,115.44000000000399,3.149131e-06
115.45500000000399,1.326434e-05,115.45500000000399,8.314893e-06,115.45500000000399,2.032155e-05,115.45500000000399,3.237359e-06
115.47000000000399,1.381676e-05,115.47000000000399,8.620983e-06,115.47000000000399,2.319783e-05,115.47000000000399,3.202359e-06
115.48500000000399,1.612052e-05,115.48500000000399,7.750201e-06,115.48500000000399,2.344668e-05,115.48500000000399,3.153601e-06
115.500000000004,1.776825e-05,115.500000000004,7.72289e-06,115.500000000004,2.360416e-05,115.500000000004,3.175857e-06
115.515000000004,1.827862e-05,115.515000000004,8.021719e-06,115.515000000004,2.250557e-05,115.515000000004,3.211145e-06
115.530000000004,1.833633e-05,115.530000000004,9.032722e-06,115.530000000004,2.322211e-05,115.530000000004,3.166973e-06
115.545000000004,2.202666e-05,115.545000000004,9.502402e-06,115.545000000004,2.448068e-05,115.545000000004,3.035241e-06
115.560000000004,2.255122e-05,115.560000000004,1.07082e-05,115.560000000004,2.472574e-05,115.560000000004,2.983753e-06
115.575000000004,2.290327e-05,115.575000000004,1.112373e-05,115.575000000004,2.554509e-05,115.575000000004,3.021286e-06
115.590000000004,2.252059e-05,115.590000000004,1.114018e-05,115.590000000004,2.61538e-05,115.590000000004,3.099535e-06
115.605000000004,2.254497e-05,115.605000000004,1.13096e-05,115.605000000004,2.814116e-05,115.605000000004,3.108612e-06
115.620000000004,2.281268e-05,115.620000000004,1.134815e-05,115.620000000004,2.860833e-05,115.620000000004,3.122176e-06
115.635000000004,2.32609e-05,115.635000000004,1.147038e-05,115.635000000004,2.903695e-05,115.635000000004,3.202359e-06
115.650000000004,2.304919e-05,115.650000000004,1.149492e-05,115.650000000004,2.962194e-05,115.650000000004,3.197958e-06
115.665000000004,2.288112e-05,115.665000000004,1.149369e-05,115.665000000004,2.932754e-05,115.665000000004,3.184716e-06
115.680000000004,2.298861e-05,115.680000000004,1.142732e-05,115.680000000004,2.801926e-05,115.680000000004,3.415227e-06
115.695000000004,2.261422e-05,115.695000000004,1.148265e-05,115.695000000004,2.777994e-05,115.695000000004,3.431686e-06
115.710000000004,2.29837e-05,115.710000000004,1.208515e-05,115.710000000004,2.637157e-05,115.710000000004,3.480596e-06
115.725000000004,2.379319e-05,115.725000000004,1.236059e-05,115.725000000004,2.426394e-05,115.725000000004,3.448066e-06
115.740000000004,2.289774e-05,115.740000000004,1.243445e-05,115.740000000004,2.418311e-05,115.740000000004,3.452149e-06
115.755000000004,2.208222e-05,115.755000000004,1.347925e-05,115.755000000004,2.336182e-05,115.755000000004,3.496747e-06
115.770000000004,2.18275e-05,115.770000000004,1.572596e-05,115.770000000004,2.388831e-05,115.770000000004,3.500774e-06
115.785000000004,2.168311e-05,115.785000000004,1.547312e-05,115.785000000004,3.033199e-05,115.785000000004,3.439886e-06
115.800000000004,1.768322e-05,115.800000000004,1.560908e-05,115.800000000004,2.920239e-05,115.800000000004,3.448066e-06
115.815000000004,1.703814e-05,115.815000000004,1.549768e-05,115.815000000004,3.197605e-05,115.815000000004,3.476546e-06
115.830000000004,1.687448e-05,115.830000000004,1.569906e-05,115.830000000004,3.270348e-05,115.830000000004,3.419349e-06
115.845000000004,1.705467e-05,115.845000000004,1.566403e-05,115.845000000004,3.166306e-05,115.845000000004,3.361178e-06
115.860000000004,1.698847e-05,115.860000000004,1.569278e-05,115.860000000004,2.992051e-05,115.860000000004,3.572469e-06
115.87500000000401,1.694363e-05,115.87500000000401,1.601532e-05,115.87500000000401,2.950616e-05,115.87500000000401,3.568524e-06
115.89000000000401,1.832019e-05,115.89000000000401,1.651674e-05,115.89000000000401,2.891785e-05,115.89000000000401,3.611685e-06
115.90500000000401,1.827631e-05,115.90500000000401,1.770312e-05,115.90500000000401,2.820616e-05,115.90500000000401,3.654337e-06
115.92000000000401,2.011812e-05,115.92000000000401,1.845426e-05,115.92000000000401,2.823362e-05,115.92000000000401,3.775675e-06
115.93500000000401,2.066592e-05,115.93500000000401,1.884552e-05,115.93500000000401,2.933427e-05,115.93500000000401,3.635012e-06
115.95000000000401,2.050854e-05,115.95000000000401,1.878862e-05,115.95000000000401,3.191608e-05,115.95000000000401,3.627253e-06
115.96500000000401,2.126856e-05,115.96500000000401,1.839462e-05,115.96500000000401,3.200907e-05,115.96500000000401,3.556662e-06
115.98000000000401,1.932892e-05,115.98000000000401,1.812228e-05,115.98000000000401,3.201127e-05,115.98000000000401,3.516832e-06
115.99500000000401,1.920756e-05,115.99500000000401,1.822459e-05,115.99500000000401,3.203239e-05,115.99500000000401,3.504795e-06
116.01000000000401,1.855854e-05,116.01000000000401,1.663995e-05,116.01000000000401,3.202139e-05,116.01000000000401,3.423466e-06
116.02500000000401,1.859191e-05,116.02500000000401,1.532952e-05,116.02500000000401,2.615595e-05,116.02500000000401,3.480596e-06
116.04000000000401,1.869015e-05,116.04000000000401,1.551948e-05,116.04000000000401,2.386235e-05,116.04000000000401,3.484641e-06
116.05500000000401,1.903739e-05,116.05500000000401,1.543574e-05,116.05500000000401,2.292663e-05,116.05500000000401,3.500774e-06
116.07000000000401,1.893872e-05,116.07000000000401,1.490932e-05,116.07000000000401,1.821068e-05,116.07000000000401,3.592131e-06
116.08500000000402,1.876912e-05,116.08500000000402,1.451775e-05,116.08500000000402,1.60829e-05,116.08500000000402,3.536803e-06
116.10000000000402,1.869618e-05,116.10000000000402,1.453326e-05,116.10000000000402,1.598009e-05,116.10000000000402,3.390388e-06
116.11500000000402,1.86494e-05,116.11500000000402,1.416512e-05,116.11500000000402,1.631595e-05,116.11500000000402,3.202359e-06
116.13000000000402,1.854563e-05,116.13000000000402,1.419889e-05,116.13000000000402,2.121617e-05,116.13000000000402,3.19355e-06
116.14500000000402,1.665687e-05,116.14500000000402,1.380656e-05,116.14500000000402,2.879728e-05,116.14500000000402,3.117661e-06
116.16000000000402,1.62233e-05,116.16000000000402,1.198801e-05,116.16000000000402,2.980541e-05,116.16000000000402,3.117661e-06
116.17500000000402,1.33543e-05,116.17500000000402,1.138656e-05,116.17500000000402,3.10267e-05,116.17500000000402,2.940956e-06
116.19000000000402,1.333847e-05,116.19000000000402,1.117427e-05,116.19000000000402,2.858074e-05,116.19000000000402,2.969556e-06
116.20500000000402,1.3061e-05,116.20500000000402,1.103856e-05,116.20500000000402,2.826354e-05,116.20500000000402,3.166973e-06
116.22000000000402,1.119317e-05,116.22000000000402,1.119191e-05,116.22000000000402,2.915363e-05,116.22000000000402,3.219907e-06
116.23500000000402,1.465777e-05,116.23500000000402,1.115913e-05,116.23500000000402,2.98583e-05,116.23500000000402,3.382069e-06
116.25000000000402,1.649711e-05,116.25000000000402,1.108822e-05,116.25000000000402,3.267978e-05,116.25000000000402,3.36955e-06
116.26500000000402,1.772936e-05,116.26500000000402,1.035917e-05,116.26500000000402,3.490861e-05,116.26500000000402,3.365367e-06
116.28000000000402,2.748579e-05,116.28000000000402,9.817387e-06,116.28000000000402,3.666766e-05,116.28000000000402,3.314757e-06
116.29500000000402,2.857877e-05,116.29500000000402,9.996546e-06,116.29500000000402,4.003231e-05,116.29500000000402,3.314757e-06
116.31000000000402,2.984509e-05,116.31000000000402,1.042559e-05,116.31000000000402,4.172058e-05,116.31000000000402,3.301983e-06
116.32500000000402,3.403079e-05,116.32500000000402,1.070689e-05,116.32500000000402,4.271161e-05,116.32500000000402,3.263362e-06
116.34000000000403,3.804961e-05,116.34000000000403,1.1705e-05,116.34000000000403,4.635861e-05,116.34000000000403,3.323245e-06
116.35500000000403,4.105244e-05,116.35500000000403,1.289056e-05,116.35500000000403,4.974486e-05,116.35500000000403,3.344373e-06
116.37000000000403,4.177828e-05,116.37000000000403,1.294617e-05,116.37000000000403,5.161303e-05,116.37000000000403,3.382069e-06
116.38500000000403,4.266112e-05,116.38500000000403,1.310515e-05,116.38500000000403,6.604884e-05,116.38500000000403,3.373728e-06
116.40000000000403,4.27281e-05,116.40000000000403,1.591384e-05,116.40000000000403,6.543882e-05,116.40000000000403,3.431686e-06
116.41500000000403,4.302117e-05,116.41500000000403,1.715104e-05,116.41500000000403,6.664482e-05,116.41500000000403,3.419349e-06
116.43000000000403,4.320871e-05,116.43000000000403,1.750226e-05,116.43000000000403,6.614943e-05,116.43000000000403,3.365367e-06
116.44500000000403,4.322696e-05,116.44500000000403,1.865016e-05,116.44500000000403,6.62103e-05,116.44500000000403,3.377901e-06
116.46000000000403,4.322143e-05,116.46000000000403,1.980265e-05,116.46000000000403,7.006656e-05,116.46000000000403,3.382069e-06
116.47500000000403,4.306601e-05,116.47500000000403,2.004657e-05,116.47500000000403,6.991037e-05,116.47500000000403,3.310505e-06
116.49000000000403,4.236756e-05,116.49000000000403,2.080586e-05,116.49000000000403,6.930243e-05,116.49000000000403,3.219907e-06
116.50500000000403,4.220666e-05,116.50500000000403,2.067273e-05,116.50500000000403,6.767843e-05,116.50500000000403,3.280583e-06
116.52000000000403,4.030479e-05,116.52000000000403,2.19363e-05,116.52000000000403,6.659915e-05,116.52000000000403,3.29344e-06
116.53500000000403,3.706315e-05,116.53500000000403,2.19953e-05,116.53500000000403,6.604094e-05,116.53500000000403,3.348582e-06
116.55000000000403,3.665652e-05,116.55000000000403,2.161935e-05,116.55000000000403,6.36629e-05,116.55000000000403,3.319004e-06
116.56500000000403,3.412627e-05,116.56500000000403,2.268326e-05,116.56500000000403,6.30251e-05,116.56500000000403,3.297714e-06
116.58000000000403,3.291729e-05,116.58000000000403,2.32209e-05,116.58000000000403,6.15231e-05,116.58000000000403,3.297714e-06
116.59500000000403,2.628811e-05,116.59500000000403,2.247614e-05,116.59500000000403,5.995931e-05,116.59500000000403,3.382069e-06
116.61000000000404,2.517067e-05,116.61000000000404,2.167336e-05,116.61000000000404,5.749811e-05,116.61000000000404,3.352786e-06
116.62500000000404,2.420523e-05,116.62500000000404,2.161153e-05,116.62500000000404,5.546268e-05,116.62500000000404,3.335938e-06
116.64000000000404,2.410142e-05,116.64000000000404,2.192473e-05,116.64000000000404,3.507085e-05,116.64000000000404,3.215529e-06
116.65500000000404,2.475819e-05,116.65500000000404,2.256121e-05,116.65500000000404,3.788971e-05,116.65500000000404,3.331712e-06
116.67000000000404,2.589887e-05,116.67000000000404,2.277003e-05,116.67000000000404,3.605986e-05,116.67000000000404,3.340158e-06
116.68500000000404,2.5957e-05,116.68500000000404,2.250683e-05,116.68500000000404,3.680341e-05,116.68500000000404,3.319004e-06
116.70000000000404,2.596731e-05,116.70000000000404,2.398365e-05,116.70000000000404,3.53222e-05,116.70000000000404,3.267676e-06
116.71500000000404,2.717292e-05,116.71500000000404,2.591464e-05,116.71500000000404,2.965996e-05,116.71500000000404,3.166973e-06
116.73000000000404,3.292285e-05,116.73000000000404,2.5938e-05,116.73000000000404,2.951809e-05,116.73000000000404,3.144655e-06
116.74500000000404,3.519635e-05,116.74500000000404,2.611984e-05,116.74500000000404,2.948945e-05,116.74500000000404,3.094987e-06
116.76000000000404,3.581527e-05,116.76000000000404,2.803082e-05,116.76000000000404,3.162478e-05,116.76000000000404,3.072146e-06
116.77500000000404,3.654028e-05,116.77500000000404,2.760801e-05,116.77500000000404,3.221481e-05,116.77500000000404,3.081303e-06
116.79000000000404,3.595972e-05,116.79000000000404,2.761209e-05,116.79000000000404,3.347277e-05,116.79000000000404,3.099535e-06
116.80500000000404,3.760797e-05,116.80500000000404,2.75462e-05,116.80500000000404,3.393213e-05,116.80500000000404,3.067557e-06
116.82000000000404,3.871063e-05,116.82000000000404,2.792156e-05,116.82000000000404,3.439312e-05,116.82000000000404,2.983753e-06
116.83500000000404,3.754649e-05,116.83500000000404,2.725936e-05,116.83500000000404,3.458631e-05,116.83500000000404,3.021286e-06
116.85000000000404,3.756075e-05,116.85000000000404,2.718329e-05,116.85000000000404,3.335347e-05,116.85000000000404,3.117661e-06
116.86500000000404,3.795695e-05,116.86500000000404,2.74196e-05,116.86500000000404,3.2444e-05,116.86500000000404,3.149131e-06
116.88000000000405,3.723682e-05,116.88000000000405,2.783768e-05,116.88000000000405,3.25017e-05,116.88000000000405,3.122176e-06
116.89500000000405,3.770075e-05,116.89500000000405,2.696998e-05,116.89500000000405,2.999058e-05,116.89500000000405,3.162522e-06
116.91000000000405,3.673982e-05,116.91000000000405,2.510623e-05,116.91000000000405,2.518969e-05,116.91000000000405,3.184716e-06
116.92500000000405,3.611373e-05,116.92500000000405,2.473371e-05,116.92500000000405,2.752728e-05,116.92500000000405,3.276286e-06
116.94000000000405,3.643798e-05,116.94000000000405,2.480196e-05,116.94000000000405,2.679023e-05,116.94000000000405,3.297714e-06
116.95500000000405,3.635942e-05,116.95500000000405,2.215356e-05,116.95500000000405,2.634164e-05,116.95500000000405,3.323245e-06
116.97000000000405,3.450925e-05,116.97000000000405,1.992675e-05,116.97000000000405,2.591681e-05,116.97000000000405,3.340158e-06
116.98500000000405,3.070127e-05,116.98500000000405,1.953263e-05,116.98500000000405,2.591953e-05,116.98500000000405,3.415227e-06
117.00000000000405,2.803233e-05,117.00000000000405,1.762896e-05,117.00000000000405,2.428135e-05,117.00000000000405,3.492716e-06
117.01500000000405,2.78149e-05,117.01500000000405,1.561539e-05,117.01500000000405,2.582425e-05,117.01500000000405,3.468433e-06
117.03000000000405,2.705499e-05,117.03000000000405,1.560456e-05,117.03000000000405,2.478435e-05,117.03000000000405,3.476546e-06
117.04500000000405,2.723765e-05,117.04500000000405,1.543483e-05,117.04500000000405,2.435376e-05,117.04500000000405,3.452149e-06
117.06000000000405,2.504218e-05,117.06000000000405,1.489798e-05,117.06000000000405,2.628328e-05,117.06000000000405,3.460301e-06
117.07500000000405,2.359939e-05,117.07500000000405,1.317376e-05,117.07500000000405,2.481389e-05,117.07500000000405,3.496747e-06
117.09000000000405,2.326453e-05,117.09000000000405,1.315985e-05,117.09000000000405,2.790036e-05,117.09000000000405,3.439886e-06
117.10500000000405,2.327785e-05,117.10500000000405,1.311482e-05,117.10500000000405,3.042056e-05,117.10500000000405,3.361178e-06
117.12000000000405,2.27923e-05,117.12000000000405,1.255957e-05,117.12000000000405,3.361304e-05,117.12000000000405,3.377901e-06
117.13500000000406,2.213829e-05,117.13500000000406,1.128092e-05,117.13500000000406,3.405106e-05,117.13500000000406,3.344373e-06
117.15000000000406,2.221959e-05,117.15000000000406,1.087399e-05,117.15000000000406,3.404445e-05,117.15000000000406,3.241707e-06
117.16500000000406,2.234791e-05,117.16500000000406,1.096686e-05,117.16500000000406,3.385981e-05,117.16500000000406,3.158065e-06
117.18000000000406,2.214974e-05,117.18000000000406,9.239335e-06,117.18000000000406,3.174259e-05,117.18000000000406,3.108612e-06
117.19500000000406,2.180167e-05,117.19500000000406,8.943388e-06,117.19500000000406,3.122176e-05,117.19500000000406,3.090432e-06
117.21000000000406,2.110099e-05,117.21000000000406,9.099535e-06,117.21000000000406,3.083039e-05,117.21000000000406,3.044509e-06
117.22500000000406,2.050167e-05,117.22500000000406,8.761987e-06,117.22500000000406,3.058727e-05,117.22500000000406,2.945742e-06
117.24000000000406,2.010691e-05,117.24000000000406,9.39656e-06,117.24000000000406,3.060155e-05,117.24000000000406,2.858369e-06
117.25500000000406,2.003462e-05,117.25500000000406,9.898837e-06,117.25500000000406,3.019607e-05,117.25500000000406,2.818668e-06
117.27000000000406,1.934494e-05,117.27000000000406,9.86748e-06,117.27000000000406,2.788218e-05,117.27000000000406,2.838588e-06
117.28500000000406,1.774048e-05,117.28500000000406,1.041342e-05,117.28500000000406,2.74986e-05,117.28500000000406,2.823661e-06
117.30000000000406,1.691784e-05,117.30000000000406,1.161439e-05,117.30000000000406,2.73759e-05,117.30000000000406,2.818668e-06
117.31500000000406,1.624066e-05,117.31500000000406,1.207582e-05,117.31500000000406,2.552412e-05,117.31500000000406,2.783465e-06
117.33000000000406,1.629521e-05,117.33000000000406,1.240268e-05,117.33000000000406,2.609449e-05,117.33000000000406,2.74781e-06
117.34500000000406,1.665856e-05,117.34500000000406,1.23412e-05,117.34500000000406,2.12248e-05,117.34500000000406,2.768241e-06
117.36000000000406,1.613799e-05,117.36000000000406,1.553943e-05,117.36000000000406,1.732916e-05,117.36000000000406,2.616511e-06
117.37500000000406,1.526044e-05,117.37500000000406,1.674627e-05,117.37500000000406,1.284568e-05,117.37500000000406,2.621889e-06
117.39000000000406,1.401516e-05,117.39000000000406,1.727869e-05,117.39000000000406,1.418202e-05,117.39000000000406,2.727227e-06
117.40500000000407,1.49913e-05,117.40500000000407,1.721253e-05,117.40500000000407,1.619984e-05,117.40500000000407,2.701278e-06
117.42000000000407,1.649967e-05,117.42000000000407,1.865318e-05,117.42000000000407,1.659502e-05,117.42000000000407,2.706488e-06
117.43500000000407,1.661453e-05,117.43500000000407,2.041698e-05,117.43500000000407,1.784578e-05,117.43500000000407,2.690828e-06
117.45000000000407,1.829942e-05,117.45000000000407,2.061063e-05,117.45000000000407,1.790252e-05,117.45000000000407,2.848496e-06
117.46500000000407,1.785446e-05,117.46500000000407,2.050304e-05,117.46500000000407,1.799278e-05,117.46500000000407,2.858369e-06
117.48000000000407,1.815257e-05,117.48000000000407,2.047761e-05,117.48000000000407,1.906253e-05,117.48000000000407,2.926552e-06
117.49500000000407,1.943575e-05,117.49500000000407,2.007185e-05,117.49500000000407,2.111501e-05,117.49500000000407,2.916909e-06
117.51000000000407,2.444844e-05,117.51000000000407,2.047348e-05,117.51000000000407,2.263601e-05,117.51000000000407,2.916909e-06
117.52500000000407,2.488135e-05,117.52500000000407,2.236178e-05,117.52500000000407,2.592388e-05,117.52500000000407,2.858369e-06
117.54000000000407,2.73975e-05,117.54000000000407,2.227784e-05,117.54000000000407,2.853091e-05,117.54000000000407,2.921734e-06
117.55500000000407,2.756205e-05,117.55500000000407,2.246611e-05,117.55500000000407,2.878602e-05,117.55500000000407,3.025945e-06
117.57000000000407,2.878162e-05,117.57000000000407,2.316806e-05,117.57000000000407,2.857039e-05,117.57000000000407,3.153601e-06
117.58500000000407,2.892905e-05,117.58500000000407,2.341482e-05,117.58500000000407,2.926118e-05,117.58500000000407,3.228645e-06
117.60000000000407,2.88139e-05,117.60000000000407,2.337508e-05,117.60000000000407,2.921927e-05,117.60000000000407,3.241707e-06
117.61500000000407,2.890421e-05,117.61500000000407,2.135053e-05,117.61500000000407,2.912656e-05,117.61500000000407,3.271984e-06
117.63000000000407,2.883785e-05,117.63000000000407,2.055314e-05,117.63000000000407,2.872332e-05,117.63000000000407,3.331712e-06
117.64500000000407,2.883785e-05,117.64500000000407,2.004938e-05,117.64500000000407,2.693287e-05,117.64500000000407,3.394541e-06
117.66000000000408,2.774239e-05,117.66000000000408,1.994371e-05,117.66000000000408,2.622104e-05,117.66000000000408,3.335938e-06
117.67500000000408,2.773578e-05,117.67500000000408,1.807324e-05,117.67500000000408,2.59993e-05,117.67500000000408,3.382069e-06
117.69000000000408,2.730222e-05,117.69000000000408,1.672607e-05,117.69000000000408,2.520535e-05,117.69000000000408,3.327482e-06
117.70500000000408,2.7583e-05,117.70500000000408,1.696772e-05,117.70500000000408,2.532522e-05,117.70500000000408,3.301983e-06
117.72000000000408,2.739801e-05,117.72000000000408,1.704641e-05,117.72000000000408,2.578767e-05,117.72000000000408,3.271984e-06
117.73500000000408,2.691247e-05,117.73500000000408,1.70621e-05,117.73500000000408,2.480196e-05,117.73500000000408,3.254718e-06
117.75000000000408,2.423897e-05,117.75000000000408,1.718632e-05,117.75000000000408,2.293523e-05,117.75000000000408,3.267676e-06
117.76500000000408,2.159457e-05,117.76500000000408,1.60829e-05,117.76500000000408,2.188422e-05,117.76500000000408,3.306247e-06
117.78000000000408,2.101805e-05,117.78000000000408,1.3547e-05,117.78000000000408,1.840687e-05,117.78000000000408,3.233005e-06
117.79500000000408,2.014331e-05,117.79500000000408,1.290257e-05,117.79500000000408,1.593065e-05,117.79500000000408,3.184716e-06
117.81000000000408,2.109565e-05,117.81000000000408,1.231378e-05,117.81000000000408,1.569278e-05,117.81000000000408,3.035241e-06
117.82500000000408,2.140259e-05,117.82500000000408,1.028684e-05,117.82500000000408,1.449055e-05,117.82500000000408,2.907234e-06
117.84000000000408,2.172076e-05,117.84000000000408,9.968323e-06,117.84000000000408,1.664079e-05,117.84000000000408,2.887788e-06
117.85500000000408,2.219168e-05,117.85500000000408,9.608544e-06,117.85500000000408,1.81921e-05,117.85500000000408,2.848496e-06
117.87000000000408,2.263912e-05,117.87000000000408,9.448883e-06,117.87000000000408,2.399716e-05,117.87000000000408,2.778399e-06
117.88500000000408,2.301861e-05,117.88500000000408,9.54382e-06,117.88500000000408,2.972117e-05,117.88500000000408,2.675077e-06
117.90000000000408,2.351148e-05,117.90000000000408,9.445902e-06,117.90000000000408,3.290231e-05,117.90000000000408,2.648616e-06
117.91500000000408,2.33582e-05,117.91500000000408,9.389061e-06,117.91500000000408,3.553531e-05,117.91500000000408,2.659232e-06
117.93000000000409,2.34064e-05,117.93000000000409,9.42201e-06,117.93000000000409,3.731353e-05,117.93000000000409,2.632612e-06
117.94500000000409,2.298799e-05,117.94500000000409,9.818822e-06,117.94500000000409,3.736333e-05,117.94500000000409,2.621889e-06
117.96000000000409,2.279971e-05,117.96000000000409,9.259134e-06,117.96000000000409,3.719291e-05,117.96000000000409,2.57308e-06
117.97500000000409,2.358088e-05,117.97500000000409,9.459313e-06,117.97500000000409,3.738934e-05,117.97500000000409,2.621889e-06
117.99000000000409,2.381153e-05,117.99000000000409,1.006256e-05,117.99000000000409,3.981142e-05,117.99000000000409,2.742679e-06
118.00500000000409,2.489267e-05,118.00500000000409,9.913058e-06,118.00500000000409,4.137918e-05,118.00500000000409,2.926552e-06
118.02000000000409,2.53891e-05,118.02000000000409,9.962669e-06,118.02000000000409,4.157616e-05,118.02000000000409,2.955291e-06
118.03500000000409,2.462869e-05,118.03500000000409,1.047412e-05,118.03500000000409,4.109462e-05,118.03500000000409,2.997883e-06
118.05000000000409,2.535746e-05,118.05000000000409,1.078815e-05,118.05000000000409,4.362627e-05,118.05000000000409,3.072146e-06
118.06500000000409,2.511464e-05,118.06500000000409,1.095015e-05,118.06500000000409,4.82452e-05,118.06500000000409,3.233005e-06
118.08000000000409,2.365305e-05,118.08000000000409,1.223919e-05,118.08000000000409,4.942184e-05,118.08000000000409,3.365367e-06
118.09500000000409,2.343466e-05,118.09500000000409,1.232521e-05,118.09500000000409,4.885451e-05,118.09500000000409,3.314757e-06
118.11000000000409,2.328451e-05,118.11000000000409,1.2284e-05,118.11000000000409,4.707416e-05,118.11000000000409,3.4111e-06
118.12500000000409,2.432772e-05,118.12500000000409,1.252362e-05,118.12500000000409,4.476385e-05,118.12500000000409,3.4111e-06
118.1400000000041,2.522881e-05,118.1400000000041,1.322073e-05,118.1400000000041,4.191797e-05,118.1400000000041,3.382069e-06
118.1550000000041,2.486096e-05,118.1550000000041,1.346984e-05,118.1550000000041,3.925125e-05,118.1550000000041,3.382069e-06
118.1700000000041,2.487512e-05,118.1700000000041,1.378716e-05,118.1700000000041,3.598125e-05,118.1700000000041,3.480596e-06
118.1850000000041,2.519752e-05,118.1850000000041,1.523365e-05,118.1850000000041,3.582942e-05,118.1850000000041,3.464369e-06
118.2000000000041,2.491643e-05,118.2000000000041,1.54631e-05,118.2000000000041,3.575189e-05,118.2000000000041,3.520835e-06
118.2150000000041,2.550425e-05,118.2150000000041,1.548131e-05,118.2150000000041,3.574243e-05,118.2150000000041,3.580347e-06
118.2300000000041,2.469781e-05,118.2300000000041,1.51381e-05,118.2300000000041,3.606572e-05,118.2300000000041,3.588207e-06
118.2450000000041,2.472631e-05,118.2450000000041,1.541474e-05,118.2450000000041,3.329344e-05,118.2450000000041,3.623367e-06
118.2600000000041,2.298432e-05,118.2600000000041,1.539096e-05,118.2600000000041,3.190019e-05,118.2600000000041,3.496747e-06
118.2750000000041,2.272235e-05,118.2750000000041,1.49216e-05,118.2750000000041,3.180909e-05,118.2750000000041,3.532818e-06
118.2900000000041,2.174474e-05,118.2900000000041,1.489325e-05,118.2900000000041,3.122267e-05,118.2900000000041,3.492716e-06
118.3050000000041,2.008167e-05,118.3050000000041,1.466161e-05,118.3050000000041,2.807702e-05,118.3050000000041,3.448066e-06
118.3200000000041,1.976848e-05,118.3200000000041,1.417407e-05,118.3200000000041,1.67866e-05,118.3200000000041,3.323245e-06
118.3350000000041,1.978913e-05,118.3350000000041,1.355012e-05,118.3350000000041,1.584287e-05,118.3350000000041,3.180289e-06
118.3500000000041,2.004095e-05,118.3500000000041,1.354804e-05,118.3500000000041,1.57689e-05,118.3500000000041,3.211145e-06
118.3650000000041,2.064068e-05,118.3650000000041,1.401315e-05,118.3650000000041,1.724278e-05,118.3650000000041,3.135683e-06
118.3800000000041,1.825934e-05,118.3800000000041,1.344367e-05,118.3800000000041,1.811761e-05,118.3800000000041,3.206755e-06
118.3950000000041,1.897736e-05,118.3950000000041,1.287197e-05,118.3950000000041,2.157565e-05,118.3950000000041,3.180289e-06
118.4100000000041,1.852283e-05,118.4100000000041,1.27753e-05,118.4100000000041,2.191638e-05,118.4100000000041,3.153601e-06
118.4250000000041,1.94343e-05,118.4250000000041,1.25719e-05,118.4250000000041,2.64052e-05,118.4250000000041,3.072146e-06
118.4400000000041,1.862748e-05,118.4400000000041,1.050366e-05,118.4400000000041,2.656688e-05,118.4400000000041,3.044509e-06
118.4550000000041,1.854867e-05,118.4550000000041,1.013231e-05,118.4550000000041,2.663096e-05,118.4550000000041,2.878015e-06
118.4700000000041,1.735434e-05,118.4700000000041,1.032648e-05,118.4700000000041,2.769716e-05,118.4700000000041,2.828646e-06
118.4850000000041,1.821841e-05,118.4850000000041,1.002328e-05,118.4850000000041,2.691299e-05,118.4850000000041,2.752932e-06
118.5000000000041,1.834401e-05,118.5000000000041,9.642205e-06,118.5000000000041,2.860094e-05,118.5000000000041,2.637958e-06
118.51500000000411,1.844662e-05,118.51500000000411,9.881745e-06,118.51500000000411,2.867079e-05,118.51500000000411,2.616511e-06
118.53000000000411,1.842064e-05,118.53000000000411,1.016008e-05,118.53000000000411,2.853289e-05,118.53000000000411,2.653929e-06
118.54500000000411,1.81859e-05,118.54500000000411,1.139027e-05,118.54500000000411,2.793215e-05,118.54500000000411,2.823661e-06
118.56000000000411,1.876161e-05,118.56000000000411,1.138038e-05,118.56000000000411,2.901074e-05,118.56000000000411,2.858369e-06
118.57500000000411,1.946617e-05,118.57500000000411,1.131832e-05,118.57500000000411,3.076453e-05,118.57500000000411,2.863294e-06
118.59000000000411,1.965485e-05,118.59000000000411,1.32569e-05,118.59000000000411,3.087468e-05,118.59000000000411,2.926552e-06
118.60500000000411,1.919288e-05,118.60500000000411,1.30804e-05,118.60500000000411,3.08692e-05,118.60500000000411,2.897527e-06
118.62000000000411,1.90714e-05,118.62000000000411,1.315343e-05,118.62000000000411,3.033106e-05,118.62000000000411,2.95052e-06
118.63500000000411,1.897513e-05,118.63500000000411,1.301779e-05,118.63500000000411,2.997037e-05,118.63500000000411,2.945742e-06
118.65000000000411,1.746358e-05,118.65000000000411,1.29233e-05,118.65000000000411,2.948562e-05,118.65000000000411,2.878015e-06
118.66500000000411,1.753764e-05,118.66500000000411,1.276758e-05,118.66500000000411,2.917875e-05,118.66500000000411,3.007266e-06
118.68000000000411,1.666363e-05,118.68000000000411,1.281164e-05,118.68000000000411,2.607288e-05,118.68000000000411,3.007266e-06
118.69500000000411,1.590499e-05,118.69500000000411,1.278522e-05,118.69500000000411,3.015172e-05,118.69500000000411,3.158065e-06
118.71000000000411,1.569906e-05,118.71000000000411,1.276979e-05,118.71000000000411,3.034685e-05,118.71000000000411,3.24605e-06
118.72500000000412,1.486959e-05,118.72500000000412,1.259205e-05,118.72500000000412,3.026131e-05,118.72500000000412,3.314757e-06
118.74000000000412,1.43744e-05,118.74000000000412,1.301238e-05,118.74000000000412,3.03872e-05,118.74000000000412,3.319004e-06
118.75500000000412,1.458165e-05,118.75500000000412,1.336063e-05,118.75500000000412,3.335304e-05,118.75500000000412,3.348582e-06
118.77000000000412,1.495272e-05,118.77000000000412,1.380043e-05,118.77000000000412,3.366622e-05,118.77000000000412,3.361178e-06
118.78500000000412,1.522625e-05,118.78500000000412,1.365266e-05,118.78500000000412,3.370051e-05,118.78500000000412,3.306247e-06
118.80000000000412,1.532032e-05,118.80000000000412,1.284019e-05,118.80000000000412,3.353752e-05,118.80000000000412,3.197958e-06
118.81500000000412,1.415318e-05,118.81500000000412,1.305669e-05,118.81500000000412,3.268107e-05,118.81500000000412,3.228645e-06
118.83000000000412,1.440964e-05,118.83000000000412,1.323138e-05,118.83000000000412,3.066868e-05,118.83000000000412,3.215529e-06
118.84500000000412,1.52281e-05,118.84500000000412,1.20396e-05,118.84500000000412,3.014705e-05,118.84500000000412,3.29344e-06
118.86000000000412,1.54804e-05,118.86000000000412,1.190547e-05,118.86000000000412,2.997225e-05,118.86000000000412,3.250386e-06
118.87500000000412,1.533687e-05,118.87500000000412,1.175544e-05,118.87500000000412,2.948132e-05,118.87500000000412,3.219907e-06
118.89000000000412,1.55004e-05,118.89000000000412,1.202672e-05,118.89000000000412,2.879532e-05,118.89000000000412,3.189136e-06
118.90500000000412,1.600828e-05,118.90500000000412,1.235033e-05,118.90500000000412,2.81041e-05,118.90500000000412,3.19355e-06
118.92000000000412,1.633493e-05,118.92000000000412,1.242651e-05,118.92000000000412,2.852697e-05,118.92000000000412,3.158065e-06
118.93500000000412,1.619723e-05,118.93500000000412,1.2838e-05,118.93500000000412,2.738001e-05,118.93500000000412,3.175857e-06
118.95000000000412,1.655082e-05,118.95000000000412,1.377489e-05,118.95000000000412,2.388301e-05,118.95000000000412,3.039879e-06
118.96500000000412,1.667884e-05,118.96500000000412,1.43891e-05,118.96500000000412,2.34599e-05,118.96500000000412,2.997883e-06
118.98000000000413,1.739812e-05,118.98000000000413,1.617809e-05,118.98000000000413,2.34611e-05,118.98000000000413,2.892662e-06
118.99500000000413,1.738111e-05,118.99500000000413,1.667293e-05,118.99500000000413,1.802876e-05,118.99500000000413,3.131187e-06
119.01000000000413,1.683437e-05,119.01000000000413,1.628916e-05,119.01000000000413,1.436264e-05,119.01000000000413,3.166973e-06
119.02500000000413,1.689451e-05,119.02500000000413,1.600916e-05,119.02500000000413,1.5717e-05,119.02500000000413,3.224279e-06
119.04000000000413,1.692533e-05,119.04000000000413,1.804906e-05,119.04000000000413,1.55358e-05,119.04000000000413,3.241707e-06
119.05500000000413,1.679667e-05,119.05500000000413,1.917967e-05,119.05500000000413,1.92793e-05,119.05500000000413,3.211145e-06
119.07000000000413,1.694695e-05,119.07000000000413,1.904479e-05,119.07000000000413,1.959887e-05,119.07000000000413,3.267676e-06
119.08500000000413,1.59845e-05,119.08500000000413,1.948064e-05,119.08500000000413,1.973496e-05,119.08500000000413,3.241707e-06
119.10000000000413,1.487053e-05,119.10000000000413,1.908616e-05,119.10000000000413,2.147224e-05,119.10000000000413,3.171418e-06
119.11500000000413,1.529179e-05,119.11500000000413,1.90773e-05,119.11500000000413,2.265529e-05,119.11500000000413,3.149131e-06
119.13000000000413,1.454489e-05,119.13000000000413,1.910018e-05,119.13000000000413,2.288912e-05,119.13000000000413,3.271984e-06
119.14500000000413,1.390821e-05,119.14500000000413,1.887912e-05,119.14500000000413,2.323727e-05,119.14500000000413,3.271984e-06
119.16000000000413,1.279403e-05,119.16000000000413,1.910829e-05,119.16000000000413,2.303819e-05,119.16000000000413,3.259043e-06
119.17500000000413,1.353972e-05,119.17500000000413,1.9151e-05,119.17500000000413,2.345689e-05,119.17500000000413,3.284874e-06
119.19000000000413,1.335219e-05,119.19000000000413,1.887838e-05,119.19000000000413,2.313764e-05,119.19000000000413,3.340158e-06
119.20500000000413,1.284348e-05,119.20500000000413,1.889851e-05,119.20500000000413,2.323181e-05,119.20500000000413,3.373728e-06
119.22000000000413,1.396582e-05,119.22000000000413,1.827091e-05,119.22000000000413,2.32124e-05,119.22000000000413,3.468433e-06
119.23500000000413,1.341639e-05,119.23500000000413,1.693199e-05,119.23500000000413,2.297083e-05,119.23500000000413,3.456227e-06
119.25000000000414,1.350222e-05,119.25000000000414,1.61807e-05,119.25000000000414,2.380739e-05,119.25000000000414,3.344373e-06
119.26500000000414,1.383102e-05,119.26500000000414,1.619202e-05,119.26500000000414,2.429469e-05,119.26500000000414,3.263362e-06
119.28000000000414,1.306963e-05,119.28000000000414,1.607502e-05,119.28000000000414,2.34599e-05,119.28000000000414,3.331712e-06
119.29500000000414,1.336168e-05,119.29500000000414,1.376159e-05,119.29500000000414,2.436648e-05,119.29500000000414,3.331712e-06
119.31000000000414,1.321646e-05,119.31000000000414,1.344157e-05,119.31000000000414,2.149978e-05,119.31000000000414,3.319004e-06
119.32500000000414,1.306855e-05,119.32500000000414,1.399504e-05,119.32500000000414,2.385645e-05,119.32500000000414,3.263362e-06
119.34000000000414,1.357194e-05,119.34000000000414,1.360925e-05,119.34000000000414,2.393662e-05,119.34000000000414,3.28916e-06
119.35500000000414,1.333953e-05,119.35500000000414,1.365162e-05,119.35500000000414,2.143021e-05,119.35500000000414,3.365367e-06
119.37000000000414,1.305453e-05,119.37000000000414,1.369592e-05,119.37000000000414,2.129173e-05,119.37000000000414,3.361178e-06
119.38500000000414,1.395472e-05,119.38500000000414,1.393755e-05,119.38500000000414,2.191381e-05,119.38500000000414,3.280583e-06
119.40000000000414,1.393149e-05,119.40000000000414,1.388794e-05,119.40000000000414,2.170129e-05,119.40000000000414,3.215529e-06
119.41500000000414,1.435773e-05,119.41500000000414,1.338696e-05,119.41500000000414,2.190609e-05,119.41500000000414,3.166973e-06
119.43000000000414,1.395371e-05,119.43000000000414,1.369489e-05,119.43000000000414,2.19106e-05,119.43000000000414,3.184716e-06
119.44500000000414,1.43744e-05,119.44500000000414,1.396381e-05,119.44500000000414,2.194143e-05,119.44500000000414,3.117661e-06
119.46000000000414,1.416214e-05,119.46000000000414,1.344576e-05,119.46000000000414,2.241086e-05,119.46000000000414,3.058359e-06
119.47500000000414,1.317697e-05,119.47500000000414,1.35418e-05,119.47500000000414,2.218977e-05,119.47500000000414,3.062961e-06
119.49000000000414,1.311911e-05,119.49000000000414,1.356571e-05,119.49000000000414,2.271925e-05,119.49000000000414,3.01662e-06
119.50500000000415,1.326115e-05,119.50500000000415,1.363097e-05,119.50500000000415,2.163889e-05,119.50500000000415,3.189136e-06
119.52000000000415,1.330675e-05,119.52000000000415,1.382083e-05,119.52000000000415,2.136306e-05,119.52000000000415,3.184716e-06
119.53500000000415,1.322073e-05,119.53500000000415,1.301887e-05,119.53500000000415,2.110433e-05,119.53500000000415,3.166973e-06
119.55000000000415,1.292003e-05,119.55000000000415,1.360304e-05,119.55000000000415,2.050304e-05,119.55000000000415,3.184716e-06
119.56500000000415,1.294399e-05,119.56500000000415,1.280504e-05,119.56500000000415,2.119358e-05,119.56500000000415,3.171418e-06
119.58000000000415,1.285445e-05,119.58000000000415,1.205013e-05,119.58000000000415,1.855323e-05,119.58000000000415,3.233005e-06
119.59500000000415,1.279734e-05,119.59500000000415,1.223919e-05,119.59500000000415,1.964553e-05,119.59500000000415,3.224279e-06
119.61000000000415,1.290148e-05,119.61000000000415,1.217572e-05,119.61000000000415,1.967204e-05,119.61000000000415,3.189136e-06
119.62500000000415,1.197625e-05,119.62500000000415,1.180089e-05,119.62500000000415,1.957658e-05,119.62500000000415,3.135683e-06
119.64000000000415,1.203141e-05,119.64000000000415,1.167488e-05,119.64000000000415,2.012442e-05,119.64000000000415,3.153601e-06
119.65500000000415,1.236401e-05,119.65500000000415,1.168694e-05,119.65500000000415,1.915689e-05,119.65500000000415,3.189136e-06
119.67000000000415,1.215024e-05,119.67000000000415,1.15974e-05,119.67000000000415,1.949076e-05,119.67000000000415,3.271984e-06
119.68500000000415,1.20068e-05,119.68500000000415,1.078423e-05,119.68500000000415,1.951604e-05,119.68500000000415,3.28916e-06
119.70000000000415,1.245369e-05,119.70000000000415,1.069372e-05,119.70000000000415,1.853043e-05,119.70000000000415,3.435788e-06
119.71500000000415,1.250899e-05,119.71500000000415,9.927257e-06,119.71500000000415,1.755209e-05,119.71500000000415,3.472492e-06
119.73000000000415,1.271673e-05,119.73000000000415,9.701918e-06,119.73000000000415,1.74789e-05,119.73000000000415,3.419349e-06
119.74500000000415,1.33796e-05,119.74500000000415,9.614407e-06,119.74500000000415,1.645693e-05,119.74500000000415,3.382069e-06
119.76000000000415,1.354388e-05,119.76000000000415,9.435456e-06,119.76000000000415,1.782998e-05,119.76000000000415,3.149131e-06
119.77500000000416,1.318445e-05,119.77500000000416,8.70068e-06,119.77500000000416,1.881634e-05,119.77500000000416,3.108612e-06
119.79000000000416,1.377591e-05,119.79000000000416,9.37104e-06,119.79000000000416,1.891714e-05,119.79000000000416,3.072146e-06
119.80500000000416,1.423358e-05,119.80500000000416,8.926046e-06,119.80500000000416,1.877587e-05,119.80500000000416,3.126685e-06
119.82000000000416,1.418202e-05,119.82000000000416,1.092697e-05,119.82000000000416,1.843822e-05,119.82000000000416,3.149131e-06
119.83500000000416,1.403224e-05,119.83500000000416,1.156943e-05,119.83500000000416,1.92559e-05,119.83500000000416,3.180289e-06
119.85000000000416,1.49433e-05,119.85000000000416,1.167488e-05,119.85000000000416,2.067137e-05,119.85000000000416,3.206755e-06
119.86500000000416,1.498472e-05,119.86500000000416,1.154993e-05,119.86500000000416,2.063181e-05,119.86500000000416,3.237359e-06
119.88000000000416,1.495837e-05,119.88000000000416,1.207582e-05,119.88000000000416,1.974638e-05,119.88000000000416,3.233005e-06
119.89500000000416,1.515206e-05,119.89500000000416,1.275544e-05,119.89500000000416,1.912671e-05,119.89500000000416,3.306247e-06
119.91000000000416,1.525398e-05,119.91000000000416,1.316734e-05,119.91000000000416,1.792768e-05,119.91000000000416,3.197958e-06
119.92500000000416,1.608728e-05,119.92500000000416,1.311159e-05,119.92500000000416,1.787575e-05,119.92500000000416,3.215529e-06
119.94000000000416,1.616241e-05,119.94000000000416,1.351369e-05,119.94000000000416,1.782761e-05,119.94000000000416,3.081303e-06
119.95500000000416,1.601092e-05,119.95500000000416,1.356363e-05,119.95500000000416,1.916424e-05,119.95500000000416,3.122176e-06
119.97000000000416,1.625627e-05,119.97000000000416,1.349491e-05,119.97000000000416,1.931361e-05,119.97000000000416,3.166973e-06
119.98500000000416,1.599243e-05,119.98500000000416,1.349491e-05,119.98500000000416,1.900629e-05,119.98500000000416,3.158065e-06
120.00000000000416,1.602323e-05,120.00000000000416,1.346984e-05,120.00000000000416,1.979554e-05,120.00000000000416,3.233005e-06
120.01500000000416,1.622764e-05,120.01500000000416,1.351994e-05,120.01500000000416,1.920902e-05,120.01500000000416,3.228645e-06
120.03000000000416,1.708191e-05,120.03000000000416,1.40041e-05,120.03000000000416,1.927126e-05,120.03000000000416,3.228645e-06
120.04500000000417,1.685611e-05,120.04500000000417,1.342479e-05,120.04500000000417,1.903147e-05,120.04500000000417,3.280583e-06
120.06000000000417,1.641922e-05,120.06000000000417,1.320793e-05,120.06000000000417,1.86494e-05,120.06000000000417,3.340158e-06
120.07500000000417,1.64595e-05,120.07500000000417,1.180447e-05,120.07500000000417,2.01468e-05,120.07500000000417,3.276286e-06
120.09000000000417,1.625973e-05,120.09000000000417,1.114271e-05,120.09000000000417,1.701581e-05,120.09000000000417,3.276286e-06
120.10500000000417,1.534972e-05,120.10500000000417,1.121077e-05,120.10500000000417,1.885971e-05,120.10500000000417,3.237359e-06
120.12000000000417,1.520403e-05,120.12000000000417,1.121454e-05,120.12000000000417,1.887614e-05,120.12000000000417,3.254718e-06
120.13500000000417,1.513996e-05,120.13500000000417,1.065413e-05,120.13500000000417,1.889553e-05,120.13500000000417,3.254718e-06
120.15000000000417,1.512041e-05,120.15000000000417,9.76271e-06,120.15000000000417,1.882532e-05,120.15000000000417,3.24605e-06
