X[s],a: EMG RMS 1-1,X[s].1,a: EMG RMS 1-2,X[s].2,a: EMG RMS 1-3,X[s].3,a: EMG RMS 1-4
698.0099999994861,1.454005e-05,698.0099999994861,4.15063e-05,698.0099999994861,9.35449e-06,698.0099999994861,1.465777e-05
698.0249999994861,1.468081e-05,698.0249999994861,5.188578e-05,698.0249999994861,9.432471e-06,698.0249999994861,1.635045e-05
698.0399999994861,1.588638e-05,698.0399999994861,6.122726e-05,698.0399999994861,1.062235e-05,698.0399999994861,1.897513e-05
698.0549999994861,1.644494e-05,698.0549999994861,6.458969e-05,698.0549999994861,1.318552e-05,698.0549999994861,3.359963e-05
698.0699999994861,1.765372e-05,698.0699999994861,6.693229e-05,698.0699999994861,1.413127e-05,698.0699999994861,4.161307e-05
698.0849999994861,1.769994e-05,698.0849999994861,7.251165e-05,698.0849999994861,1.464431e-05,698.0849999994861,5.304833e-05
698.099999999486,1.979696e-05,698.099999999486,7.3567e-05,698.099999999486,1.55004e-05,698.099999999486,5.85149e-05
698.114999999486,2.055519e-05,698.114999999486,7.554018e-05,698.114999999486,1.97756e-05,698.114999999486,6.327271e-05
698.129999999486,2.117563e-05,698.129999999486,8.467557e-05,698.129999999486,2.48938e-05,698.129999999486,6.63563e-05
698.144999999486,3.247568e-05,698.144999999486,8.552837e-05,698.144999999486,2.741909e-05,698.144999999486,6.896746e-05
698.159999999486,3.651946e-05,698.159999999486,8.616407e-05,698.159999999486,2.787915e-05,698.159999999486,7.228264e-05
698.174999999486,3.783428e-05,698.174999999486,8.660484e-05,698.174999999486,3.074941e-05,698.174999999486,7.380463e-05
698.189999999486,4.037115e-05,698.189999999486,8.69762e-05,698.189999999486,3.643759e-05,698.189999999486,7.582681e-05
698.204999999486,4.120075e-05,698.204999999486,8.784627e-05,698.204999999486,3.927744e-05,698.204999999486,7.715809e-05
698.2199999994859,4.271689e-05,698.2199999994859,8.791215e-05,698.2199999994859,4.039766e-05,698.2199999994859,7.79961e-05
698.2349999994859,4.365113e-05,698.2349999994859,8.789917e-05,698.2349999994859,4.088568e-05,698.2349999994859,8.115541e-05
698.2499999994859,4.394285e-05,698.2499999994859,8.719893e-05,698.2499999994859,4.127556e-05,698.2499999994859,8.59883e-05
698.2649999994859,4.497546e-05,698.2649999994859,7.836727e-05,698.2649999994859,4.14591e-05,698.2649999994859,9.106591e-05
698.2799999994859,4.803451e-05,698.2799999994859,7.312527e-05,698.2799999994859,4.208399e-05,698.2799999994859,9.591244e-05
698.2949999994859,4.977431e-05,698.2949999994859,6.571635e-05,698.2949999994859,4.379161e-05,698.2949999994859,0.0001040507
698.3099999994859,4.998132e-05,698.3099999994859,6.649944e-05,698.3099999994859,4.64242e-05,698.3099999994859,0.0001003132
698.3249999994858,4.987665e-05,698.3249999994858,6.535309e-05,698.3249999994858,4.67378e-05,698.3249999994858,9.928109e-05
698.3399999994858,4.97576e-05,698.3399999994858,6.999374e-05,698.3399999994858,4.65548e-05,698.3399999994858,9.541842e-05
698.3549999994858,4.931912e-05,698.3549999994858,7.056259e-05,698.3549999994858,4.653422e-05,698.3549999994858,9.128036e-05
698.3699999994858,4.968394e-05,698.3699999994858,6.981156e-05,698.3699999994858,4.287883e-05,698.3699999994858,8.880177e-05
698.3849999994858,4.939333e-05,698.3849999994858,6.252108e-05,698.3849999994858,4.229201e-05,698.3849999994858,8.7133e-05
698.3999999994858,4.028137e-05,698.3999999994858,6.257581e-05,698.3999999994858,4.185946e-05,698.3999999994858,8.558024e-05
698.4149999994858,4.023238e-05,698.4149999994858,6.44965e-05,698.4149999994858,4.159581e-05,698.4149999994858,8.497616e-05
698.4299999994857,3.802591e-05,698.4299999994857,6.497608e-05,698.4299999994857,3.606962e-05,698.4299999994857,8.371841e-05
698.4449999994857,3.631794e-05,698.4449999994857,6.435853e-05,698.4449999994857,3.19527e-05,698.4449999994857,8.151773e-05
698.4599999994857,3.462539e-05,698.4599999994857,6.455937e-05,698.4599999994857,3.025666e-05,698.4599999994857,8.145895e-05
698.4749999994857,3.356775e-05,698.4749999994857,6.670017e-05,698.4749999994857,2.968987e-05,698.4749999994857,8.079688e-05
698.4899999994857,3.563784e-05,698.4899999994857,6.823913e-05,698.4899999994857,2.98347e-05,698.4899999994857,7.719167e-05
698.5049999994857,3.572745e-05,698.5049999994857,7.033064e-05,698.5049999994857,2.967943e-05,698.5049999994857,7.207811e-05
698.5199999994857,3.531143e-05,698.5199999994857,7.529157e-05,698.5199999994857,2.916329e-05,698.5199999994857,6.480915e-05
698.5349999994856,2.938896e-05,698.5349999994856,7.840464e-05,698.5349999994856,2.687842e-05,698.5349999994856,5.024527e-05
698.5499999994856,2.798254e-05,698.5499999994856,7.702268e-05,698.5499999994856,2.065569e-05,698.5499999994856,3.925771e-05
698.5649999994856,2.696267e-05,698.5649999994856,7.536281e-05,698.5649999994856,1.827477e-05,698.5649999994856,3.579205e-05
698.5799999994856,2.685798e-05,698.5799999994856,6.932295e-05,698.5799999994856,1.736165e-05,698.5799999994856,3.49578e-05
698.5949999994856,2.792156e-05,698.5949999994856,6.389899e-05,698.5949999994856,1.713543e-05,698.5949999994856,3.338639e-05
698.6099999994856,2.761923e-05,698.6099999994856,5.983702e-05,698.6099999994856,1.590499e-05,698.6099999994856,3.354718e-05
698.6249999994856,2.738927e-05,698.6249999994856,5.797144e-05,698.6249999994856,1.581172e-05,698.6249999994856,3.369174e-05
698.6399999994856,2.850128e-05,698.6399999994856,5.775307e-05,698.6399999994856,1.404227e-05,698.6399999994856,3.391344e-05
698.6549999994855,2.986868e-05,698.6549999994855,5.813717e-05,698.6549999994855,1.369387e-05,698.6549999994855,2.954719e-05
698.6699999994855,2.889738e-05,698.6699999994855,5.568625e-05,698.6699999994855,1.345519e-05,698.6699999994855,2.911979e-05
698.6849999994855,2.859109e-05,698.6849999994855,5.469285e-05,698.6849999994855,1.324946e-05,698.6849999994855,2.900588e-05
698.6999999994855,2.846913e-05,698.6999999994855,5.538135e-05,698.6999999994855,1.303509e-05,698.6999999994855,2.79155e-05
698.7149999994855,2.804389e-05,698.7149999994855,5.405788e-05,698.7149999994855,1.227023e-05,698.7149999994855,2.664524e-05
698.7299999994855,2.500109e-05,698.7299999994855,5.030551e-05,698.7299999994855,1.190074e-05,698.7299999994855,2.498305e-05
698.7449999994855,2.303146e-05,698.7449999994855,4.945005e-05,698.7449999994855,1.023605e-05,698.7449999994855,2.490512e-05
698.7599999994854,2.24943e-05,698.7599999994854,4.787324e-05,698.7599999994854,9.230183e-06,698.7599999994854,2.463441e-05
698.7749999994854,2.125531e-05,698.7749999994854,3.939597e-05,698.7749999994854,9.233234e-06,698.7749999994854,2.382159e-05
698.7899999994854,2.079773e-05,698.7899999994854,3.225283e-05,698.7899999994854,8.716856e-06,698.7899999994854,2.20273e-05
698.8049999994854,2.043215e-05,698.8049999994854,3.125739e-05,698.8049999994854,8.079462e-06,698.8049999994854,2.150305e-05
698.8199999994854,1.965414e-05,698.8199999994854,3.143355e-05,698.8199999994854,7.689987e-06,698.8199999994854,2.082548e-05
698.8349999994854,1.905144e-05,698.8349999994854,3.165549e-05,698.8349999994854,7.560672e-06,698.8349999994854,1.931506e-05
698.8499999994854,1.670501e-05,698.8499999994854,3.156994e-05,698.8499999994854,7.532673e-06,698.8499999994854,1.683688e-05
698.8649999994853,1.618157e-05,698.8649999994853,3.107116e-05,698.8649999994853,7.250621e-06,698.8649999994853,1.456618e-05
698.8799999994853,1.469903e-05,698.8799999994853,3.159937e-05,698.8799999994853,7.041671e-06,698.8799999994853,1.39416e-05
698.8949999994853,1.113892e-05,698.8949999994853,2.983329e-05,698.8949999994853,6.224016e-06,698.8949999994853,1.242198e-05
698.9099999994853,9.233234e-06,698.9099999994853,2.914783e-05,698.9099999994853,5.884307e-06,698.9099999994853,1.096815e-05
698.9249999994853,8.914992e-06,698.9249999994853,2.871252e-05,698.9249999994853,5.677176e-06,698.9249999994853,1.090504e-05
698.9399999994853,9.475681e-06,698.9399999994853,3.418113e-05,698.9399999994853,4.699779e-06,698.9399999994853,1.05545e-05
698.9549999994853,9.408545e-06,698.9549999994853,3.41048e-05,698.9549999994853,4.553636e-06,698.9549999994853,1.013231e-05
698.9699999994853,9.289512e-06,698.9699999994853,3.565325e-05,698.9699999994853,4.48192e-06,698.9699999994853,1.004715e-05
698.9849999994852,8.753946e-06,698.9849999994852,3.651599e-05,698.9849999994852,4.182782e-06,698.9849999994852,1.005836e-05
698.9999999994852,8.548785e-06,698.9999999994852,3.657381e-05,698.9999999994852,4.269446e-06,698.9999999994852,9.999364e-06
699.0149999994852,6.832516e-06,699.0149999994852,3.67881e-05,699.0149999994852,4.01437e-06,699.0149999994852,9.955596e-06
699.0299999994852,6.940926e-06,699.0299999994852,3.769178e-05,699.0299999994852,4.038859e-06,699.0299999994852,1.003733e-05
699.0449999994852,7.640368e-06,699.0449999994852,3.892257e-05,699.0449999994852,4.155752e-06,699.0449999994852,1.015176e-05
699.0599999994852,9.168933e-06,699.0599999994852,4.050422e-05,699.0599999994852,4.29576e-06,699.0599999994852,1.009191e-05
699.0749999994852,9.34545e-06,699.0749999994852,4.047777e-05,699.0749999994852,4.29248e-06,699.0749999994852,9.713527e-06
699.0899999994851,9.791525e-06,699.0899999994851,4.016826e-05,699.0899999994851,4.510119e-06,699.0899999994851,9.1289e-06
699.1049999994851,1.019883e-05,699.1049999994851,4.16939e-05,699.1049999994851,5.08004e-06,699.1049999994851,8.914992e-06
699.1199999994851,1.041748e-05,699.1199999994851,4.176311e-05,699.1199999994851,5.331691e-06,699.1199999994851,8.750726e-06
699.1349999994851,1.06647e-05,699.1349999994851,4.048995e-05,699.1349999994851,5.528843e-06,699.1349999994851,7.174451e-06
699.1499999994851,1.075546e-05,699.1499999994851,3.999182e-05,699.1499999994851,5.602244e-06,699.1499999994851,6.616753e-06
699.1649999994851,1.087658e-05,699.1649999994851,4.010649e-05,699.1649999994851,5.920107e-06,699.1649999994851,6.269119e-06
699.1799999994851,1.104749e-05,699.1799999994851,4.15287e-05,699.1799999994851,5.869926e-06,699.1799999994851,6.135114e-06
699.194999999485,1.058648e-05,699.194999999485,3.521555e-05,699.194999999485,5.855509e-06,699.194999999485,5.654801e-06
699.209999999485,1.064752e-05,699.209999999485,3.876082e-05,699.209999999485,5.821732e-06,699.209999999485,5.711809e-06
699.224999999485,1.06197e-05,699.224999999485,3.69459e-05,699.224999999485,5.831403e-06,699.224999999485,5.622323e-06
699.239999999485,1.068845e-05,699.239999999485,3.652409e-05,699.239999999485,5.828986e-06,699.239999999485,5.609782e-06
699.254999999485,1.090504e-05,699.254999999485,3.545038e-05,699.254999999485,5.719203e-06,699.254999999485,5.360675e-06
699.269999999485,1.094501e-05,699.269999999485,3.368505e-05,699.269999999485,5.733962e-06,699.269999999485,5.307859e-06
699.284999999485,1.011144e-05,699.284999999485,3.311058e-05,699.284999999485,5.809621e-06,699.284999999485,5.294573e-06
699.299999999485,9.131986e-06,699.299999999485,3.067695e-05,699.299999999485,5.731505e-06,699.299999999485,5.313164e-06
699.3149999994849,8.265616e-06,699.3149999994849,3.053011e-05,699.3149999994849,5.898653e-06,699.3149999994849,5.344885e-06
699.3299999994849,8.109047e-06,699.3299999994849,3.04201e-05,699.3299999994849,5.874723e-06,699.3299999994849,5.425972e-06
699.3449999994849,7.922768e-06,699.3449999994849,2.970031e-05,699.3449999994849,5.898653e-06,699.3449999994849,4.993339e-06
699.3599999994849,7.664298e-06,699.3599999994849,2.801323e-05,699.3599999994849,5.321112e-06,699.3599999994849,5.597212e-06
699.3749999994849,7.597844e-06,699.3749999994849,2.786955e-05,699.3749999994849,5.22494e-06,699.3749999994849,5.624828e-06
699.3899999994849,7.370092e-06,699.3899999994849,2.778551e-05,699.3899999994849,5.154366e-06,699.3899999994849,5.719203e-06
699.4049999994849,7.350954e-06,699.4049999994849,2.70758e-05,699.4049999994849,5.077266e-06,699.4049999994849,5.877121e-06
699.4199999994848,7.101431e-06,699.4199999994848,2.644678e-05,699.4199999994848,4.794733e-06,699.4199999994848,5.797484e-06
699.4349999994848,6.676097e-06,699.4349999994848,2.405345e-05,699.4349999994848,4.870521e-06,699.4349999994848,5.889093e-06
699.4499999994848,7.057657e-06,699.4499999994848,2.185523e-05,699.4499999994848,5.043863e-06,699.4499999994848,5.881913e-06
699.4649999994848,7.48201e-06,699.4649999994848,1.456812e-05,699.4649999994848,5.358047e-06,699.4649999994848,5.929618e-06
699.4799999994848,7.523317e-06,699.4799999994848,1.36846e-05,699.4799999994848,5.451871e-06,699.4799999994848,6.079758e-06
699.4949999994848,7.266147e-06,699.4949999994848,1.376773e-05,699.4949999994848,5.533936e-06,699.4949999994848,6.151165e-06
699.5099999994848,6.993494e-06,699.5099999994848,1.321753e-05,699.5099999994848,5.508422e-06,699.5099999994848,6.214957e-06
699.5249999994847,6.912455e-06,699.5249999994847,1.216067e-05,699.5249999994847,5.441526e-06,699.5249999994847,6.16489e-06
699.5399999994847,6.906339e-06,699.5399999994847,1.03904e-05,699.5399999994847,5.418178e-06,699.5399999994847,6.123622e-06
699.5549999994847,6.971302e-06,699.5549999994847,1.06647e-05,699.5549999994847,5.132455e-06,699.5549999994847,5.934367e-06
699.5699999994847,7.1823e-06,699.5699999994847,1.168935e-05,699.5699999994847,5.115961e-06,699.5699999994847,5.790191e-06
699.5849999994847,7.412022e-06,699.5849999994847,1.22507e-05,699.5849999994847,4.998978e-06,699.5849999994847,5.758477e-06
699.5999999994847,7.480127e-06,699.5999999994847,1.21896e-05,699.5999999994847,4.950841e-06,699.5999999994847,6.042573e-06
699.6149999994847,7.461272e-06,699.6149999994847,1.204896e-05,699.6149999994847,4.95937e-06,699.6149999994847,5.513535e-06
699.6299999994847,8.026986e-06,699.6299999994847,1.205714e-05,699.6299999994847,4.922306e-06,699.6299999994847,5.394728e-06
699.6449999994846,1.128716e-05,699.6449999994846,1.199623e-05,699.6449999994846,4.873412e-06,699.6449999994846,5.246463e-06
699.6599999994846,1.967204e-05,699.6599999994846,1.204545e-05,699.6599999994846,5.077266e-06,699.6599999994846,5.043863e-06
699.6749999994846,2.083157e-05,699.6749999994846,1.209796e-05,699.6749999994846,5.088352e-06,699.6749999994846,5.126963e-06
699.6899999994846,2.164019e-05,699.6899999994846,1.201266e-05,699.6899999994846,5.032679e-06,699.6899999994846,5.096651e-06
699.7049999994846,2.183589e-05,699.7049999994846,1.200327e-05,699.7049999994846,4.660651e-06,699.7049999994846,4.979213e-06
699.7199999994846,2.18417e-05,699.7199999994846,1.260882e-05,699.7199999994846,4.732634e-06,699.7199999994846,5.082812e-06
699.7349999994846,2.231827e-05,699.7349999994846,1.26779e-05,699.7349999994846,4.66971e-06,699.7349999994846,5.055022e-06
699.7499999994845,2.308949e-05,699.7499999994845,1.304589e-05,699.7499999994845,4.666692e-06,699.7499999994845,4.873412e-06
699.7649999994845,2.313886e-05,699.7649999994845,1.315343e-05,699.7649999994845,4.559819e-06,699.7649999994845,4.756387e-06
699.7799999994845,2.325303e-05,699.7799999994845,1.364646e-05,699.7799999994845,4.516361e-06,699.7799999994845,4.788854e-06
699.7949999994845,2.355817e-05,699.7949999994845,1.48942e-05,699.7949999994845,4.630328e-06,699.7949999994845,4.756387e-06
699.8099999994845,2.366436e-05,699.8099999994845,1.682097e-05,699.8099999994845,4.605925e-06,699.8099999994845,4.675739e-06
699.8249999994845,2.364292e-05,699.8249999994845,1.691367e-05,699.8249999994845,4.711753e-06,699.8249999994845,4.905105e-06
699.8399999994845,2.355398e-05,699.8399999994845,1.678408e-05,699.8399999994845,4.666692e-06,699.8399999994845,4.832776e-06
699.8549999994844,2.352645e-05,699.8549999994844,1.713214e-05,699.8549999994844,4.756387e-06,699.8549999994844,4.599804e-06
699.8699999994844,2.352705e-05,699.8699999994844,1.715597e-05,699.8699999994844,4.824024e-06,699.8699999994844,4.497608e-06
699.8849999994844,2.344849e-05,699.8849999994844,1.766329e-05,699.8849999994844,4.928026e-06,699.8849999994844,4.503868e-06
699.8999999994844,1.694862e-05,699.8999999994844,1.968565e-05,699.8999999994844,4.990517e-06,699.8999999994844,4.450379e-06
699.9149999994844,1.553127e-05,699.9149999994844,2.042043e-05,699.9149999994844,4.93374e-06,699.9149999994844,4.405843e-06
699.9299999994844,1.417904e-05,699.9299999994844,2.149126e-05,699.9299999994844,4.809401e-06,699.9299999994844,4.196231e-06
699.9449999994844,1.344367e-05,699.9449999994844,2.176157e-05,699.9449999994844,4.711753e-06,699.9449999994844,4.282623e-06
699.9599999994844,1.29342e-05,699.9599999994844,2.353483e-05,699.9599999994844,4.645514e-06,699.9599999994844,4.308857e-06
699.9749999994843,1.261217e-05,699.9749999994843,2.669964e-05,699.9749999994843,4.602866e-06,699.9749999994843,4.125132e-06
699.9899999994843,1.174585e-05,699.9899999994843,2.690776e-05,699.9899999994843,4.550541e-06,699.9899999994843,4.148967e-06
700.0049999994843,1.118309e-05,700.0049999994843,2.779515e-05,700.0049999994843,4.535037e-06,700.0049999994843,4.142171e-06
700.0199999994843,1.144825e-05,700.0199999994843,2.836156e-05,700.0199999994843,4.544346e-06,700.0199999994843,4.29248e-06
700.0349999994843,1.141992e-05,700.0349999994843,2.839779e-05,700.0349999994843,4.684768e-06,700.0349999994843,4.38019e-06
700.0499999994843,1.083115e-05,700.0499999994843,2.762892e-05,700.0499999994843,4.675739e-06,700.0499999994843,4.338181e-06
700.0649999994843,1.086751e-05,700.0649999994843,2.611877e-05,700.0649999994843,5.02147e-06,700.0649999994843,4.478776e-06
700.0799999994842,1.086362e-05,700.0799999994842,2.596189e-05,700.0799999994842,4.936594e-06,700.0799999994842,4.29248e-06
700.0949999994842,1.083376e-05,700.0949999994842,2.58177e-05,700.0949999994842,5.00461e-06,700.0949999994842,4.559819e-06
700.1099999994842,1.183664e-05,700.1099999994842,2.576472e-05,700.1099999994842,5.032679e-06,700.1099999994842,4.633369e-06
700.1249999994842,1.213516e-05,700.1249999994842,2.58466e-05,700.1249999994842,5.313164e-06,700.1249999994842,4.642481e-06
700.1399999994842,1.168573e-05,700.1399999994842,2.517795e-05,700.1399999994842,5.184341e-06,700.1399999994842,4.645514e-06
700.1549999994842,1.184735e-05,700.1549999994842,2.419592e-05,700.1549999994842,4.967884e-06,700.1549999994842,4.666692e-06
700.1699999994842,1.442332e-05,700.1699999994842,2.398776e-05,700.1699999994842,5.071714e-06,700.1699999994842,4.675739e-06
700.1849999994841,1.815722e-05,700.1849999994841,2.33099e-05,700.1849999994841,5.110451e-06,700.1849999994841,4.587538e-06
700.1999999994841,1.912377e-05,700.1999999994841,2.499263e-05,700.1999999994841,5.652309e-06,700.1999999994841,4.602866e-06
700.2149999994841,2.300514e-05,700.2149999994841,2.232963e-05,700.2149999994841,6.007502e-06,700.2149999994841,4.66971e-06
700.2299999994841,2.315103e-05,700.2299999994841,2.097511e-05,700.2299999994841,8.129866e-06,700.2299999994841,4.593675e-06
700.2449999994841,2.343286e-05,700.2449999994841,2.021869e-05,700.2449999994841,9.725122e-06,700.2449999994841,4.535037e-06
700.2599999994841,2.32209e-05,700.2599999994841,1.984387e-05,700.2599999994841,1.044314e-05,700.2599999994841,4.485062e-06
700.2749999994841,2.32954e-05,700.2749999994841,1.984103e-05,700.2749999994841,1.064619e-05,700.2749999994841,4.334932e-06
700.289999999484,2.353543e-05,700.289999999484,1.940892e-05,700.289999999484,1.061439e-05,700.289999999484,4.302314e-06
700.304999999484,2.352825e-05,700.304999999484,1.963764e-05,700.304999999484,1.084025e-05,700.304999999484,4.584466e-06
700.319999999484,2.395368e-05,700.319999999484,2.187005e-05,700.319999999484,1.073973e-05,700.319999999484,4.370531e-06
700.334999999484,2.454906e-05,700.334999999484,3.305352e-05,700.334999999484,1.090116e-05,700.334999999484,4.212983e-06
700.349999999484,2.443634e-05,700.349999999484,3.705593e-05,700.349999999484,1.088823e-05,700.349999999484,4.087396e-06
700.364999999484,2.478605e-05,700.364999999484,3.825785e-05,700.364999999484,1.083376e-05,700.364999999484,4.135364e-06
700.379999999484,2.48048e-05,700.379999999484,3.844627e-05,700.379999999484,1.085584e-05,700.379999999484,4.229668e-06
700.394999999484,2.502868e-05,700.394999999484,3.862247e-05,700.394999999484,1.094501e-05,700.394999999484,4.29248e-06
700.409999999484,2.439249e-05,700.409999999484,3.873646e-05,700.409999999484,1.119442e-05,700.409999999484,4.389827e-06
700.4249999994839,2.342324e-05,700.4249999994839,3.863378e-05,700.4249999994839,1.132454e-05,700.4249999994839,4.409039e-06
700.4399999994839,2.038245e-05,700.4399999994839,3.90245e-05,700.4399999994839,1.136923e-05,700.4399999994839,4.541245e-06
700.4549999994839,1.946038e-05,700.4549999994839,3.758549e-05,700.4549999994839,1.232521e-05,700.4549999994839,4.510119e-06
700.4699999994839,1.618941e-05,700.4699999994839,3.690394e-05,700.4699999994839,1.152062e-05,700.4699999994839,4.519479e-06
700.4849999994839,1.550858e-05,700.4849999994839,3.6915e-05,700.4849999994839,1.099637e-05,700.4849999994839,4.587538e-06
700.4999999994839,1.54476e-05,700.4999999994839,3.729956e-05,700.4999999994839,9.938602e-06,700.4999999994839,4.663672e-06
700.5149999994838,1.55349e-05,700.5149999994838,3.716108e-05,700.5149999994838,9.924419e-06,700.5149999994838,4.630328e-06
700.5299999994838,1.539737e-05,700.5299999994838,3.717662e-05,700.5299999994838,9.90595e-06,700.5299999994838,4.602866e-06
700.5449999994838,1.502977e-05,700.5449999994838,3.745747e-05,700.5449999994838,1.177101e-05,700.5449999994838,4.428167e-06
700.5599999994838,1.401416e-05,700.5599999994838,3.731127e-05,700.5599999994838,1.209912e-05,700.5599999994838,4.256228e-06
700.5749999994838,1.346984e-05,700.5749999994838,2.832428e-05,700.5749999994838,1.227826e-05,700.5749999994838,4.259536e-06
700.5899999994838,1.29124e-05,700.5899999994838,2.470978e-05,700.5899999994838,1.325584e-05,700.5899999994838,4.354386e-06
700.6049999994838,1.13878e-05,700.6049999994838,2.049755e-05,700.6049999994838,1.36258e-05,700.6049999994838,4.66971e-06
700.6199999994838,1.091536e-05,700.6199999994838,1.95773e-05,700.6199999994838,1.415717e-05,700.6199999994838,4.723696e-06
700.6349999994837,1.090245e-05,700.6349999994837,2.242971e-05,700.6349999994837,1.661708e-05,700.6349999994837,4.68176e-06
700.6499999994837,9.821691e-06,700.6499999994837,2.287989e-05,700.6499999994837,2.53469e-05,700.6499999994837,4.66971e-06
700.6649999994837,9.897414e-06,700.6649999994837,2.317353e-05,700.6649999994837,2.589234e-05,700.6649999994837,4.741556e-06
700.6799999994837,9.615872e-06,700.6799999994837,2.336242e-05,700.6799999994837,2.595538e-05,700.6799999994837,4.803539e-06
700.6949999994837,9.271297e-06,700.6949999994837,2.386235e-05,700.6949999994837,2.693915e-05,700.6949999994837,4.82986e-06
700.7099999994837,8.250264e-06,700.7099999994837,2.485699e-05,700.7099999994837,2.708413e-05,700.7099999994837,4.79767e-06
700.7249999994837,7.444261e-06,700.7249999994837,2.597816e-05,700.7249999994837,2.738053e-05,700.7249999994837,4.815255e-06
700.7399999994836,7.575563e-06,700.7399999994836,2.651487e-05,700.7399999994836,2.744476e-05,700.7399999994836,4.815255e-06
700.7549999994836,7.119262e-06,700.7549999994836,2.732542e-05,700.7549999994836,2.75196e-05,700.7549999994836,4.87919e-06
700.7699999994836,7.156758e-06,700.7699999994836,2.755387e-05,700.7699999994836,2.848397e-05,700.7699999994836,4.884961e-06
700.7849999994836,7.019631e-06,700.7849999994836,2.778703e-05,700.7849999994836,2.878309e-05,700.7849999994836,4.864733e-06
700.7999999994836,6.848989e-06,700.7999999994836,2.766765e-05,700.7999999994836,2.955195e-05,700.7999999994836,4.826943e-06
700.8149999994836,7.077588e-06,700.8149999994836,2.869191e-05,700.8149999994836,2.956244e-05,700.8149999994836,4.896482e-06
700.8299999994836,7.295169e-06,700.8299999994836,3.137299e-05,700.8299999994836,3.061857e-05,700.8299999994836,4.913713e-06
700.8449999994835,7.379642e-06,700.8449999994835,3.178871e-05,700.8449999994835,3.027202e-05,700.8449999994835,5.052234e-06
700.8599999994835,7.713764e-06,700.8599999994835,3.098308e-05,700.8599999994835,3.135593e-05,700.8599999994835,5.291911e-06
700.8749999994835,7.70097e-06,700.8749999994835,3.004689e-05,700.8749999994835,3.281957e-05,700.8749999994835,6.983416e-06
700.8899999994835,7.862084e-06,700.8899999994835,2.787763e-05,700.8899999994835,3.207019e-05,700.8899999994835,8.758771e-06
700.9049999994835,7.847737e-06,700.9049999994835,2.732955e-05,700.9049999994835,6.136698e-05,700.9049999994835,1.212239e-05
700.9199999994835,8.770023e-06,700.9199999994835,2.734037e-05,700.9199999994835,7.86991e-05,700.9199999994835,1.481169e-05
700.9349999994835,1.111106e-05,700.9349999994835,2.628275e-05,700.9349999994835,9.847874e-05,700.9349999994835,1.867356e-05
700.9499999994835,1.227482e-05,700.9499999994835,2.648297e-05,700.9499999994835,0.0001063257,700.9499999994835,2.710752e-05
700.9649999994834,1.230462e-05,700.9649999994834,2.64569e-05,700.9649999994834,0.0001065225,700.9649999994834,3.291729e-05
700.9799999994834,1.229431e-05,700.9799999994834,2.831135e-05,700.9799999994834,0.000106903,700.9799999994834,3.472614e-05
700.9949999994834,1.238677e-05,700.9949999994834,3.084912e-05,700.9949999994834,0.0001076364,700.9949999994834,3.611373e-05
701.0099999994834,1.244803e-05,701.0099999994834,3.074071e-05,701.0099999994834,0.0001088411,701.0099999994834,3.687377e-05
701.0249999994834,1.237767e-05,701.0249999994834,3.109019e-05,701.0249999994834,0.000109417,701.0249999994834,3.743264e-05
701.0399999994834,1.270232e-05,701.0399999994834,3.068475e-05,701.0399999994834,0.0001098695,701.0399999994834,3.776496e-05
701.0549999994834,1.32026e-05,701.0549999994834,3.008718e-05,701.0549999994834,0.0001105363,701.0549999994834,3.954052e-05
701.0699999994833,1.378614e-05,701.0699999994833,2.977137e-05,701.0699999994833,0.0001105148,701.0699999994833,4.112512e-05
701.0849999994833,1.404227e-05,701.0849999994833,2.640306e-05,701.0849999994833,0.0001102022,701.0849999994833,4.188267e-05
701.0999999994833,1.604958e-05,701.0999999994833,2.69109e-05,701.0999999994833,0.0001103303,701.0999999994833,4.282031e-05
701.1149999994833,1.674459e-05,701.1149999994833,2.713817e-05,701.1149999994833,0.0001102745,701.1149999994833,4.539321e-05
701.1299999994833,1.690201e-05,701.1299999994833,2.81066e-05,701.1299999994833,0.0001098301,701.1299999994833,4.695071e-05
701.1449999994833,1.696689e-05,701.1449999994833,3.630475e-05,701.1449999994833,0.0001099757,701.1449999994833,4.73311e-05
701.1599999994833,1.71346e-05,701.1599999994833,5.060703e-05,701.1599999994833,8.02351e-05,701.1599999994833,4.732873e-05
701.1749999994832,1.697021e-05,701.1749999994832,5.088518e-05,701.1749999994832,7.327422e-05,701.1749999994832,4.635983e-05
701.1899999994832,1.698432e-05,701.1899999994832,5.298483e-05,701.1899999994832,4.769695e-05,701.1899999994832,4.609991e-05
701.2049999994832,1.739326e-05,701.2049999994832,5.326431e-05,701.2049999994832,3.590719e-05,701.2049999994832,4.192436e-05
701.2199999994832,1.771108e-05,701.2199999994832,5.239666e-05,701.2199999994832,3.510016e-05,701.2199999994832,3.920924e-05
701.2349999994832,1.806622e-05,701.2349999994832,4.956841e-05,701.2349999994832,3.432712e-05,701.2349999994832,3.915351e-05
701.2499999994832,1.804204e-05,701.2499999994832,4.946571e-05,701.2499999994832,3.270132e-05,701.2499999994832,4.259239e-05
701.2649999994832,1.804282e-05,701.2649999994832,5.031923e-05,701.2649999994832,2.686112e-05,701.2649999994832,4.497138e-05
701.2799999994832,1.797633e-05,701.2799999994832,5.00824e-05,701.2799999994832,2.593094e-05,701.2799999994832,4.649878e-05
701.2949999994831,1.774286e-05,701.2949999994831,5.146215e-05,701.2949999994831,2.018801e-05,701.2949999994831,5.045678e-05
701.3099999994831,1.764175e-05,701.3099999994831,5.176265e-05,701.3099999994831,1.908395e-05,701.3099999994831,4.987976e-05
701.3249999994831,1.710581e-05,701.3249999994831,5.206872e-05,701.3249999994831,1.876536e-05,701.3249999994831,4.892625e-05
701.3399999994831,1.609078e-05,701.3399999994831,5.215792e-05,701.3399999994831,1.83747e-05,701.3399999994831,4.890696e-05
701.3549999994831,1.433122e-05,701.3549999994831,5.232618e-05,701.3549999994831,1.765531e-05,701.3549999994831,4.851424e-05
701.3699999994831,1.365575e-05,701.3699999994831,5.251375e-05,701.3699999994831,1.596157e-05,701.3699999994831,4.604059e-05
701.3849999994831,1.355428e-05,701.3849999994831,5.170846e-05,701.3849999994831,1.572058e-05,701.3849999994831,4.441127e-05
701.399999999483,1.360097e-05,701.399999999483,4.641115e-05,701.399999999483,1.31759e-05,701.399999999483,4.371434e-05
701.414999999483,1.268123e-05,701.414999999483,3.249953e-05,701.414999999483,1.301779e-05,701.414999999483,4.29494e-05
701.429999999483,1.101045e-05,701.429999999483,3.133615e-05,701.429999999483,1.231835e-05,701.429999999483,4.260065e-05
701.444999999483,1.05705e-05,701.444999999483,3.101807e-05,701.444999999483,1.253037e-05,701.444999999483,4.072342e-05
701.459999999483,8.568535e-06,701.459999999483,3.061029e-05,701.459999999483,1.284897e-05,701.459999999483,3.964726e-05
701.474999999483,7.16266e-06,701.474999999483,3.03487e-05,701.474999999483,1.308255e-05,701.474999999483,3.953945e-05
701.489999999483,7.013608e-06,701.489999999483,3.074804e-05,701.489999999483,1.41223e-05,701.489999999483,3.826779e-05
701.504999999483,6.818068e-06,701.504999999483,3.00825e-05,701.504999999483,1.4281e-05,701.504999999483,3.107116e-05
701.5199999994829,6.724452e-06,701.5199999994829,2.940238e-05,701.5199999994829,1.504289e-05,701.5199999994829,2.79261e-05
701.5349999994829,6.543968e-06,701.5349999994829,2.822064e-05,701.5349999994829,1.507563e-05,701.5349999994829,2.396485e-05
701.5499999994829,6.266871e-06,701.5499999994829,2.75109e-05,701.5499999994829,1.520866e-05,701.5499999994829,1.476024e-05
701.5649999994829,6.063518e-06,701.5649999994829,2.706227e-05,701.5649999994829,1.633665e-05,701.5649999994829,1.181043e-05
701.5799999994829,6.023894e-06,701.5799999994829,2.651274e-05,701.5799999994829,1.64278e-05,701.5799999994829,1.104239e-05
701.5949999994829,6.169459e-06,701.5949999994829,2.585096e-05,701.5949999994829,1.614148e-05,701.5949999994829,8.419275e-06
701.6099999994829,6.105191e-06,701.6099999994829,2.583188e-05,701.6099999994829,1.642266e-05,701.6099999994829,7.818965e-06
701.6249999994828,5.934367e-06,701.6249999994828,2.5328e-05,701.6249999994828,1.623198e-05,701.6249999994828,7.105398e-06
701.6399999994828,6.014533e-06,701.6399999994828,2.491077e-05,701.6399999994828,1.691617e-05,701.6399999994828,7.057657e-06
701.6549999994828,5.943854e-06,701.6549999994828,2.509725e-05,701.6549999994828,1.787338e-05,701.6549999994828,6.716067e-06
701.6699999994828,5.692045e-06,701.6699999994828,2.27657e-05,701.6699999994828,1.788441e-05,701.6699999994828,6.654963e-06
701.6849999994828,5.604757e-06,701.6849999994828,2.295242e-05,701.6849999994828,1.785682e-05,701.6849999994828,6.318359e-06
701.6999999994828,5.574516e-06,701.6999999994828,2.167921e-05,701.6999999994828,1.754326e-05,701.6999999994828,6.093644e-06
701.7149999994828,5.604757e-06,701.7149999994828,2.192473e-05,701.7149999994828,1.717156e-05,701.7149999994828,6.082075e-06
701.7299999994827,5.639834e-06,701.7299999994827,2.204903e-05,701.7299999994827,1.669066e-05,701.7299999994827,6.162605e-06
701.7449999994827,5.358047e-06,701.7449999994827,2.162e-05,701.7449999994827,1.653209e-05,701.7449999994827,6.144291e-06
701.7599999994827,5.850696e-06,701.7599999994827,2.171297e-05,701.7599999994827,1.60864e-05,701.7599999994827,5.758477e-06
701.7749999994827,5.898653e-06,701.7749999994827,2.141377e-05,701.7749999994827,1.606187e-05,701.7749999994827,5.716739e-06
701.7899999994827,6.589018e-06,701.7899999994827,2.163303e-05,701.7899999994827,1.630126e-05,701.7899999994827,5.662269e-06
701.8049999994827,6.621009e-06,701.8049999994827,2.136042e-05,701.8049999994827,1.525028e-05,701.8049999994827,5.682137e-06
701.8199999994827,6.663425e-06,701.8199999994827,2.272421e-05,701.8199999994827,1.520959e-05,701.8199999994827,5.843468e-06
701.8349999994826,6.612493e-06,701.8349999994826,2.288235e-05,701.8349999994826,1.543118e-05,701.8349999994826,5.841057e-06
701.8499999994826,6.764137e-06,701.8499999994826,2.298432e-05,701.8499999994826,1.707036e-05,701.8499999994826,5.838645e-06
701.8649999994826,7.375824e-06,701.8649999994826,2.312241e-05,701.8649999994826,1.708108e-05,701.8649999994826,5.948592e-06
701.8799999994826,7.610811e-06,701.8799999994826,2.362862e-05,701.8799999994826,1.717074e-05,701.8799999994826,6.481242e-06
701.8949999994826,7.706456e-06,701.8949999994826,2.370183e-05,701.8949999994826,1.669657e-05,701.8949999994826,6.511599e-06
701.9099999994826,7.379642e-06,701.9099999994826,2.537523e-05,701.9099999994826,1.602147e-05,701.9099999994826,7.019631e-06
701.9249999994826,7.289374e-06,701.9249999994826,2.52634e-05,701.9249999994826,1.618244e-05,701.9249999994826,7.387274e-06
701.9399999994826,7.22142e-06,701.9399999994826,2.410142e-05,701.9399999994826,1.603202e-05,701.9399999994826,7.260328e-06
701.9549999994825,7.215565e-06,701.9549999994825,2.451001e-05,701.9549999994825,1.797947e-05,701.9549999994825,7.404416e-06
701.9699999994825,7.324076e-06,701.9699999994825,2.488531e-05,701.9699999994825,1.806311e-05,701.9699999994825,7.434793e-06
701.9849999994825,7.333686e-06,701.9849999994825,2.478378e-05,701.9849999994825,1.92698e-05,701.9849999994825,7.370092e-06
701.9999999994825,7.68449e-06,701.9999999994825,2.448701e-05,701.9999999994825,1.960677e-05,701.9999999994825,7.379642e-06
702.0149999994825,7.36818e-06,702.0149999994825,2.450541e-05,702.0149999994825,1.971925e-05,702.0149999994825,7.337527e-06
702.0299999994825,7.366268e-06,702.0299999994825,2.403939e-05,702.0299999994825,1.947702e-05,702.0299999994825,7.461272e-06
702.0449999994825,6.79323e-06,702.0449999994825,2.387475e-05,702.0449999994825,1.898701e-05,702.0449999994825,7.461272e-06
702.0599999994824,6.69506e-06,702.0599999994824,2.325848e-05,702.0599999994824,1.921636e-05,702.0599999994824,7.354785e-06
702.0749999994824,6.743279e-06,702.0749999994824,2.335036e-05,702.0749999994824,2.109966e-05,702.0749999994824,7.27777e-06
702.0899999994824,6.552573e-06,702.0899999994824,2.334493e-05,702.0899999994824,2.162261e-05,702.0899999994824,7.52706e-06
702.1049999994824,6.932803e-06,702.1049999994824,2.350908e-05,702.1049999994824,2.143941e-05,702.1049999994824,7.459384e-06
702.1199999994824,6.260124e-06,702.1199999994824,2.326998e-05,702.1199999994824,2.104618e-05,702.1199999994824,7.375824e-06
702.1349999994824,6.044903e-06,702.1349999994824,2.339074e-05,702.1349999994824,2.100062e-05,702.1349999994824,6.898175e-06
702.1499999994824,5.711809e-06,702.1499999994824,2.365007e-05,702.1499999994824,2.101805e-05,702.1499999994824,6.977362e-06
702.1649999994823,6.007502e-06,702.1649999994823,2.211792e-05,702.1649999994823,2.072581e-05,702.1649999994823,6.57832e-06
702.1799999994823,6.561167e-06,702.1799999994823,2.227974e-05,702.1799999994823,2.184363e-05,702.1799999994823,6.08439e-06
702.1949999994823,6.755802e-06,702.1949999994823,2.22367e-05,702.1949999994823,2.203561e-05,702.1949999994823,6.239839e-06
702.2099999994823,6.757886e-06,702.2099999994823,2.094756e-05,702.2099999994823,2.017824e-05,702.2099999994823,6.19907e-06
702.2249999994823,7.097463e-06,702.2249999994823,2.091929e-05,702.2249999994823,2.019778e-05,702.2249999994823,6.132817e-06
702.2399999994823,7.22727e-06,702.2399999994823,2.120754e-05,702.2399999994823,1.919288e-05,702.2399999994823,6.007502e-06
702.2549999994823,6.914493e-06,702.2549999994823,2.138744e-05,702.2549999994823,1.920316e-05,702.2549999994823,5.955692e-06
702.2699999994823,6.99148e-06,702.2699999994823,2.154036e-05,702.2699999994823,1.921122e-05,702.2699999994823,5.704405e-06
702.2849999994822,6.892046e-06,702.2849999994822,2.16493e-05,702.2849999994822,1.955714e-05,702.2849999994822,5.692045e-06
702.2999999994822,6.896133e-06,702.2999999994822,2.16506e-05,702.2999999994822,1.972996e-05,702.2999999994822,5.711809e-06
702.3149999994822,6.853102e-06,702.3149999994822,2.100129e-05,702.3149999994822,1.953624e-05,702.3149999994822,5.637336e-06
702.3299999994822,6.896133e-06,702.3299999994822,2.065091e-05,702.3299999994822,1.604783e-05,702.3299999994822,5.500745e-06
702.3449999994822,6.780777e-06,702.3449999994822,2.301494e-05,702.3449999994822,1.540011e-05,702.3449999994822,5.12971e-06
702.3599999994822,6.778699e-06,702.3599999994822,2.420058e-05,702.3599999994822,1.528442e-05,702.3599999994822,5.154366e-06
702.3749999994822,6.904299e-06,702.3749999994822,2.392544e-05,702.3749999994822,1.562171e-05,702.3749999994822,4.861837e-06
702.3899999994821,7.003558e-06,702.3899999994821,2.438555e-05,702.3899999994821,1.55004e-05,702.3899999994821,4.853136e-06
702.4049999994821,6.971302e-06,702.4049999994821,2.442307e-05,702.4049999994821,1.564603e-05,702.4049999994821,4.717728e-06
702.4199999994821,6.834577e-06,702.4199999994821,2.395133e-05,702.4199999994821,1.64398e-05,702.4199999994821,4.70577e-06
702.4349999994821,6.644371e-06,702.4349999994821,2.372322e-05,702.4349999994821,1.508964e-05,702.4349999994821,4.550541e-06
702.4499999994821,6.476893e-06,702.4499999994821,2.290143e-05,702.4499999994821,1.637283e-05,702.4499999994821,4.415424e-06
702.4649999994821,6.320588e-06,702.4649999994821,2.258118e-05,702.4649999994821,1.621896e-05,702.4649999994821,4.39624e-06
702.4799999994821,6.189974e-06,702.4799999994821,2.20835e-05,702.4799999994821,1.626493e-05,702.4799999994821,4.405843e-06
702.494999999482,5.991066e-06,702.494999999482,2.15155e-05,702.494999999482,1.622938e-05,702.494999999482,4.503868e-06
702.509999999482,5.976941e-06,702.509999999482,2.13802e-05,702.509999999482,1.617112e-05,702.509999999482,4.575239e-06
702.524999999482,5.741327e-06,702.524999999482,2.121617e-05,702.524999999482,1.617286e-05,702.524999999482,4.525708e-06
702.539999999482,5.809621e-06,702.539999999482,2.124802e-05,702.539999999482,1.638057e-05,702.539999999482,4.405843e-06
702.554999999482,5.838645e-06,702.554999999482,2.142627e-05,702.554999999482,1.580013e-05,702.554999999482,4.672725e-06
702.569999999482,6.107498e-06,702.569999999482,2.14118e-05,702.569999999482,1.603905e-05,702.569999999482,4.553636e-06
702.584999999482,6.102884e-06,702.584999999482,2.068704e-05,702.584999999482,1.606625e-05,702.584999999482,4.590608e-06
702.599999999482,6.098266e-06,702.599999999482,1.758817e-05,702.599999999482,1.594568e-05,702.599999999482,4.765263e-06
702.6149999994819,6.093644e-06,702.6149999994819,1.661792e-05,702.6149999994819,1.634872e-05,702.6149999994819,4.559819e-06
702.6299999994819,6.123622e-06,702.6299999994819,1.575639e-05,702.6299999994819,1.640292e-05,702.6299999994819,4.503868e-06
702.6449999994819,6.19907e-06,702.6449999994819,1.512041e-05,702.6449999994819,1.65065e-05,702.6449999994819,4.711753e-06
702.6599999994819,6.351713e-06,702.6599999994819,1.468369e-05,702.6599999994819,1.645436e-05,702.6599999994819,4.87919e-06
702.6749999994819,6.269119e-06,702.6749999994819,1.417506e-05,702.6749999994819,1.534054e-05,702.6749999994819,5.104936e-06
702.6899999994819,6.338393e-06,702.6899999994819,1.429382e-05,702.6899999994819,1.552674e-05,702.6899999994819,5.049445e-06
702.7049999994819,6.33617e-06,702.7049999994819,1.46568e-05,702.7049999994819,1.518363e-05,702.7049999994819,5.018664e-06
702.7199999994818,6.167175e-06,702.7199999994818,1.471053e-05,702.7199999994818,1.512879e-05,702.7199999994818,4.982041e-06
702.7349999994818,6.079758e-06,702.7349999994818,1.506067e-05,702.7349999994818,1.519105e-05,702.7349999994818,4.780021e-06
702.7499999994818,6.151165e-06,702.7499999994818,1.512879e-05,702.7499999994818,1.616241e-05,702.7499999994818,4.838602e-06
702.7649999994818,6.437625e-06,702.7649999994818,1.452939e-05,702.7649999994818,1.610128e-05,702.7649999994818,4.882076e-06
702.7799999994818,6.463831e-06,702.7799999994818,1.486674e-05,702.7799999994818,1.627965e-05,702.7799999994818,4.998978e-06
702.7949999994818,6.50294e-06,702.7949999994818,1.488947e-05,702.7949999994818,1.594126e-05,702.7949999994818,4.850233e-06
702.8099999994818,6.382687e-06,702.8099999994818,1.472871e-05,702.8099999994818,1.566583e-05,702.8099999994818,4.806471e-06
702.8249999994817,6.331722e-06,702.8249999994817,1.465777e-05,702.8249999994817,1.569278e-05,702.8249999994817,4.794733e-06
702.8399999994817,6.342836e-06,702.8399999994817,1.501008e-05,702.8399999994817,1.607151e-05,702.8399999994817,4.66971e-06
702.8549999994817,6.026232e-06,702.8549999994817,1.444381e-05,702.8549999994817,1.610216e-05,702.8549999994817,4.578317e-06
702.8699999994817,5.972226e-06,702.8699999994817,1.505506e-05,702.8699999994817,1.49546e-05,702.8699999994817,4.584466e-06
702.8849999994817,5.917727e-06,702.8849999994817,1.731941e-05,702.8849999994817,1.474974e-05,702.8849999994817,4.578317e-06
702.8999999994817,5.874723e-06,702.8999999994817,1.729499e-05,702.8999999994817,1.46212e-05,702.8999999994817,4.125132e-06
702.9149999994817,5.731505e-06,702.9149999994817,1.777697e-05,702.9149999994817,1.473827e-05,702.9149999994817,3.92925e-06
702.9299999994817,5.908198e-06,702.9299999994817,1.886494e-05,702.9299999994817,1.686781e-05,702.9299999994817,3.867824e-06
702.9449999994816,5.872325e-06,702.9449999994816,1.857144e-05,702.9449999994816,1.693282e-05,702.9449999994816,4.070128e-06
702.9599999994816,5.898653e-06,702.9599999994816,1.845273e-05,702.9599999994816,1.694945e-05,702.9599999994816,4.083948e-06
702.9749999994816,5.995767e-06,702.9749999994816,1.821454e-05,702.9749999994816,1.70885e-05,702.9749999994816,4.11145e-06
702.9899999994816,6.114414e-06,702.9899999994816,1.833326e-05,702.9899999994816,1.696689e-05,702.9899999994816,4.152361e-06
703.0049999994816,6.53104e-06,703.0049999994816,1.898107e-05,703.0049999994816,1.579746e-05,703.0049999994816,4.135364e-06
703.0199999994816,6.345057e-06,703.0199999994816,2.044732e-05,703.0199999994816,1.693781e-05,703.0199999994816,4.024883e-06
703.0349999994816,6.520246e-06,703.0349999994816,2.12175e-05,703.0349999994816,1.686279e-05,703.0349999994816,3.989731e-06
703.0499999994815,6.863372e-06,703.0499999994815,2.10348e-05,703.0499999994815,1.765611e-05,703.0499999994815,3.979125e-06
703.0649999994815,6.879772e-06,703.0649999994815,2.137822e-05,703.0649999994815,1.852511e-05,703.0649999994815,4.031877e-06
703.0799999994815,6.934835e-06,703.0799999994815,2.23706e-05,703.0799999994815,1.831634e-05,703.0799999994815,4.192873e-06
703.0949999994815,7.46882e-06,703.0949999994815,2.24228e-05,703.0949999994815,1.836166e-05,703.0949999994815,4.259536e-06
703.1099999994815,7.757469e-06,703.1099999994815,2.300086e-05,703.1099999994815,1.816963e-05,703.1099999994815,4.219664e-06
703.1249999994815,8.240013e-06,703.1249999994815,2.350249e-05,703.1249999994815,1.820294e-05,703.1249999994815,4.305587e-06
703.1399999994815,8.557019e-06,703.1399999994815,2.195363e-05,703.1399999994815,1.798417e-05,703.1399999994815,4.450379e-06
703.1549999994814,8.397496e-06,703.1549999994814,2.436533e-05,703.1549999994814,1.800452e-05,703.1549999994814,4.459865e-06
703.1699999994814,8.338578e-06,703.1699999994814,3.296433e-05,703.1699999994814,1.716418e-05,703.1699999994814,4.478776e-06
703.1849999994814,8.309809e-06,703.1849999994814,3.517593e-05,703.1849999994814,1.577247e-05,703.1849999994814,4.472482e-06
703.1999999994814,9.21185e-06,703.1999999994814,4.03516e-05,703.1999999994814,1.552038e-05,703.1999999994814,4.494475e-06
703.2149999994814,9.280408e-06,703.2149999994814,4.499111e-05,703.2149999994814,1.562261e-05,703.2149999994814,4.453544e-06
703.2299999994814,9.259134e-06,703.2299999994814,4.577055e-05,703.2299999994814,1.58482e-05,703.2299999994814,4.4377e-06
703.2449999994814,9.1289e-06,703.2449999994814,4.760945e-05,703.2449999994814,1.678744e-05,703.2449999994814,5.046655e-06
703.2599999994814,8.992083e-06,703.2599999994814,4.861286e-05,703.2599999994814,1.706045e-05,703.2599999994814,4.950841e-06
703.2749999994813,8.948112e-06,703.2749999994813,4.854472e-05,703.2749999994813,1.54549e-05,703.2749999994813,4.884961e-06
703.2899999994813,9.362016e-06,703.2899999994813,4.819583e-05,703.2899999994813,1.575817e-05,703.2899999994813,4.890725e-06
703.3049999994813,9.497953e-06,703.3049999994813,4.853514e-05,703.3049999994813,1.514927e-05,703.3049999994813,4.936594e-06
703.3199999994813,9.908794e-06,703.3199999994813,4.803568e-05,703.3199999994813,1.480978e-05,703.3199999994813,4.907976e-06
703.3349999994813,9.94852e-06,703.3349999994813,4.787118e-05,703.3349999994813,1.460288e-05,703.3349999994813,5.95096e-06
703.3499999994813,9.958426e-06,703.3499999994813,4.910817e-05,703.3499999994813,1.515577e-05,703.3499999994813,6.063518e-06
703.3649999994813,1.036053e-05,703.3649999994813,4.867628e-05,703.3649999994813,1.591207e-05,703.3649999994813,6.296025e-06
703.3799999994812,1.002609e-05,703.3799999994812,4.891906e-05,703.3799999994812,1.581706e-05,703.3799999994812,6.582601e-06
703.3949999994812,1.007235e-05,703.3949999994812,4.911763e-05,703.3949999994812,1.566763e-05,703.3949999994812,6.66131e-06
703.4099999994812,1.016978e-05,703.4099999994812,4.709031e-05,703.4099999994812,1.62632e-05,703.4099999994812,6.989465e-06
703.4249999994812,1.016147e-05,703.4249999994812,4.035195e-05,703.4249999994812,1.606099e-05,703.4249999994812,7.38918e-06
703.4399999994812,9.958426e-06,703.4399999994812,3.685543e-05,703.4399999994812,1.666532e-05,703.4399999994812,7.949394e-06
703.4549999994812,9.70337e-06,703.4549999994812,3.35476e-05,703.4549999994812,1.645094e-05,703.4549999994812,7.93698e-06
703.4699999994812,1.018086e-05,703.4699999994812,2.849534e-05,703.4699999994812,1.694446e-05,703.4699999994812,8.880161e-06
703.4849999994811,1.061174e-05,703.4849999994811,2.643985e-05,703.4849999994811,1.651674e-05,703.4849999994811,9.188883e-06
703.4999999994811,1.096686e-05,703.4999999994811,2.273412e-05,703.4999999994811,1.799278e-05,703.4999999994811,9.243908e-06
703.5149999994811,1.09874e-05,703.5149999994811,2.118494e-05,703.5149999994811,1.854563e-05,703.5149999994811,1.041748e-05
703.5299999994811,1.082595e-05,703.5299999994811,2.093747e-05,703.5299999994811,1.911935e-05,703.5299999994811,1.224494e-05
703.5449999994811,1.042829e-05,703.5449999994811,2.081331e-05,703.5449999994811,1.93209e-05,703.5449999994811,1.532216e-05
703.5599999994811,1.016008e-05,703.5599999994811,2.211219e-05,703.5599999994811,1.93012e-05,703.5599999994811,1.633062e-05
703.5749999994811,1.066206e-05,703.5749999994811,2.299045e-05,703.5749999994811,2.011461e-05,703.5749999994811,1.768959e-05
703.589999999481,1.081293e-05,703.589999999481,2.611984e-05,703.589999999481,2.039696e-05,703.589999999481,1.775477e-05
703.604999999481,1.208281e-05,703.604999999481,2.568861e-05,703.604999999481,2.015519e-05,703.604999999481,1.784262e-05
703.619999999481,1.210262e-05,703.619999999481,2.536135e-05,703.619999999481,2.379378e-05,703.619999999481,1.771823e-05
703.634999999481,1.352307e-05,703.634999999481,2.734861e-05,703.634999999481,2.63395e-05,703.634999999481,1.836397e-05
703.649999999481,1.389909e-05,703.649999999481,2.831931e-05,703.649999999481,2.677919e-05,703.649999999481,1.892682e-05
703.664999999481,1.439301e-05,703.664999999481,2.921397e-05,703.664999999481,2.659815e-05,703.664999999481,1.945242e-05
703.679999999481,1.469328e-05,703.679999999481,3.103714e-05,703.679999999481,2.689833e-05,703.679999999481,1.988571e-05
703.694999999481,1.632976e-05,703.694999999481,3.287789e-05,703.694999999481,2.683804e-05,703.694999999481,2.196518e-05
703.7099999994809,1.642609e-05,703.7099999994809,3.374855e-05,703.7099999994809,2.655309e-05,703.7099999994809,2.21332e-05
703.7249999994809,1.644237e-05,703.7249999994809,3.6054e-05,703.7249999994809,2.626291e-05,703.7249999994809,2.252059e-05
703.7399999994809,1.635475e-05,703.7399999994809,3.604775e-05,703.7399999994809,2.608098e-05,703.7399999994809,2.326756e-05
703.7549999994809,1.666448e-05,703.7549999994809,3.678963e-05,703.7549999994809,2.462126e-05,703.7549999994809,2.573792e-05
703.7699999994809,1.681343e-05,703.7699999994809,3.737276e-05,703.7699999994809,2.410376e-05,703.7699999994809,2.820017e-05
703.7849999994809,1.711651e-05,703.7849999994809,3.762969e-05,703.7849999994809,2.363339e-05,703.7849999994809,2.838787e-05
703.7999999994809,1.755851e-05,703.7999999994809,3.711518e-05,703.7999999994809,2.327361e-05,703.7999999994809,2.773629e-05
703.8149999994808,1.793082e-05,703.8149999994808,3.653489e-05,703.8149999994808,2.32603e-05,703.8149999994808,2.80077e-05
703.8299999994808,1.806934e-05,703.8299999994808,3.534612e-05,703.8299999994808,2.262667e-05,703.8299999994808,2.761872e-05
703.8449999994808,1.779756e-05,703.8449999994808,3.347151e-05,703.8449999994808,2.233089e-05,703.8449999994808,2.836354e-05
703.8599999994808,1.680505e-05,703.8599999994808,3.296433e-05,703.8599999994808,2.147093e-05,703.8599999994808,2.899957e-05
703.8749999994808,1.627445e-05,703.8749999994808,3.259475e-05,703.8749999994808,1.483734e-05,703.8749999994808,3.115854e-05
703.8899999994808,1.535247e-05,703.8899999994808,3.211189e-05,703.8899999994808,1.36444e-05,703.8899999994808,3.12353e-05
703.9049999994808,1.494141e-05,703.9049999994808,3.144655e-05,703.9049999994808,1.257974e-05,703.9049999994808,3.141652e-05
703.9199999994808,1.420088e-05,703.9199999994808,3.013957e-05,703.9199999994808,1.207115e-05,703.9199999994808,3.193461e-05
703.9349999994807,1.369592e-05,703.9349999994807,2.792862e-05,703.9349999994807,1.115535e-05,703.9349999994807,3.153735e-05
703.9499999994807,1.180566e-05,703.9499999994807,2.679023e-05,703.9499999994807,1.0972e-05,703.9499999994807,3.030132e-05
703.9649999994807,1.16785e-05,703.9649999994807,2.401242e-05,703.9649999994807,1.127217e-05,703.9649999994807,3.023617e-05
703.9799999994807,1.13407e-05,703.9799999994807,2.372263e-05,703.9799999994807,1.146424e-05,703.9799999994807,3.030876e-05
703.9949999994807,1.073842e-05,703.9949999994807,2.353603e-05,703.9949999994807,1.085194e-05,703.9949999994807,2.944929e-05
704.0099999994807,1.018362e-05,704.0099999994807,2.192409e-05,704.0099999994807,1.107551e-05,704.0099999994807,2.736252e-05
704.0249999994807,9.876042e-06,704.0249999994807,2.208031e-05,704.0249999994807,1.105386e-05,704.0249999994807,2.435318e-05
704.0399999994806,8.78607e-06,704.0399999994806,2.367983e-05,704.0399999994806,1.125717e-05,704.0399999994806,2.429875e-05
704.0549999994806,8.42262e-06,704.0549999994806,2.390894e-05,704.0549999994806,1.099893e-05,704.0549999994806,2.402239e-05
704.0699999994806,7.586711e-06,704.0699999994806,2.398013e-05,704.0699999994806,1.098483e-05,704.0699999994806,2.321483e-05
704.0849999994806,6.139704e-06,704.0849999994806,2.398542e-05,704.0849999994806,1.075808e-05,704.0849999994806,2.320391e-05
704.0999999994806,6.019215e-06,704.0999999994806,2.289466e-05,704.0999999994806,1.09231e-05,704.0999999994806,2.172205e-05
704.1149999994806,5.843468e-06,704.1149999994806,2.199658e-05,704.1149999994806,1.145071e-05,704.1149999994806,2.057437e-05
704.1299999994806,5.763367e-06,704.1299999994806,2.068023e-05,704.1299999994806,1.181163e-05,704.1299999994806,1.773731e-05
704.1449999994805,5.639834e-06,704.1449999994805,1.948714e-05,704.1449999994805,1.156456e-05,704.1449999994805,1.734054e-05
704.1599999994805,5.664756e-06,704.1599999994805,1.918481e-05,704.1599999994805,1.135807e-05,704.1599999994805,1.565863e-05
704.1749999994805,5.729046e-06,704.1749999994805,1.90677e-05,704.1749999994805,1.134691e-05,704.1749999994805,1.423556e-05
704.1899999994805,5.684616e-06,704.1899999994805,1.892756e-05,704.1899999994805,1.100917e-05,704.1899999994805,1.39426e-05
704.2049999994805,5.487926e-06,704.2049999994805,1.959168e-05,704.2049999994805,1.090374e-05,704.2049999994805,1.396582e-05
704.2199999994805,5.412975e-06,704.2199999994805,2.007676e-05,704.2199999994805,1.036596e-05,704.2199999994805,1.35709e-05
704.2349999994805,5.189773e-06,704.2349999994805,2.004868e-05,704.2349999994805,1.163015e-05,704.2349999994805,1.222883e-05
704.2499999994805,5.187057e-06,704.2499999994805,1.963334e-05,704.2499999994805,1.225989e-05,704.2499999994805,1.063428e-05
704.2649999994804,5.254512e-06,704.2649999994804,2.007466e-05,704.2649999994804,1.212471e-05,704.2649999994804,1.039582e-05
704.2799999994804,5.2679e-06,704.2799999994804,1.851827e-05,704.2799999994804,1.208515e-05,704.2799999994804,9.340927e-06
704.2949999994804,5.321112e-06,704.2949999994804,1.678576e-05,704.2949999994804,1.182355e-05,704.2949999994804,8.082948e-06
704.3099999994804,5.302549e-06,704.3099999994804,1.615456e-05,704.3099999994804,1.167246e-05,704.3099999994804,7.415822e-06
704.3249999994804,4.947995e-06,704.3249999994804,1.572417e-05,704.3249999994804,1.161924e-05,704.3249999994804,7.264208e-06
704.3399999994804,4.753424e-06,704.3399999994804,1.535706e-05,704.3399999994804,1.162773e-05,704.3399999994804,7.197973e-06
704.3549999994804,4.687774e-06,704.3549999994804,1.540651e-05,704.3549999994804,1.187348e-05,704.3549999994804,6.485587e-06
704.3699999994803,4.729657e-06,704.3699999994803,1.541383e-05,704.3699999994803,1.191375e-05,704.3699999994803,6.089019e-06
704.3849999994803,4.896482e-06,704.3849999994803,1.547767e-05,704.3849999994803,1.218844e-05,704.3849999994803,5.706874e-06
704.3999999994803,5.057808e-06,704.3999999994803,1.487622e-05,704.3999999994803,1.234576e-05,704.3999999994803,5.807196e-06
704.4149999994803,5.107694e-06,704.4149999994803,1.47421e-05,704.4149999994803,1.242651e-05,704.4149999994803,5.738873e-06
704.4299999994803,4.821102e-06,704.4299999994803,1.439105e-05,704.4299999994803,1.239814e-05,704.4299999994803,5.495621e-06
704.4449999994803,4.762306e-06,704.4449999994803,1.402722e-05,704.4449999994803,1.316841e-05,704.4449999994803,5.402556e-06
704.4599999994803,4.67875e-06,704.4599999994803,1.23697e-05,704.4599999994803,1.328662e-05,704.4599999994803,5.313164e-06
704.4749999994802,4.654602e-06,704.4749999994802,1.071741e-05,704.4749999994802,1.506067e-05,704.4749999994802,4.919443e-06
704.4899999994802,4.690778e-06,704.4899999994802,1.040124e-05,704.4899999994802,1.390821e-05,704.4899999994802,4.83569e-06
704.5049999994802,4.945147e-06,704.5049999994802,1.01684e-05,704.5049999994802,1.386662e-05,704.5049999994802,4.732634e-06
704.5199999994802,4.919443e-06,704.5199999994802,8.962269e-06,704.5199999994802,1.380248e-05,704.5199999994802,4.279333e-06
704.5349999994802,5.931993e-06,704.5349999994802,8.981111e-06,704.5349999994802,1.378205e-05,704.5349999994802,4.199587e-06
704.5499999994802,6.100575e-06,704.5499999994802,9.170469e-06,704.5499999994802,1.377694e-05,704.5499999994802,4.252917e-06
704.5649999994802,6.338393e-06,704.5649999994802,1.052242e-05,704.5649999994802,1.395472e-05,704.5649999994802,4.186148e-06
704.5799999994802,7.410121e-06,704.5799999994802,1.108314e-05,704.5799999994802,1.376159e-05,704.5799999994802,4.045829e-06
704.5949999994801,7.444261e-06,704.5949999994801,1.114777e-05,704.5949999994801,1.404528e-05,704.5949999994801,4.01437e-06
704.6099999994801,7.432898e-06,704.6099999994801,1.123587e-05,704.6099999994801,1.393755e-05,704.6099999994801,4.017877e-06
704.6249999994801,7.40061e-06,704.6249999994801,1.178177e-05,704.6249999994801,1.331627e-05,704.6249999994801,3.82387e-06
704.6399999994801,7.308674e-06,704.6399999994801,1.227711e-05,704.6399999994801,1.367122e-05,704.6399999994801,3.797995e-06
704.6549999994801,7.304818e-06,704.6549999994801,1.425039e-05,704.6549999994801,1.410932e-05,704.6549999994801,3.700305e-06
704.6699999994801,7.984756e-06,704.6699999994801,1.491216e-05,704.6699999994801,1.426126e-05,704.6699999994801,3.711708e-06
704.68499999948,8.002378e-06,704.68499999948,1.616851e-05,704.68499999948,1.42741e-05,704.68499999948,3.719291e-06
704.69999999948,8.068993e-06,704.69999999948,1.678073e-05,704.69999999948,1.384527e-05,704.69999999948,3.688867e-06
704.71499999948,8.019962e-06,704.71499999948,1.754165e-05,704.71499999948,1.351786e-05,704.71499999948,3.654337e-06
704.72999999948,8.034001e-06,704.72999999948,1.780073e-05,704.72999999948,1.148879e-05,704.72999999948,3.67356e-06
704.74499999948,8.011176e-06,704.74499999948,1.78655e-05,704.74499999948,1.157308e-05,704.74499999948,3.692683e-06
704.75999999948,7.972397e-06,704.75999999948,1.786234e-05,704.75999999948,1.145563e-05,704.75999999948,3.528828e-06
704.77499999948,7.883556e-06,704.77499999948,1.813005e-05,704.77499999948,1.205363e-05,704.77499999948,3.496747e-06
704.78999999948,7.72289e-06,704.78999999948,1.821918e-05,704.78999999948,1.243218e-05,704.78999999948,3.508812e-06
704.80499999948,7.8585e-06,704.80499999948,1.873832e-05,704.80499999948,1.23275e-05,704.80499999948,3.57641e-06
704.8199999994799,7.512074e-06,704.8199999994799,1.804906e-05,704.8199999994799,1.218844e-05,704.8199999994799,3.435788e-06
704.8349999994799,6.737009e-06,704.8349999994799,1.82578e-05,704.8349999994799,1.214097e-05,704.8349999994799,3.480596e-06
704.8499999994799,6.642251e-06,704.8499999994799,1.827939e-05,704.8499999994799,1.208864e-05,704.8499999994799,3.496747e-06
704.8649999994799,6.818068e-06,704.8649999994799,1.827323e-05,704.8649999994799,1.212936e-05,704.8649999994799,3.592131e-06
704.8799999994799,6.961192e-06,704.8799999994799,1.839922e-05,704.8799999994799,1.173265e-05,704.8799999994799,3.59605e-06
704.8949999994799,7.103415e-06,704.8949999994799,1.791117e-05,704.8949999994799,1.034692e-05,704.8949999994799,3.584279e-06
704.9099999994799,7.2971e-06,704.9099999994799,1.598979e-05,704.9099999994799,1.042964e-05,704.9099999994799,3.548731e-06
704.9249999994798,6.595429e-06,704.9249999994798,1.558831e-05,704.9249999994798,1.043774e-05,704.9249999994798,3.665883e-06
704.9399999994798,6.476893e-06,704.9399999994798,1.472393e-05,704.9399999994798,1.03333e-05,704.9399999994798,3.619477e-06
704.9549999994798,6.548272e-06,704.9549999994798,1.356882e-05,704.9549999994798,1.006256e-05,704.9549999994798,3.65048e-06
704.9699999994798,6.526725e-06,704.9699999994798,1.263449e-05,704.9699999994798,1.034692e-05,704.9699999994798,3.65048e-06
704.9849999994798,6.728641e-06,704.9849999994798,1.271119e-05,704.9849999994798,1.049695e-05,704.9849999994798,3.638885e-06
704.9999999994798,6.780777e-06,704.9999999994798,1.350743e-05,704.9999999994798,1.100789e-05,704.9999999994798,3.711708e-06
705.0149999994798,6.565459e-06,705.0149999994798,1.438714e-05,705.0149999994798,1.099637e-05,705.0149999994798,3.741947e-06
705.0299999994797,6.556871e-06,705.0299999994797,1.383815e-05,705.0299999994797,1.059048e-05,705.0299999994797,3.749468e-06
705.0449999994797,6.153455e-06,705.0449999994797,1.36846e-05,705.0449999994797,1.066602e-05,705.0449999994797,3.719291e-06
705.0599999994797,5.967507e-06,705.0599999994797,1.28369e-05,705.0599999994797,1.059978e-05,705.0599999994797,3.611685e-06
705.0749999994797,5.787757e-06,705.0749999994797,1.328026e-05,705.0749999994797,1.05958e-05,705.0749999994797,3.764466e-06
705.0899999994797,5.920107e-06,705.0899999994797,1.349178e-05,705.0899999994797,1.060111e-05,705.0899999994797,3.70411e-06
705.1049999994797,5.853103e-06,705.1049999994797,1.334586e-05,705.1049999994797,1.047949e-05,705.1049999994797,3.492716e-06
705.1199999994797,6.248863e-06,705.1199999994797,1.326646e-05,705.1199999994797,1.027314e-05,705.1199999994797,3.556662e-06
705.1349999994796,6.123622e-06,705.1349999994796,1.288181e-05,705.1349999994796,1.028137e-05,705.1349999994796,3.57641e-06
705.1499999994796,6.040241e-06,705.1499999994796,1.329722e-05,705.1499999994796,1.041883e-05,705.1499999994796,3.78313e-06
705.1649999994796,6.185421e-06,705.1649999994796,1.314057e-05,705.1649999994796,1.03714e-05,705.1649999994796,3.764466e-06
705.1799999994796,6.275856e-06,705.1799999994796,1.301779e-05,705.1799999994796,1.008773e-05,705.1799999994796,3.548731e-06
705.1949999994796,6.393712e-06,705.1949999994796,1.309224e-05,705.1949999994796,1.004715e-05,705.1949999994796,3.528828e-06
705.2099999994796,9.187351e-06,705.2099999994796,1.290803e-05,705.2099999994796,9.937185e-06,705.2099999994796,3.548731e-06
705.2249999994796,9.195013e-06,705.2249999994796,1.314914e-05,705.2249999994796,9.456335e-06,705.2249999994796,3.726858e-06
705.2399999994796,9.227129e-06,705.2399999994796,1.311804e-05,705.2399999994796,8.981111e-06,705.2399999994796,3.726858e-06
705.2549999994795,9.18275e-06,705.2549999994795,1.127842e-05,705.2549999994795,8.565246e-06,705.2549999994795,3.719291e-06
705.2699999994795,9.138154e-06,705.2699999994795,1.157795e-05,705.2699999994795,8.548785e-06,705.2699999994795,3.845909e-06
705.2849999994795,9.085591e-06,705.2849999994795,1.154383e-05,705.2849999994795,7.682656e-06,705.2849999994795,3.838577e-06
705.2999999994795,8.985815e-06,705.2999999994795,1.154993e-05,705.2999999994795,7.645896e-06,705.2999999994795,3.92925e-06
705.3149999994795,9.051417e-06,705.3149999994795,1.15609e-05,705.3149999994795,7.849532e-06,705.3149999994795,3.92925e-06
705.3299999994795,9.179681e-06,705.3299999994795,1.149247e-05,705.3299999994795,7.938755e-06,705.3299999994795,3.83123e-06
705.3449999994795,9.460803e-06,705.3449999994795,1.182831e-05,705.3449999994795,7.97593e-06,705.3449999994795,3.8751e-06
705.3599999994794,9.627584e-06,705.3599999994794,1.193973e-05,705.3599999994794,7.573703e-06,705.3599999994794,3.900464e-06
705.3749999994794,9.407047e-06,705.3749999994794,1.246726e-05,705.3749999994794,7.528932e-06,705.3749999994794,3.856882e-06
705.3899999994794,9.539391e-06,705.3899999994794,1.418301e-05,705.3899999994794,8.128133e-06,705.3899999994794,3.936414e-06
705.4049999994794,1.238905e-05,705.4049999994794,1.471914e-05,705.4049999994794,8.011176e-06,705.4049999994794,3.70411e-06
705.4199999994794,1.268345e-05,705.4199999994794,1.51083e-05,705.4199999994794,7.706456e-06,705.4199999994794,3.771943e-06
705.4349999994794,1.263783e-05,705.4349999994794,1.576443e-05,705.4349999994794,7.791894e-06,705.4349999994794,3.768206e-06
705.4499999994794,1.259429e-05,705.4499999994794,1.669573e-05,705.4499999994794,8.014691e-06,705.4499999994794,3.79057e-06
705.4649999994793,1.075808e-05,705.4649999994793,1.684022e-05,705.4649999994793,8.677985e-06,705.4649999994793,3.845909e-06
705.4799999994793,1.075153e-05,705.4799999994793,1.694779e-05,705.4799999994793,8.867461e-06,705.4799999994793,3.726858e-06
705.4949999994793,1.069109e-05,705.4949999994793,1.6922e-05,705.4949999994793,8.771629e-06,705.4949999994793,3.70411e-06
705.5099999994793,1.101301e-05,705.5099999994793,1.714693e-05,705.5099999994793,8.837226e-06,705.5099999994793,3.904074e-06
705.5249999994793,1.188771e-05,705.5249999994793,1.744017e-05,705.5249999994793,8.797286e-06,705.5249999994793,3.8751e-06
705.5399999994793,1.318659e-05,705.5399999994793,1.780627e-05,705.5399999994793,9.065413e-06,705.5399999994793,3.856882e-06
705.5549999994793,1.371134e-05,705.5549999994793,1.803657e-05,705.5549999994793,9.013988e-06,705.5549999994793,3.932833e-06
705.5699999994793,1.393856e-05,705.5699999994793,1.827708e-05,705.5699999994793,8.856334e-06,705.5699999994793,3.911283e-06
705.5849999994792,1.583042e-05,705.5849999994792,1.850762e-05,705.5849999994792,9.239335e-06,705.5849999994792,4.024883e-06
705.5999999994792,1.710416e-05,705.5999999994792,1.823078e-05,705.5999999994792,9.246955e-06,705.5999999994792,4.128545e-06
705.6149999994792,2.196582e-05,705.6149999994792,1.959599e-05,705.6149999994792,9.250001e-06,705.6149999994792,4.128545e-06
705.6299999994792,3.144027e-05,705.6299999994792,1.913187e-05,705.6299999994792,9.798716e-06,705.6299999994792,4.232997e-06
705.6449999994792,3.293183e-05,705.6449999994792,1.816498e-05,705.6449999994792,9.668466e-06,705.6449999994792,4.20629e-06
705.6599999994792,3.224803e-05,705.6599999994792,1.866375e-05,705.6599999994792,9.861767e-06,705.6599999994792,4.569077e-06
705.6749999994792,3.335726e-05,705.6749999994792,1.873381e-05,705.6749999994792,1.002609e-05,705.6749999994792,4.572159e-06
705.6899999994791,3.791313e-05,705.6899999994791,1.843211e-05,705.6899999994791,9.767037e-06,705.6899999994791,4.651575e-06
705.7049999994791,4.393965e-05,705.7049999994791,1.760578e-05,705.7049999994791,9.949936e-06,705.7049999994791,4.660651e-06
705.7199999994791,4.57487e-05,705.7199999994791,1.746116e-05,705.7199999994791,9.551197e-06,705.7199999994791,4.67875e-06
705.7349999994791,4.588183e-05,705.7349999994791,1.820216e-05,705.7349999994791,9.54382e-06,705.7349999994791,4.747494e-06
705.7499999994791,4.589748e-05,705.7499999994791,1.861538e-05,705.7499999994791,9.439935e-06,705.7499999994791,4.690778e-06
705.7649999994791,4.735878e-05,705.7649999994791,2.090111e-05,705.7649999994791,9.411539e-06,705.7649999994791,4.882076e-06
705.7799999994791,4.727691e-05,705.7799999994791,2.111634e-05,705.7799999994791,9.259134e-06,705.7799999994791,4.962209e-06
705.794999999479,4.740872e-05,705.794999999479,2.213765e-05,705.794999999479,9.142777e-06,705.794999999479,4.984868e-06
705.809999999479,4.775303e-05,705.809999999479,2.275766e-05,705.809999999479,9.205732e-06,705.809999999479,4.939447e-06
705.824999999479,4.767539e-05,705.824999999479,2.250745e-05,705.824999999479,9.145859e-06,705.824999999479,4.942298e-06
705.839999999479,4.663733e-05,705.839999999479,2.39325e-05,705.839999999479,8.599714e-06,705.839999999479,4.990517e-06
705.854999999479,4.643179e-05,705.854999999479,2.442653e-05,705.854999999479,8.899176e-06,705.854999999479,4.882076e-06
705.869999999479,3.914092e-05,705.869999999479,2.519137e-05,705.869999999479,8.115992e-06,705.869999999479,4.791795e-06
705.884999999479,3.754874e-05,705.884999999479,2.594235e-05,705.884999999479,8.21433e-06,705.884999999479,4.853136e-06
705.899999999479,3.796548e-05,705.899999999479,2.609017e-05,705.899999999479,8.311504e-06,705.899999999479,5.015856e-06
705.9149999994789,3.770897e-05,705.9149999994789,2.655734e-05,705.9149999994789,8.31828e-06,705.9149999994789,4.68176e-06
705.9299999994789,3.669186e-05,705.9299999994789,2.707424e-05,705.9299999994789,8.272431e-06,705.9299999994789,4.824024e-06
705.9449999994789,2.951427e-05,705.9449999994789,2.748118e-05,705.9449999994789,8.439329e-06,705.9449999994789,4.81818e-06
705.9599999994789,2.612955e-05,705.9599999994789,2.799613e-05,705.9599999994789,8.241723e-06,705.9599999994789,4.967884e-06
705.9749999994789,2.814217e-05,705.9749999994789,2.94469e-05,705.9749999994789,8.173069e-06,705.9749999994789,4.936594e-06
705.9899999994789,3.503428e-05,705.9899999994789,3.280583e-05,705.9899999994789,8.78607e-06,705.9899999994789,4.947995e-06
706.0049999994789,3.576568e-05,706.0049999994789,3.619477e-05,706.0049999994789,8.872225e-06,706.0049999994789,5.211442e-06
706.0199999994788,3.442383e-05,706.0199999994788,3.752698e-05,706.0199999994788,8.845193e-06,706.0199999994788,5.219545e-06
706.0349999994788,3.974803e-05,706.0349999994788,4.285089e-05,706.0349999994788,9.445902e-06,706.0349999994788,6.885912e-06
706.0499999994788,4.068605e-05,706.0499999994788,4.635192e-05,706.0499999994788,9.420515e-06,706.0499999994788,7.067629e-06
706.0649999994788,4.046385e-05,706.0649999994788,4.810484e-05,706.0649999994788,9.598277e-06,706.0649999994788,7.36818e-06
706.0799999994788,4.076802e-05,706.0799999994788,4.88323e-05,706.0799999994788,9.964083e-06,706.0799999994788,8.669864e-06
706.0949999994788,4.120588e-05,706.0949999994788,5.032427e-05,706.0949999994788,1.005556e-05,706.0949999994788,1.220115e-05
706.1099999994788,4.230001e-05,706.1099999994788,5.064209e-05,706.1099999994788,9.823125e-06,706.1099999994788,1.495272e-05
706.1249999994787,4.299956e-05,706.1249999994787,5.017962e-05,706.1249999994787,1.007515e-05,706.1249999994787,1.612314e-05
706.1399999994787,4.305881e-05,706.1399999994787,4.996046e-05,706.1399999994787,1.047277e-05,706.1399999994787,2.291926e-05
706.1549999994787,4.278147e-05,706.1549999994787,5.045566e-05,706.1549999994787,1.037004e-05,706.1549999994787,2.906604e-05
706.1699999994787,4.279596e-05,706.1699999994787,5.338662e-05,706.1699999994787,1.058648e-05,706.1699999994787,4.222468e-05
706.1849999994787,4.274359e-05,706.1849999994787,5.374322e-05,706.1849999994787,1.080902e-05,706.1849999994787,4.661104e-05
706.1999999994787,4.187595e-05,706.1999999994787,5.373352e-05,706.1999999994787,1.14544e-05,706.1999999994787,4.69765e-05
706.2149999994787,3.924012e-05,706.2149999994787,5.574415e-05,706.2149999994787,1.157916e-05,706.2149999994787,4.768248e-05
706.2299999994787,3.808699e-05,706.2299999994787,5.541186e-05,706.2299999994787,1.163257e-05,706.2299999994787,4.812856e-05
706.2449999994786,3.219425e-05,706.2449999994786,5.166486e-05,706.2449999994786,1.155359e-05,706.2449999994786,4.887642e-05
706.2599999994786,3.178871e-05,706.2599999994786,5.077155e-05,706.2599999994786,1.174945e-05,706.2599999994786,4.886806e-05
706.2749999994786,2.790541e-05,706.2749999994786,4.737424e-05,706.2749999994786,1.164346e-05,706.2749999994786,4.88124e-05
706.2899999994786,2.178034e-05,706.2899999994786,4.550108e-05,706.2899999994786,1.178894e-05,706.2899999994786,4.901313e-05
706.3049999994786,2.178487e-05,706.3049999994786,5.077849e-05,706.3049999994786,1.29233e-05,706.3049999994786,4.944122e-05
706.3199999994786,2.173696e-05,706.3199999994786,5.118714e-05,706.3199999994786,1.324095e-05,706.3199999994786,5.024191e-05
706.3349999994786,2.209243e-05,706.3349999994786,5.227257e-05,706.3349999994786,1.323351e-05,706.3349999994786,5.150374e-05
706.3499999994785,2.262916e-05,706.3499999994785,5.80967e-05,706.3499999994785,1.365678e-05,706.3499999994785,5.261157e-05
706.3649999994785,2.143941e-05,706.3649999994785,6.115658e-05,706.3649999994785,1.345414e-05,706.3649999994785,5.277544e-05
706.3799999994785,2.10736e-05,706.3799999994785,6.152195e-05,706.3799999994785,1.325584e-05,706.3799999994785,5.205059e-05
706.3949999994785,2.117829e-05,706.3949999994785,6.222658e-05,706.3949999994785,1.298745e-05,706.3949999994785,5.105791e-05
706.4099999994785,2.132809e-05,706.4099999994785,6.214208e-05,706.4099999994785,1.29766e-05,706.4099999994785,4.512367e-05
706.4249999994785,2.137888e-05,706.4249999994785,6.12898e-05,706.4249999994785,1.265009e-05,706.4249999994785,3.698211e-05
706.4399999994785,2.168116e-05,706.4399999994785,6.284267e-05,706.4399999994785,1.193501e-05,706.4399999994785,3.325491e-05
706.4549999994784,2.163172e-05,706.4549999994784,6.427179e-05,706.4549999994784,1.153284e-05,706.4549999994784,3.279166e-05
706.4699999994784,2.170454e-05,706.4699999994784,7.664575e-05,706.4699999994784,1.154627e-05,706.4699999994784,3.179314e-05
706.4849999994784,2.119026e-05,706.4849999994784,8.009241e-05,706.4849999994784,1.133697e-05,706.4849999994784,3.148013e-05
706.4999999994784,2.145649e-05,706.4999999994784,8.390901e-05,706.4999999994784,1.086232e-05,706.4999999994784,3.130017e-05
706.5149999994784,2.14072e-05,706.5149999994784,8.693878e-05,706.5149999994784,1.06845e-05,706.5149999994784,3.141607e-05
706.5299999994784,2.11743e-05,706.5299999994784,8.958669e-05,706.5299999994784,1.056251e-05,706.5299999994784,3.17701e-05
706.5449999994784,2.101336e-05,706.5449999994784,8.877606e-05,706.5449999994784,9.283444e-06,706.5449999994784,3.167862e-05
706.5599999994784,2.078351e-05,706.5599999994784,8.558896e-05,706.5599999994784,8.198881e-06,706.5599999994784,3.161453e-05
706.5749999994783,1.922149e-05,706.5749999994783,8.708885e-05,706.5749999994783,7.746566e-06,706.5749999994783,2.914348e-05
706.5899999994783,1.884925e-05,706.5899999994783,8.663151e-05,706.5899999994783,7.209706e-06,706.5899999994783,2.707372e-05
706.6049999994783,1.754968e-05,706.6049999994783,8.424209e-05,706.6049999994783,6.203613e-06,706.6049999994783,2.419592e-05
706.6199999994783,1.575907e-05,706.6199999994783,8.433268e-05,706.6199999994783,6.246608e-06,706.6199999994783,2.296715e-05
706.6349999994783,1.49131e-05,706.6349999994783,8.488676e-05,706.6349999994783,6.395915e-06,706.6349999994783,2.178939e-05
706.6499999994783,1.328768e-05,706.6499999994783,8.822438e-05,706.6499999994783,6.007502e-06,706.6499999994783,2.029935e-05
706.6649999994783,1.323351e-05,706.6649999994783,8.963197e-05,706.6649999994783,6.155743e-06,706.6649999994783,1.829557e-05
706.6799999994782,1.264118e-05,706.6799999994782,9.262084e-05,706.6799999994782,6.107498e-06,706.6799999994782,1.818513e-05
706.6949999994782,1.198801e-05,706.6949999994782,9.297333e-05,706.6949999994782,6.221753e-06,706.6949999994782,1.799278e-05
706.7099999994782,1.128591e-05,706.7099999994782,9.343339e-05,706.7099999994782,6.293787e-06,706.7099999994782,1.777697e-05
706.7249999994782,1.07777e-05,706.7249999994782,8.383729e-05,706.7249999994782,6.57832e-06,706.7249999994782,1.75577e-05
706.7399999994782,1.025393e-05,706.7399999994782,7.925097e-05,706.7399999994782,6.621009e-06,706.7399999994782,1.700007e-05
706.7549999994782,9.33791e-06,706.7549999994782,7.64328e-05,706.7549999994782,6.621009e-06,706.7549999994782,1.677653e-05
706.7699999994782,9.239335e-06,706.7699999994782,7.279124e-05,706.7699999994782,6.571893e-06,706.7699999994782,1.596422e-05
706.7849999994781,8.933933e-06,706.7849999994781,7.11273e-05,706.7849999994781,6.498606e-06,706.7849999994781,1.491216e-05
706.7999999994781,8.512456e-06,706.7999999994781,7.08948e-05,706.7999999994781,6.42229e-06,706.7999999994781,1.407834e-05
706.8149999994781,7.320229e-06,706.8149999994781,6.852773e-05,706.8149999994781,6.391509e-06,706.8149999994781,1.343109e-05
706.8299999994781,7.197973e-06,706.8299999994781,6.620243e-05,706.8299999994781,6.606099e-06,706.8299999994781,1.313199e-05
706.8449999994781,7.142966e-06,706.8449999994781,6.365404e-05,706.8449999994781,6.757886e-06,706.8449999994781,1.182116e-05
706.8599999994781,7.023643e-06,706.8599999994781,6.031839e-05,706.8599999994781,6.910417e-06,706.8599999994781,1.086492e-05
706.8749999994781,6.940926e-06,706.8749999994781,5.968876e-05,706.8749999994781,6.826328e-06,706.8749999994781,1.03809e-05
706.889999999478,6.701369e-06,706.889999999478,5.821611e-05,706.889999999478,6.762054e-06,706.889999999478,1.020849e-05
706.904999999478,6.730734e-06,706.904999999478,4.901773e-05,706.904999999478,6.79323e-06,706.904999999478,9.756936e-06
706.919999999478,7.287441e-06,706.919999999478,4.578163e-05,706.919999999478,6.652846e-06,706.919999999478,9.445902e-06
706.934999999478,8.55208e-06,706.934999999478,3.925879e-05,706.934999999478,6.524566e-06,706.934999999478,8.43432e-06
706.949999999478,9.339419e-06,706.949999999478,3.601139e-05,706.949999999478,6.720261e-06,706.949999999478,7.777418e-06
706.964999999478,9.474194e-06,706.964999999478,2.888714e-05,706.964999999478,6.863372e-06,706.964999999478,6.912455e-06
706.979999999478,1.104749e-05,706.979999999478,2.650371e-05,706.979999999478,6.563313e-06,706.979999999478,6.284828e-06
706.994999999478,1.145932e-05,706.994999999478,2.855806e-05,706.994999999478,6.426676e-06,706.994999999478,5.597212e-06
707.0099999994779,1.157673e-05,707.0099999994779,2.915025e-05,707.0099999994779,6.452925e-06,707.0099999994779,5.579567e-06
707.0249999994779,1.158038e-05,707.0249999994779,2.922023e-05,707.0249999994779,6.500773e-06,707.0249999994779,5.554263e-06
707.0399999994779,1.163499e-05,707.0399999994779,3.005486e-05,707.0399999994779,6.515924e-06,707.0399999994779,5.60727e-06
707.0549999994779,1.189008e-05,707.0549999994779,2.81061e-05,707.0549999994779,6.601833e-06,707.0549999994779,5.446701e-06
707.0699999994779,1.297009e-05,707.0699999994779,2.791601e-05,707.0699999994779,6.593293e-06,707.0699999994779,5.510979e-06
707.0849999994779,1.308148e-05,707.0849999994779,2.798103e-05,707.0849999994779,6.500773e-06,707.0849999994779,5.554263e-06
707.0999999994779,1.321113e-05,707.0999999994779,2.831334e-05,707.0999999994779,6.476893e-06,707.0999999994779,5.582091e-06
707.1149999994778,1.333953e-05,707.1149999994778,2.572423e-05,707.1149999994778,6.498606e-06,707.1149999994778,5.556798e-06
707.1299999994778,1.380145e-05,707.1299999994778,2.554123e-05,707.1299999994778,6.682424e-06,707.1299999994778,5.682137e-06
707.1449999994778,1.379533e-05,707.1449999994778,2.622426e-05,707.1449999994778,6.768301e-06,707.1449999994778,6.056544e-06
707.1599999994778,1.39416e-05,707.1599999994778,2.59005e-05,707.1599999994778,6.908378e-06,707.1599999994778,6.075122e-06
707.1749999994778,1.337117e-05,707.1749999994778,2.57844e-05,707.1749999994778,6.953093e-06,707.1749999994778,6.105191e-06
707.1899999994778,1.419691e-05,707.1899999994778,2.568258e-05,707.1899999994778,7.10738e-06,707.1899999994778,6.304968e-06
707.2049999994778,1.388997e-05,707.2049999994778,2.537467e-05,707.2049999994778,6.96726e-06,707.2049999994778,6.242096e-06
707.2199999994777,1.371031e-05,707.2199999994777,2.6309e-05,707.2199999994777,7.337527e-06,707.2199999994777,6.442001e-06
707.2349999994777,1.258757e-05,707.2349999994777,2.54484e-05,707.2349999994777,7.93343e-06,707.2349999994777,6.333946e-06
707.2499999994777,1.327708e-05,707.2499999994777,2.13076e-05,707.2499999994777,8.250264e-06,707.2499999994777,6.340615e-06
707.2649999994777,1.530468e-05,707.2649999994777,2.23813e-05,707.2649999994777,8.941813e-06,707.2649999994777,6.391509e-06
707.2799999994777,1.682097e-05,707.2799999994777,2.234791e-05,707.2799999994777,9.0374e-06,707.2799999994777,6.203613e-06
707.2949999994777,1.750387e-05,707.2949999994777,2.16519e-05,707.2949999994777,9.315255e-06,707.2949999994777,6.187698e-06
707.3099999994777,1.927491e-05,707.3099999994777,2.247676e-05,707.3099999994777,9.574765e-06,707.3099999994777,6.19225e-06
707.3249999994777,2.015799e-05,707.3249999994777,2.371906e-05,707.3249999994777,9.794402e-06,707.3249999994777,6.342836e-06
707.3399999994776,2.050304e-05,707.3399999994776,2.378608e-05,707.3399999994776,9.743934e-06,707.3399999994776,6.266871e-06
707.3549999994776,2.071766e-05,707.3549999994776,2.497121e-05,707.3549999994776,9.714977e-06,707.3549999994776,6.896133e-06
707.3699999994776,2.079773e-05,707.3699999994776,2.629614e-05,707.3699999994776,9.573294e-06,707.3699999994776,7.053663e-06
707.3849999994776,2.056616e-05,707.3849999994776,2.663625e-05,707.3849999994776,9.533483e-06,707.3849999994776,6.625263e-06
707.3999999994776,2.089369e-05,707.3999999994776,2.632773e-05,707.3999999994776,9.378553e-06,707.3999999994776,6.784931e-06
707.4149999994776,2.080721e-05,707.4149999994776,2.640733e-05,707.4149999994776,9.369536e-06,707.4149999994776,6.766219e-06
707.4299999994776,2.065023e-05,707.4299999994776,2.609449e-05,707.4299999994776,9.272816e-06,707.4299999994776,6.726546e-06
707.4449999994775,2.031184e-05,707.4449999994775,2.677761e-05,707.4449999994775,8.949686e-06,707.4449999994775,7.03967e-06
707.4599999994775,2.05003e-05,707.4599999994775,2.99045e-05,707.4599999994775,8.790878e-06,707.4599999994775,7.10738e-06
707.4749999994775,2.051335e-05,707.4749999994775,2.931697e-05,707.4749999994775,8.630781e-06,707.4749999994775,7.453716e-06
707.4899999994775,2.033402e-05,707.4899999994775,2.989036e-05,707.4899999994775,8.081204e-06,707.4899999994775,7.41962e-06
707.5049999994775,1.93835e-05,707.5049999994775,2.945264e-05,707.5049999994775,7.429107e-06,707.5049999994775,7.341366e-06
707.5199999994775,1.859721e-05,707.5199999994775,3.146938e-05,707.5199999994775,7.560672e-06,707.5199999994775,8.335198e-06
707.5349999994775,1.73884e-05,707.5349999994775,3.188208e-05,707.5349999994775,7.432898e-06,707.5349999994775,9.352983e-06
707.5499999994774,1.621114e-05,707.5499999994774,3.323712e-05,707.5499999994774,7.551351e-06,707.5499999994774,9.807338e-06
707.5649999994774,1.317162e-05,707.5649999994774,3.45745e-05,707.5649999994774,7.513949e-06,707.5649999994774,1.104494e-05
707.5799999994774,1.29983e-05,707.5799999994774,3.373686e-05,707.5799999994774,7.730182e-06,707.5799999994774,1.21711e-05
707.5949999994774,1.268678e-05,707.5949999994774,3.310802e-05,707.5949999994774,7.790086e-06,707.5949999994774,1.237312e-05
707.6099999994774,1.290148e-05,707.6099999994774,3.411967e-05,707.6099999994774,8.089915e-06,707.6099999994774,1.350952e-05
707.6249999994774,1.307394e-05,707.6249999994774,3.660845e-05,707.6249999994774,8.250264e-06,707.6249999994774,1.397288e-05
707.6399999994774,1.289384e-05,707.6399999994774,3.776869e-05,707.6399999994774,8.340267e-06,707.6399999994774,1.517806e-05
707.6549999994774,1.255508e-05,707.6549999994774,3.852167e-05,707.6549999994774,9.080939e-06,707.6549999994774,1.685694e-05
707.6699999994773,1.25775e-05,707.6699999994773,3.903532e-05,707.6699999994773,9.088692e-06,707.6699999994773,1.722153e-05
707.6849999994773,1.227023e-05,707.6849999994773,3.884795e-05,707.6849999994773,9.110365e-06,707.6849999994773,2.016288e-05
707.6999999994773,1.205013e-05,707.6999999994773,3.851107e-05,707.6999999994773,9.195013e-06,707.6999999994773,2.297267e-05
707.7149999994773,1.20968e-05,707.7149999994773,3.633849e-05,707.7149999994773,9.500919e-06,707.7149999994773,2.34094e-05
707.7299999994773,1.205947e-05,707.7299999994773,3.646542e-05,707.7299999994773,9.530527e-06,707.7299999994773,2.427265e-05
707.7449999994773,1.134939e-05,707.7449999994773,3.569274e-05,707.7449999994773,9.629048e-06,707.7449999994773,2.447953e-05
707.7599999994773,1.113133e-05,707.7599999994773,3.592797e-05,707.7599999994773,9.592404e-06,707.7599999994773,2.485303e-05
707.7749999994772,1.05505e-05,707.7749999994772,3.388768e-05,707.7749999994772,9.342435e-06,707.7749999994772,2.448874e-05
707.7899999994772,1.060775e-05,707.7899999994772,3.341338e-05,707.7899999994772,9.015552e-06,707.7899999994772,2.448759e-05
707.8049999994772,1.123587e-05,707.8049999994772,3.166439e-05,707.8049999994772,8.834038e-06,707.8049999994772,2.44519e-05
707.8199999994772,1.176383e-05,707.8199999994772,3.076453e-05,707.8199999994772,8.350395e-06,707.8199999994772,2.424477e-05
707.8349999994772,1.12158e-05,707.8349999994772,3.170707e-05,707.8349999994772,8.575109e-06,707.8349999994772,2.41528e-05
707.8499999994772,1.195742e-05,707.8499999994772,3.720654e-05,707.8499999994772,8.522379e-06,707.8499999994772,2.405637e-05
707.8649999994772,1.300588e-05,707.8649999994772,4.187763e-05,707.8649999994772,8.66011e-06,707.8649999994772,2.425756e-05
707.8799999994771,1.310837e-05,707.8799999994771,5.185618e-05,707.8799999994771,8.824465e-06,707.8799999994771,2.572313e-05
707.8949999994771,1.330993e-05,707.8949999994771,5.744001e-05,707.8949999994771,1.165676e-05,707.8949999994771,2.553406e-05
707.9099999994771,1.389098e-05,707.9099999994771,5.911082e-05,707.9099999994771,1.179014e-05,707.9099999994771,2.519472e-05
707.9249999994771,1.83225e-05,707.9249999994771,6.2213e-05,707.9249999994771,1.188415e-05,707.9249999994771,2.601501e-05
707.9399999994771,1.936678e-05,707.9399999994771,6.509024e-05,707.9399999994771,1.211076e-05,707.9399999994771,2.420523e-05
707.9549999994771,1.98254e-05,707.9549999994771,6.989304e-05,707.9549999994771,1.199623e-05,707.9549999994771,2.386235e-05
707.9699999994771,2.008448e-05,707.9699999994771,8.194448e-05,707.9699999994771,1.181401e-05,707.9699999994771,2.324273e-05
707.984999999477,2.046178e-05,707.984999999477,8.379763e-05,707.984999999477,1.190547e-05,707.984999999477,2.30779e-05
707.999999999477,2.057027e-05,707.999999999477,8.38897e-05,707.999999999477,1.210145e-05,707.999999999477,2.425639e-05
708.014999999477,2.073737e-05,708.014999999477,9.271859e-05,708.014999999477,1.216762e-05,708.014999999477,2.431208e-05
708.029999999477,2.141049e-05,708.029999999477,9.289891e-05,708.029999999477,1.238222e-05,708.029999999477,2.568697e-05
708.044999999477,2.148274e-05,708.044999999477,9.335436e-05,708.044999999477,1.238222e-05,708.044999999477,2.575652e-05
708.059999999477,2.168636e-05,708.059999999477,9.372513e-05,708.059999999477,1.23754e-05,708.059999999477,2.582261e-05
708.074999999477,2.154232e-05,708.074999999477,9.472409e-05,708.074999999477,1.244464e-05,708.074999999477,2.583406e-05
708.089999999477,2.126326e-05,708.089999999477,9.455426e-05,708.089999999477,1.218729e-05,708.089999999477,2.598142e-05
708.104999999477,2.037416e-05,708.104999999477,9.362784e-05,708.104999999477,1.199975e-05,708.104999999477,2.587166e-05
708.1199999994769,1.973567e-05,708.1199999994769,8.714916e-05,708.1199999994769,1.188771e-05,708.1199999994769,2.540741e-05
708.1349999994769,1.937478e-05,708.1349999994769,8.532291e-05,708.1349999994769,1.058915e-05,708.1349999994769,2.469381e-05
708.1499999994769,1.89922e-05,708.1499999994769,8.220861e-05,708.1499999994769,8.525684e-06,708.1499999994769,2.436128e-05
708.1649999994769,1.818823e-05,708.1649999994769,8.093798e-05,708.1649999994769,7.894269e-06,708.1649999994769,2.377838e-05
708.1799999994769,1.474305e-05,708.1799999994769,8.013092e-05,708.1799999994769,7.802733e-06,708.1799999994769,2.321786e-05
708.1949999994769,1.307932e-05,708.1949999994769,7.594896e-05,708.1949999994769,7.489538e-06,708.1949999994769,2.238696e-05
708.2099999994768,1.206765e-05,708.2099999994768,7.539963e-05,708.2099999994768,7.50457e-06,708.2099999994768,2.107427e-05
708.2249999994768,1.130586e-05,708.2249999994768,6.665665e-05,708.2249999994768,7.22727e-06,708.2249999994768,2.08721e-05
708.2399999994768,1.084675e-05,708.2399999994768,6.537529e-05,708.2399999994768,6.797376e-06,708.2399999994768,2.059559e-05
708.2549999994768,1.080642e-05,708.2549999994768,6.187425e-05,708.2549999994768,6.470365e-06,708.2549999994768,1.871425e-05
708.2699999994768,9.637821e-06,708.2699999994768,5.214522e-05,708.2699999994768,6.239839e-06,708.2699999994768,1.829557e-05
708.2849999994768,8.504177e-06,708.2849999994768,5.307833e-05,708.2849999994768,5.865124e-06,708.2849999994768,1.631077e-05
708.2999999994768,7.655103e-06,708.2999999994768,5.308788e-05,708.2999999994768,5.696992e-06,708.2999999994768,1.618505e-05
708.3149999994768,6.832516e-06,708.3149999994768,5.081565e-05,708.3149999994768,5.055022e-06,708.3149999994768,1.53286e-05
708.3299999994767,6.774542e-06,708.3299999994767,5.092613e-05,708.3299999994767,5.08004e-06,708.3299999994767,1.493481e-05
708.3449999994767,6.759971e-06,708.3449999994767,5.1386e-05,708.3449999994767,5.082812e-06,708.3449999994767,1.454005e-05
708.3599999994767,6.766219e-06,708.3599999994767,4.895216e-05,708.3599999994767,4.984868e-06,708.3599999994767,1.399706e-05
708.3749999994767,6.720261e-06,708.3749999994767,5.150046e-05,708.3749999994767,5.259872e-06,708.3749999994767,1.251462e-05
708.3899999994767,6.479067e-06,708.3899999994767,5.211658e-05,708.3899999994767,5.173461e-06,708.3899999994767,1.158403e-05
708.4049999994767,6.023894e-06,708.4049999994767,5.148897e-05,708.4049999994767,5.035477e-06,708.4049999994767,1.067526e-05
708.4199999994767,5.893875e-06,708.4199999994767,5.091147e-05,708.4199999994767,4.990517e-06,708.4199999994767,9.904527e-06
708.4349999994766,5.249148e-06,708.4349999994766,5.002837e-05,708.4349999994766,5.246463e-06,708.4349999994766,8.728161e-06
708.4499999994766,5.214144e-06,708.4499999994766,5.016671e-05,708.4499999994766,5.088352e-06,708.4499999994766,8.253678e-06
708.4649999994766,5.238403e-06,708.4649999994766,4.715996e-05,708.4649999994766,4.907976e-06,708.4649999994766,7.721065e-06
708.4799999994766,5.052234e-06,708.4799999994766,4.556759e-05,708.4799999994766,4.841512e-06,708.4799999994766,7.448044e-06
708.4949999994766,4.990517e-06,708.4949999994766,4.451867e-05,708.4949999994766,4.774123e-06,708.4949999994766,6.791156e-06
708.5099999994766,4.953686e-06,708.5099999994766,4.491904e-05,708.5099999994766,4.893604e-06,708.5099999994766,6.244353e-06
708.5249999994766,4.850233e-06,708.5249999994766,4.544098e-05,708.5249999994766,4.905105e-06,708.5249999994766,6.264623e-06
708.5399999994765,4.308857e-06,708.5399999994765,4.39002e-05,708.5399999994765,4.850233e-06,708.5399999994765,6.174023e-06
708.5549999994765,4.11145e-06,708.5549999994765,4.514209e-05,708.5549999994765,4.967884e-06,708.5549999994765,6.068162e-06
708.5699999994765,4.073587e-06,708.5699999994765,4.525802e-05,708.5699999994765,4.942298e-06,708.5699999994765,6.016875e-06
708.5849999994765,4.052786e-06,708.5849999994765,4.491779e-05,708.5849999994765,5.015856e-06,708.5849999994765,6.021555e-06
708.5999999994765,4.169289e-06,708.5999999994765,4.383565e-05,708.5999999994765,5.102175e-06,708.5999999994765,5.644828e-06
708.6149999994765,4.199587e-06,708.6149999994765,4.0499e-05,708.6149999994765,5.041069e-06,708.6149999994765,5.336972e-06
708.6299999994765,4.219664e-06,708.6299999994765,3.753561e-05,708.6299999994765,4.765263e-06,708.6299999994765,5.254512e-06
708.6449999994765,4.302314e-06,708.6449999994765,3.640278e-05,708.6449999994765,4.824024e-06,708.6449999994765,5.151632e-06
708.6599999994764,4.593675e-06,708.6599999994764,3.545872e-05,708.6599999994764,5.257193e-06,708.6599999994764,5.124215e-06
708.6749999994764,4.535037e-06,708.6749999994764,3.4638e-05,708.6749999994764,5.321112e-06,708.6749999994764,4.856038e-06
708.6899999994764,4.562907e-06,708.6899999994764,3.140441e-05,708.6899999994764,5.299891e-06,708.6899999994764,4.864733e-06
708.7049999994764,4.556728e-06,708.7049999994764,3.128306e-05,708.7049999994764,5.554263e-06,708.7049999994764,4.69378e-06
708.7199999994764,4.699779e-06,708.7199999994764,3.127766e-05,708.7199999994764,5.790191e-06,708.7199999994764,4.717728e-06
708.7349999994764,4.907976e-06,708.7349999994764,3.143982e-05,708.7349999994764,6.13052e-06,708.7349999994764,4.815255e-06
708.7499999994764,5.055022e-06,708.7499999994764,3.17013e-05,708.7499999994764,6.100575e-06,708.7499999994764,4.780021e-06
708.7649999994763,5.444114e-06,708.7649999994763,3.115446e-05,708.7649999994763,6.424483e-06,708.7649999994763,4.732634e-06
708.7799999994763,5.508422e-06,708.7799999994763,2.972306e-05,708.7799999994763,6.474718e-06,708.7799999994763,4.753424e-06
708.7949999994763,6.056544e-06,708.7949999994763,2.990685e-05,708.7949999994763,6.400318e-06,708.7949999994763,4.663672e-06
708.8099999994763,8.234882e-06,708.8099999994763,2.755745e-05,708.8099999994763,6.474718e-06,708.8099999994763,4.48192e-06
708.8249999994763,8.29284e-06,708.8249999994763,2.70305e-05,708.8249999994763,6.663425e-06,708.8249999994763,4.68176e-06
708.8399999994763,8.308113e-06,708.8399999994763,2.666162e-05,708.8399999994763,6.606099e-06,708.8399999994763,4.788854e-06
708.8549999994763,8.308113e-06,708.8549999994763,2.654036e-05,708.8549999994763,6.759971e-06,708.8549999994763,4.723696e-06
708.8699999994762,8.326743e-06,708.8699999994762,2.636195e-05,708.8699999994762,6.747456e-06,708.8699999994762,4.684768e-06
708.8849999994762,8.568535e-06,708.8849999994762,2.826155e-05,708.8849999994762,6.867475e-06,708.8849999994762,4.756387e-06
708.8999999994762,8.609537e-06,708.8999999994762,2.969888e-05,708.8999999994762,7.203842e-06,708.8999999994762,4.83569e-06
708.9149999994762,8.5866e-06,708.9149999994762,2.988848e-05,708.9149999994762,7.113323e-06,708.9149999994762,4.95937e-06
708.9299999994762,8.856334e-06,708.9299999994762,3.100171e-05,708.9299999994762,6.904299e-06,708.9299999994762,5.206033e-06
708.9449999994762,8.907087e-06,708.9449999994762,3.097489e-05,708.9449999994762,7.095478e-06,708.9449999994762,5.334332e-06
708.9599999994762,9.031162e-06,708.9599999994762,3.000091e-05,708.9599999994762,6.963215e-06,708.9599999994762,5.291911e-06
708.9749999994762,9.048304e-06,708.9749999994762,3.130287e-05,708.9749999994762,6.955118e-06,708.9749999994762,5.137942e-06
708.9899999994761,9.12427e-06,708.9899999994761,2.977752e-05,708.9899999994761,6.875675e-06,708.9899999994761,5.157098e-06
709.0049999994761,8.870637e-06,709.0049999994761,2.916716e-05,709.0049999994761,6.805661e-06,709.0049999994761,5.178904e-06
709.0199999994761,9.500919e-06,709.0199999994761,2.891103e-05,709.0199999994761,6.65708e-06,709.0199999994761,5.041069e-06
709.0349999994761,9.61001e-06,709.0349999994761,2.873312e-05,709.0349999994761,6.692956e-06,709.0349999994761,5.091119e-06
709.0499999994761,9.250001e-06,709.0499999994761,2.841267e-05,709.0499999994761,6.728641e-06,709.0499999994761,5.052234e-06
709.0649999994761,7.50457e-06,709.0649999994761,2.805996e-05,709.0649999994761,6.582601e-06,709.0649999994761,4.976383e-06
709.0799999994761,7.793701e-06,709.0799999994761,2.822114e-05,709.0799999994761,6.505105e-06,709.0799999994761,4.702775e-06
709.094999999476,8.086432e-06,709.094999999476,2.905344e-05,709.094999999476,6.591156e-06,709.094999999476,5.181623e-06
709.109999999476,1.101429e-05,709.109999999476,3.022452e-05,709.109999999476,6.373853e-06,709.109999999476,5.917727e-06
709.124999999476,1.155359e-05,709.124999999476,3.039091e-05,709.124999999476,6.580461e-06,709.124999999476,6.863372e-06
709.139999999476,1.167367e-05,709.139999999476,2.673391e-05,709.139999999476,6.576178e-06,709.139999999476,9.474194e-06
709.154999999476,1.421377e-05,709.154999999476,2.663572e-05,709.154999999476,6.832516e-06,709.154999999476,1.179372e-05
709.169999999476,1.607414e-05,709.169999999476,2.591899e-05,709.169999999476,6.749543e-06,709.169999999476,1.270343e-05
709.184999999476,1.611965e-05,709.184999999476,2.413296e-05,709.184999999476,6.947012e-06,709.184999999476,1.358335e-05
709.199999999476,1.635561e-05,709.199999999476,2.377068e-05,709.199999999476,7.043671e-06,709.199999999476,1.528626e-05
709.2149999994759,1.655082e-05,709.2149999994759,2.240394e-05,709.2149999994759,7.111343e-06,709.2149999994759,1.598009e-05
709.2299999994759,1.670416e-05,709.2299999994759,2.133667e-05,709.2299999994759,6.951067e-06,709.2299999994759,1.671933e-05
709.2449999994759,1.746439e-05,709.2449999994759,2.062498e-05,709.2449999994759,7.50457e-06,709.2449999994759,1.701912e-05
709.2599999994759,1.803657e-05,709.2599999994759,2.33793e-05,709.2599999994759,7.664298e-06,709.2599999994759,1.798103e-05
709.2749999994759,1.825394e-05,709.2749999994759,2.407335e-05,709.2749999994759,7.781039e-06,709.2749999994759,1.945459e-05
709.2899999994759,1.824622e-05,709.2899999994759,2.360416e-05,709.2899999994759,7.894269e-06,709.2899999994759,1.973924e-05
709.3049999994759,1.831711e-05,709.3049999994759,2.474112e-05,709.3049999994759,8.133331e-06,709.3049999994759,1.987508e-05
709.3199999994758,1.825163e-05,709.3199999994758,2.634538e-05,709.3199999994758,8.167896e-06,709.3199999994758,2.002618e-05
709.3349999994758,1.804204e-05,709.3349999994758,2.933859e-05,709.3349999994758,8.041013e-06,709.3349999994758,2.042319e-05
709.3499999994758,1.734298e-05,709.3499999994758,3.176389e-05,709.3499999994758,8.02523e-06,709.3499999994758,2.143481e-05
709.3649999994758,1.629003e-05,709.3649999994758,3.965294e-05,709.3649999994758,8.086432e-06,709.3649999994758,2.138679e-05
709.3799999994758,1.587307e-05,709.3799999994758,4.218663e-05,709.3799999994758,7.634834e-06,709.3799999994758,2.119358e-05
709.3949999994758,1.545672e-05,709.3949999994758,4.341589e-05,709.3949999994758,7.448044e-06,709.3949999994758,2.00992e-05
709.4099999994758,1.30286e-05,709.4099999994758,5.033183e-05,709.4099999994758,7.05566e-06,709.4099999994758,1.93675e-05
709.4249999994757,1.125466e-05,709.4249999994757,5.036596e-05,709.4249999994757,7.021637e-06,709.4249999994757,1.891788e-05
709.4399999994757,1.105004e-05,709.4399999994757,5.046013e-05,709.4399999994757,6.413511e-06,709.4399999994757,1.797241e-05
709.4549999994757,1.081423e-05,709.4549999994757,5.062429e-05,709.4549999994757,6.280343e-06,709.4549999994757,1.722807e-05
709.4699999994757,1.054783e-05,709.4699999994757,5.340745e-05,709.4699999994757,6.302733e-06,709.4699999994757,1.677485e-05
709.4849999994757,1.01933e-05,709.4849999994757,5.421115e-05,709.4849999994757,5.604757e-06,709.4849999994757,1.624326e-05
709.4999999994757,8.699061e-06,709.4999999994757,5.975386e-05,709.4999999994757,9.175076e-06,709.4999999994757,1.628657e-05
709.5149999994757,8.532291e-06,709.5149999994757,6.564665e-05,709.5149999994757,9.10263e-06,709.5149999994757,1.578854e-05
709.5299999994756,7.601551e-06,709.5299999994756,6.836906e-05,709.5299999994756,9.277373e-06,709.5299999994756,1.434497e-05
709.5449999994756,7.470705e-06,709.5449999994756,6.9461e-05,709.5449999994756,9.111911e-06,709.5449999994756,1.424347e-05
709.5599999994756,7.840554e-06,709.5599999994756,7.29708e-05,709.5599999994756,9.188883e-06,709.5599999994756,1.425928e-05
709.5749999994756,8.446003e-06,709.5749999994756,8.687767e-05,709.5749999994756,9.316767e-06,709.5749999994756,1.445259e-05
709.5899999994756,1.006536e-05,709.5899999994756,9.127265e-05,709.5899999994756,9.441426e-06,709.5899999994756,1.367843e-05
709.6049999994756,1.104621e-05,709.6049999994756,9.324732e-05,709.6049999994756,9.533483e-06,709.6049999994756,1.248871e-05
709.6199999994756,1.110853e-05,709.6199999994756,9.519301e-05,709.6199999994756,9.735256e-06,709.6199999994756,1.295487e-05
709.6349999994756,1.125466e-05,709.6349999994756,9.551639e-05,709.6349999994756,9.990908e-06,709.6349999994756,1.319193e-05
709.6499999994755,1.12158e-05,709.6499999994755,9.86738e-05,709.6499999994755,1.0005e-05,709.6499999994755,1.336379e-05
709.6649999994755,1.100917e-05,709.6649999994755,9.9754e-05,709.6649999994755,1.007515e-05,709.6649999994755,1.282043e-05
709.6799999994755,1.098227e-05,709.6799999994755,0.0001007964,709.6799999994755,1.011283e-05,709.6799999994755,1.300155e-05
709.6949999994755,1.094629e-05,709.6949999994755,0.0001021907,709.6949999994755,1.012953e-05,709.6949999994755,1.342164e-05
709.7099999994755,1.128342e-05,709.7099999994755,0.0001061053,709.7099999994755,1.003592e-05,709.7099999994755,1.350639e-05
709.7249999994755,1.166884e-05,709.7249999994755,0.00010718,709.7249999994755,1.000641e-05,709.7249999994755,1.346147e-05
709.7399999994755,1.206298e-05,709.7399999994755,0.0001108077,709.7399999994755,8.470984e-06,709.7399999994755,1.406232e-05
709.7549999994754,1.149737e-05,709.7549999994754,0.000108718,709.7549999994754,6.730734e-06,709.7549999994754,1.497719e-05
709.7699999994754,1.137047e-05,709.7699999994754,0.0001088041,709.7699999994754,6.450741e-06,709.7699999994754,1.461927e-05
709.7849999994754,1.129963e-05,709.7849999994754,0.0001102054,709.7849999994754,6.307202e-06,709.7849999994754,1.438322e-05
709.7999999994754,1.124089e-05,709.7999999994754,0.000111519,709.7999999994754,6.313899e-06,709.7999999994754,1.462602e-05
709.8149999994754,1.083895e-05,709.8149999994754,0.0001126506,709.8149999994754,5.934367e-06,709.8149999994754,1.464142e-05
709.8299999994754,1.044853e-05,709.8299999994754,0.0001019624,709.8299999994754,5.753582e-06,709.8299999994754,1.414024e-05
709.8449999994754,7.949394e-06,709.8449999994754,9.902479e-05,709.8449999994754,5.564399e-06,709.8449999994754,1.423061e-05
709.8599999994753,8.035755e-06,709.8599999994753,9.594651e-05,709.8599999994753,4.936594e-06,709.8599999994753,1.396582e-05
709.8749999994753,7.733825e-06,709.8749999994753,9.282366e-05,709.8749999994753,5.104936e-06,709.8749999994753,1.370826e-05
709.8899999994753,7.461272e-06,709.8899999994753,9.089094e-05,709.8899999994753,4.584466e-06,709.8899999994753,1.349387e-05
709.9049999994753,7.349037e-06,709.9049999994753,8.705908e-05,709.9049999994753,4.550541e-06,709.9049999994753,1.25135e-05
709.9199999994753,7.283574e-06,709.9199999994753,8.635269e-05,709.9199999994753,4.402644e-06,709.9199999994753,1.248645e-05
709.9349999994753,7.252564e-06,709.9349999994753,8.550696e-05,709.9349999994753,4.463023e-06,709.9349999994753,1.223919e-05
709.9499999994753,7.12124e-06,709.9499999994753,8.395902e-05,709.9499999994753,4.4377e-06,709.9499999994753,1.179611e-05
709.9649999994753,6.13052e-06,709.9649999994753,8.228825e-05,709.9649999994753,4.559819e-06,709.9649999994753,1.147652e-05
709.9799999994752,5.599728e-06,709.9799999994752,8.514176e-05,709.9799999994752,4.550541e-06,709.9799999994752,1.140634e-05
709.9949999994752,4.373753e-06,709.9949999994752,7.878265e-05,709.9949999994752,4.516361e-06,709.9949999994752,1.047546e-05
710.0099999994752,4.282623e-06,710.0099999994752,7.656465e-05,710.0099999994752,4.497608e-06,710.0099999994752,9.076284e-06
710.0249999994752,4.236323e-06,710.0249999994752,7.386835e-05,710.0249999994752,4.48192e-06,710.0249999994752,8.872225e-06
710.0399999994752,4.259536e-06,710.0399999994752,7.236969e-05,710.0399999994752,4.285911e-06,710.0399999994752,8.535592e-06
710.0549999994752,4.256228e-06,710.0549999994752,7.204018e-05,710.0549999994752,4.373753e-06,710.0549999994752,8.037508e-06
710.0699999994752,4.148967e-06,710.0699999994752,6.720282e-05,710.0699999994752,4.338181e-06,710.0699999994752,7.811755e-06
710.0849999994751,4.347911e-06,710.0849999994751,6.772462e-05,710.0849999994751,4.444044e-06,710.0849999994751,7.41962e-06
710.0999999994751,4.121716e-06,710.0999999994751,7.130156e-05,710.0999999994751,4.569077e-06,710.0999999994751,7.15085e-06
710.1149999994751,3.96849e-06,710.1149999994751,7.23475e-05,710.1149999994751,4.782967e-06,710.1149999994751,7.085544e-06
710.1299999994751,4.596741e-06,710.1299999994751,7.263859e-05,710.1299999994751,4.913713e-06,710.1299999994751,6.928738e-06
710.1449999994751,4.651575e-06,710.1449999994751,7.246073e-05,710.1449999994751,5.015856e-06,710.1449999994751,6.916529e-06
710.1599999994751,4.79767e-06,710.1599999994751,7.018306e-05,710.1599999994751,5.302549e-06,710.1599999994751,6.826328e-06
710.1749999994751,4.873412e-06,710.1749999994751,7.013266e-05,710.1749999994751,5.310512e-06,710.1749999994751,6.732826e-06
710.189999999475,4.910845e-06,710.189999999475,6.919645e-05,710.189999999475,5.329048e-06,710.189999999475,6.398117e-06
710.204999999475,5.792623e-06,710.204999999475,6.848393e-05,710.204999999475,5.355417e-06,710.204999999475,6.282586e-06
710.219999999475,6.114414e-06,710.219999999475,6.236994e-05,710.219999999475,5.297233e-06,710.219999999475,6.132817e-06
710.234999999475,6.365006e-06,710.234999999475,5.870118e-05,710.234999999475,5.315815e-06,710.234999999475,5.508422e-06
710.249999999475,6.64861e-06,710.249999999475,5.825578e-05,710.249999999475,5.574516e-06,710.249999999475,5.379038e-06
710.264999999475,6.614623e-06,710.264999999475,5.647572e-05,710.264999999475,5.539025e-06,710.264999999475,5.339611e-06
710.279999999475,6.688745e-06,710.279999999475,5.545658e-05,710.279999999475,5.609782e-06,710.279999999475,4.928026e-06
710.294999999475,6.676097e-06,710.294999999475,4.7379e-05,710.294999999475,5.639834e-06,710.294999999475,4.806471e-06
710.3099999994749,6.836638e-06,710.3099999994749,4.439668e-05,710.3099999994749,5.624828e-06,710.3099999994749,4.599804e-06
710.3249999994749,8.331817e-06,710.3249999994749,4.317022e-05,710.3249999994749,5.721665e-06,710.3249999994749,4.531929e-06
710.3399999994749,1.041071e-05,710.3399999994749,3.7731e-05,710.3399999994749,5.821732e-06,710.3399999994749,4.472482e-06
710.3549999994749,1.34667e-05,710.3549999994749,3.216536e-05,710.3549999994749,5.860319e-06,710.3549999994749,4.575239e-06
710.3699999994749,1.72632e-05,710.3699999994749,2.978981e-05,710.3699999994749,5.891484e-06,710.3699999994749,4.494475e-06
710.3849999994749,1.828555e-05,710.3849999994749,2.737332e-05,710.3849999994749,5.908198e-06,710.3849999994749,4.651575e-06
710.3999999994749,1.874734e-05,710.3999999994749,2.766153e-05,710.3999999994749,5.780451e-06,710.3999999994749,4.516361e-06
710.4149999994748,1.886121e-05,710.4149999994748,2.488022e-05,710.4149999994748,5.881913e-06,710.4149999994748,4.768218e-06
710.4299999994748,1.897587e-05,710.4299999994748,2.521596e-05,710.4299999994748,6.077441e-06,710.4299999994748,5.405162e-06
710.4449999994748,1.900777e-05,710.4449999994748,2.559577e-05,710.4449999994748,6.132817e-06,710.4449999994748,5.510979e-06
710.4599999994748,1.884552e-05,710.4599999994748,2.358088e-05,710.4599999994748,6.141998e-06,710.4599999994748,5.546649e-06
710.4749999994748,1.89e-05,710.4749999994748,2.357789e-05,710.4749999994748,6.167175e-06,710.4749999994748,5.60727e-06
710.4899999994748,1.899665e-05,710.4899999994748,2.430455e-05,710.4899999994748,6.520246e-06,710.4899999994748,5.891484e-06
710.5049999994748,1.895285e-05,710.5049999994748,2.470636e-05,710.5049999994748,6.289309e-06,710.5049999994748,5.753582e-06
710.5199999994747,1.91613e-05,710.5199999994747,2.526284e-05,710.5199999994747,6.313899e-06,710.5199999994747,6.03324e-06
710.5349999994747,1.926906e-05,710.5349999994747,2.589778e-05,710.5349999994747,6.316129e-06,710.5349999994747,6.135114e-06
710.5499999994747,1.93012e-05,710.5499999994747,2.641533e-05,710.5499999994747,6.237581e-06,710.5499999994747,6.194524e-06
710.5649999994747,1.923833e-05,710.5649999994747,2.749399e-05,710.5649999994747,6.329497e-06,710.5649999994747,6.244353e-06
710.5799999994747,1.810828e-05,710.5799999994747,2.814167e-05,710.5799999994747,6.169459e-06,710.5799999994747,6.42229e-06
710.5949999994747,1.929463e-05,710.5949999994747,2.896749e-05,710.5949999994747,6.093644e-06,710.5949999994747,6.398117e-06
710.6099999994747,1.83839e-05,710.6099999994747,3.025712e-05,710.6099999994747,6.114414e-06,710.6099999994747,6.273611e-06
710.6249999994747,1.666955e-05,710.6249999994747,3.061305e-05,710.6249999994747,5.865124e-06,710.6249999994747,6.194524e-06
710.6399999994746,1.598362e-05,710.6399999994746,3.135368e-05,710.6399999994746,5.629835e-06,710.6399999994746,6.137409e-06
710.6549999994746,1.559915e-05,710.6549999994746,3.745973e-05,710.6549999994746,5.431162e-06,710.6549999994746,6.093644e-06
710.6699999994746,1.608465e-05,710.6699999994746,3.792687e-05,710.6699999994746,5.510979e-06,710.6699999994746,5.922486e-06
710.6849999994746,1.619723e-05,710.6849999994746,4.494224e-05,710.6849999994746,5.898653e-06,710.6849999994746,6.086705e-06
710.6999999994746,1.667462e-05,710.6999999994746,4.831726e-05,710.6999999994746,6.167175e-06,710.6999999994746,6.284828e-06
710.7149999994746,1.666448e-05,710.7149999994746,5.413782e-05,710.7149999994746,6.442001e-06,710.7149999994746,6.940926e-06
710.7299999994746,1.650394e-05,710.7299999994746,5.378802e-05,710.7299999994746,6.316129e-06,710.7299999994746,7.682656e-06
710.7449999994745,1.634528e-05,710.7449999994745,5.853271e-05,710.7449999994745,6.705572e-06,710.7449999994745,8.902342e-06
710.7599999994745,1.65048e-05,710.7599999994745,6.027541e-05,710.7599999994745,6.818068e-06,710.7599999994745,1.204779e-05
710.7749999994745,1.628916e-05,710.7749999994745,6.134195e-05,710.7749999994745,7.190141e-06,710.7749999994745,1.279293e-05
710.7899999994745,1.627532e-05,710.7899999994745,6.269164e-05,710.7899999994745,7.465047e-06,710.7899999994745,1.324946e-05
710.8049999994745,1.659417e-05,710.8049999994745,6.492968e-05,710.8049999994745,7.569982e-06,710.8049999994745,1.58037e-05
710.8199999994745,1.659247e-05,710.8199999994745,6.54597e-05,710.8199999994745,7.981227e-06,710.8199999994745,1.639776e-05
710.8349999994745,1.676225e-05,710.8349999994745,6.847303e-05,710.8349999994745,8.082948e-06,710.8349999994745,1.820062e-05
710.8499999994744,1.406332e-05,710.8499999994744,6.918098e-05,710.8499999994744,8.504177e-06,710.8499999994744,1.961611e-05
710.8649999994744,1.199858e-05,710.8649999994744,6.962992e-05,710.8649999994744,8.821272e-06,710.8649999994744,2.502418e-05
710.8799999994744,1.078946e-05,710.8799999994744,6.958986e-05,710.8799999994744,1.058515e-05,710.8799999994744,3.402954e-05
710.8949999994744,1.107932e-05,710.8949999994744,6.799821e-05,710.8949999994744,1.091665e-05,710.8949999994744,4.090772e-05
710.9099999994744,1.202907e-05,710.9099999994744,6.64189e-05,710.9099999994744,1.122709e-05,710.9099999994744,4.160292e-05
710.9249999994744,2.046866e-05,710.9249999994744,6.596497e-05,710.9249999994744,1.194445e-05,710.9249999994744,4.928226e-05
710.9399999994744,2.144336e-05,710.9399999994744,6.046301e-05,710.9399999994744,1.385138e-05,710.9399999994744,4.961329e-05
710.9549999994744,2.22386e-05,710.9549999994744,5.888662e-05,710.9549999994744,1.544578e-05,710.9549999994744,5.066601e-05
710.9699999994743,2.321544e-05,710.9699999994743,5.829711e-05,710.9699999994743,1.869618e-05,710.9699999994743,5.142628e-05
710.9849999994743,2.451174e-05,710.9849999994743,6.629535e-05,710.9849999994743,1.920609e-05,710.9849999994743,5.314304e-05
710.9999999994743,2.561888e-05,710.9999999994743,7.287209e-05,710.9999999994743,1.940601e-05,710.9999999994743,5.275889e-05
711.0149999994743,2.713972e-05,711.0149999994743,7.709306e-05,711.0149999994743,1.953552e-05,711.0149999994743,5.311679e-05
711.0299999994743,2.729706e-05,711.0299999994743,8.086833e-05,711.0299999994743,1.991261e-05,711.0299999994743,5.362987e-05
711.0449999994743,2.916426e-05,711.0449999994743,8.265446e-05,711.0449999994743,2.027991e-05,711.0449999994743,5.687192e-05
711.0599999994743,2.917537e-05,711.0599999994743,8.338493e-05,711.0599999994743,2.022775e-05,711.0599999994743,6.873483e-05
711.0749999994742,2.942249e-05,711.0749999994742,8.758772e-05,711.0749999994742,2.116432e-05,711.0749999994742,7.323557e-05
711.0899999994742,2.972211e-05,711.0899999994742,8.618826e-05,711.0899999994742,2.18707e-05,711.0899999994742,7.632878e-05
711.1049999994742,3.042288e-05,711.1049999994742,8.839649e-05,711.1049999994742,2.188486e-05,711.1049999994742,7.82516e-05
711.1199999994742,3.091161e-05,711.1199999994742,0.0001037321,711.1199999994742,2.197287e-05,711.1199999994742,7.800404e-05
711.1349999994742,3.087286e-05,711.1349999994742,0.0001115932,711.1349999994742,2.110633e-05,711.1349999994742,7.730546e-05
711.1499999994742,3.058912e-05,711.1499999994742,0.0001154149,711.1499999994742,2.125465e-05,711.1499999994742,7.616084e-05
711.1649999994742,3.019141e-05,711.1649999994742,0.0001193147,711.1649999994742,2.111634e-05,711.1649999994742,7.361887e-05
711.1799999994741,2.503318e-05,711.1799999994741,0.0001215202,711.1799999994741,2.049067e-05,711.1799999994741,7.170562e-05
711.1949999994741,2.40985e-05,711.1949999994741,0.000125122,711.1949999994741,1.88111e-05,711.1949999994741,7.185869e-05
711.2099999994741,2.317414e-05,711.2099999994741,0.0001279764,711.2099999994741,1.784104e-05,711.2099999994741,7.134185e-05
711.2249999994741,2.243348e-05,711.2249999994741,0.0001275039,711.2249999994741,1.514462e-05,711.2249999994741,6.987268e-05
711.2399999994741,2.054903e-05,711.2399999994741,0.000123173,711.2399999994741,1.45507e-05,711.2399999994741,6.99285e-05
711.2549999994741,1.97528e-05,711.2549999994741,0.0001202036,711.2549999994741,1.389301e-05,711.2549999994741,7.053104e-05
711.2699999994741,1.767605e-05,711.2699999994741,0.0001180881,711.2699999994741,1.364233e-05,711.2699999994741,7.081667e-05
711.284999999474,1.745229e-05,711.284999999474,0.000116235,711.284999999474,1.32792e-05,711.284999999474,7.041751e-05
711.299999999474,1.367946e-05,711.299999999474,0.0001162184,711.299999999474,1.258422e-05,711.299999999474,6.219624e-05
711.314999999474,1.344471e-05,711.314999999474,0.0001150423,711.314999999474,1.244237e-05,711.314999999474,5.384979e-05
711.329999999474,1.308363e-05,711.329999999474,0.0001109994,711.329999999474,9.838886e-06,711.329999999474,4.578748e-05
711.344999999474,1.179372e-05,711.344999999474,0.0001097897,711.344999999474,8.699061e-06,711.344999999474,4.285747e-05
711.359999999474,9.257612e-06,711.359999999474,0.0001069213,711.359999999474,8.29284e-06,711.359999999474,3.672831e-05
711.374999999474,8.154087e-06,711.374999999474,8.649612e-05,711.374999999474,8.012934e-06,711.374999999474,3.37861e-05
711.389999999474,8.02874e-06,711.389999999474,8.324916e-05,711.389999999474,7.951166e-06,711.389999999474,2.529071e-05
711.404999999474,7.874616e-06,711.404999999474,7.526611e-05,711.404999999474,7.370092e-06,711.404999999474,2.397778e-05
711.4199999994739,7.197973e-06,711.4199999994739,7.317957e-05,711.4199999994739,7.275834e-06,711.4199999994739,2.292909e-05
711.4349999994739,7.180339e-06,711.4349999994739,6.850902e-05,711.4349999994739,5.920107e-06,711.4349999994739,2.266338e-05
711.4499999994739,6.33617e-06,711.4499999994739,6.525041e-05,711.4499999994739,5.358047e-06,711.4499999994739,2.134855e-05
711.4649999994739,5.872325e-06,711.4649999994739,5.941413e-05,711.4649999994739,5.170737e-06,711.4649999994739,1.980194e-05
711.4799999994739,5.622323e-06,711.4799999994739,5.819844e-05,711.4799999994739,4.893604e-06,711.4799999994739,1.913849e-05
711.4949999994739,4.95937e-06,711.4949999994739,5.147912e-05,711.4949999994739,5.001795e-06,711.4949999994739,1.724523e-05
711.5099999994738,4.945147e-06,711.5099999994738,4.975109e-05,711.5099999994738,5.018664e-06,711.5099999994738,1.258086e-05
711.5249999994738,4.996159e-06,711.5249999994738,4.874308e-05,711.5249999994738,4.887844e-06,711.5249999994738,1.044179e-05
711.5399999994738,4.590608e-06,711.5399999994738,4.720176e-05,711.5399999994738,4.431347e-06,711.5399999994738,9.650967e-06
711.5549999994738,4.428167e-06,711.5549999994738,4.261189e-05,711.5549999994738,4.172666e-06,711.5549999994738,7.869248e-06
711.5699999994738,4.497608e-06,711.5699999994738,4.294711e-05,711.5699999994738,4.259536e-06,711.5699999994738,6.266871e-06
711.5849999994738,4.466178e-06,711.5849999994738,4.180962e-05,711.5849999994738,4.341427e-06,711.5849999994738,5.884307e-06
711.5999999994738,4.338181e-06,711.5999999994738,4.254738e-05,711.5999999994738,4.605925e-06,711.5999999994738,5.905813e-06
711.6149999994738,4.285911e-06,711.6149999994738,4.390373e-05,711.6149999994738,4.67875e-06,711.6149999994738,5.753582e-06
711.6299999994737,5.564399e-06,711.6299999994737,4.278016e-05,711.6299999994737,4.642481e-06,711.6299999994737,5.104936e-06
711.6449999994737,6.068162e-06,711.6449999994737,4.263932e-05,711.6449999994737,4.765263e-06,711.6449999994737,5.132455e-06
711.6599999994737,6.075122e-06,711.6599999994737,4.38787e-05,711.6599999994737,4.708762e-06,711.6599999994737,5.2679e-06
711.6749999994737,6.089019e-06,711.6749999994737,4.413254e-05,711.6749999994737,4.68176e-06,711.6749999994737,5.355417e-06
711.6899999994737,6.203613e-06,711.6899999994737,4.092012e-05,711.6899999994737,4.890725e-06,711.6899999994737,5.176183e-06
711.7049999994737,6.384893e-06,711.7049999994737,4.063824e-05,711.7049999994737,4.950841e-06,711.7049999994737,5.257193e-06
711.7199999994737,6.627389e-06,711.7199999994737,4.078046e-05,711.7199999994737,5.227635e-06,711.7199999994737,5.151632e-06
711.7349999994736,6.678206e-06,711.7349999994736,3.923833e-05,711.7349999994736,5.315815e-06,711.7349999994736,5.299891e-06
711.7499999994736,6.851046e-06,711.7499999994736,3.863669e-05,711.7499999994736,5.472503e-06,711.7499999994736,4.794733e-06
711.7649999994736,7.502692e-06,711.7649999994736,3.766112e-05,711.7649999994736,5.53139e-06,711.7649999994736,4.791795e-06
711.7799999994736,7.34712e-06,711.7799999994736,3.487631e-05,711.7799999994736,5.731505e-06,711.7799999994736,4.83569e-06
711.7949999994736,7.517698e-06,711.7949999994736,3.399227e-05,711.7949999994736,5.780451e-06,711.7949999994736,4.782967e-06
711.8099999994736,7.487657e-06,711.8099999994736,3.339736e-05,711.8099999994736,5.908198e-06,711.8099999994736,4.717728e-06
711.8249999994736,8.154087e-06,711.8249999994736,3.404941e-05,711.8249999994736,6.098266e-06,711.8249999994736,4.765263e-06
711.8399999994735,8.538892e-06,711.8399999994735,3.30403e-05,711.8399999994735,6.203613e-06,711.8399999994735,4.657627e-06
711.8549999994735,8.699061e-06,711.8549999994735,3.115401e-05,711.8549999994735,6.086705e-06,711.8549999994735,4.478776e-06
711.8699999994735,9.401056e-06,711.8699999994735,2.894949e-05,711.8699999994735,6.189974e-06,711.8699999994735,4.4218e-06
711.8849999994735,9.063859e-06,711.8849999994735,2.957292e-05,711.8849999994735,6.174023e-06,711.8849999994735,4.447213e-06
711.8999999994735,9.456335e-06,711.8999999994735,2.965141e-05,711.8999999994735,6.19907e-06,711.8999999994735,4.321914e-06
711.9149999994735,9.668466e-06,711.9149999994735,2.916088e-05,711.9149999994735,6.16489e-06,711.9149999994735,4.459865e-06
711.9299999994735,9.942854e-06,711.9299999994735,3.051857e-05,711.9299999994735,6.266871e-06,711.9299999994735,4.399444e-06
711.9449999994735,1.00275e-05,711.9449999994735,3.112416e-05,711.9449999994735,6.420096e-06,711.9449999994735,4.347911e-06
711.9599999994734,1.022366e-05,711.9599999994734,3.002625e-05,711.9599999994734,6.304968e-06,711.9599999994734,4.279333e-06
711.9749999994734,1.013509e-05,711.9749999994734,2.979312e-05,711.9749999994734,6.271365e-06,711.9749999994734,4.249604e-06
711.9899999994734,1.062235e-05,711.9899999994734,2.976001e-05,711.9899999994734,6.528882e-06,711.9899999994734,4.094283e-06
712.0049999994734,1.166281e-05,712.0049999994734,3.217368e-05,712.0049999994734,6.559019e-06,712.0049999994734,4.219664e-06
712.0199999994734,1.250111e-05,712.0199999994734,3.387936e-05,712.0199999994734,6.678206e-06,712.0199999994734,4.186148e-06
712.0349999994734,1.286212e-05,712.0349999994734,3.524075e-05,712.0349999994734,6.621009e-06,712.0349999994734,4.162526e-06
712.0499999994734,1.379227e-05,712.0499999994734,3.554681e-05,712.0499999994734,6.446372e-06,712.0499999994734,4.192873e-06
712.0649999994733,1.726727e-05,712.0649999994733,3.564614e-05,712.0649999994733,6.474718e-06,712.0649999994733,4.138769e-06
712.0799999994733,1.851827e-05,712.0799999994733,3.589973e-05,712.0799999994733,6.398117e-06,712.0799999994733,4.0632e-06
712.0949999994733,2.024306e-05,712.0949999994733,3.791461e-05,712.0949999994733,6.203613e-06,712.0949999994733,4.073587e-06
712.1099999994733,2.030143e-05,712.1099999994733,3.854617e-05,712.1099999994733,6.244353e-06,712.1099999994733,4.209638e-06
712.1249999994733,2.230248e-05,712.1249999994733,3.799589e-05,712.1249999994733,6.11211e-06,712.1249999994733,4.27604e-06
712.1399999994733,2.203561e-05,712.1399999994733,3.765065e-05,712.1399999994733,6.146583e-06,712.1399999994733,4.373753e-06
712.1549999994733,2.202218e-05,712.1549999994733,3.775414e-05,712.1549999994733,6.13052e-06,712.1549999994733,4.376973e-06
712.1699999994732,2.228858e-05,712.1699999994732,3.719404e-05,712.1699999994732,6.13052e-06,712.1699999994732,4.236323e-06
712.1849999994732,2.246234e-05,712.1849999994732,3.685848e-05,712.1849999994732,6.042573e-06,712.1849999994732,4.373753e-06
712.1999999994732,2.457946e-05,712.1999999994732,3.662923e-05,712.1999999994732,5.934367e-06,712.1999999994732,4.393035e-06
712.2149999994732,2.539354e-05,712.2149999994732,3.654375e-05,712.2149999994732,5.877121e-06,712.2149999994732,4.383405e-06
712.2299999994732,2.542182e-05,712.2299999994732,3.67003e-05,712.2299999994732,5.431162e-06,712.2299999994732,4.453544e-06
712.2449999994732,2.525113e-05,712.2449999994732,3.695772e-05,712.2449999994732,5.173461e-06,712.2449999994732,4.444044e-06
712.2599999994732,2.450541e-05,712.2599999994732,3.352744e-05,712.2599999994732,4.902232e-06,712.2599999994732,4.338181e-06
712.2749999994732,2.429933e-05,712.2749999994732,3.184008e-05,712.2749999994732,4.714741e-06,712.2749999994732,4.321914e-06
712.2899999994731,2.429237e-05,712.2899999994731,3.031201e-05,712.2899999994731,4.910845e-06,712.2899999994731,4.20629e-06
712.3049999994731,2.455423e-05,712.3049999994731,3.568484e-05,712.3049999994731,4.79767e-06,712.3049999994731,4.305587e-06
712.3199999994731,2.35492e-05,712.3199999994731,3.58133e-05,712.3199999994731,4.919443e-06,712.3199999994731,4.272744e-06
712.3349999994731,2.213893e-05,712.3349999994731,3.563309e-05,712.3349999994731,4.890725e-06,712.3349999994731,4.370531e-06
712.3499999994731,2.090043e-05,712.3499999994731,3.412751e-05,712.3499999994731,4.962209e-06,712.3499999994731,4.415424e-06
712.3649999994731,2.061951e-05,712.3649999994731,3.48007e-05,712.3649999994731,4.998978e-06,712.3649999994731,4.219664e-06
712.379999999473,1.841988e-05,712.379999999473,3.542375e-05,712.379999999473,5.099414e-06,712.379999999473,4.104592e-06
712.394999999473,1.8274e-05,712.394999999473,3.447413e-05,712.394999999473,5.007424e-06,712.394999999473,3.939991e-06
712.409999999473,1.836243e-05,712.409999999473,3.400636e-05,712.409999999473,4.979213e-06,712.409999999473,4.073587e-06
712.424999999473,1.834478e-05,712.424999999473,3.356062e-05,712.424999999473,4.890725e-06,712.424999999473,4.070128e-06
712.439999999473,1.726809e-05,712.439999999473,3.633461e-05,712.439999999473,4.581393e-06,712.439999999473,4.229668e-06
712.454999999473,1.475069e-05,712.454999999473,3.647893e-05,712.454999999473,4.756387e-06,712.454999999473,4.279333e-06
712.469999999473,1.474783e-05,712.469999999473,4.103459e-05,712.469999999473,4.967884e-06,712.469999999473,4.192873e-06
712.484999999473,1.486201e-05,712.484999999473,4.44062e-05,712.484999999473,4.990517e-06,712.484999999473,4.246287e-06
712.499999999473,1.501852e-05,712.499999999473,4.621832e-05,712.499999999473,4.973552e-06,712.499999999473,4.412233e-06
712.5149999994729,1.522717e-05,712.5149999994729,4.795468e-05,712.5149999994729,5.007424e-06,712.5149999994729,4.440873e-06
712.5299999994729,1.568111e-05,712.5299999994729,4.939647e-05,712.5299999994729,4.984868e-06,712.5299999994729,4.447213e-06
712.5449999994729,1.556027e-05,712.5449999994729,4.988936e-05,712.5449999994729,4.809401e-06,712.5449999994729,4.386617e-06
712.5599999994729,1.208515e-05,712.5599999994729,4.750845e-05,712.5599999994729,4.821102e-06,712.5599999994729,4.450379e-06
712.5749999994729,1.164951e-05,712.5749999994729,4.736532e-05,712.5749999994729,4.67875e-06,712.5749999994729,4.52882e-06
712.5899999994729,1.175065e-05,712.5899999994729,4.731175e-05,712.5899999994729,4.605925e-06,712.5899999994729,4.559819e-06
712.6049999994729,1.231949e-05,712.6049999994729,4.715936e-05,712.6049999994729,4.578317e-06,712.6049999994729,4.550541e-06
