X[s],a: EMG RMS 1-1,X[s].1,a: EMG RMS 1-2,X[s].2,a: EMG RMS 1-3,X[s].3,a: EMG RMS 1-4
583.0049999995907,0.0001054101,583.0049999995907,6.200502e-05,583.0049999995907,2.153448e-05,583.0049999995907,7.618211e-06
583.0199999995907,0.0001056876,583.0199999995907,6.021929e-05,583.0199999995907,2.107427e-05,583.0199999995907,7.584854e-06
583.0349999995907,0.0001062803,583.0349999995907,5.757621e-05,583.0349999995907,2.138415e-05,583.0349999995907,7.410121e-06
583.0499999995907,0.000105291,583.0499999995907,5.464982e-05,583.0499999995907,2.123011e-05,583.0499999995907,7.246734e-06
583.0649999995907,0.0001043189,583.0649999995907,4.804976e-05,583.0649999995907,2.082616e-05,583.0649999995907,6.989465e-06
583.0799999995907,0.0001036822,583.0799999995907,4.770139e-05,583.0799999995907,2.128511e-05,583.0799999995907,7.188182e-06
583.0949999995906,9.563637e-05,583.0949999995906,4.805416e-05,583.0949999995906,2.108096e-05,583.0949999995906,8.59316e-06
583.1099999995906,9.317961e-05,583.1099999995906,4.264362e-05,583.1099999995906,2.020824e-05,583.1099999995906,9.348464e-06
583.1249999995906,8.322446e-05,583.1249999995906,4.215824e-05,583.1249999995906,1.787417e-05,583.1249999995906,1.032102e-05
583.1399999995906,7.952229e-05,583.1399999995906,4.411945e-05,583.1399999995906,1.712145e-05,583.1399999995906,1.077508e-05
583.1549999995906,7.431002e-05,583.1549999995906,4.552862e-05,583.1549999995906,1.660011e-05,583.1549999995906,1.155725e-05
583.1699999995906,6.958297e-05,583.1699999995906,4.572098e-05,583.1699999995906,1.694197e-05,583.1699999995906,1.185448e-05
583.1849999995906,6.412127e-05,583.1849999995906,4.541152e-05,583.1849999995906,1.74224e-05,583.1849999995906,1.276648e-05
583.1999999995905,5.462713e-05,583.1999999995905,4.48748e-05,583.1999999995905,1.757935e-05,583.1999999995905,1.312985e-05
583.2149999995905,5.448434e-05,583.2149999995905,4.402612e-05,583.2149999995905,1.763456e-05,583.2149999995905,1.340589e-05
583.2299999995905,5.294307e-05,583.2299999995905,3.721676e-05,583.2299999995905,1.813549e-05,583.2299999995905,1.379227e-05
583.2449999995905,5.349363e-05,583.2449999995905,3.610749e-05,583.2449999995905,1.896622e-05,583.2449999995905,1.394058e-05
583.2599999995905,5.272283e-05,583.2599999995905,3.7258e-05,583.2599999995905,1.881409e-05,583.2599999995905,1.4185e-05
583.2749999995905,5.163049e-05,583.2749999995905,3.620489e-05,583.2749999995905,1.825626e-05,583.2749999995905,1.42316e-05
583.2899999995905,4.795468e-05,583.2899999995905,3.705174e-05,583.2899999995905,1.801156e-05,583.2899999995905,1.453229e-05
583.3049999995904,5.059785e-05,583.3049999995904,3.673982e-05,583.3049999995904,1.802172e-05,583.3049999995904,1.455554e-05
583.3199999995904,5.573378e-05,583.3199999995904,3.620489e-05,583.3199999995904,1.826629e-05,583.3199999995904,1.45536e-05
583.3349999995904,5.324791e-05,583.3349999995904,3.747965e-05,583.3349999995904,1.814403e-05,583.3349999995904,1.439301e-05
583.3499999995904,5.358231e-05,583.3499999995904,3.633345e-05,583.3499999995904,1.788914e-05,583.3499999995904,1.295705e-05
583.3649999995904,5.333699e-05,583.3649999995904,3.659344e-05,583.3649999995904,1.781892e-05,583.3649999995904,1.287853e-05
583.3799999995904,5.352496e-05,583.3799999995904,3.613868e-05,583.3799999995904,1.893277e-05,583.3799999995904,1.238336e-05
583.3949999995904,5.167086e-05,583.3949999995904,3.5783e-05,583.3949999995904,1.964768e-05,583.3949999995904,1.193619e-05
583.4099999995904,5.150347e-05,583.4099999995904,3.311653e-05,583.4099999995904,1.913849e-05,583.4099999995904,1.183545e-05
583.4249999995903,4.977091e-05,583.4249999995903,3.477802e-05,583.4249999995903,1.863051e-05,583.4249999995903,1.140881e-05
583.4399999995903,5.109156e-05,583.4399999995903,3.522595e-05,583.4399999995903,1.937405e-05,583.4399999995903,1.056651e-05
583.4549999995903,5.015183e-05,583.4549999995903,3.478572e-05,583.4549999995903,1.940964e-05,583.4549999995903,1.024843e-05
583.4699999995903,5.006411e-05,583.4699999995903,3.498922e-05,583.4699999995903,2.087143e-05,583.4699999995903,1.008633e-05
583.4849999995903,5.302495e-05,583.4849999995903,3.514027e-05,583.4849999995903,2.162782e-05,583.4849999995903,9.771364e-06
583.4999999995903,5.368841e-05,583.4999999995903,3.608564e-05,583.4999999995903,2.104216e-05,583.4999999995903,9.503884e-06
583.5149999995903,5.352075e-05,583.5149999995903,3.736974e-05,583.5149999995903,2.150436e-05,583.5149999995903,9.224075e-06
583.5299999995902,5.366295e-05,583.5299999995902,3.983158e-05,583.5299999995902,2.183073e-05,583.5299999995902,9.136613e-06
583.5449999995902,5.40683e-05,583.5449999995902,3.874446e-05,583.5449999995902,2.245921e-05,583.5449999995902,9.327345e-06
583.5599999995902,5.18589e-05,583.5599999995902,3.840595e-05,583.5599999995902,2.470978e-05,583.5599999995902,9.61001e-06
583.5749999995902,4.120451e-05,583.5749999995902,3.958147e-05,583.5749999995902,2.536746e-05,583.5749999995902,9.381556e-06
583.5899999995902,4.140606e-05,583.5899999995902,3.873428e-05,583.5899999995902,2.676761e-05,583.5899999995902,9.496471e-06
583.6049999995902,4.092528e-05,583.6049999995902,3.844517e-05,583.6049999995902,2.698199e-05,583.6049999995902,9.844612e-06
583.6199999995902,4.11662e-05,583.6199999995902,3.778957e-05,583.6199999995902,2.686112e-05,583.6199999995902,1.01184e-05
583.6349999995901,4.064933e-05,583.6349999995901,3.691958e-05,583.6349999995901,2.580515e-05,583.6349999995901,9.942854e-06
583.6499999995901,4.014791e-05,583.6499999995901,3.626087e-05,583.6499999995901,2.534968e-05,583.6499999995901,9.687388e-06
583.6649999995901,3.980859e-05,583.6649999995901,3.663846e-05,583.6649999995901,2.623661e-05,583.6649999995901,1.001907e-05
583.6799999995901,3.985456e-05,583.6799999995901,3.611841e-05,583.6799999995901,2.591573e-05,583.6799999995901,1.083766e-05
583.6949999995901,3.646464e-05,583.6949999995901,3.642406e-05,583.6949999995901,2.519472e-05,583.6949999995901,1.084805e-05
583.7099999995901,3.573928e-05,583.7099999995901,3.713112e-05,583.7099999995901,2.451806e-05,583.7099999995901,1.064487e-05
583.7249999995901,3.705327e-05,583.7249999995901,3.964619e-05,583.7249999995901,2.408154e-05,583.7249999995901,1.0762e-05
583.73999999959,3.187147e-05,583.73999999959,3.959606e-05,583.73999999959,2.425349e-05,583.73999999959,1.064355e-05
583.75499999959,3.064249e-05,583.75499999959,3.829281e-05,583.75499999959,2.439884e-05,583.75499999959,1.093857e-05
583.76999999959,3.017647e-05,583.76999999959,3.459649e-05,583.76999999959,2.427845e-05,583.76999999959,1.108314e-05
583.78499999959,3.012041e-05,583.78499999959,3.461033e-05,583.78499999959,2.411661e-05,583.78499999959,1.128841e-05
583.79999999959,2.996661e-05,583.79999999959,3.491385e-05,583.79999999959,2.336785e-05,583.79999999959,1.097842e-05
583.81499999959,2.995157e-05,583.81499999959,3.446186e-05,583.81499999959,2.018104e-05,583.81499999959,1.100149e-05
583.82999999959,3.107931e-05,583.82999999959,3.420173e-05,583.82999999959,1.934786e-05,583.82999999959,1.101045e-05
583.84499999959,3.111239e-05,583.84499999959,3.518274e-05,583.84499999959,1.895285e-05,583.84499999959,1.102068e-05
583.85999999959,3.191961e-05,583.85999999959,3.54305e-05,583.85999999959,1.942488e-05,583.85999999959,1.07777e-05
583.8749999995899,3.157708e-05,583.8749999995899,3.603954e-05,583.8749999995899,2.040939e-05,583.8749999995899,1.048756e-05
583.8899999995899,3.089977e-05,583.8899999995899,3.742775e-05,583.8899999995899,2.074348e-05,583.8899999995899,1.043369e-05
583.9049999995899,3.186882e-05,583.9049999995899,3.790123e-05,583.9049999995899,1.986303e-05,583.9049999995899,9.815953e-06
583.9199999995899,3.196636e-05,583.9199999995899,3.800664e-05,583.9199999995899,2.098652e-05,583.9199999995899,9.327345e-06
583.9349999995899,3.375356e-05,583.9349999995899,3.944779e-05,583.9349999995899,2.208222e-05,583.9349999995899,8.854743e-06
583.9499999995899,3.378693e-05,583.9499999995899,4.123766e-05,583.9499999995899,2.273412e-05,583.9499999995899,8.859515e-06
583.9649999995898,3.346436e-05,583.9649999995898,4.341426e-05,583.9649999995898,2.337869e-05,583.9649999995898,8.736227e-06
583.9799999995898,3.243271e-05,583.9799999995898,4.275183e-05,583.9799999995898,2.520032e-05,583.9799999995898,8.5108e-06
583.9949999995898,3.186263e-05,583.9949999995898,4.302936e-05,583.9949999995898,2.423199e-05,583.9949999995898,8.614445e-06
584.0099999995898,3.276115e-05,584.0099999995898,4.304212e-05,584.0099999995898,2.474851e-05,584.0099999995898,8.419275e-06
584.0249999995898,3.33598e-05,584.0249999995898,4.30539e-05,584.0249999995898,2.555446e-05,584.0249999995898,8.250264e-06
584.0399999995898,3.318325e-05,584.0399999995898,4.273008e-05,584.0399999995898,2.66389e-05,584.0399999995898,8.03926e-06
584.0549999995898,3.278307e-05,584.0549999995898,4.320056e-05,584.0549999995898,2.750782e-05,584.0549999995898,7.913874e-06
584.0699999995898,3.438329e-05,584.0699999995898,4.313203e-05,584.0699999995898,2.761005e-05,584.0699999995898,8.065501e-06
584.0849999995897,3.211452e-05,584.0849999995897,4.383983e-05,584.0849999995897,2.747144e-05,584.0849999995897,8.43432e-06
584.0999999995897,3.238273e-05,584.0999999995897,4.290806e-05,584.0999999995897,2.971785e-05,584.0999999995897,8.03926e-06
584.1149999995897,3.199763e-05,584.1149999995897,4.311178e-05,584.1149999995897,3.20447e-05,584.1149999995897,8.068993e-06
584.1299999995897,3.229212e-05,584.1299999995897,4.282656e-05,584.1299999995897,3.489287e-05,584.1299999995897,8.402527e-06
584.1449999995897,3.323373e-05,584.1449999995897,4.179379e-05,584.1449999995897,3.849973e-05,584.1449999995897,8.397496e-06
584.1599999995897,3.351483e-05,584.1599999995897,4.26499e-05,584.1599999995897,4.022678e-05,584.1599999995897,8.432649e-06
584.1749999995897,3.310377e-05,584.1749999995897,4.230234e-05,584.1749999995897,3.98001e-05,584.1749999995897,8.566891e-06
584.1899999995896,3.046868e-05,584.1899999995896,4.172767e-05,584.1899999995896,3.92193e-05,584.1899999995896,8.755555e-06
584.2049999995896,3.06875e-05,584.2049999995896,3.981248e-05,584.2049999995896,3.904903e-05,584.2049999995896,9.136613e-06
584.2199999995896,3.046776e-05,584.2199999995896,3.875355e-05,584.2199999995896,3.839237e-05,584.2199999995896,9.147398e-06
584.2349999995896,3.101444e-05,584.2349999995896,3.762482e-05,584.2349999995896,3.801035e-05,584.2349999995896,9.179681e-06
584.2499999995896,2.994028e-05,584.2499999995896,3.801813e-05,584.2499999995896,3.765551e-05,584.2499999995896,8.933933e-06
584.2649999995896,2.981675e-05,584.2649999995896,4.006431e-05,584.2649999995896,3.69802e-05,584.2649999995896,8.884918e-06
584.2799999995896,2.791349e-05,584.2799999995896,4.162932e-05,584.2799999995896,3.647778e-05,584.2799999995896,8.758771e-06
584.2949999995895,2.851659e-05,584.2949999995895,4.313268e-05,584.2949999995895,3.631367e-05,584.2949999995895,8.598076e-06
584.3099999995895,2.810811e-05,584.3099999995895,4.365242e-05,584.3099999995895,3.611451e-05,584.3099999995895,8.301328e-06
584.3249999995895,2.538467e-05,584.3249999995895,4.231798e-05,584.3249999995895,3.601686e-05,584.3249999995895,7.95825e-06
584.3399999995895,2.526786e-05,584.3399999995895,4.196533e-05,584.3399999995895,3.545713e-05,584.3399999995895,7.664298e-06
584.3549999995895,2.491699e-05,584.3549999995895,4.171653e-05,584.3549999995895,3.218857e-05,584.3549999995895,7.697311e-06
584.3699999995895,2.358805e-05,584.3699999995895,4.282492e-05,584.3699999995895,3.060569e-05,584.3699999995895,7.295169e-06
584.3849999995895,2.181717e-05,584.3849999995895,4.641874e-05,584.3849999995895,2.3296e-05,584.3849999995895,7.15282e-06
584.3999999995895,1.84107e-05,584.3999999995895,4.558243e-05,584.3999999995895,2.096772e-05,584.3999999995895,7.125195e-06
584.4149999995894,1.728521e-05,584.4149999995894,4.392169e-05,584.4149999995894,1.851142e-05,584.4149999995894,7.021637e-06
584.4299999995894,1.70555e-05,584.4299999995894,4.539631e-05,584.4299999995894,1.798182e-05,584.4299999995894,6.673986e-06
584.4449999995894,1.708356e-05,584.4449999995894,4.540221e-05,584.4449999995894,1.840228e-05,584.4449999995894,5.879517e-06
584.4599999995894,1.637799e-05,584.4599999995894,5.005651e-05,584.4599999995894,1.744744e-05,584.4599999995894,5.490492e-06
584.4749999995894,1.460288e-05,584.4749999995894,5.25888e-05,584.4749999995894,1.691701e-05,584.4749999995894,5.462197e-06
584.4899999995894,1.228973e-05,584.4899999995894,5.417346e-05,584.4899999995894,1.641579e-05,584.4899999995894,5.639834e-06
584.5049999995894,1.183307e-05,584.5049999995894,5.743388e-05,584.5049999995894,1.646036e-05,584.5049999995894,5.908198e-06
584.5199999995893,1.237426e-05,584.5199999995893,5.910367e-05,584.5199999995893,1.586331e-05,584.5199999995893,6.028569e-06
584.5349999995893,1.348551e-05,584.5349999995893,6.091818e-05,584.5349999995893,1.553762e-05,584.5349999995893,6.049562e-06
584.5499999995893,1.592977e-05,584.5499999995893,6.596283e-05,584.5499999995893,1.533778e-05,584.5499999995893,6.420096e-06
584.5649999995893,1.746197e-05,584.5649999995893,6.569127e-05,584.5649999995893,1.469136e-05,584.5649999995893,6.298262e-06
584.5799999995893,1.95629e-05,584.5799999995893,6.893436e-05,584.5799999995893,1.523365e-05,584.5799999995893,6.358363e-06
584.5949999995893,2.006413e-05,584.5949999995893,6.855712e-05,584.5949999995893,1.482879e-05,584.5949999995893,6.509435e-06
584.6099999995893,2.164344e-05,584.6099999995893,6.949141e-05,584.6099999995893,1.476215e-05,584.6099999995893,6.528882e-06
584.6249999995892,2.30498e-05,584.6249999995892,7.001406e-05,584.6249999995892,1.504663e-05,584.6249999995892,6.524566e-06
584.6399999995892,2.424942e-05,584.6399999995892,6.923918e-05,584.6399999995892,1.494707e-05,584.6399999995892,6.417902e-06
584.6549999995892,2.477127e-05,584.6549999995892,7.602163e-05,584.6549999995892,1.478884e-05,584.6549999995892,6.565459e-06
584.6699999995892,2.623822e-05,584.6699999995892,7.627488e-05,584.6699999995892,1.366194e-05,584.6699999995892,6.795303e-06
584.6849999995892,2.837496e-05,584.6849999995892,7.761462e-05,584.6849999995892,1.35875e-05,584.6849999995892,6.896133e-06
584.6999999995892,2.852598e-05,584.6999999995892,7.59942e-05,584.6999999995892,1.280504e-05,584.6999999995892,6.912455e-06
584.7149999995892,2.940669e-05,584.7149999995892,7.406907e-05,584.7149999995892,1.314593e-05,584.7149999995892,6.936866e-06
584.7299999995892,2.967848e-05,584.7299999995892,7.1921e-05,584.7299999995892,1.21096e-05,584.7299999995892,6.844875e-06
584.7449999995891,3.024269e-05,584.7449999995891,7.275814e-05,584.7449999995891,1.213865e-05,584.7449999995891,6.770382e-06
584.7599999995891,3.038118e-05,584.7599999995891,6.902829e-05,584.7599999995891,1.213052e-05,584.7599999995891,6.42229e-06
584.7749999995891,3.031341e-05,584.7749999995891,6.742402e-05,584.7749999995891,1.262222e-05,584.7749999995891,6.690851e-06
584.7899999995891,2.908494e-05,584.7899999995891,6.350028e-05,584.7899999995891,1.214677e-05,584.7899999995891,6.791156e-06
584.8049999995891,2.787056e-05,584.8049999995891,5.912726e-05,584.8049999995891,1.197272e-05,584.8049999995891,6.932803e-06
584.8199999995891,2.792206e-05,584.8199999995891,5.905646e-05,584.8199999995891,1.165918e-05,584.8199999995891,6.989465e-06
584.8349999995891,2.74011e-05,584.8349999995891,5.669256e-05,584.8349999995891,1.107805e-05,584.8349999995891,7.16266e-06
584.849999999589,2.776878e-05,584.849999999589,5.74405e-05,584.849999999589,1.106533e-05,584.849999999589,7.081567e-06
584.864999999589,2.604044e-05,584.864999999589,5.622499e-05,584.864999999589,1.124089e-05,584.864999999589,7.264208e-06
584.879999999589,2.636569e-05,584.879999999589,5.618764e-05,584.879999999589,1.107678e-05,584.879999999589,7.607108e-06
584.894999999589,2.517739e-05,584.894999999589,5.339321e-05,584.894999999589,1.099124e-05,584.894999999589,8.392462e-06
584.909999999589,2.428309e-05,584.909999999589,4.710736e-05,584.909999999589,1.151206e-05,584.909999999589,8.299631e-06
584.924999999589,2.364471e-05,584.924999999589,4.456579e-05,584.924999999589,1.154993e-05,584.924999999589,8.504177e-06
584.939999999589,2.201834e-05,584.939999999589,4.371208e-05,584.939999999589,1.175424e-05,584.939999999589,8.477633e-06
584.954999999589,2.176028e-05,584.954999999589,4.428008e-05,584.954999999589,1.184735e-05,584.954999999589,8.547137e-06
584.9699999995889,2.30388e-05,584.9699999995889,4.391977e-05,584.9699999995889,1.155846e-05,584.9699999995889,8.499207e-06
584.9849999995889,2.201514e-05,584.9849999995889,4.42909e-05,584.9849999995889,1.143225e-05,584.9849999995889,9.551197e-06
584.9999999995889,2.288728e-05,584.9999999995889,4.177558e-05,584.9999999995889,1.208281e-05,584.9999999995889,9.687388e-06
585.0149999995889,2.397308e-05,585.0149999995889,4.186485e-05,585.0149999995889,1.201266e-05,585.0149999995889,9.821691e-06
585.0299999995889,2.582588e-05,585.0299999995889,4.44715e-05,585.0299999995889,1.135559e-05,585.0299999995889,9.52757e-06
585.0449999995889,2.720867e-05,585.0449999995889,4.862242e-05,585.0449999995889,1.166281e-05,585.0449999995889,9.551197e-06
585.0599999995889,2.741549e-05,585.0599999995889,5.065044e-05,585.0599999995889,1.192557e-05,585.0599999995889,9.37705e-06
585.0749999995888,2.706071e-05,585.0749999995888,4.992097e-05,585.0749999995888,1.235831e-05,585.0749999995888,9.240859e-06
585.0899999995888,2.701486e-05,585.0899999995888,4.879363e-05,585.0899999995888,1.328344e-05,585.0899999995888,9.253046e-06
585.1049999995888,2.614141e-05,585.1049999995888,4.725903e-05,585.1049999995888,1.331839e-05,585.1049999995888,9.233234e-06
585.1199999995888,2.991486e-05,585.1199999995888,4.864183e-05,585.1199999995888,1.342059e-05,585.1199999995888,8.960697e-06
585.1349999995888,3.00497e-05,585.1349999995888,5.00002e-05,585.1349999995888,1.387576e-05,585.1349999995888,8.500864e-06
585.1499999995888,3.036587e-05,585.1499999995888,5.007705e-05,585.1499999995888,1.368357e-05,585.1499999995888,8.21433e-06
585.1649999995888,3.201039e-05,585.1649999995888,4.974401e-05,585.1649999995888,1.331522e-05,585.1649999995888,8.533942e-06
585.1799999995887,3.233832e-05,585.1799999995887,4.989077e-05,585.1799999995887,1.423655e-05,585.1799999995887,8.404203e-06
585.1949999995887,3.198574e-05,585.1949999995887,4.849536e-05,585.1949999995887,1.458841e-05,585.1949999995887,8.677985e-06
585.2099999995887,3.309185e-05,585.2099999995887,4.799432e-05,585.2099999995887,1.606625e-05,585.2099999995887,9.295575e-06
585.2249999995887,3.286718e-05,585.2249999995887,5.175938e-05,585.2249999995887,1.590942e-05,585.2249999995887,1.147406e-05
585.2399999995887,3.341971e-05,585.2399999995887,5.815922e-05,585.2399999995887,1.616241e-05,585.2399999995887,1.170982e-05
585.2549999995887,3.304968e-05,585.2549999995887,5.937404e-05,585.2549999995887,1.55874e-05,585.2549999995887,1.227826e-05
585.2699999995887,3.117164e-05,585.2699999995887,6.045719e-05,585.2699999995887,1.562531e-05,585.2699999995887,1.269455e-05
585.2849999995886,3.023244e-05,585.2849999995886,6.000323e-05,585.2849999995886,1.541839e-05,585.2849999995886,1.424545e-05
585.2999999995886,2.909123e-05,585.2999999995886,5.88141e-05,585.2999999995886,1.533962e-05,585.2999999995886,1.473062e-05
585.3149999995886,2.87493e-05,585.3149999995886,6.043132e-05,585.3149999995886,1.543757e-05,585.3149999995886,1.553127e-05
585.3299999995886,2.952048e-05,585.3299999995886,6.246518e-05,585.3299999995886,1.504476e-05,585.3299999995886,1.617025e-05
585.3449999995886,2.997084e-05,585.3449999995886,6.324353e-05,585.3449999995886,1.436754e-05,585.3449999995886,1.670332e-05
585.3599999995886,3.116441e-05,585.3599999995886,6.540071e-05,585.3599999995886,1.810439e-05,585.3599999995886,1.938931e-05
585.3749999995886,2.95033e-05,585.3749999995886,6.796962e-05,585.3749999995886,1.802485e-05,585.3749999995886,2.155867e-05
585.3899999995886,3.021333e-05,585.3899999995886,6.842158e-05,585.3899999995886,1.827323e-05,585.3899999995886,2.230438e-05
585.4049999995885,2.878896e-05,585.4049999995885,6.891392e-05,585.4049999995885,1.838773e-05,585.4049999995885,2.476217e-05
585.4199999995885,2.862162e-05,585.4199999995885,7.275292e-05,585.4199999995885,1.809739e-05,585.4199999995885,2.765542e-05
585.4349999995885,2.821016e-05,585.4349999995885,7.265469e-05,585.4349999995885,1.738516e-05,585.4349999995885,3.519795e-05
585.4499999995885,2.7915e-05,585.4499999995885,7.350934e-05,585.4499999995885,1.612139e-05,585.4499999995885,4.062541e-05
585.4649999995885,2.645636e-05,585.4649999995885,7.178259e-05,585.4649999995885,1.580637e-05,585.4649999995885,4.070439e-05
585.4799999995885,2.561723e-05,585.4799999995885,7.487355e-05,585.4799999995885,1.582775e-05,585.4799999995885,4.23978e-05
585.4949999995885,2.614248e-05,585.4949999995885,7.301982e-05,585.4949999995885,1.582152e-05,585.4949999995885,4.476669e-05
585.5099999995884,2.657059e-05,585.5099999995884,7.379642e-05,585.5099999995884,1.608465e-05,585.5099999995884,4.548188e-05
585.5249999995884,2.680022e-05,585.5249999995884,7.794189e-05,585.5249999995884,1.612139e-05,585.5249999995884,4.526922e-05
585.5399999995884,2.68564e-05,585.5399999995884,7.717488e-05,585.5399999995884,1.655167e-05,585.5399999995884,4.522034e-05
585.5549999995884,2.620975e-05,585.5549999995884,7.510818e-05,585.5549999995884,1.712309e-05,585.5549999995884,4.514084e-05
585.5699999995884,2.562877e-05,585.5699999995884,7.445301e-05,585.5699999995884,1.74321e-05,585.5699999995884,4.481575e-05
585.5849999995884,2.384582e-05,585.5849999995884,7.587826e-05,585.5849999995884,1.75304e-05,585.5849999995884,4.463685e-05
585.5999999995884,2.599388e-05,585.5999999995884,7.5622e-05,585.5999999995884,1.760978e-05,585.5999999995884,4.452247e-05
585.6149999995883,2.369648e-05,585.6149999995883,7.238429e-05,585.6149999995883,1.546583e-05,585.6149999995883,4.319078e-05
585.6299999995883,2.29211e-05,585.6299999995883,7.109065e-05,585.6299999995883,1.961252e-05,585.6299999995883,4.254076e-05
585.6449999995883,2.34971e-05,585.6449999995883,6.897951e-05,585.6449999995883,1.959096e-05,585.6449999995883,4.203878e-05
585.6599999995883,3.375022e-05,585.6599999995883,6.690724e-05,585.6599999995883,2.058738e-05,585.6599999995883,4.003125e-05
585.6749999995883,3.405313e-05,585.6749999995883,6.439835e-05,585.6749999995883,2.115899e-05,585.6749999995883,3.711177e-05
585.6899999995883,3.589816e-05,585.6899999995883,6.405115e-05,585.6899999995883,2.23643e-05,585.6899999995883,3.055963e-05
585.7049999995883,3.616635e-05,585.7049999995883,6.535266e-05,585.7049999995883,2.469723e-05,585.7049999995883,2.535079e-05
585.7199999995883,3.698858e-05,585.7199999995883,6.398073e-05,585.7199999995883,2.584224e-05,585.7199999995883,2.484055e-05
585.7349999995882,3.688447e-05,585.7349999995882,5.626656e-05,585.7349999995882,2.699765e-05,585.7349999995882,2.232458e-05
585.7499999995882,3.60708e-05,585.7499999995882,5.540144e-05,585.7499999995882,2.706904e-05,585.7499999995882,2.042112e-05
585.7649999995882,3.581684e-05,585.7649999995882,5.284106e-05,585.7649999995882,2.77566e-05,585.7649999995882,1.976492e-05
585.7799999995882,3.602038e-05,585.7799999995882,4.561641e-05,585.7799999995882,2.893197e-05,585.7799999995882,1.961827e-05
585.7949999995882,3.775638e-05,585.7949999995882,4.551501e-05,585.7949999995882,2.944259e-05,585.7949999995882,1.92676e-05
585.8099999995882,3.787744e-05,585.8099999995882,4.520414e-05,585.8099999995882,2.955386e-05,585.8099999995882,1.946689e-05
585.8249999995882,3.794135e-05,585.8249999995882,4.352736e-05,585.8249999995882,2.945216e-05,585.8249999995882,1.961755e-05
585.8399999995881,3.794098e-05,585.8399999995881,4.121579e-05,585.8399999995881,2.974486e-05,585.8399999995881,1.933037e-05
585.8549999995881,3.57511e-05,585.8549999995881,3.971648e-05,585.8549999995881,2.966139e-05,585.8549999995881,1.907804e-05
585.8699999995881,3.574125e-05,585.8699999995881,4.206357e-05,585.8699999995881,2.907428e-05,585.8699999995881,1.920242e-05
585.8849999995881,3.561372e-05,585.8849999995881,4.591866e-05,585.8849999995881,2.669647e-05,585.8849999995881,1.915689e-05
585.8999999995881,2.662409e-05,585.8999999995881,4.690658e-05,585.8999999995881,2.69517e-05,585.8999999995881,1.841299e-05
585.9149999995881,2.458805e-05,585.9149999995881,4.79632e-05,585.9149999995881,2.604423e-05,585.9149999995881,1.803579e-05
585.9299999995881,2.389598e-05,585.9299999995881,5.002442e-05,585.9299999995881,2.576199e-05,585.9299999995881,1.771267e-05
585.944999999588,2.24272e-05,585.944999999588,5.152234e-05,585.944999999588,2.388596e-05,585.944999999588,1.33659e-05
585.959999999588,2.197864e-05,585.959999999588,4.914258e-05,585.959999999588,2.217771e-05,585.959999999588,1.172424e-05
585.974999999588,2.169739e-05,585.974999999588,4.927941e-05,585.974999999588,2.078215e-05,585.974999999588,1.146547e-05
585.989999999588,2.227467e-05,585.989999999588,4.979043e-05,585.989999999588,1.947268e-05,585.989999999588,1.038497e-05
586.004999999588,2.225443e-05,586.004999999588,5.126002e-05,586.004999999588,1.909354e-05,586.004999999588,8.301328e-06
586.019999999588,2.345089e-05,586.019999999588,5.252314e-05,586.019999999588,1.671091e-05,586.019999999588,8.240013e-06
586.034999999588,2.449391e-05,586.034999999588,5.516881e-05,586.034999999588,1.594126e-05,586.034999999588,8.217759e-06
586.049999999588,2.476217e-05,586.049999999588,5.628684e-05,586.049999999588,1.459516e-05,586.049999999588,7.892485e-06
586.0649999995879,2.799009e-05,586.0649999995879,5.711439e-05,586.0649999995879,1.801e-05,586.0649999995879,7.329844e-06
586.0799999995879,3.374688e-05,586.0799999995879,5.743339e-05,586.0799999995879,1.873155e-05,586.0799999995879,7.095478e-06
586.0949999995879,3.592366e-05,586.0949999995879,5.850022e-05,586.0949999995879,1.817118e-05,586.0949999995879,7.302889e-06
586.1099999995879,3.837916e-05,586.1099999995879,6.431057e-05,586.1099999995879,1.796928e-05,586.1099999995879,6.906339e-06
586.1249999995879,3.852497e-05,586.1249999995879,6.450108e-05,586.1249999995879,1.830634e-05,586.1249999995879,6.548272e-06
586.1399999995879,4.056226e-05,586.1399999995879,6.613494e-05,586.1399999995879,1.819752e-05,586.1399999995879,6.665538e-06
586.1549999995879,4.122023e-05,586.1549999995879,6.759117e-05,586.1549999995879,1.868412e-05,586.1549999995879,6.797376e-06
586.1699999995878,4.310883e-05,586.1699999995878,6.629642e-05,586.1699999995878,1.900258e-05,586.1699999995878,6.803591e-06
586.1849999995878,4.660197e-05,586.1849999995878,6.436094e-05,586.1849999995878,2.012512e-05,586.1849999995878,6.722357e-06
586.1999999995878,6.079619e-05,586.1999999995878,6.290787e-05,586.1999999995878,2.110233e-05,586.1999999995878,6.778699e-06
586.2149999995878,6.252965e-05,586.2149999995878,6.323797e-05,586.2149999995878,2.107895e-05,586.2149999995878,7.205797e-06
586.2299999995878,6.646808e-05,586.2299999995878,6.317311e-05,586.2299999995878,2.146109e-05,586.2299999995878,7.381551e-06
586.2449999995878,6.973343e-05,586.2449999995878,6.204522e-05,586.2449999995878,2.156324e-05,586.2449999995878,7.442368e-06
586.2599999995878,7.04021e-05,586.2599999995878,6.113607e-05,586.2599999995878,2.156128e-05,586.2599999995878,7.463159e-06
586.2749999995877,7.183947e-05,586.2749999995877,6.066537e-05,586.2749999995877,2.176934e-05,586.2749999995877,7.497057e-06
586.2899999995877,7.430396e-05,586.2899999995877,5.731259e-05,586.2899999995877,2.161153e-05,586.2899999995877,7.186222e-06
586.3049999995877,7.549877e-05,586.3049999995877,5.708232e-05,586.3049999995877,2.162651e-05,586.3049999995877,7.502692e-06
586.3199999995877,7.474513e-05,586.3199999995877,5.658686e-05,586.3199999995877,1.824391e-05,586.3199999995877,7.50457e-06
586.3349999995877,7.286629e-05,586.3349999995877,5.367057e-05,586.3349999995877,1.759938e-05,586.3349999995877,7.444261e-06
586.3499999995877,7.431969e-05,586.3499999995877,5.311361e-05,586.3499999995877,1.724442e-05,586.3499999995877,7.217518e-06
586.3649999995877,7.353559e-05,586.3649999995877,4.545864e-05,586.3649999995877,1.729336e-05,586.3649999995877,7.131124e-06
586.3799999995877,7.401847e-05,586.3799999995877,4.459486e-05,586.3799999995877,1.733729e-05,586.3799999995877,6.940926e-06
586.3949999995876,7.369327e-05,586.3949999995876,4.184936e-05,586.3949999995876,1.731778e-05,586.3949999995876,6.995509e-06
586.4099999995876,7.367377e-05,586.4099999995876,3.841768e-05,586.4099999995876,1.660605e-05,586.4099999995876,6.908378e-06
586.4249999995876,7.374754e-05,586.4249999995876,3.998759e-05,586.4249999995876,1.632889e-05,586.4249999995876,6.869526e-06
586.4399999995876,7.295536e-05,586.4399999995876,3.989766e-05,586.4399999995876,1.420782e-05,586.4399999995876,6.755802e-06
586.4549999995876,6.163999e-05,586.4549999995876,4.007732e-05,586.4549999995876,1.389098e-05,586.4549999995876,6.054217e-06
586.4699999995876,5.772355e-05,586.4699999995876,3.974945e-05,586.4699999995876,1.37452e-05,586.4699999995876,6.631638e-06
586.4849999995876,5.40073e-05,586.4849999995876,3.924371e-05,586.4849999995876,1.356155e-05,586.4849999995876,8.377342e-06
586.4999999995875,5.233936e-05,586.4999999995875,3.961384e-05,586.4999999995875,1.334586e-05,586.4999999995875,8.713623e-06
586.5149999995875,5.422856e-05,586.5149999995875,3.993472e-05,586.5149999995875,1.322818e-05,586.5149999995875,9.568879e-06
586.5299999995875,5.303292e-05,586.5299999995875,3.739913e-05,586.5299999995875,1.265788e-05,586.5299999995875,1.045392e-05
586.5449999995875,4.941243e-05,586.5449999995875,3.738482e-05,586.5449999995875,1.258534e-05,586.5449999995875,1.058249e-05
586.5599999995875,5.775404e-05,586.5599999995875,3.744054e-05,586.5599999995875,1.259876e-05,586.5599999995875,1.103218e-05
586.5749999995875,5.75943e-05,586.5749999995875,3.581369e-05,586.5749999995875,1.255957e-05,586.5749999995875,1.153529e-05
586.5899999995875,5.652882e-05,586.5899999995875,3.44357e-05,586.5899999995875,1.256853e-05,586.5899999995875,1.165676e-05
586.6049999995874,5.38898e-05,586.6049999995874,3.417124e-05,586.6049999995874,1.195153e-05,586.6049999995874,1.226563e-05
586.6199999995874,5.363617e-05,586.6199999995874,2.943207e-05,586.6199999995874,1.162409e-05,586.6199999995874,1.261999e-05
586.6349999995874,5.376864e-05,586.6349999995874,2.874783e-05,586.6349999995874,1.086232e-05,586.6349999995874,1.294182e-05
586.6499999995874,5.281573e-05,586.6499999995874,2.842902e-05,586.6499999995874,1.043369e-05,586.6499999995874,1.315878e-05
586.6649999995874,5.227554e-05,586.6649999995874,2.599984e-05,586.6649999995874,1.008074e-05,586.6649999995874,1.325159e-05
586.6799999995874,5.031923e-05,586.6799999995874,2.683594e-05,586.6799999995874,1.044988e-05,586.6799999995874,1.350952e-05
586.6949999995874,5.119705e-05,586.6949999995874,2.573847e-05,586.6949999995874,1.053312e-05,586.6949999995874,1.356052e-05
586.7099999995874,5.074713e-05,586.7099999995874,2.785539e-05,586.7099999995874,1.086881e-05,586.7099999995874,1.382287e-05
586.7249999995873,5.102783e-05,586.7249999995873,2.9706e-05,586.7249999995873,1.054382e-05,586.7249999995873,1.315343e-05
586.7399999995873,5.109293e-05,586.7399999995873,3.169285e-05,586.7399999995873,1.037276e-05,586.7399999995873,1.247968e-05
586.7549999995873,5.052318e-05,586.7549999995873,3.699848e-05,586.7549999995873,1.093084e-05,586.7549999995873,1.196802e-05
586.7699999995873,4.751972e-05,586.7699999995873,3.671949e-05,586.7699999995873,1.114398e-05,586.7699999995873,1.133946e-05
586.7849999995873,4.742387e-05,586.7849999995873,3.644648e-05,586.7849999995873,1.257414e-05,586.7849999995873,1.066602e-05
586.7999999995873,4.330055e-05,586.7999999995873,3.582667e-05,586.7999999995873,1.31994e-05,586.7999999995873,1.031693e-05
586.8149999995873,4.044888e-05,586.8149999995873,3.678657e-05,586.8149999995873,1.278632e-05,586.8149999995873,9.808774e-06
586.8299999995872,4.084052e-05,586.8299999995872,3.856298e-05,586.8299999995872,1.273554e-05,586.8299999995872,9.1289e-06
586.8449999995872,4.134683e-05,586.8449999995872,3.899597e-05,586.8449999995872,1.242311e-05,586.8449999995872,8.900759e-06
586.8599999995872,4.136249e-05,586.8599999995872,3.935412e-05,586.8599999995872,1.264897e-05,586.8599999995872,8.286042e-06
586.8749999995872,3.911788e-05,586.8749999995872,4.026528e-05,586.8749999995872,1.274771e-05,586.8749999995872,7.766543e-06
586.8899999995872,3.928246e-05,586.8899999995872,4.548838e-05,586.8899999995872,1.285554e-05,586.8899999995872,7.744747e-06
586.9049999995872,3.974484e-05,586.9049999995872,4.633339e-05,586.9049999995872,1.30232e-05,586.9049999995872,7.818965e-06
586.9199999995872,4.025688e-05,586.9199999995872,4.982748e-05,586.9199999995872,1.306208e-05,586.9199999995872,7.350954e-06
586.9349999995871,4.14676e-05,586.9349999995871,5.037016e-05,586.9349999995871,1.356986e-05,586.9349999995871,7.478244e-06
586.9499999995871,4.022643e-05,586.9499999995871,5.268595e-05,586.9499999995871,1.440573e-05,586.9499999995871,8.472646e-06
586.9649999995871,4.256823e-05,586.9649999995871,5.214198e-05,586.9649999995871,1.410833e-05,586.9649999995871,9.502402e-06
586.9799999995871,4.150698e-05,586.9799999995871,5.040454e-05,586.9799999995871,1.49046e-05,586.9799999995871,9.716427e-06
586.9949999995871,3.983972e-05,586.9949999995871,5.230948e-05,586.9949999995871,1.489041e-05,586.9949999995871,1.077378e-05
587.0099999995871,3.979478e-05,587.0099999995871,5.130699e-05,587.0099999995871,1.499036e-05,587.0099999995871,1.125216e-05
587.0249999995871,4.273634e-05,587.0249999995871,5.348679e-05,587.0249999995871,1.429776e-05,587.0249999995871,1.148756e-05
587.039999999587,4.313105e-05,587.039999999587,5.834349e-05,587.039999999587,1.331945e-05,587.039999999587,1.228858e-05
587.054999999587,3.836484e-05,587.054999999587,5.851466e-05,587.054999999587,1.325053e-05,587.054999999587,1.250449e-05
587.069999999587,3.595227e-05,587.069999999587,5.973311e-05,587.069999999587,1.32484e-05,587.069999999587,1.298203e-05
587.084999999587,3.540983e-05,587.084999999587,5.928548e-05,587.084999999587,1.351994e-05,587.084999999587,1.328132e-05
587.099999999587,3.507246e-05,587.099999999587,5.92484e-05,587.099999999587,1.351994e-05,587.099999999587,1.332051e-05
587.114999999587,3.578103e-05,587.114999999587,5.904668e-05,587.114999999587,1.339117e-05,587.114999999587,1.344786e-05
587.129999999587,3.625699e-05,587.129999999587,5.592706e-05,587.129999999587,1.313306e-05,587.129999999587,1.341429e-05
587.144999999587,3.571799e-05,587.144999999587,5.59613e-05,587.144999999587,1.32122e-05,587.144999999587,1.337222e-05
587.159999999587,3.521955e-05,587.159999999587,5.979557e-05,587.159999999587,1.296248e-05,587.159999999587,1.30286e-05
587.1749999995869,3.323881e-05,587.1749999995869,5.675712e-05,587.1749999995869,1.248983e-05,587.1749999995869,1.301346e-05
587.1899999995869,3.221962e-05,587.1899999995869,5.491416e-05,587.1899999995869,1.130586e-05,587.1899999995869,1.306208e-05
587.2049999995869,3.580701e-05,587.2049999995869,5.371202e-05,587.2049999995869,1.090245e-05,587.2049999995869,1.226104e-05
587.2199999995869,3.384483e-05,587.2199999995869,5.435725e-05,587.2199999995869,1.049964e-05,587.2199999995869,1.139151e-05
587.2349999995869,3.594169e-05,587.2349999995869,5.430669e-05,587.2349999995869,9.631973e-06,587.2349999995869,1.1125e-05
587.2499999995869,3.557137e-05,587.2499999995869,5.071659e-05,587.2499999995869,9.426494e-06,587.2499999995869,1.021539e-05
587.2649999995868,3.459242e-05,587.2649999995868,5.193978e-05,587.2649999995868,8.92131e-06,587.2649999995868,9.886021e-06
587.2799999995868,3.458306e-05,587.2799999995868,4.750341e-05,587.2799999995868,9.417524e-06,587.2799999995868,9.420515e-06
587.2949999995868,3.340368e-05,587.2949999995868,4.603814e-05,587.2949999995868,9.474194e-06,587.2949999995868,9.13507e-06
587.3099999995868,3.379235e-05,587.3099999995868,4.620948e-05,587.3099999995868,1.091407e-05,587.3099999995868,9.099535e-06
587.3249999995868,3.45855e-05,587.3249999995868,4.582254e-05,587.3249999995868,1.141745e-05,587.3249999995868,8.58496e-06
587.3399999995868,3.470423e-05,587.3399999995868,4.543385e-05,587.3399999995868,1.344367e-05,587.3399999995868,8.155816e-06
587.3549999995868,3.43587e-05,587.3549999995868,4.616526e-05,587.3549999995868,1.472297e-05,587.3549999995868,8.145445e-06
587.3699999995868,3.390638e-05,587.3699999995868,4.633764e-05,587.3699999995868,1.865016e-05,587.3699999995868,7.90675e-06
587.3849999995867,3.406761e-05,587.3849999995867,4.648636e-05,587.3849999995867,1.986232e-05,587.3849999995867,7.766543e-06
587.3999999995867,3.550993e-05,587.3999999995867,4.472859e-05,587.3999999995867,2.165906e-05,587.3999999995867,7.364355e-06
587.4149999995867,3.535887e-05,587.4149999995867,4.109394e-05,587.4149999995867,2.34617e-05,587.4149999995867,7.383459e-06
587.4299999995867,3.679422e-05,587.4299999995867,4.172733e-05,587.4299999995867,2.394133e-05,587.4299999995867,7.487657e-06
587.4449999995867,3.620645e-05,587.4449999995867,4.335387e-05,587.4449999995867,2.510342e-05,587.4449999995867,7.448044e-06
587.4599999995867,3.643063e-05,587.4599999995867,4.25136e-05,587.4599999995867,2.684591e-05,587.4599999995867,7.947621e-06
587.4749999995867,3.607392e-05,587.4749999995867,4.256195e-05,587.4749999995867,2.770529e-05,587.4749999995867,7.931653e-06
587.4899999995866,3.45859e-05,587.4899999995866,4.213283e-05,587.4899999995866,2.909607e-05,587.4899999995866,7.951166e-06
587.5049999995866,3.53214e-05,587.5049999995866,4.159818e-05,587.5049999995866,2.939471e-05,587.5049999995866,7.737468e-06
587.5199999995866,3.578773e-05,587.5199999995866,4.023658e-05,587.5199999995866,2.995768e-05,587.5199999995866,8.350395e-06
587.5349999995866,3.243011e-05,587.5349999995866,4.084879e-05,587.5349999995866,3.078879e-05,587.5349999995866,8.627516e-06
587.5499999995866,3.348666e-05,587.5499999995866,4.254473e-05,587.5499999995866,3.095761e-05,587.5499999995866,9.31223e-06
587.5649999995866,3.299593e-05,587.5649999995866,4.106959e-05,587.5649999995866,3.200776e-05,587.5649999995866,1.019192e-05
587.5799999995866,3.391469e-05,587.5799999995866,4.676191e-05,587.5799999995866,3.223667e-05,587.5799999995866,1.300588e-05
587.5949999995865,3.400843e-05,587.5949999995865,4.775422e-05,587.5949999995865,3.222531e-05,587.5949999995865,1.378409e-05
587.6099999995865,3.431604e-05,587.6099999995865,4.904502e-05,587.6099999995865,3.179935e-05,587.6099999995865,1.419989e-05
587.6249999995865,3.417e-05,587.6249999995865,5.159938e-05,587.6249999995865,3.046452e-05,587.6249999995865,1.467697e-05
587.6399999995865,3.222968e-05,587.6399999995865,5.875874e-05,587.6399999995865,3.063927e-05,587.6399999995865,1.502509e-05
587.6549999995865,3.199939e-05,587.6549999995865,6.159861e-05,587.6549999995865,2.916329e-05,587.6549999995865,1.507376e-05
587.6699999995865,3.248436e-05,587.6699999995865,6.221028e-05,587.6699999995865,2.903986e-05,587.6699999995865,1.501195e-05
587.6849999995865,3.173372e-05,587.6849999995865,6.525774e-05,587.6849999995865,2.87963e-05,587.6849999995865,1.494801e-05
587.6999999995865,3.084775e-05,587.6999999995865,6.557043e-05,587.6999999995865,2.868455e-05,587.6999999995865,1.494424e-05
587.7149999995864,2.693026e-05,587.7149999995864,6.643141e-05,587.7149999995864,2.698565e-05,587.7149999995864,1.483544e-05
587.7299999995864,2.642546e-05,587.7299999995864,6.682466e-05,587.7299999995864,2.636249e-05,587.7299999995864,1.494424e-05
587.7449999995864,2.673865e-05,587.7449999995864,6.861504e-05,587.7449999995864,2.526006e-05,587.7449999995864,1.495178e-05
587.7599999995864,2.611283e-05,587.7599999995864,6.889246e-05,587.7599999995864,2.465156e-05,587.7599999995864,1.484588e-05
587.7749999995864,2.525448e-05,587.7749999995864,7.066553e-05,587.7749999995864,2.423083e-05,587.7749999995864,1.459806e-05
587.7899999995864,2.452725e-05,587.7899999995864,7.354919e-05,587.7899999995864,2.332501e-05,587.7899999995864,1.438714e-05
587.8049999995864,2.362146e-05,587.8049999995864,7.465518e-05,587.8049999995864,2.310047e-05,587.8049999995864,1.412828e-05
587.8199999995863,2.290573e-05,587.8199999995863,7.509055e-05,587.8199999995863,2.108697e-05,587.8199999995863,1.346356e-05
587.8349999995863,2.125796e-05,587.8349999995863,7.184281e-05,587.8349999995863,1.987154e-05,587.8349999995863,1.17722e-05
587.8499999995863,2.072241e-05,587.8499999995863,7.167005e-05,587.8499999995863,1.764095e-05,587.8499999995863,1.106915e-05
587.8649999995863,2.025698e-05,587.8649999995863,7.197249e-05,587.8649999995863,1.755048e-05,587.8649999995863,1.07999e-05
587.8799999995863,1.981119e-05,587.8799999995863,7.28162e-05,587.8799999995863,1.615718e-05,587.8799999995863,1.014898e-05
587.8949999995863,1.970067e-05,587.8949999995863,6.833897e-05,587.8949999995863,1.601356e-05,587.8949999995863,9.79584e-06
587.9099999995863,1.936969e-05,587.9099999995863,7.07717e-05,587.9099999995863,1.463565e-05,587.9099999995863,9.958426e-06
587.9249999995862,1.767923e-05,587.9249999995862,7.741872e-05,587.9249999995862,1.350535e-05,587.9249999995862,1.006256e-05
587.9399999995862,1.618679e-05,587.9399999995862,7.890647e-05,587.9399999995862,1.14667e-05,587.9399999995862,1.021401e-05
587.9549999995862,1.796693e-05,587.9549999995862,7.89996e-05,587.9549999995862,1.087399e-05,587.9549999995862,1.012675e-05
587.9699999995862,1.822614e-05,587.9699999995862,8.05804e-05,587.9699999995862,1.06409e-05,587.9699999995862,9.958426e-06
587.9849999995862,1.820681e-05,587.9849999995862,8.059246e-05,587.9849999995862,1.08934e-05,587.9849999995862,9.834591e-06
587.9999999995862,1.721171e-05,587.9999999995862,7.948207e-05,587.9999999995862,1.102068e-05,587.9999999995862,9.78289e-06
588.0149999995862,1.782761e-05,588.0149999995862,7.925258e-05,588.0149999995862,1.035237e-05,588.0149999995862,9.664094e-06
588.0299999995862,1.705054e-05,588.0299999995862,7.628245e-05,588.0299999995862,1.006676e-05,588.0299999995862,9.576237e-06
588.0449999995861,1.781497e-05,588.0449999995861,7.413523e-05,588.0449999995861,9.749715e-06,588.0449999995861,8.990517e-06
588.0599999995861,1.954345e-05,588.0599999995861,7.334858e-05,588.0599999995861,9.65972e-06,588.0599999995861,7.40822e-06
588.0749999995861,1.947051e-05,588.0749999995861,7.418879e-05,588.0749999995861,9.637821e-06,588.0749999995861,6.959168e-06
588.0899999995861,1.979198e-05,588.0899999995861,7.410482e-05,588.0899999995861,1.034828e-05,588.0899999995861,6.382687e-06
588.1049999995861,2.028755e-05,588.1049999995861,7.329767e-05,588.1049999995861,9.848904e-06,588.1049999995861,6.444187e-06
588.1199999995861,2.170583e-05,588.1199999995861,7.008726e-05,588.1199999995861,9.401056e-06,588.1199999995861,6.210422e-06
588.1349999995861,2.174927e-05,588.1349999995861,6.760137e-05,588.1349999995861,9.631973e-06,588.1349999995861,6.196798e-06
588.149999999586,2.164539e-05,588.149999999586,6.517243e-05,588.149999999586,9.79584e-06,588.149999999586,6.351713e-06
588.164999999586,2.148339e-05,588.164999999586,6.222523e-05,588.164999999586,9.92016e-06,588.164999999586,6.906339e-06
588.179999999586,2.137031e-05,588.179999999586,5.258345e-05,588.179999999586,1.054515e-05,588.179999999586,7.049668e-06
588.194999999586,2.128114e-05,588.194999999586,4.76615e-05,588.194999999586,1.029916e-05,588.194999999586,6.747456e-06
588.209999999586,2.174344e-05,588.209999999586,4.639233e-05,588.209999999586,1.066074e-05,588.209999999586,6.836638e-06
588.224999999586,2.398894e-05,588.224999999586,4.320643e-05,588.224999999586,9.813081e-06,588.224999999586,7.364355e-06
588.239999999586,2.531632e-05,588.239999999586,4.177592e-05,588.239999999586,9.756936e-06,588.239999999586,7.46882e-06
588.254999999586,2.483488e-05,588.254999999586,4.202169e-05,588.254999999586,9.116548e-06,588.254999999586,7.63668e-06
588.2699999995859,2.501911e-05,588.2699999995859,4.326801e-05,588.2699999995859,9.207261e-06,588.2699999995859,7.625604e-06
588.2849999995859,2.532021e-05,588.2849999995859,4.309838e-05,588.2849999995859,9.193482e-06,588.2849999995859,7.71011e-06
588.2999999995859,2.665106e-05,588.2999999995859,4.176412e-05,588.2999999995859,9.313742e-06,588.2999999995859,8.166172e-06
588.3149999995859,2.706904e-05,588.3149999995859,4.286963e-05,588.3149999995859,9.219493e-06,588.3149999995859,8.219473e-06
588.3299999995859,2.840672e-05,588.3299999995859,4.215723e-05,588.3299999995859,9.33791e-06,588.3299999995859,8.234882e-06
588.3449999995859,3.083999e-05,588.3449999995859,4.19613e-05,588.3449999995859,8.673113e-06,588.3449999995859,8.115992e-06
588.3599999995859,3.038164e-05,588.3599999995859,4.242271e-05,588.3599999995859,8.643829e-06,588.3599999995859,8.226325e-06
588.3749999995858,3.085825e-05,588.3749999995858,4.290182e-05,588.3749999995858,8.803689e-06,588.3749999995858,8.275836e-06
588.3899999995858,3.230607e-05,588.3899999995858,4.893518e-05,588.3899999995858,9.175076e-06,588.3899999995858,8.240013e-06
588.4049999995858,3.336275e-05,588.4049999995858,5.21509e-05,588.4049999995858,1.116923e-05,588.4049999995858,7.940529e-06
588.4199999995858,3.404403e-05,588.4199999995858,5.288796e-05,588.4199999995858,1.144825e-05,588.4199999995858,7.057657e-06
588.4349999995858,3.481648e-05,588.4349999995858,5.140381e-05,588.4349999995858,1.144948e-05,588.4349999995858,6.914493e-06
588.4499999995858,3.600396e-05,588.4499999995858,5.17455e-05,588.4499999995858,1.235033e-05,588.4499999995858,7.037669e-06
588.4649999995858,3.538873e-05,588.4649999995858,5.192188e-05,588.4649999995858,1.226334e-05,588.4649999995858,6.778699e-06
588.4799999995857,3.47452e-05,588.4799999995857,5.671342e-05,588.4799999995857,1.32792e-05,588.4799999995857,6.415707e-06
588.4949999995857,3.488237e-05,588.4949999995857,5.812869e-05,588.4949999995857,1.611965e-05,588.4949999995857,6.53104e-06
588.5099999995857,3.479908e-05,588.5099999995857,5.783301e-05,588.5099999995857,1.626926e-05,588.5099999995857,6.973323e-06
588.5249999995857,3.476141e-05,588.5249999995857,5.645027e-05,588.5249999995857,1.654912e-05,588.5249999995857,7.158726e-06
588.5399999995857,3.523155e-05,588.5399999995857,5.650365e-05,588.5399999995857,1.668307e-05,588.5399999995857,7.207752e-06
588.5549999995857,3.349801e-05,588.5549999995857,5.798432e-05,588.5549999995857,1.735353e-05,588.5549999995857,6.918566e-06
588.5699999995857,3.317603e-05,588.5699999995857,5.699711e-05,588.5699999995857,1.771346e-05,588.5699999995857,6.920602e-06
588.5849999995856,3.14658e-05,588.5849999995856,5.686028e-05,588.5849999995856,1.876762e-05,588.5849999995856,7.041671e-06
588.5999999995856,3.130467e-05,588.5999999995856,5.814129e-05,588.5999999995856,1.943213e-05,588.5999999995856,7.682656e-06
588.6149999995856,3.13905e-05,588.6149999995856,6.843043e-05,588.6149999995856,1.963477e-05,588.6149999995856,7.817162e-06
588.6299999995856,3.1969e-05,588.6299999995856,6.790596e-05,588.6299999995856,1.946979e-05,588.6299999995856,7.771981e-06
588.6449999995856,3.098944e-05,588.6449999995856,6.672825e-05,588.6449999995856,1.941255e-05,588.6449999995856,8.319974e-06
588.6599999995856,3.108475e-05,588.6599999995856,6.43327e-05,588.6599999995856,1.845502e-05,588.6599999995856,9.074732e-06
588.6749999995856,3.131502e-05,588.6749999995856,6.381561e-05,588.6749999995856,1.835246e-05,588.6749999995856,9.863196e-06
588.6899999995856,3.049225e-05,588.6899999995856,6.417814e-05,588.6899999995856,1.769198e-05,588.6899999995856,1.090245e-05
588.7049999995855,3.025666e-05,588.7049999995855,6.477111e-05,588.7049999995855,1.784025e-05,588.7049999995855,1.105896e-05
588.7199999995855,3.086419e-05,588.7199999995855,6.503546e-05,588.7199999995855,1.951099e-05,588.7199999995855,1.133697e-05
588.7349999995855,3.006189e-05,588.7349999995855,6.088764e-05,588.7349999995855,1.952181e-05,588.7349999995855,1.195624e-05
588.7499999995855,3.005673e-05,588.7499999995855,6.018724e-05,588.7499999995855,1.822073e-05,588.7499999995855,1.227023e-05
588.7649999995855,2.961196e-05,588.7649999995855,5.982525e-05,588.7649999995855,1.828324e-05,588.7649999995855,1.197037e-05
588.7799999995855,2.951141e-05,588.7799999995855,6.0292e-05,588.7799999995855,1.802016e-05,588.7799999995855,1.29983e-05
588.7949999995855,2.878455e-05,588.7949999995855,5.986832e-05,588.7949999995855,1.834785e-05,588.7949999995855,1.327602e-05
588.8099999995854,2.861965e-05,588.8099999995854,5.872229e-05,588.8099999995854,1.767366e-05,588.8099999995854,1.324202e-05
588.8249999995854,2.842803e-05,588.8249999995854,5.786784e-05,588.8249999995854,1.708603e-05,588.8249999995854,1.35314e-05
588.8399999995854,2.847952e-05,588.8399999995854,5.908389e-05,588.8399999995854,1.605222e-05,588.8399999995854,1.33796e-05
588.8549999995854,2.708829e-05,588.8549999995854,5.753729e-05,588.8549999995854,1.549768e-05,588.8549999995854,1.323457e-05
588.8699999995854,2.725832e-05,588.8699999995854,4.640326e-05,588.8699999995854,1.541017e-05,588.8699999995854,1.319833e-05
588.8849999995854,2.481729e-05,588.8849999995854,4.774183e-05,588.8849999995854,1.523919e-05,588.8849999995854,1.293202e-05
588.8999999995854,2.538689e-05,588.8999999995854,4.592632e-05,588.8999999995854,1.506628e-05,588.8999999995854,1.260994e-05
588.9149999995853,2.526173e-05,588.9149999995853,4.623599e-05,588.9149999995853,1.577247e-05,588.9149999995853,1.216183e-05
588.9299999995853,2.483999e-05,588.9299999995853,4.637654e-05,588.9299999995853,1.70431e-05,588.9299999995853,1.166643e-05
588.9449999995853,2.526229e-05,588.9449999995853,4.58849e-05,588.9449999995853,1.700753e-05,588.9449999995853,1.077378e-05
588.9599999995853,2.450426e-05,588.9599999995853,4.615976e-05,588.9599999995853,1.675636e-05,588.9599999995853,1.052777e-05
588.9749999995853,2.24272e-05,588.9749999995853,4.496606e-05,588.9749999995853,1.499881e-05,588.9749999995853,1.009471e-05
588.9899999995853,2.19151e-05,588.9899999995853,4.572005e-05,588.9899999995853,1.458551e-05,588.9899999995853,9.68448e-06
589.0049999995853,2.180296e-05,589.0049999995853,4.782408e-05,589.0049999995853,1.432729e-05,589.0049999995853,9.39656e-06
589.0199999995853,2.384582e-05,589.0199999995853,4.745713e-05,589.0199999995853,1.662301e-05,589.0199999995853,8.576751e-06
589.0349999995852,2.490285e-05,589.0349999995852,5.211847e-05,589.0349999995852,1.676813e-05,589.0349999995852,7.711938e-06
589.0499999995852,2.549265e-05,589.0499999995852,5.385136e-05,589.0499999995852,1.715843e-05,589.0499999995852,7.432898e-06
589.0649999995852,2.63534e-05,589.0649999995852,5.446365e-05,589.0649999995852,1.799043e-05,589.0649999995852,7.019631e-06
589.0799999995852,2.565239e-05,589.0799999995852,5.410268e-05,589.0799999995852,1.900999e-05,589.0799999995852,6.799448e-06
589.0949999995852,2.564086e-05,589.0949999995852,5.425972e-05,589.0949999995852,1.946183e-05,589.0949999995852,6.838698e-06
589.1099999995852,2.538356e-05,589.1099999995852,5.480194e-05,589.1099999995852,1.982185e-05,589.1099999995852,6.755802e-06
589.1249999995852,2.552357e-05,589.1249999995852,5.629134e-05,589.1249999995852,2.035756e-05,589.1249999995852,6.707672e-06
589.1399999995851,2.604585e-05,589.1399999995851,5.642157e-05,589.1399999995851,2.085455e-05,589.1399999995851,6.824264e-06
589.1549999995851,2.568093e-05,589.1549999995851,5.633762e-05,589.1549999995851,2.094756e-05,589.1549999995851,6.770382e-06
589.1699999995851,2.477753e-05,589.1699999995851,5.766568e-05,589.1699999995851,2.038384e-05,589.1699999995851,6.595429e-06
589.1849999995851,2.487909e-05,589.1849999995851,5.733372e-05,589.1849999995851,1.979838e-05,589.1849999995851,6.518086e-06
589.1999999995851,2.419825e-05,589.1999999995851,5.711488e-05,589.1999999995851,2.078418e-05,589.1999999995851,6.580461e-06
589.2149999995851,2.452782e-05,589.2149999995851,5.668932e-05,589.2149999995851,2.050304e-05,589.2149999995851,6.4921e-06
589.2299999995851,2.444556e-05,589.2299999995851,5.628208e-05,589.2299999995851,2.082278e-05,589.2299999995851,6.362793e-06
589.244999999585,2.440634e-05,589.244999999585,5.463718e-05,589.244999999585,2.122812e-05,589.244999999585,5.988714e-06
589.259999999585,2.439537e-05,589.259999999585,5.322806e-05,589.259999999585,2.125398e-05,589.259999999585,5.929618e-06
589.274999999585,2.205478e-05,589.274999999585,5.136681e-05,589.274999999585,1.999239e-05,589.274999999585,6.089019e-06
589.289999999585,2.114701e-05,589.289999999585,4.900652e-05,589.289999999585,2.168441e-05,589.289999999585,5.922486e-06
589.304999999585,2.154951e-05,589.304999999585,4.71746e-05,589.304999999585,2.133205e-05,589.304999999585,5.953326e-06
589.319999999585,2.10214e-05,589.319999999585,4.688225e-05,589.319999999585,2.081331e-05,589.319999999585,5.915346e-06
589.334999999585,2.103949e-05,589.334999999585,4.626767e-05,589.334999999585,2.056205e-05,589.334999999585,5.770695e-06
589.349999999585,2.069521e-05,589.349999999585,4.657778e-05,589.349999999585,2.072173e-05,589.349999999585,5.647323e-06
589.3649999995849,2.05456e-05,589.3649999995849,4.604212e-05,589.3649999995849,2.042802e-05,589.3649999995849,5.571988e-06
589.3799999995849,1.977347e-05,589.3799999995849,4.420908e-05,589.3799999995849,1.996136e-05,589.3799999995849,5.472503e-06
589.3949999995849,2.244603e-05,589.3949999995849,4.307974e-05,589.3949999995849,1.970496e-05,589.3949999995849,5.360675e-06
589.4099999995849,2.159523e-05,589.4099999995849,4.241574e-05,589.4099999995849,1.953335e-05,589.4099999995849,5.381656e-06
589.4249999995849,2.164539e-05,589.4249999995849,4.157582e-05,589.4249999995849,1.969638e-05,589.4249999995849,5.233022e-06
589.4399999995849,2.229806e-05,589.4399999995849,4.101296e-05,589.4399999995849,2.004868e-05,589.4399999995849,5.046655e-06
589.4549999995849,2.165515e-05,589.4549999995849,4.299562e-05,589.4549999995849,1.963549e-05,589.4549999995849,4.976383e-06
589.4699999995848,2.11989e-05,589.4699999995848,4.353156e-05,589.4699999995848,2.044387e-05,589.4699999995848,4.864733e-06
589.4849999995848,2.274404e-05,589.4849999995848,4.986479e-05,589.4849999995848,1.990199e-05,589.4849999995848,5.074491e-06
589.4999999995848,2.381094e-05,589.4999999995848,5.273299e-05,589.4999999995848,1.929755e-05,589.4999999995848,4.821102e-06
589.5149999995848,2.401007e-05,589.5149999995848,5.747899e-05,589.5149999995848,1.912156e-05,589.5149999995848,4.675739e-06
589.5299999995848,2.487965e-05,589.5299999995848,6.037698e-05,589.5299999995848,1.94401e-05,589.5299999995848,4.399444e-06
589.5449999995848,2.507086e-05,589.5449999995848,6.42913e-05,589.5449999995848,1.781813e-05,589.5449999995848,4.232997e-06
589.5599999995848,2.674919e-05,589.5599999995848,6.489604e-05,589.5599999995848,1.756412e-05,589.5599999995848,4.370531e-06
589.5749999995847,2.81046e-05,589.5749999995847,6.876393e-05,589.5749999995847,1.72901e-05,589.5749999995847,4.39624e-06
589.5899999995847,2.966234e-05,589.5899999995847,6.895888e-05,589.5899999995847,1.794339e-05,589.5899999995847,4.544346e-06
589.6049999995847,3.155298e-05,589.6049999995847,6.825915e-05,589.6049999995847,1.684441e-05,589.6049999995847,4.861837e-06
589.6199999995847,3.228295e-05,589.6199999995847,0.0001046554,589.6199999995847,1.789071e-05,589.6199999995847,5.124215e-06
589.6349999995847,3.271726e-05,589.6349999995847,0.0001135521,589.6349999995847,1.804126e-05,589.6349999995847,5.724127e-06
589.6499999995847,3.132311e-05,589.6499999995847,0.0001256239,589.6499999995847,1.788126e-05,589.6499999995847,5.763367e-06
589.6649999995847,3.288603e-05,589.6649999995847,0.0001308078,589.6649999995847,1.95348e-05,589.6649999995847,5.778013e-06
589.6799999995847,3.297501e-05,589.6799999995847,0.0001310017,589.6799999995847,1.889329e-05,589.6799999995847,5.931993e-06
589.6949999995846,3.334671e-05,589.6949999995846,0.0001313784,589.6949999995846,2.149716e-05,589.6949999995846,6.063518e-06
589.7099999995846,3.580425e-05,589.7099999995846,0.0001334758,589.7099999995846,2.005289e-05,589.7099999995846,6.11211e-06
589.7249999995846,3.624883e-05,589.7249999995846,0.0001345242,589.7249999995846,2.036448e-05,589.7249999995846,6.016875e-06
589.7399999995846,3.500532e-05,589.7399999995846,0.000133798,589.7399999995846,2.085252e-05,589.7399999995846,5.924864e-06
589.7549999995846,3.461644e-05,589.7549999995846,0.0001353999,589.7549999995846,2.103748e-05,589.7549999995846,5.910582e-06
589.7699999995846,3.452272e-05,589.7699999995846,0.0001346955,589.7699999995846,2.139732e-05,589.7699999995846,5.850696e-06
589.7849999995846,3.413824e-05,589.7849999995846,0.0001351267,589.7849999995846,2.214147e-05,589.7849999995846,5.792623e-06
589.7999999995845,3.239882e-05,589.7999999995845,0.000133871,589.7999999995845,2.576745e-05,589.7999999995845,5.714275e-06
589.8149999995845,3.124026e-05,589.8149999995845,0.0001326122,589.8149999995845,2.667166e-05,589.8149999995845,5.500745e-06
589.8299999995845,2.839382e-05,589.8299999995845,0.000132776,589.8299999995845,2.719831e-05,589.8299999995845,5.451871e-06
589.8449999995845,2.738567e-05,589.8449999995845,0.0001334226,589.8449999995845,2.795131e-05,589.8449999995845,5.195198e-06
589.8599999995845,2.537412e-05,589.8599999995845,0.0001182467,589.8599999995845,2.8481e-05,589.8599999995845,4.907976e-06
589.8749999995845,2.473542e-05,589.8749999995845,0.000105564,589.8749999995845,2.835559e-05,589.8749999995845,4.469331e-06
589.8899999995845,2.447838e-05,589.8899999995845,9.425419e-05,589.8899999995845,2.913768e-05,589.8899999995845,4.138769e-06
589.9049999995844,2.380384e-05,589.9049999995844,7.740434e-05,589.9049999995844,3.087833e-05,589.9049999995844,4.021382e-06
589.9199999995844,2.182815e-05,589.9199999995844,7.622223e-05,589.9199999995844,3.163457e-05,589.9199999995844,3.904074e-06
589.9349999995844,2.143284e-05,589.9349999995844,7.631236e-05,589.9349999995844,3.254242e-05,589.9349999995844,3.856882e-06
589.9499999995844,1.714447e-05,589.9499999995844,7.536506e-05,589.9499999995844,3.199895e-05,589.9499999995844,4.242968e-06
589.9649999995844,1.490271e-05,589.9649999995844,7.530185e-05,589.9649999995844,3.358411e-05,589.9649999995844,4.285911e-06
589.9799999995844,1.405831e-05,589.9799999995844,7.558063e-05,589.9799999995844,3.340116e-05,589.9799999995844,4.806471e-06
589.9949999995844,1.432237e-05,589.9949999995844,7.350896e-05,589.9949999995844,3.360256e-05,589.9949999995844,5.371176e-06
590.0099999995844,1.414721e-05,590.0099999995844,7.264305e-05,590.0099999995844,3.376358e-05,590.0099999995844,5.877121e-06
590.0249999995843,1.322818e-05,590.0249999995843,6.773148e-05,590.0249999995843,3.373143e-05,590.0249999995843,6.470365e-06
590.0399999995843,1.348969e-05,590.0399999995843,6.575064e-05,590.0399999995843,3.44312e-05,590.0399999995843,6.809799e-06
590.0549999995843,1.420385e-05,590.0549999995843,6.302286e-05,590.0549999995843,3.070999e-05,590.0549999995843,7.073606e-06
590.0699999995843,1.405932e-05,590.0699999995843,6.325957e-05,590.0699999995843,3.320616e-05,590.0699999995843,7.097463e-06
590.0849999995843,1.413326e-05,590.0849999995843,6.073569e-05,590.0849999995843,3.584436e-05,590.0849999995843,7.1921e-06
590.0999999995843,1.431647e-05,590.0999999995843,5.897148e-05,590.0999999995843,3.620489e-05,590.0999999995843,7.201887e-06
590.1149999995843,1.565324e-05,590.1149999995843,5.861929e-05,590.1149999995843,3.675592e-05,590.1149999995843,7.36818e-06
590.1299999995842,1.484588e-05,590.1299999995842,5.546954e-05,590.1299999995842,3.778361e-05,590.1299999995842,7.500814e-06
590.1449999995842,1.682013e-05,590.1449999995842,5.278185e-05,590.1449999995842,3.820737e-05,590.1449999995842,7.702799e-06
590.1599999995842,1.690201e-05,590.1599999995842,5.151769e-05,590.1599999995842,3.671949e-05,590.1599999995842,7.977696e-06
590.1749999995842,1.824159e-05,590.1749999995842,4.951354e-05,590.1749999995842,3.592405e-05,590.1749999995842,7.995334e-06
590.1899999995842,1.854107e-05,590.1899999995842,3.94535e-05,590.1899999995842,3.529347e-05,590.1899999995842,7.887128e-06
590.2049999995842,2.03707e-05,590.2049999995842,3.856517e-05,590.2049999995842,3.525993e-05,590.2049999995842,7.777418e-06
590.2199999995842,2.21758e-05,590.2199999995842,3.861664e-05,590.2199999995842,3.388102e-05,590.2199999995842,7.678988e-06
590.2349999995841,2.235548e-05,590.2349999995841,3.524674e-05,590.2349999995841,3.388186e-05,590.2349999995841,7.383459e-06
590.2499999995841,2.272483e-05,590.2499999995841,3.498721e-05,590.2499999995841,3.438616e-05,590.2499999995841,6.764137e-06
590.2649999995841,2.34947e-05,590.2649999995841,3.529347e-05,590.2649999995841,3.430249e-05,590.2649999995841,6.505105e-06
590.2799999995841,2.498305e-05,590.2799999995841,3.46441e-05,590.2799999995841,3.408828e-05,590.2799999995841,5.831403e-06
590.2949999995841,2.510118e-05,590.2949999995841,3.504594e-05,590.2949999995841,3.398605e-05,590.2949999995841,5.579567e-06
590.3099999995841,2.488192e-05,590.3099999995841,3.500854e-05,590.3099999995841,3.367836e-05,590.3099999995841,5.178904e-06
590.3249999995841,2.487059e-05,590.3249999995841,3.309355e-05,590.3249999995841,2.878553e-05,590.3249999995841,5.010237e-06
590.339999999584,2.4965e-05,590.339999999584,3.297202e-05,590.339999999584,2.684171e-05,590.339999999584,4.998978e-06
590.354999999584,2.476445e-05,590.354999999584,3.406347e-05,590.354999999584,2.755029e-05,590.354999999584,4.870521e-06
590.369999999584,2.85763e-05,590.369999999584,3.369299e-05,590.369999999584,2.638438e-05,590.369999999584,4.791795e-06
590.384999999584,2.876497e-05,590.384999999584,3.314629e-05,590.384999999584,2.409324e-05,590.384999999584,4.354386e-06
590.399999999584,2.924192e-05,590.399999999584,3.263751e-05,590.399999999584,2.371669e-05,590.399999999584,4.453544e-06
590.414999999584,2.901608e-05,590.414999999584,3.467255e-05,590.414999999584,2.369232e-05,590.414999999584,4.289197e-06
590.429999999584,2.941818e-05,590.429999999584,3.516672e-05,590.429999999584,2.582316e-05,590.429999999584,4.338181e-06
590.444999999584,2.861423e-05,590.444999999584,3.566391e-05,590.444999999584,2.658596e-05,590.444999999584,4.393035e-06
590.4599999995839,2.675287e-05,590.4599999995839,3.778733e-05,590.4599999995839,2.839531e-05,590.4599999995839,5.12971e-06
590.4749999995839,2.702633e-05,590.4749999995839,4.172261e-05,590.4749999995839,2.781693e-05,590.4749999995839,5.148897e-06
590.4899999995839,2.784831e-05,590.4899999995839,4.141423e-05,590.4899999995839,2.7454e-05,590.4899999995839,5.238403e-06
590.5049999995839,2.79775e-05,590.5049999995839,4.087017e-05,590.5049999995839,2.717396e-05,590.5049999995839,5.28392e-06
590.5199999995839,2.676024e-05,590.5199999995839,4.165942e-05,590.5199999995839,2.741498e-05,590.5199999995839,5.556798e-06
590.5349999995839,2.600309e-05,590.5349999995839,4.081775e-05,590.5349999995839,2.626827e-05,590.5349999995839,6.985433e-06
590.5499999995839,2.583134e-05,590.5499999995839,4.306862e-05,590.5499999995839,2.552026e-05,590.5499999995839,9.091791e-06
590.5649999995838,2.646062e-05,590.5649999995838,4.33896e-05,590.5649999995838,2.570067e-05,590.5649999995838,9.402554e-06
590.5799999995838,2.755796e-05,590.5799999995838,4.318197e-05,590.5799999995838,2.617049e-05,590.5799999995838,9.568879e-06
590.5949999995838,2.774239e-05,590.5949999995838,4.25818e-05,590.5949999995838,2.649733e-05,590.5949999995838,9.807338e-06
590.6099999995838,2.692346e-05,590.6099999995838,4.20629e-05,590.6099999995838,2.629775e-05,590.6099999995838,9.952766e-06
590.6249999995838,2.287496e-05,590.6249999995838,4.266079e-05,590.6249999995838,2.632398e-05,590.6249999995838,1.023743e-05
590.6399999995838,2.192666e-05,590.6399999995838,4.273568e-05,590.6399999995838,2.559137e-05,590.6399999995838,1.059048e-05
590.6549999995838,2.102341e-05,590.6549999995838,4.299005e-05,590.6549999995838,2.52154e-05,590.6549999995838,1.056917e-05
590.6699999995838,2.109565e-05,590.6699999995838,4.199452e-05,590.6699999995838,2.549154e-05,590.6699999995838,1.06647e-05
590.6849999995837,2.01538e-05,590.6849999995837,4.045132e-05,590.6849999995837,2.261048e-05,590.6849999995837,1.061704e-05
590.6999999995837,2.006483e-05,590.6999999995837,3.909338e-05,590.6999999995837,2.296715e-05,590.6999999995837,1.054916e-05
590.7149999995837,1.967133e-05,590.7149999995837,3.72614e-05,590.7149999995837,2.049892e-05,590.7149999995837,1.025255e-05
590.7299999995837,1.844968e-05,590.7299999995837,3.203063e-05,590.7299999995837,2.333768e-05,590.7299999995837,1.026079e-05
590.7449999995837,1.715104e-05,590.7449999995837,3.203679e-05,590.7449999995837,2.319783e-05,590.7449999995837,1.06197e-05
590.7599999995837,1.682349e-05,590.7599999995837,3.074667e-05,590.7599999995837,2.377542e-05,590.7599999995837,1.098098e-05
590.7749999995837,1.656698e-05,590.7749999995837,2.982526e-05,590.7749999995837,2.363398e-05,590.7749999995837,1.088305e-05
590.7899999995836,1.773413e-05,590.7899999995836,2.983706e-05,590.7899999995836,2.390894e-05,590.7899999995836,1.014482e-05
590.8049999995836,1.718468e-05,590.8049999995836,2.692346e-05,590.8049999995836,2.462927e-05,590.8049999995836,8.612809e-06
590.8199999995836,1.591561e-05,590.8199999995836,2.719935e-05,590.8199999995836,2.538411e-05,590.8199999995836,8.472646e-06
590.8349999995836,1.570176e-05,590.8349999995836,2.830338e-05,590.8349999995836,2.52779e-05,590.8349999995836,8.594799e-06
590.8499999995836,1.565414e-05,590.8499999995836,2.818818e-05,590.8499999995836,2.397484e-05,590.8499999995836,8.26732e-06
590.8649999995836,1.563973e-05,590.8649999995836,2.809508e-05,590.8649999995836,2.432077e-05,590.8649999995836,8.207468e-06
590.8799999995836,1.652271e-05,590.8799999995836,2.657854e-05,590.8799999995836,2.439768e-05,590.8799999995836,7.93343e-06
590.8949999995835,1.615979e-05,590.8949999995835,2.557044e-05,590.8949999995835,2.474339e-05,590.8949999995835,7.457495e-06
590.9099999995835,1.537997e-05,590.9099999995835,2.436417e-05,590.9099999995835,2.596406e-05,590.9099999995835,7.335607e-06
590.9249999995835,1.582419e-05,590.9249999995835,2.447608e-05,590.9249999995835,2.540297e-05,590.9249999995835,7.432898e-06
590.9399999995835,1.580994e-05,590.9399999995835,2.460008e-05,590.9399999995835,2.505793e-05,590.9399999995835,7.584854e-06
590.9549999995835,1.6003e-05,590.9549999995835,2.381449e-05,590.9549999995835,2.535413e-05,590.9549999995835,7.735647e-06
590.9699999995835,1.662131e-05,590.9699999995835,2.427671e-05,590.9699999995835,2.508715e-05,590.9699999995835,8.034001e-06
590.9849999995835,1.790724e-05,590.9849999995835,2.432019e-05,590.9849999995835,2.43144e-05,590.9849999995835,7.688155e-06
590.9999999995835,1.929609e-05,590.9999999995835,2.270374e-05,590.9999999995835,2.46607e-05,590.9999999995835,7.52706e-06
591.0149999995834,1.958089e-05,591.0149999995834,2.271119e-05,591.0149999995834,2.395544e-05,591.0149999995834,7.180339e-06
591.0299999995834,1.875936e-05,591.0299999995834,2.308217e-05,591.0299999995834,2.427265e-05,591.0299999995834,7.22337e-06
591.0449999995834,1.843746e-05,591.0449999995834,2.308156e-05,591.0449999995834,2.484622e-05,591.0449999995834,6.904299e-06
591.0599999995834,1.806389e-05,591.0599999995834,2.336965e-05,591.0599999995834,2.404759e-05,591.0599999995834,7.1921e-06
591.0749999995834,1.99938e-05,591.0749999995834,2.355398e-05,591.0749999995834,2.338713e-05,591.0749999995834,7.075597e-06
591.0899999995834,1.937986e-05,591.0899999995834,2.399364e-05,591.0899999995834,2.260674e-05,591.0899999995834,6.759971e-06
591.1049999995834,1.92676e-05,591.1049999995834,2.540131e-05,591.1049999995834,2.288666e-05,591.1049999995834,6.924671e-06
591.1199999995833,1.921416e-05,591.1199999995833,2.689886e-05,591.1199999995833,2.296715e-05,591.1199999995833,6.973323e-06
591.1349999995833,1.858054e-05,591.1349999995833,2.831184e-05,591.1349999995833,2.317596e-05,591.1349999995833,6.869526e-06
591.1499999995833,1.830326e-05,591.1499999995833,2.821665e-05,591.1499999995833,2.307179e-05,591.1499999995833,6.726546e-06
591.1649999995833,1.752558e-05,591.1649999995833,2.816968e-05,591.1649999995833,2.32966e-05,591.1649999995833,6.703471e-06
591.1799999995833,1.717156e-05,591.1799999995833,2.966756e-05,591.1799999995833,2.31559e-05,591.1799999995833,6.559019e-06
591.1949999995833,1.689367e-05,591.1949999995833,2.984556e-05,591.1949999995833,2.286203e-05,591.1949999995833,6.307202e-06
591.2099999995833,1.668475e-05,591.2099999995833,2.947176e-05,591.2099999995833,2.185201e-05,591.2099999995833,6.273611e-06
591.2249999995832,1.585354e-05,591.2249999995832,2.772258e-05,591.2249999995832,2.169804e-05,591.2249999995832,5.743781e-06
591.2399999995832,1.593419e-05,591.2399999995832,2.835112e-05,591.2399999995832,2.14039e-05,591.2399999995832,5.696992e-06
591.2549999995832,1.470478e-05,591.2549999995832,3.133211e-05,591.2549999995832,2.133073e-05,591.2549999995832,5.546649e-06
591.2699999995832,1.418897e-05,591.2699999995832,3.303519e-05,591.2699999995832,2.101068e-05,591.2699999995832,5.350154e-06
591.2849999995832,1.410233e-05,591.2849999995832,3.32138e-05,591.2849999995832,2.113168e-05,591.2849999995832,5.200618e-06
591.2999999995832,1.396683e-05,591.2999999995832,3.263276e-05,591.2999999995832,2.142167e-05,591.2999999995832,4.73561e-06
591.3149999995832,1.39153e-05,591.3149999995832,3.363483e-05,591.3149999995832,2.159196e-05,591.3149999995832,4.249604e-06
591.3299999995832,9.269777e-06,591.3299999995832,3.357656e-05,591.3299999995832,2.187134e-05,591.3299999995832,4.246287e-06
591.3449999995831,9.138154e-06,591.3449999995831,3.139544e-05,591.3449999995831,2.163758e-05,591.3449999995831,3.939991e-06
591.3599999995831,9.142777e-06,591.3599999995831,3.101035e-05,591.3599999995831,2.164084e-05,591.3599999995831,3.540784e-06
591.3749999995831,8.708772e-06,591.3749999995831,2.947368e-05,591.3749999995831,2.124802e-05,591.3749999995831,3.860533e-06
591.3899999995831,8.656856e-06,591.3899999995831,2.827948e-05,591.3899999995831,2.116831e-05,591.3899999995831,3.947135e-06
591.4049999995831,8.553727e-06,591.4049999995831,2.818118e-05,591.4049999995831,1.920829e-05,591.4049999995831,4.059732e-06
591.4199999995831,8.58824e-06,591.4199999995831,2.800015e-05,591.4199999995831,1.968994e-05,591.4199999995831,4.236323e-06
591.434999999583,8.655229e-06,591.434999999583,2.602529e-05,591.434999999583,2.39954e-05,591.434999999583,4.39624e-06
591.449999999583,8.520726e-06,591.449999999583,2.576855e-05,591.449999999583,2.357729e-05,591.449999999583,4.35762e-06
591.464999999583,7.926324e-06,591.464999999583,2.681126e-05,591.464999999583,2.420989e-05,591.464999999583,4.503868e-06
591.479999999583,7.48201e-06,591.479999999583,2.686112e-05,591.479999999583,2.474339e-05,591.479999999583,4.562907e-06
591.494999999583,4.503868e-06,591.494999999583,2.622587e-05,591.494999999583,2.493564e-05,591.494999999583,4.565993e-06
591.509999999583,4.856038e-06,591.509999999583,2.336785e-05,591.509999999583,2.614248e-05,591.509999999583,4.581393e-06
591.524999999583,5.339611e-06,591.524999999583,2.021591e-05,591.524999999583,2.62806e-05,591.524999999583,4.66971e-06
591.539999999583,6.075122e-06,591.539999999583,2.025976e-05,591.539999999583,2.519528e-05,591.539999999583,4.608983e-06
591.554999999583,9.911636e-06,591.554999999583,1.864563e-05,591.554999999583,2.524555e-05,591.554999999583,4.639445e-06
591.5699999995829,1.489514e-05,591.5699999995829,1.612926e-05,591.5699999995829,2.533412e-05,591.5699999995829,4.660651e-06
591.5849999995829,1.619202e-05,591.5849999995829,1.546492e-05,591.5849999995829,2.549928e-05,591.5849999995829,4.726678e-06
591.5999999995829,1.833249e-05,591.5999999995829,1.54549e-05,591.5999999995829,2.617533e-05,591.5999999995829,4.68176e-06
591.6149999995829,2.207967e-05,591.6149999995829,1.540651e-05,591.6149999995829,2.787005e-05,591.6149999995829,4.657627e-06
591.6299999995829,2.396368e-05,591.6299999995829,1.594656e-05,591.6299999995829,2.820217e-05,591.6299999995829,4.453544e-06
591.6449999995829,2.780173e-05,591.6449999995829,1.575907e-05,591.6449999995829,2.826653e-05,591.6449999995829,4.370531e-06
591.6599999995829,3.184715e-05,591.6599999995829,1.605836e-05,591.6599999995829,2.80263e-05,591.6599999995829,4.405843e-06
591.6749999995828,3.443938e-05,591.6749999995828,1.70588e-05,591.6749999995828,2.669964e-05,591.6749999995828,4.042345e-06
591.6899999995828,4.767775e-05,591.6899999995828,3.132671e-05,591.6899999995828,2.423606e-05,591.6899999995828,3.889614e-06
591.7049999995828,4.882971e-05,591.7049999995828,4.418454e-05,591.7049999995828,2.362683e-05,591.7049999995828,4.131956e-06
591.7199999995828,5.362488e-05,591.7199999995828,4.961329e-05,591.7199999995828,2.386944e-05,591.7199999995828,4.003829e-06
591.7349999995828,5.834832e-05,591.7349999995828,5.663364e-05,591.7349999995828,2.292233e-05,591.7349999995828,4.021382e-06
591.7499999995828,5.965665e-05,591.7499999995828,5.776843e-05,591.7499999995828,2.330567e-05,591.7499999995828,4.20629e-06
591.7649999995828,6.05345e-05,591.7649999995828,5.772818e-05,591.7649999995828,2.188036e-05,591.7649999995828,4.434525e-06
591.7799999995827,6.087006e-05,591.7799999995827,5.764222e-05,591.7799999995827,2.193887e-05,591.7799999995827,4.503868e-06
591.7949999995827,6.136583e-05,591.7949999995827,5.91032e-05,591.7949999995827,2.199274e-05,591.7949999995827,4.864733e-06
591.8099999995827,6.129785e-05,591.8099999995827,6.231187e-05,591.8099999995827,2.203369e-05,591.8099999995827,5.126963e-06
591.8249999995827,6.430313e-05,591.8249999995827,6.498194e-05,591.8249999995827,2.200938e-05,591.8249999995827,5.157098e-06
591.8399999995827,6.421369e-05,591.8399999995827,6.525667e-05,591.8399999995827,2.175963e-05,591.8399999995827,5.200618e-06
591.8549999995827,6.401199e-05,591.8549999995827,6.522104e-05,591.8549999995827,2.251559e-05,591.8549999995827,5.459618e-06
591.8699999995827,6.396774e-05,591.8699999995827,6.540738e-05,591.8699999995827,2.125862e-05,591.8699999995827,5.741327e-06
591.8849999995826,6.458641e-05,591.8849999995826,6.636437e-05,591.8849999995826,2.12573e-05,591.8849999995826,5.758477e-06
591.8999999995826,6.248592e-05,591.8999999995826,6.644138e-05,591.8999999995826,2.173243e-05,591.8999999995826,6.007502e-06
591.9149999995826,6.233402e-05,591.9149999995826,6.64278e-05,591.9149999995826,2.29739e-05,591.9149999995826,6.513761e-06
591.9299999995826,6.115105e-05,591.9299999995826,6.589959e-05,591.9299999995826,2.438844e-05,591.9299999995826,6.678206e-06
591.9449999995826,5.163868e-05,591.9449999995826,5.392978e-05,591.9449999995826,2.408154e-05,591.9449999995826,6.74119e-06
591.9599999995826,5.211388e-05,591.9599999995826,4.992323e-05,591.9599999995826,2.410376e-05,591.9599999995826,6.762054e-06
591.9749999995826,4.899962e-05,591.9749999995826,4.706548e-05,591.9749999995826,2.44709e-05,591.9749999995826,6.918566e-06
591.9899999995826,4.850001e-05,591.9899999995826,3.860715e-05,591.9899999995826,2.374281e-05,591.9899999995826,6.871577e-06
592.0049999995825,4.73055e-05,592.0049999995825,3.73524e-05,592.0049999995825,2.412829e-05,592.0049999995825,6.997522e-06
592.0199999995825,4.756979e-05,592.0199999995825,4.92997e-05,592.0199999995825,2.466185e-05,592.0199999995825,6.894089e-06
592.0349999995825,4.691619e-05,592.0349999995825,5.347388e-05,592.0349999995825,2.430397e-05,592.0349999995825,6.863372e-06
592.0499999995825,4.649878e-05,592.0499999995825,5.782692e-05,592.0499999995825,2.440923e-05,592.0499999995825,6.466009e-06
592.0649999995825,4.289164e-05,592.0649999995825,5.464956e-05,592.0649999995825,2.445593e-05,592.0649999995825,6.311667e-06
592.0799999995825,4.418358e-05,592.0799999995825,5.231945e-05,592.0799999995825,2.438787e-05,592.0799999995825,6.266871e-06
592.0949999995825,5.068658e-05,592.0949999995825,5.510877e-05,592.0949999995825,2.392485e-05,592.0949999995825,6.137409e-06
592.1099999995824,5.023658e-05,592.1099999995824,5.679508e-05,592.1099999995824,2.30229e-05,592.1099999995824,5.862722e-06
592.1249999995824,4.870839e-05,592.1249999995824,6.000511e-05,592.1249999995824,2.287496e-05,592.1249999995824,5.726587e-06
592.1399999995824,4.778901e-05,592.1399999995824,6.058055e-05,592.1399999995824,2.330809e-05,592.1399999995824,5.642331e-06
592.1549999995824,4.708433e-05,592.1549999995824,6.043482e-05,592.1549999995824,2.244038e-05,592.1549999995824,5.200618e-06
592.1699999995824,4.663823e-05,592.1699999995824,6.047443e-05,592.1699999995824,1.889851e-05,592.1699999995824,4.782967e-06
592.1849999995824,4.68552e-05,592.1849999995824,5.970834e-05,592.1849999995824,1.852055e-05,592.1849999995824,4.612038e-06
592.1999999995824,4.691109e-05,592.1999999995824,5.893517e-05,592.1999999995824,1.897365e-05,592.1999999995824,4.780021e-06
592.2149999995823,4.498516e-05,592.2149999995823,5.962146e-05,592.2149999995823,1.869618e-05,592.2149999995823,5.679657e-06
592.2299999995823,3.9124e-05,592.2299999995823,6.009636e-05,592.2299999995823,1.873155e-05,592.2299999995823,6.597564e-06
592.2449999995823,3.701713e-05,592.2449999995823,6.009284e-05,592.2449999995823,1.986728e-05,592.2449999995823,6.709772e-06
592.2599999995823,3.689668e-05,592.2599999995823,5.974749e-05,592.2599999995823,2.085455e-05,592.2599999995823,6.959168e-06
592.2749999995823,3.555354e-05,592.2749999995823,4.513272e-05,592.2749999995823,2.018732e-05,592.2749999995823,7.28164e-06
592.2899999995823,3.542494e-05,592.2899999995823,4.138633e-05,592.2899999995823,2.032501e-05,592.2899999995823,8.051516e-06
592.3049999995823,3.496183e-05,592.3049999995823,4.944492e-05,592.3049999995823,2.120621e-05,592.3049999995823,9.287995e-06
592.3199999995823,3.104167e-05,592.3199999995823,5.293216e-05,592.3199999995823,2.194528e-05,592.3199999995823,9.469733e-06
592.3349999995822,2.404525e-05,592.3349999995822,5.866733e-05,592.3349999995822,2.230248e-05,592.3349999995822,9.701918e-06
592.3499999995822,1.532492e-05,592.3499999995822,5.671044e-05,592.3499999995822,2.142627e-05,592.3499999995822,9.749715e-06
592.3649999995822,1.450804e-05,592.3649999995822,5.481839e-05,592.3649999995822,2.135647e-05,592.3649999995822,9.772805e-06
592.3799999995822,1.461831e-05,592.3799999995822,5.223187e-05,592.3799999995822,2.099726e-05,592.3799999995822,9.903105e-06
592.3949999995822,1.705963e-05,592.3949999995822,5.122345e-05,592.3949999995822,2.047486e-05,592.3949999995822,9.880319e-06
592.4099999995822,1.808259e-05,592.4099999995822,5.146051e-05,592.4099999995822,2.055999e-05,592.4099999995822,1.002047e-05
592.4249999995822,1.999732e-05,592.4249999995822,5.141012e-05,592.4249999995822,2.151681e-05,592.4249999995822,1.023743e-05
592.4399999995821,2.495936e-05,592.4399999995821,5.157262e-05,592.4399999995821,2.240206e-05,592.4399999995821,1.400611e-05
592.4549999995821,2.777689e-05,592.4549999995821,5.269611e-05,592.4549999995821,2.259864e-05,592.4549999995821,1.491216e-05
592.4699999995821,3.09435e-05,592.4699999995821,5.367844e-05,592.4699999995821,2.421047e-05,592.4699999995821,1.541383e-05
592.4849999995821,3.383276e-05,592.4849999995821,5.360517e-05,592.4849999995821,2.324212e-05,592.4849999995821,1.691284e-05
592.4999999995821,3.557493e-05,592.4999999995821,5.639884e-05,592.4999999995821,2.435492e-05,592.4999999995821,1.819288e-05
592.5149999995821,3.969058e-05,592.5149999995821,5.711316e-05,592.5149999995821,2.378253e-05,592.5149999995821,1.844891e-05
592.5299999995821,4.125747e-05,592.5299999995821,5.748806e-05,592.5299999995821,2.408213e-05,592.5299999995821,1.835246e-05
592.544999999582,5.27669e-05,592.544999999582,5.830919e-05,592.544999999582,2.341783e-05,592.544999999582,1.868864e-05
592.559999999582,5.560803e-05,592.559999999582,4.661829e-05,592.559999999582,2.297267e-05,592.559999999582,1.896176e-05
592.574999999582,5.614952e-05,592.574999999582,4.482203e-05,592.574999999582,2.225886e-05,592.574999999582,1.896028e-05
592.589999999582,5.642107e-05,592.589999999582,4.048508e-05,592.589999999582,2.178874e-05,592.589999999582,1.919729e-05
592.604999999582,5.693257e-05,592.604999999582,4.166957e-05,592.604999999582,2.282935e-05,592.604999999582,1.929025e-05
592.619999999582,5.710674e-05,592.619999999582,4.328265e-05,592.619999999582,2.324636e-05,592.619999999582,1.93464e-05
592.634999999582,5.717651e-05,592.634999999582,4.433508e-05,592.634999999582,2.483318e-05,592.634999999582,1.951532e-05
592.649999999582,5.638885e-05,592.649999999582,4.465925e-05,592.649999999582,2.527901e-05,592.649999999582,1.994654e-05
592.6649999995819,5.622499e-05,592.6649999995819,4.512304e-05,592.6649999995819,2.522936e-05,592.6649999995819,1.993877e-05
592.6799999995819,5.415785e-05,592.6799999995819,4.55147e-05,592.6799999995819,2.484055e-05,592.6799999995819,1.926614e-05
592.6949999995819,5.202e-05,592.6949999995819,4.490744e-05,592.6949999995819,2.345509e-05,592.6949999995819,1.656783e-05
592.7099999995819,5.107942e-05,592.7099999995819,4.346907e-05,592.7099999995819,2.311449e-05,592.7099999995819,1.621288e-05
592.7249999995819,4.823235e-05,592.7249999995819,4.229601e-05,592.7249999995819,2.603233e-05,592.7249999995819,1.555212e-05
592.7399999995819,4.636104e-05,592.7399999995819,4.15063e-05,592.7399999995819,3.106934e-05,592.7399999995819,1.359786e-05
592.7549999995819,4.627619e-05,592.7549999995819,3.875682e-05,592.7549999995819,3.407381e-05,592.7549999995819,1.196919e-05
592.7699999995818,4.274491e-05,592.7699999995818,3.868297e-05,592.7699999995818,3.460504e-05,592.7699999995818,1.247403e-05
592.7849999995818,4.069609e-05,592.7849999995818,3.824201e-05,592.7849999995818,3.534691e-05,592.7849999995818,1.207815e-05
592.7999999995818,2.386058e-05,592.7999999995818,4.5745e-05,592.7999999995818,3.704148e-05,592.7999999995818,1.063958e-05
592.8149999995818,1.649882e-05,592.8149999995818,4.488893e-05,592.8149999995818,3.761247e-05,592.8149999995818,1.048487e-05
592.8299999995818,1.502227e-05,592.8299999995818,4.852817e-05,592.8299999995818,3.777913e-05,592.8299999995818,1.093986e-05
592.8449999995818,1.380656e-05,592.8449999995818,5.720385e-05,592.8449999995818,3.782497e-05,592.8449999995818,1.089728e-05
592.8599999995818,1.537448e-05,592.8599999995818,5.68526e-05,592.8599999995818,3.733655e-05,592.8599999995818,1.067922e-05
592.8749999995817,1.773413e-05,592.8749999995817,6.09517e-05,592.8749999995817,3.743678e-05,592.8749999995817,1.061704e-05
592.8899999995817,2.091458e-05,592.8899999995817,6.047093e-05,592.8899999995817,3.687415e-05,592.8899999995817,9.880319e-06
592.9049999995817,2.126988e-05,592.9049999995817,6.038795e-05,592.9049999995817,3.647391e-05,592.9049999995817,9.634898e-06
592.9199999995817,2.187778e-05,592.9199999995817,6.0951e-05,592.9199999995817,3.650866e-05,592.9199999995817,1.026903e-05
592.9349999995817,2.399833e-05,592.9349999995817,6.368745e-05,592.9349999995817,3.666113e-05,592.9349999995817,1.022228e-05
592.9499999995817,2.66875e-05,592.9499999995817,6.440207e-05,592.9499999995817,3.670338e-05,592.9499999995817,1.000922e-05
592.9649999995817,3.222662e-05,592.9649999995817,6.898787e-05,592.9649999995817,3.650519e-05,592.9649999995817,1.06845e-05
592.9799999995817,3.271812e-05,592.9799999995817,7.155478e-05,592.9799999995817,3.285132e-05,592.9799999995817,1.060111e-05
592.9949999995816,3.279896e-05,592.9949999995816,7.323133e-05,592.9949999995816,2.754876e-05,592.9949999995816,1.064222e-05
593.0099999995816,3.377275e-05,593.0099999995816,7.350359e-05,593.0099999995816,2.407862e-05,593.0099999995816,1.027177e-05
593.0249999995816,3.397113e-05,593.0249999995816,7.38426e-05,593.0249999995816,2.275642e-05,593.0249999995816,9.61001e-06
593.0399999995816,3.41766e-05,593.0399999995816,7.350934e-05,593.0399999995816,2.121285e-05,593.0399999995816,9.549722e-06
593.0549999995816,3.44361e-05,593.0549999995816,6.892393e-05,593.0549999995816,2.152728e-05,593.0549999995816,9.462292e-06
593.0699999995816,3.517673e-05,593.0699999995816,7.207244e-05,593.0699999995816,2.100062e-05,593.0699999995816,9.551197e-06
593.0849999995816,3.537122e-05,593.0849999995816,6.661818e-05,593.0849999995816,2.090111e-05,593.0849999995816,8.713623e-06
593.0999999995815,3.563546e-05,593.0999999995815,6.38454e-05,593.0999999995815,2.140127e-05,593.0999999995815,8.581677e-06
593.1149999995815,3.350264e-05,593.1149999995815,6.28792e-05,593.1149999995815,2.119358e-05,593.1149999995815,8.694202e-06
593.1299999995815,3.279767e-05,593.1299999995815,5.996965e-05,593.1299999995815,2.047073e-05,593.1299999995815,8.58496e-06
593.1449999995815,3.226244e-05,593.1449999995815,6.003961e-05,593.1449999995815,2.015519e-05,593.1449999995815,8.480955e-06
593.1599999995815,3.277232e-05,593.1599999995815,5.951812e-05,593.1599999995815,2.0379e-05,593.1599999995815,8.221186e-06
593.1749999995815,3.201963e-05,593.1749999995815,5.795006e-05,593.1749999995815,2.032085e-05,593.1749999995815,7.381551e-06
593.1899999995815,3.045897e-05,593.1899999995815,5.522623e-05,593.1899999995815,2.038038e-05,593.1899999995815,7.331766e-06
593.2049999995814,2.40306e-05,593.2049999995814,5.396869e-05,593.2049999995814,2.039765e-05,593.2049999995814,6.999535e-06
593.2199999995814,2.353064e-05,593.2199999995814,4.860765e-05,593.2199999995814,2.091862e-05,593.2199999995814,5.874723e-06
593.2349999995814,2.65069e-05,593.2349999995814,4.356844e-05,593.2349999995814,2.164604e-05,593.2349999995814,5.684616e-06
593.2499999995814,2.822813e-05,593.2499999995814,4.127761e-05,593.2499999995814,2.15887e-05,593.2499999995814,5.305204e-06
593.2649999995814,2.82416e-05,593.2649999995814,3.987082e-05,593.2649999995814,2.151484e-05,593.2649999995814,5.528843e-06
593.2799999995814,2.906459e-05,593.2799999995814,3.94142e-05,593.2799999995814,2.138942e-05,593.2799999995814,5.597212e-06
593.2949999995814,3.005205e-05,593.2949999995814,4.317382e-05,593.2949999995814,2.06666e-05,593.2949999995814,5.536481e-06
593.3099999995814,3.034499e-05,593.3099999995814,3.990966e-05,593.3099999995814,1.855247e-05,593.3099999995814,5.599728e-06
593.3249999995813,3.047377e-05,593.3249999995813,3.827662e-05,593.3249999995813,1.854335e-05,593.3249999995813,5.270573e-06
593.3399999995813,3.489973e-05,593.3399999995813,3.70392e-05,593.3399999995813,2.268698e-05,593.3399999995813,4.75046e-06
593.3549999995813,3.637568e-05,593.3549999995813,3.525234e-05,593.3549999995813,2.244791e-05,593.3549999995813,4.782967e-06
593.3699999995813,3.708595e-05,593.3699999995813,3.694857e-05,593.3699999995813,2.218025e-05,593.3699999995813,4.376973e-06
593.3849999995813,3.743113e-05,593.3849999995813,4.314999e-05,593.3849999995813,2.265343e-05,593.3849999995813,4.636408e-06
593.3999999995813,3.801961e-05,593.3999999995813,4.358299e-05,593.3999999995813,2.446687e-05,593.3999999995813,5.879517e-06
593.4149999995813,3.873137e-05,593.4149999995813,4.385878e-05,593.4149999995813,2.454505e-05,593.4149999995813,5.893875e-06
593.4299999995812,3.921678e-05,593.4299999995812,4.42403e-05,593.4299999995812,2.420931e-05,593.4299999995812,6.584741e-06
593.4449999995812,4.300283e-05,593.4449999995812,4.69354e-05,593.4449999995812,2.420756e-05,593.4449999995812,7.404416e-06
593.4599999995812,4.361917e-05,593.4599999995812,4.84125e-05,593.4599999995812,2.388655e-05,593.4599999995812,7.616361e-06
593.4749999995812,4.373012e-05,593.4749999995812,5.16062e-05,593.4749999995812,2.341061e-05,593.4749999995812,7.806343e-06
593.4899999995812,4.266343e-05,593.4899999995812,5.812457e-05,593.4899999995812,2.350249e-05,593.4899999995812,8.5108e-06
593.5049999995812,4.216492e-05,593.5049999995812,5.930473e-05,593.5049999995812,2.36953e-05,593.5049999995812,8.724932e-06
593.5199999995812,4.101983e-05,593.5199999995812,6.647126e-05,593.5199999995812,2.327967e-05,593.5199999995812,9.286478e-06
593.5349999995811,4.109051e-05,593.5349999995811,6.75405e-05,593.5349999995811,2.32209e-05,593.5349999995811,9.549722e-06
593.5499999995811,3.998442e-05,593.5499999995811,6.878236e-05,593.5499999995811,2.338472e-05,593.5499999995811,9.719326e-06
593.5649999995811,3.995447e-05,593.5649999995811,7.06404e-05,593.5649999995811,2.32839e-05,593.5649999995811,1.0462e-05
593.5799999995811,3.924012e-05,593.5799999995811,6.917344e-05,593.5799999995811,1.870973e-05,593.5799999995811,1.096686e-05
593.5949999995811,3.498237e-05,593.5949999995811,6.900156e-05,593.5949999995811,1.871726e-05,593.5949999995811,1.230462e-05
593.6099999995811,3.294167e-05,593.6099999995811,6.874753e-05,593.6099999995811,1.786629e-05,593.6099999995811,1.296248e-05
593.6249999995811,3.161631e-05,593.6249999995811,6.875143e-05,593.6249999995811,1.8213e-05,593.6249999995811,1.319299e-05
593.639999999581,3.031573e-05,593.639999999581,6.724494e-05,593.639999999581,1.829557e-05,593.639999999581,1.366915e-05
593.654999999581,2.853684e-05,593.654999999581,6.795801e-05,593.654999999581,1.61807e-05,593.654999999581,1.475738e-05
593.669999999581,2.865998e-05,593.669999999581,6.800919e-05,593.669999999581,1.724605e-05,593.669999999581,1.495931e-05
593.684999999581,2.698252e-05,593.684999999581,6.756136e-05,593.684999999581,1.801704e-05,593.684999999581,1.565414e-05
593.699999999581,2.167336e-05,593.699999999581,6.630746e-05,593.699999999581,1.817971e-05,593.699999999581,1.58917e-05
593.714999999581,2.048655e-05,593.714999999581,6.604777e-05,593.714999999581,1.85957e-05,593.714999999581,1.598009e-05
593.729999999581,1.901222e-05,593.729999999581,6.263072e-05,593.729999999581,1.837087e-05,593.729999999581,1.617199e-05
593.744999999581,1.817118e-05,593.744999999581,5.8004e-05,593.744999999581,1.783472e-05,593.744999999581,1.610653e-05
593.7599999995809,1.80896e-05,593.7599999995809,5.620745e-05,593.7599999995809,1.773572e-05,593.7599999995809,1.614846e-05
593.7749999995809,2.184041e-05,593.7749999995809,4.931141e-05,593.7749999995809,1.725095e-05,593.7749999995809,1.607764e-05
593.7899999995809,2.155671e-05,593.7899999995809,4.49435e-05,593.7899999995809,1.666871e-05,593.7899999995809,1.606713e-05
593.8049999995809,2.209498e-05,593.8049999995809,4.142817e-05,593.8049999995809,1.66247e-05,593.8049999995809,1.588815e-05
593.8199999995809,2.224873e-05,593.8199999995809,3.910563e-05,593.8199999995809,1.70307e-05,593.8199999995809,1.536073e-05
593.8349999995809,2.309437e-05,593.8349999995809,3.846312e-05,593.8349999995809,1.724687e-05,593.8349999995809,1.466545e-05
593.8499999995809,2.309437e-05,593.8499999995809,3.706695e-05,593.8499999995809,1.78584e-05,593.8499999995809,1.392845e-05
593.8649999995808,2.328572e-05,593.8649999995808,3.856261e-05,593.8649999995808,1.780152e-05,593.8649999995808,1.361132e-05
593.8799999995808,2.472061e-05,593.8799999995808,3.647198e-05,593.8799999995808,1.774286e-05,593.8799999995808,1.308255e-05
593.8949999995808,2.660874e-05,593.8949999995808,3.544521e-05,593.8949999995808,1.734866e-05,593.8949999995808,1.255844e-05
593.9099999995808,2.651912e-05,593.9099999995808,3.394043e-05,593.9099999995808,1.671428e-05,593.9099999995808,1.120826e-05
593.9249999995808,2.66611e-05,593.9249999995808,3.45219e-05,593.9249999995808,1.592977e-05,593.9249999995808,1.043099e-05
593.9399999995808,2.651646e-05,593.9399999995808,3.416588e-05,593.9399999995808,1.529916e-05,593.9399999995808,9.521654e-06
593.9549999995808,2.613332e-05,593.9549999995808,3.372768e-05,593.9549999995808,1.571969e-05,593.9549999995808,8.806888e-06
593.9699999995808,2.753546e-05,593.9699999995808,3.386772e-05,593.9699999995808,1.580281e-05,593.9699999995808,8.620983e-06
593.9849999995807,2.748323e-05,593.9849999995807,3.419061e-05,593.9849999995807,2.038867e-05,593.9849999995807,7.908532e-06
593.9999999995807,2.710285e-05,593.9999999995807,3.369215e-05,593.9999999995807,2.030768e-05,593.9999999995807,7.8585e-06
594.0149999995807,2.639239e-05,594.0149999995807,3.4111e-05,594.0149999995807,2.046178e-05,594.0149999995807,7.640368e-06
594.0299999995807,2.624681e-05,594.0299999995807,3.382318e-05,594.0299999995807,2.083833e-05,594.0299999995807,7.170523e-06
594.0449999995807,2.632452e-05,594.0449999995807,3.382485e-05,594.0449999995807,2.207329e-05,594.0449999995807,7.035667e-06
594.0599999995807,2.593692e-05,594.0599999995807,3.505077e-05,594.0599999995807,2.246297e-05,594.0599999995807,6.914493e-06
594.0749999995807,2.524109e-05,594.0749999995807,3.626748e-05,594.0749999995807,2.237563e-05,594.0749999995807,6.926705e-06
594.0899999995806,2.54002e-05,594.0899999995806,3.77631e-05,594.0899999995806,2.251371e-05,594.0899999995806,6.894089e-06
594.1049999995806,2.545394e-05,594.1049999995806,3.634275e-05,594.1049999995806,2.184814e-05,594.1049999995806,6.690851e-06
594.1199999995806,2.467156e-05,594.1199999995806,3.517753e-05,594.1199999995806,2.189516e-05,594.1199999995806,6.450741e-06
594.1349999995806,2.301004e-05,594.1349999995806,3.541181e-05,594.1349999995806,2.178422e-05,594.1349999995806,6.448557e-06
594.1499999995806,2.200874e-05,594.1499999995806,3.371138e-05,594.1499999995806,2.135647e-05,594.1499999995806,6.448557e-06
594.1649999995806,2.15096e-05,594.1649999995806,3.275985e-05,594.1649999995806,2.139337e-05,594.1649999995806,6.030905e-06
594.1799999995806,2.183589e-05,594.1799999995806,3.263362e-05,594.1799999995806,2.135713e-05,594.1799999995806,5.995767e-06
594.1949999995805,2.243159e-05,594.1949999995805,3.24618e-05,594.1949999995805,2.119558e-05,594.1949999995805,5.775575e-06
594.2099999995805,2.188486e-05,594.2099999995805,3.003329e-05,594.2099999995805,2.043284e-05,594.2099999995805,5.564399e-06
594.2249999995805,2.244227e-05,594.2249999995805,2.964096e-05,594.2249999995805,1.993594e-05,594.2249999995805,5.381656e-06
594.2399999995805,2.170064e-05,594.2399999995805,2.821266e-05,594.2399999995805,1.674964e-05,594.2399999995805,4.899358e-06
594.2549999995805,2.293401e-05,594.2549999995805,2.702946e-05,594.2549999995805,1.809894e-05,594.2549999995805,4.858938e-06
594.2699999995805,2.677708e-05,594.2699999995805,2.669067e-05,594.2699999995805,1.930485e-05,594.2699999995805,4.826943e-06
594.2849999995805,2.748426e-05,594.2849999995805,2.56513e-05,594.2849999995805,1.806311e-05,594.2849999995805,4.615091e-06
594.2999999995805,2.891882e-05,594.2999999995805,2.568971e-05,594.2999999995805,1.922295e-05,594.2999999995805,4.503868e-06
594.3149999995804,2.977515e-05,594.3149999995804,2.293708e-05,594.3149999995804,1.891193e-05,594.3149999995804,4.947995e-06
594.3299999995804,3.178561e-05,594.3299999995804,2.321726e-05,594.3299999995804,1.946762e-05,594.3299999995804,5.041069e-06
594.3449999995804,3.420543e-05,594.3449999995804,2.169545e-05,594.3449999995804,1.944445e-05,594.3449999995804,4.950841e-06
594.3599999995804,3.59213e-05,594.3599999995804,2.573573e-05,594.3599999995804,1.951532e-05,594.3599999995804,4.922306e-06
594.3749999995804,3.589463e-05,594.3749999995804,2.592551e-05,594.3749999995804,2.041353e-05,594.3749999995804,5.02147e-06
594.3899999995804,3.569077e-05,594.3899999995804,2.610474e-05,594.3899999995804,2.050923e-05,594.3899999995804,4.821102e-06
594.4049999995804,3.551351e-05,594.4049999995804,2.661085e-05,594.4049999995804,2.030421e-05,594.4049999995804,5.181623e-06
594.4199999995803,3.530903e-05,594.4199999995803,2.685168e-05,594.4199999995803,1.997265e-05,594.4199999995803,5.428567e-06
594.4349999995803,3.494329e-05,594.4349999995803,2.690671e-05,594.4349999995803,2.023819e-05,594.4349999995803,5.778013e-06
594.4499999995803,3.436731e-05,594.4499999995803,2.661191e-05,594.4499999995803,2.052982e-05,594.4499999995803,5.869926e-06
594.4649999995803,3.385607e-05,594.4649999995803,2.630257e-05,594.4649999995803,2.046591e-05,594.4649999995803,5.939112e-06
594.4799999995803,3.364529e-05,594.4799999995803,2.695013e-05,594.4799999995803,1.949726e-05,594.4799999995803,6.340615e-06
594.4949999995803,3.482336e-05,594.4949999995803,2.785235e-05,594.4949999995803,2.051747e-05,594.4949999995803,6.554722e-06
594.5099999995803,3.351694e-05,594.5099999995803,2.791046e-05,594.5099999995803,1.91407e-05,594.5099999995803,7.101431e-06
594.5249999995802,3.119107e-05,594.5249999995802,3.24162e-05,594.5249999995802,1.887241e-05,594.5249999995802,8.079462e-06
594.5399999995802,2.978934e-05,594.5399999995802,3.658767e-05,594.5399999995802,1.870747e-05,594.5399999995802,8.721702e-06
594.5549999995802,3.001218e-05,594.5549999995802,3.843931e-05,594.5549999995802,1.749179e-05,594.5549999995802,8.774839e-06
594.5699999995802,2.968133e-05,594.5699999995802,3.825564e-05,594.5699999995802,1.749984e-05,594.5699999995802,9.433964e-06
594.5849999995802,2.725936e-05,594.5849999995802,3.862211e-05,594.5849999995802,1.717156e-05,594.5849999995802,9.947104e-06
594.5999999995802,2.555777e-05,594.5999999995802,4.047325e-05,594.5999999995802,1.673365e-05,594.5999999995802,1.002328e-05
594.6149999995802,2.432424e-05,594.6149999995802,4.130524e-05,594.6149999995802,1.666025e-05,594.6149999995802,1.033466e-05
594.6299999995801,2.492377e-05,594.6299999995801,4.432936e-05,594.6299999995801,1.625627e-05,594.6299999995801,1.041342e-05
594.6449999995801,2.533578e-05,594.6449999995801,4.471599e-05,594.6449999995801,1.634614e-05,594.6449999995801,1.084935e-05
594.6599999995801,2.595429e-05,594.6599999995801,4.547754e-05,594.6599999995801,1.73965e-05,594.6599999995801,1.094114e-05
594.6749999995801,2.609179e-05,594.6749999995801,4.750786e-05,594.6749999995801,1.714529e-05,594.6749999995801,1.087917e-05
594.6899999995801,2.66912e-05,594.6899999995801,4.801867e-05,594.6899999995801,1.695859e-05,594.6899999995801,1.088564e-05
594.7049999995801,2.666479e-05,594.7049999995801,4.782731e-05,594.7049999995801,1.653975e-05,594.7049999995801,1.122207e-05
594.7199999995801,2.611067e-05,594.7199999995801,4.793852e-05,594.7199999995801,1.631163e-05,594.7199999995801,1.12484e-05
594.73499999958,2.461096e-05,594.73499999958,4.782437e-05,594.73499999958,1.620506e-05,594.73499999958,1.102707e-05
594.74999999958,2.312911e-05,594.74999999958,4.729031e-05,594.74999999958,1.452842e-05,594.74999999958,1.09231e-05
594.76499999958,2.288235e-05,594.76499999958,4.60568e-05,594.76499999958,1.429579e-05,594.76499999958,1.059978e-05
594.77999999958,2.254684e-05,594.77999999958,4.684257e-05,594.77999999958,1.380962e-05,594.77999999958,9.499437e-06
594.79499999958,2.022427e-05,594.79499999958,4.761685e-05,594.79499999958,1.32792e-05,594.79499999958,9.327345e-06
594.80999999958,1.856234e-05,594.80999999958,4.980458e-05,594.80999999958,1.331839e-05,594.80999999958,8.99365e-06
594.82499999958,1.713378e-05,594.82499999958,4.974288e-05,594.82499999958,1.414622e-05,594.82499999958,7.98652e-06
594.83999999958,1.61981e-05,594.83999999958,4.862851e-05,594.83999999958,1.490743e-05,594.83999999958,7.904969e-06
594.85499999958,1.477073e-05,594.85499999958,4.708373e-05,594.85499999958,1.505038e-05,594.85499999958,7.784659e-06
594.8699999995799,1.4652e-05,594.8699999995799,4.295039e-05,594.8699999995799,1.494989e-05,594.8699999995799,7.590424e-06
594.8849999995799,1.345623e-05,594.8849999995799,4.190453e-05,594.8849999995799,1.431056e-05,594.8849999995799,7.721065e-06
594.8999999995799,1.233092e-05,594.8999999995799,4.050422e-05,594.8999999995799,1.439008e-05,594.8999999995799,7.19993e-06
594.9149999995799,1.16059e-05,594.9149999995799,4.105038e-05,594.9149999995799,1.345728e-05,594.9149999995799,7.139021e-06
594.9299999995799,1.035373e-05,594.9299999995799,3.788488e-05,594.9299999995799,1.478503e-05,594.9299999995799,7.579281e-06
594.9449999995799,1.082335e-05,594.9449999995799,3.794804e-05,594.9449999995799,1.492632e-05,594.9449999995799,7.502692e-06
594.9599999995798,1.138161e-05,594.9599999995798,3.839898e-05,594.9599999995798,1.587662e-05,594.9599999995798,7.532673e-06
594.9749999995798,1.137419e-05,594.9749999995798,3.804813e-05,594.9749999995798,1.738759e-05,594.9749999995798,7.688155e-06
594.9899999995798,1.145563e-05,594.9899999995798,3.780373e-05,594.9899999995798,1.821222e-05,594.9899999995798,7.601551e-06
595.0049999995798,1.142362e-05,595.0049999995798,3.786851e-05,595.0049999995798,1.917673e-05,595.0049999995798,7.528932e-06
595.0199999995798,1.151084e-05,595.0199999995798,3.733504e-05,595.0199999995798,1.934422e-05,595.0199999995798,7.459384e-06
595.0349999995798,1.129714e-05,595.0349999995798,3.349676e-05,595.0349999995798,1.938713e-05,595.0349999995798,7.314453e-06
595.0499999995798,1.121203e-05,595.0499999995798,2.621513e-05,595.0499999995798,1.927199e-05,595.0499999995798,7.188182e-06
595.0649999995798,1.276648e-05,595.0649999995798,2.304369e-05,595.0649999995798,1.853348e-05,595.0649999995798,7.197973e-06
595.0799999995797,1.260435e-05,595.0799999995797,2.488248e-05,595.0799999995797,1.822228e-05,595.0799999995797,7.219469e-06
595.0949999995797,1.283141e-05,595.0949999995797,2.735531e-05,595.0949999995797,1.765691e-05,595.0949999995797,7.417721e-06
595.1099999995797,1.274218e-05,595.1099999995797,2.772359e-05,595.1099999995797,1.750226e-05,595.1099999995797,7.235062e-06
595.1249999995797,1.281054e-05,595.1249999995797,2.737127e-05,595.1249999995797,1.737382e-05,595.1249999995797,6.916529e-06
595.1399999995797,1.366091e-05,595.1399999995797,2.799109e-05,595.1399999995797,1.734866e-05,595.1399999995797,6.601833e-06
595.1549999995797,1.372469e-05,595.1549999995797,2.699504e-05,595.1549999995797,1.719206e-05,595.1549999995797,6.571893e-06
595.1699999995797,1.381676e-05,595.1699999995797,2.654513e-05,595.1699999995797,1.698349e-05,595.1699999995797,6.224016e-06
595.1849999995796,1.497908e-05,595.1849999995796,2.65446e-05,595.1849999995796,1.642437e-05,595.1849999995796,5.664756e-06
595.1999999995796,1.658143e-05,595.1999999995796,2.624305e-05,595.1999999995796,1.693947e-05,595.1999999995796,5.457037e-06
595.2149999995796,1.674459e-05,595.2149999995796,2.570889e-05,595.2149999995796,1.533962e-05,595.2149999995796,5.394728e-06
595.2299999995796,1.67908e-05,595.2299999995796,2.59787e-05,595.2299999995796,1.475356e-05,595.2299999995796,5.162558e-06
595.2449999995796,1.690784e-05,595.2449999995796,2.560568e-05,595.2449999995796,1.328768e-05,595.2449999995796,5.238403e-06
595.2599999995796,1.699924e-05,595.2599999995796,2.532911e-05,595.2599999995796,1.315878e-05,595.2599999995796,5.441526e-06
595.2749999995796,1.730802e-05,595.2749999995796,2.445362e-05,595.2749999995796,1.396582e-05,595.2749999995796,5.526294e-06
595.2899999995795,1.773492e-05,595.2899999995795,2.457831e-05,595.2899999995795,1.379329e-05,595.2899999995795,5.674694e-06
595.3049999995795,1.658653e-05,595.3049999995795,2.413646e-05,595.3049999995795,1.427706e-05,595.3049999995795,5.629835e-06
595.3199999995795,1.591207e-05,595.3199999995795,2.270809e-05,595.3199999995795,1.42098e-05,595.3199999995795,5.48022e-06
595.3349999995795,1.614148e-05,595.3349999995795,1.934858e-05,595.3349999995795,1.405531e-05,595.3349999995795,5.554263e-06
595.3499999995795,1.667884e-05,595.3499999995795,1.740217e-05,595.3499999995795,1.3988e-05,595.3499999995795,5.344885e-06
595.3649999995795,1.735272e-05,595.3649999995795,1.628743e-05,595.3649999995795,1.513345e-05,595.3649999995795,5.305204e-06
595.3799999995795,1.751272e-05,595.3799999995795,1.488568e-05,595.3799999995795,1.519383e-05,595.3799999995795,5.355417e-06
595.3949999995795,1.7142e-05,595.3949999995795,1.605572e-05,595.3949999995795,1.489703e-05,595.3949999995795,5.358047e-06
595.4099999995794,1.802094e-05,595.4099999995794,1.637971e-05,595.4099999995794,1.505131e-05,595.4099999995794,5.503306e-06
595.4249999995794,1.872328e-05,595.4249999995794,1.686196e-05,595.4249999995794,1.514555e-05,595.4249999995794,5.639834e-06
595.4399999995794,2.004868e-05,595.4399999995794,1.659247e-05,595.4399999995794,1.425632e-05,595.4399999995794,5.679657e-06
595.4549999995794,2.019011e-05,595.4549999995794,1.691118e-05,595.4549999995794,1.401617e-05,595.4549999995794,5.599728e-06
595.4699999995794,1.971568e-05,595.4699999995794,1.704641e-05,595.4699999995794,1.37329e-05,595.4699999995794,5.639834e-06
595.4849999995794,1.958089e-05,595.4849999995794,1.71272e-05,595.4849999995794,1.365988e-05,595.4849999995794,5.579567e-06
595.4999999995794,2.000155e-05,595.4999999995794,1.737868e-05,595.4999999995794,1.321113e-05,595.4999999995794,5.953326e-06
595.5149999995793,2.022705e-05,595.5149999995793,1.666448e-05,595.5149999995793,1.260323e-05,595.5149999995793,6.056544e-06
595.5299999995793,1.984174e-05,595.5299999995793,1.701415e-05,595.5299999995793,1.264006e-05,595.5299999995793,6.485587e-06
595.5449999995793,2.036655e-05,595.5449999995793,1.712474e-05,595.5449999995793,1.279073e-05,595.5449999995793,6.543968e-06
595.5599999995793,2.08194e-05,595.5599999995793,1.702077e-05,595.5599999995793,1.251124e-05,595.5599999995793,6.718165e-06
595.5749999995793,2.076452e-05,595.5749999995793,1.722971e-05,595.5749999995793,1.256629e-05,595.5749999995793,7.067629e-06
595.5899999995793,2.095294e-05,595.5899999995793,1.803969e-05,595.5899999995793,1.253037e-05,595.5899999995793,7.764728e-06
595.6049999995793,2.238256e-05,595.6049999995793,1.761218e-05,595.6049999995793,1.233549e-05,595.6049999995793,7.831566e-06
595.6199999995792,2.350728e-05,595.6199999995792,1.753121e-05,595.6199999995792,1.125216e-05,595.6199999995792,8.26732e-06
595.6349999995792,2.44709e-05,595.6349999995792,1.652527e-05,595.6349999995792,1.104749e-05,595.6349999995792,8.363879e-06
595.6499999995792,2.441788e-05,595.6499999995792,1.623285e-05,595.6499999995792,1.086103e-05,595.6499999995792,8.835633e-06
595.6649999995792,2.37434e-05,595.6649999995792,1.592888e-05,595.6649999995792,1.107551e-05,595.6649999995792,8.938661e-06
595.6799999995792,2.391955e-05,595.6799999995792,1.652782e-05,595.6799999995792,1.076724e-05,595.6799999995792,9.321302e-06
595.6949999995792,2.245105e-05,595.6949999995792,1.67286e-05,595.6949999995792,1.072923e-05,595.6949999995792,9.37705e-06
595.7099999995792,2.17881e-05,595.7099999995792,1.716089e-05,595.7099999995792,1.113386e-05,595.7099999995792,9.554146e-06
595.7249999995792,2.198441e-05,595.7249999995792,1.742886e-05,595.7249999995792,1.09797e-05,595.7249999995792,1.150716e-05
595.7399999995791,2.190738e-05,595.7399999995791,1.714365e-05,595.7399999995791,1.139275e-05,595.7399999995791,1.199271e-05
595.7549999995791,2.198505e-05,595.7549999995791,1.758977e-05,595.7549999995791,1.122333e-05,595.7549999995791,1.209796e-05
595.7699999995791,2.201898e-05,595.7699999995791,1.779202e-05,595.7699999995791,1.092439e-05,595.7699999995791,1.255171e-05
595.7849999995791,2.183202e-05,595.7849999995791,1.761458e-05,595.7849999995791,1.081684e-05,595.7849999995791,1.300588e-05
595.7999999995791,2.132875e-05,595.7999999995791,1.781497e-05,595.7999999995791,1.047546e-05,595.7999999995791,1.377898e-05
595.8149999995791,2.109699e-05,595.8149999995791,1.997759e-05,595.8149999995791,1.041342e-05,595.8149999995791,1.363097e-05
595.8299999995791,2.125663e-05,595.8299999995791,2.098048e-05,595.8299999995791,1.049561e-05,595.8299999995791,1.346879e-05
595.844999999579,1.988004e-05,595.844999999579,2.081804e-05,595.844999999579,1.059048e-05,595.844999999579,1.32898e-05
595.859999999579,1.803579e-05,595.859999999579,2.134657e-05,595.859999999579,1.02388e-05,595.859999999579,1.321326e-05
595.874999999579,1.511575e-05,595.874999999579,2.473086e-05,595.874999999579,1.017947e-05,595.874999999579,1.315664e-05
595.889999999579,1.50082e-05,595.889999999579,2.458805e-05,595.889999999579,1.015592e-05,595.889999999579,1.315236e-05
595.904999999579,1.472967e-05,595.904999999579,2.482297e-05,595.904999999579,1.130836e-05,595.904999999579,1.286759e-05
595.919999999579,1.403525e-05,595.919999999579,2.632719e-05,595.919999999579,1.137295e-05,595.919999999579,1.265454e-05
595.934999999579,1.468849e-05,595.934999999579,2.594886e-05,595.934999999579,1.222652e-05,595.934999999579,1.2465e-05
595.949999999579,1.369078e-05,595.949999999579,2.903016e-05,595.949999999579,1.261329e-05,595.949999999579,1.226219e-05
595.9649999995789,1.416512e-05,595.9649999995789,3.03487e-05,595.9649999995789,1.348969e-05,595.9649999995789,1.216878e-05
595.9799999995789,1.550495e-05,595.9799999995789,3.113321e-05,595.9799999995789,1.381064e-05,595.9799999995789,1.004154e-05
595.9949999995789,1.637713e-05,595.9949999995789,3.176478e-05,595.9949999995789,1.345205e-05,595.9949999995789,9.530527e-06
596.0099999995789,1.657803e-05,596.0099999995789,3.275599e-05,596.0099999995789,1.32792e-05,596.0099999995789,9.175076e-06
596.0249999995789,2.109298e-05,596.0249999995789,4.301364e-05,596.0249999995789,1.42207e-05,596.0249999995789,8.545489e-06
596.0399999995789,2.180296e-05,596.0399999995789,4.53081e-05,596.0399999995789,1.433319e-05,596.0399999995789,7.190141e-06
596.0549999995789,2.246234e-05,596.0549999995789,4.642147e-05,596.0549999995789,1.472871e-05,596.0549999995789,6.826328e-06
596.0699999995788,2.2846e-05,596.0699999995788,4.566271e-05,596.0699999995788,1.488758e-05,596.0699999995788,6.898175e-06
596.0849999995788,2.397308e-05,596.0849999995788,4.555646e-05,596.0849999995788,1.494047e-05,596.0849999995788,6.971302e-06
596.0999999995788,2.481275e-05,596.0999999995788,4.699479e-05,596.0999999995788,1.516692e-05,596.0999999995788,6.879772e-06
596.1149999995788,2.506468e-05,596.1149999995788,4.83866e-05,596.1149999995788,1.543757e-05,596.1149999995788,6.582601e-06
596.1299999995788,2.631542e-05,596.1299999995788,4.708223e-05,596.1299999995788,1.547858e-05,596.1299999995788,6.487759e-06
596.1449999995788,2.679391e-05,596.1449999995788,4.743961e-05,596.1449999995788,1.511575e-05,596.1449999995788,6.468188e-06
596.1599999995788,2.71864e-05,596.1599999995788,4.962011e-05,596.1599999995788,1.468081e-05,596.1599999995788,6.284828e-06
596.1749999995787,2.728983e-05,596.1749999995787,5.087826e-05,596.1749999995787,1.484209e-05,596.1749999995787,6.57832e-06
596.1899999995787,2.695849e-05,596.1899999995787,5.085306e-05,596.1899999995787,1.377591e-05,596.1899999995787,6.444187e-06
596.2049999995787,2.73867e-05,596.2049999995787,4.952178e-05,596.2049999995787,1.294399e-05,596.2049999995787,6.351713e-06
596.2199999995787,2.739339e-05,596.2199999995787,4.853746e-05,596.2199999995787,1.209796e-05,596.2199999995787,6.322817e-06
596.2349999995787,2.706592e-05,596.2349999995787,4.85424e-05,596.2349999995787,1.20021e-05,596.2349999995787,6.329497e-06
596.2499999995787,2.692398e-05,596.2499999995787,4.790707e-05,596.2499999995787,1.20021e-05,596.2499999995787,6.342836e-06
596.2649999995787,2.60637e-05,596.2649999995787,4.591283e-05,596.2649999995787,1.20021e-05,596.2649999995787,6.19907e-06
596.2799999995786,2.311388e-05,596.2799999995786,3.981213e-05,596.2799999995786,1.086621e-05,596.2799999995786,5.993417e-06
596.2949999995786,2.245356e-05,596.2949999995786,3.915171e-05,596.2949999995786,1.087528e-05,596.2949999995786,5.508422e-06
596.3099999995786,2.219485e-05,596.3099999995786,3.777242e-05,596.3099999995786,9.935768e-06,596.3099999995786,5.53139e-06
596.3249999995786,2.154429e-05,596.3249999995786,3.759748e-05,596.3249999995786,1.064884e-05,596.3249999995786,5.329048e-06
596.3399999995786,2.027227e-05,596.3399999995786,3.889469e-05,596.3399999995786,1.119694e-05,596.3399999995786,5.275916e-06
596.3549999995786,2.074416e-05,596.3549999995786,3.499526e-05,596.3549999995786,1.106405e-05,596.3549999995786,5.197909e-06
596.3699999995786,2.157369e-05,596.3699999995786,3.485409e-05,596.3699999995786,1.076593e-05,596.3699999995786,5.154366e-06
596.3849999995786,2.05949e-05,596.3849999995786,3.466727e-05,596.3849999995786,1.111106e-05,596.3849999995786,5.038274e-06
596.3999999995785,2.049067e-05,596.3999999995785,3.418319e-05,596.3999999995785,1.093857e-05,596.3999999995785,5.060592e-06
596.4149999995785,2.09872e-05,596.4149999995785,2.92477e-05,596.4149999995785,1.088564e-05,596.4149999995785,4.899358e-06
596.4299999995785,2.065023e-05,596.4299999995785,2.717655e-05,596.4299999995785,1.119191e-05,596.4299999995785,4.262842e-06
596.4449999995785,2.059354e-05,596.4449999995785,2.752011e-05,596.4449999995785,1.132329e-05,596.4449999995785,4.285911e-06
596.4599999995785,1.948064e-05,596.4599999995785,2.645743e-05,596.4599999995785,1.133946e-05,596.4599999995785,4.192873e-06
596.4749999995785,2.02173e-05,596.4749999995785,2.626023e-05,596.4749999995785,1.155968e-05,596.4749999995785,4.196231e-06
596.4899999995785,1.987295e-05,596.4899999995785,2.52249e-05,596.4899999995785,1.27466e-05,596.4899999995785,4.070128e-06
596.5049999995784,2.038038e-05,596.5049999995784,2.528235e-05,596.5049999995784,1.274439e-05,596.5049999995784,3.91848e-06
596.5199999995784,2.088493e-05,596.5199999995784,2.245293e-05,596.5199999995784,1.244237e-05,596.5199999995784,3.932833e-06
596.5349999995784,2.191124e-05,596.5349999995784,2.164409e-05,596.5349999995784,1.3451e-05,596.5349999995784,4.090841e-06
596.5499999995784,2.226709e-05,596.5499999995784,1.967204e-05,596.5499999995784,1.339433e-05,596.5499999995784,3.964939e-06
596.5649999995784,2.249806e-05,596.5649999995784,1.876236e-05,596.5649999995784,1.395775e-05,596.5649999995784,3.860533e-06
596.5799999995784,2.265903e-05,596.5799999995784,1.850381e-05,596.5799999995784,1.356052e-05,596.5799999995784,3.84957e-06
596.5949999995784,2.657112e-05,596.5949999995784,1.584287e-05,596.5949999995784,1.361443e-05,596.5949999995784,3.871464e-06
596.6099999995783,2.618018e-05,596.6099999995783,1.590765e-05,596.6099999995783,1.377182e-05,596.6099999995783,4.035369e-06
596.6249999995783,2.569135e-05,596.6249999995783,1.557384e-05,596.6249999995783,1.381472e-05,596.6249999995783,4.212983e-06
596.6399999995783,2.528402e-05,596.6399999995783,1.609166e-05,596.6399999995783,1.371134e-05,596.6399999995783,4.418613e-06
596.6549999995783,2.620384e-05,596.6549999995783,1.647917e-05,596.6549999995783,1.35989e-05,596.6549999995783,4.485062e-06
596.6699999995783,2.747349e-05,596.6699999995783,1.676981e-05,596.6699999995783,1.354804e-05,596.6699999995783,4.602866e-06
596.6849999995783,2.773629e-05,596.6849999995783,1.586331e-05,596.6849999995783,1.300046e-05,596.6849999995783,4.615091e-06
596.6999999995783,2.786853e-05,596.6999999995783,1.566943e-05,596.6999999995783,1.330146e-05,596.6999999995783,4.812329e-06
596.7149999995783,2.780325e-05,596.7149999995783,1.635217e-05,596.7149999995783,1.348342e-05,596.7149999995783,5.126963e-06
596.7299999995782,2.77058e-05,596.7299999995782,1.664418e-05,596.7299999995782,1.291349e-05,596.7299999995782,5.22494e-06
596.7449999995782,2.820866e-05,596.7449999995782,1.670248e-05,596.7449999995782,1.210611e-05,596.7449999995782,5.200618e-06
596.7599999995782,2.919901e-05,596.7599999995782,1.747971e-05,596.7599999995782,1.218729e-05,596.7599999995782,5.577042e-06
596.7749999995782,2.941483e-05,596.7749999995782,1.763695e-05,596.7749999995782,1.265677e-05,596.7749999995782,5.493057e-06
596.7899999995782,3.073658e-05,596.7899999995782,1.958737e-05,596.7899999995782,1.166522e-05,596.7899999995782,5.446701e-06
596.8049999995782,3.101353e-05,596.8049999995782,2.012582e-05,596.8049999995782,1.183307e-05,596.8049999995782,5.498184e-06
596.8199999995782,3.146088e-05,596.8199999995782,2.261671e-05,596.8199999995782,1.090504e-05,596.8199999995782,5.758477e-06
596.8349999995781,3.235792e-05,596.8349999995781,2.539299e-05,596.8349999995781,1.130462e-05,596.8349999995781,5.898653e-06
596.8499999995781,2.867227e-05,596.8499999995781,2.613979e-05,596.8499999995781,1.077247e-05,596.8499999995781,5.931993e-06
596.8649999995781,3.129657e-05,596.8649999995781,2.717396e-05,596.8649999995781,1.068054e-05,596.8649999995781,6.023894e-06
596.8799999995781,3.263751e-05,596.8799999995781,2.809758e-05,596.8799999995781,1.083115e-05,596.8799999995781,5.917727e-06
596.8949999995781,3.230128e-05,596.8949999995781,3.039925e-05,596.8949999995781,1.109965e-05,596.8949999995781,5.797484e-06
596.9099999995781,3.07659e-05,596.9099999995781,3.097717e-05,596.9099999995781,1.132703e-05,596.9099999995781,5.819312e-06
596.9249999995781,2.999528e-05,596.9249999995781,3.22847e-05,596.9249999995781,1.128841e-05,596.9249999995781,5.896265e-06
596.939999999578,3.036309e-05,596.939999999578,3.334671e-05,596.939999999578,1.099637e-05,596.939999999578,6.19225e-06
596.954999999578,3.23209e-05,596.954999999578,3.465508e-05,596.954999999578,1.096301e-05,596.954999999578,6.128222e-06
596.969999999578,3.362561e-05,596.969999999578,3.514949e-05,596.969999999578,1.067526e-05,596.969999999578,5.891484e-06
596.984999999578,3.332262e-05,596.984999999578,3.602468e-05,596.984999999578,1.057583e-05,596.984999999578,6.068162e-06
596.999999999578,3.150517e-05,596.999999999578,3.837402e-05,596.999999999578,1.049024e-05,596.999999999578,6.105191e-06
597.014999999578,3.126685e-05,597.014999999578,3.861773e-05,597.014999999578,1.109457e-05,597.014999999578,5.922486e-06
597.029999999578,3.083176e-05,597.029999999578,4.070128e-05,597.029999999578,1.144087e-05,597.029999999578,6.056544e-06
597.044999999578,2.85319e-05,597.044999999578,4.222268e-05,597.044999999578,1.175065e-05,597.044999999578,6.219488e-06
597.0599999995779,2.866637e-05,597.0599999995779,4.386585e-05,597.0599999995779,1.170982e-05,597.0599999995779,6.205884e-06
597.0749999995779,2.7915e-05,597.0749999995779,4.247017e-05,597.0749999995779,1.11982e-05,597.0749999995779,6.021555e-06
597.0899999995779,2.729447e-05,597.0899999995779,4.354095e-05,597.0899999995779,1.117175e-05,597.0899999995779,6.089019e-06
597.1049999995779,2.696894e-05,597.1049999995779,4.485408e-05,597.1049999995779,1.132205e-05,597.1049999995779,5.979298e-06
597.1199999995779,2.303758e-05,597.1199999995779,4.416381e-05,597.1199999995779,1.185805e-05,597.1199999995779,5.946224e-06
597.1349999995779,2.245105e-05,597.1349999995779,4.584743e-05,597.1349999995779,1.158038e-05,597.1349999995779,6.054217e-06
597.1499999995779,2.264037e-05,597.1499999995779,4.591007e-05,597.1499999995779,1.142608e-05,597.1499999995779,6.035575e-06
597.1649999995778,2.233278e-05,597.1649999995778,4.706697e-05,597.1649999995778,1.172184e-05,597.1649999995778,5.915346e-06
597.1799999995778,2.351807e-05,597.1799999995778,4.665273e-05,597.1799999995778,1.206882e-05,597.1799999995778,5.814468e-06
597.1949999995778,2.141443e-05,597.1949999995778,4.58763e-05,597.1949999995778,1.242084e-05,597.1949999995778,5.510979e-06
597.2099999995778,2.159457e-05,597.2099999995778,4.754728e-05,597.2099999995778,1.277861e-05,597.2099999995778,5.53139e-06
597.2249999995778,1.990836e-05,597.2249999995778,4.70568e-05,597.2249999995778,1.289821e-05,597.2249999995778,5.251831e-06
597.2399999995778,1.950882e-05,597.2399999995778,4.608829e-05,597.2399999995778,1.288291e-05,597.2399999995778,5.233022e-06
597.2549999995778,1.999661e-05,597.2549999995778,4.456358e-05,597.2549999995778,1.275323e-05,597.2549999995778,5.132455e-06
597.2699999995777,1.986941e-05,597.2699999995777,4.385236e-05,597.2699999995777,1.178416e-05,597.2699999995777,5.057808e-06
597.2849999995777,1.983038e-05,597.2849999995777,4.057024e-05,597.2849999995777,1.102962e-05,597.2849999995777,5.307859e-06
597.2999999995777,1.982256e-05,597.2999999995777,4.041857e-05,597.2999999995777,1.096172e-05,597.2999999995777,6.13052e-06
597.3149999995777,1.95348e-05,597.3149999995777,3.942528e-05,597.3149999995777,1.141128e-05,597.3149999995777,6.914493e-06
597.3299999995777,1.961611e-05,597.3299999995777,3.9548e-05,597.3299999995777,1.268234e-05,597.3299999995777,6.776621e-06
597.3449999995777,1.935877e-05,597.3449999995777,3.755474e-05,597.3449999995777,1.235831e-05,597.3449999995777,6.791156e-06
597.3599999995777,2.072921e-05,597.3599999995777,3.864253e-05,597.3599999995777,1.260658e-05,597.3599999995777,6.873626e-06
597.3749999995777,2.086671e-05,597.3749999995777,3.886679e-05,597.3749999995777,1.230805e-05,597.3749999995777,7.073606e-06
597.3899999995776,2.054834e-05,597.3899999995776,3.666536e-05,597.3899999995776,1.232521e-05,597.3899999995776,7.2971e-06
597.4049999995776,2.103413e-05,597.4049999995776,3.437919e-05,597.4049999995776,1.231721e-05,597.4049999995776,7.273898e-06
597.4199999995776,2.154363e-05,597.4199999995776,3.390264e-05,597.4199999995776,1.2397e-05,597.4199999995776,7.385367e-06
597.4349999995776,2.312668e-05,597.4349999995776,3.38569e-05,597.4349999995776,1.227597e-05,597.4349999995776,7.352869e-06
597.4499999995776,2.246297e-05,597.4499999995776,3.304883e-05,597.4499999995776,1.202204e-05,597.4499999995776,7.320229e-06
597.4649999995776,2.212683e-05,597.4649999995776,3.031573e-05,597.4649999995776,1.154017e-05,597.4649999995776,7.339447e-06
597.4799999995776,2.271057e-05,597.4799999995776,3.035288e-05,597.4799999995776,1.207698e-05,597.4799999995776,7.366268e-06
597.4949999995775,2.299412e-05,597.4949999995775,3.208819e-05,597.4949999995775,1.207348e-05,597.4949999995775,7.466933e-06
597.5099999995775,2.391896e-05,597.5099999995775,3.254242e-05,597.5099999995775,1.264897e-05,597.5099999995775,7.410121e-06
597.5249999995775,2.429759e-05,597.5249999995775,3.294039e-05,597.5249999995775,1.276758e-05,597.5249999995775,6.951067e-06
597.5399999995775,2.538356e-05,597.5399999995775,3.274308e-05,597.5399999995775,1.282043e-05,597.5399999995775,6.932803e-06
597.5549999995775,2.525671e-05,597.5549999995775,3.21439e-05,597.5549999995775,1.262891e-05,597.5549999995775,5.833818e-06
597.5699999995775,2.500897e-05,597.5699999995775,3.092255e-05,597.5699999995775,1.234462e-05,597.5699999995775,5.049445e-06
597.5849999995775,2.495879e-05,597.5849999995775,2.910043e-05,597.5849999995775,1.098227e-05,597.5849999995775,4.982041e-06
597.5999999995774,2.397543e-05,597.5999999995774,2.897284e-05,597.5999999995774,1.078293e-05,597.5999999995774,5.027078e-06
