X[s],a: EMG RMS 1-1,X[s].1,a: EMG RMS 1-2,X[s].2,a: EMG RMS 1-3,X[s].3,a: EMG RMS 1-4
433.0049999997271,1.779994e-05,433.0049999997271,1.897736e-05,433.0049999997271,5.110451e-06,433.0049999997271,5.731505e-06
433.0199999997271,1.825857e-05,433.0199999997271,1.852511e-05,433.0199999997271,5.423375e-06,433.0199999997271,5.706874e-06
433.03499999972706,1.848629e-05,433.03499999972706,1.947485e-05,433.03499999972706,5.577042e-06,433.03499999972706,5.738873e-06
433.04999999972705,1.853728e-05,433.04999999972705,1.926175e-05,433.04999999972705,5.281253e-06,433.04999999972705,5.672212e-06
433.06499999972704,2.10435e-05,433.06499999972704,1.872403e-05,433.06499999972704,5.459618e-06,433.06499999972704,5.579567e-06
433.079999999727,2.214783e-05,433.079999999727,1.884028e-05,433.079999999727,5.313164e-06,433.079999999727,5.599728e-06
433.094999999727,2.238381e-05,433.094999999727,1.784341e-05,433.094999999727,5.490492e-06,433.094999999727,5.689569e-06
433.109999999727,2.23643e-05,433.109999999727,1.620767e-05,433.109999999727,5.446701e-06,433.109999999727,5.546649e-06
433.124999999727,2.281145e-05,433.124999999727,1.323776e-05,433.124999999727,5.441526e-06,433.124999999727,5.604757e-06
433.13999999972697,2.238633e-05,433.13999999972697,1.282482e-05,433.13999999972697,5.559333e-06,433.13999999972697,5.799914e-06
433.15499999972695,2.179844e-05,433.15499999972695,1.264675e-05,433.15499999972695,5.53139e-06,433.15499999972695,5.554263e-06
433.16999999972694,2.186877e-05,433.16999999972694,1.23275e-05,433.16999999972694,5.490492e-06,433.16999999972694,5.622323e-06
433.1849999997269,2.269816e-05,433.1849999997269,1.238677e-05,433.1849999997269,5.467352e-06,433.1849999997269,5.60727e-06
433.1999999997269,2.448299e-05,433.1999999997269,1.341114e-05,433.1999999997269,5.505864e-06,433.1999999997269,5.891484e-06
433.2149999997269,2.370599e-05,433.2149999997269,1.37175e-05,433.2149999997269,5.410373e-06,433.2149999997269,6.03324e-06
433.2299999997269,2.436244e-05,433.2299999997269,1.372058e-05,433.2299999997269,5.405162e-06,433.2299999997269,6.224016e-06
433.2449999997269,2.457487e-05,433.2449999997269,1.470286e-05,433.2449999997269,5.622323e-06,433.2449999997269,6.296025e-06
433.25999999972686,2.507984e-05,433.25999999972686,2.160892e-05,433.25999999972686,8.181682e-06,433.25999999972686,6.395915e-06
433.27499999972684,2.718432e-05,433.27499999972684,2.528068e-05,433.27499999972684,1.758656e-05,433.27499999972684,6.25337e-06
433.28999999972683,3.115673e-05,433.28999999972683,2.520535e-05,433.28999999972683,2.675077e-05,433.28999999972683,6.260124e-06
433.3049999997268,3.23161e-05,433.3049999997268,2.731511e-05,433.3049999997268,2.733573e-05,433.3049999997268,6.275856e-06
433.3199999997268,3.049733e-05,433.3199999997268,2.794677e-05,433.3199999997268,2.789178e-05,433.3199999997268,6.342836e-06
433.3349999997268,3.116803e-05,433.3349999997268,2.86098e-05,433.3349999997268,2.804288e-05,433.3349999997268,6.260124e-06
433.3499999997268,3.178739e-05,433.3499999997268,3.00839e-05,433.3499999997268,2.919033e-05,433.3499999997268,6.158032e-06
433.36499999972676,3.219775e-05,433.36499999972676,3.202007e-05,433.36499999972676,2.924529e-05,433.36499999972676,6.128222e-06
433.37999999972675,3.280712e-05,433.37999999972675,3.545674e-05,433.37999999972675,2.927514e-05,433.37999999972675,5.953326e-06
433.39499999972674,3.287404e-05,433.39499999972674,3.673368e-05,433.39499999972674,3.159581e-05,433.39499999972674,5.741327e-06
433.4099999997267,3.347446e-05,433.4099999997267,4.269017e-05,433.4099999997267,3.401837e-05,433.4099999997267,5.751133e-06
433.4249999997267,3.22943e-05,433.4249999997267,4.874395e-05,433.4249999997267,3.61383e-05,433.4249999997267,5.662269e-06
433.4399999997267,3.194299e-05,433.4399999997267,5.352075e-05,433.4399999997267,3.612972e-05,433.4399999997267,5.795054e-06
433.4549999997267,3.225982e-05,433.4549999997267,5.720188e-05,433.4549999997267,3.616908e-05,433.4549999997267,6.016875e-06
433.46999999972667,3.254155e-05,433.46999999972667,6.076467e-05,433.46999999972667,3.616635e-05,433.46999999972667,5.836232e-06
433.48499999972665,3.122402e-05,433.48499999972665,7.054782e-05,433.48499999972665,3.616284e-05,433.48499999972665,5.943854e-06
433.49999999972664,3.223186e-05,433.49999999972664,7.706346e-05,433.49999999972664,3.625543e-05,433.49999999972664,5.903427e-06
433.5149999997266,3.191829e-05,433.5149999997266,7.710604e-05,433.5149999997266,3.591229e-05,433.5149999997266,6.867475e-06
433.5299999997266,2.76595e-05,433.5299999997266,7.733134e-05,433.5299999997266,2.712207e-05,433.5299999997266,7.15085e-06
433.5449999997266,2.494581e-05,433.5449999997266,7.773269e-05,433.5449999997266,2.629882e-05,433.5449999997266,7.688155e-06
433.5599999997266,2.412304e-05,433.5599999997266,7.696816e-05,433.5599999997266,2.620922e-05,433.5599999997266,9.291028e-06
433.5749999997266,2.411603e-05,433.5749999997266,7.671408e-05,433.5749999997266,2.583734e-05,433.5749999997266,9.306177e-06
433.58999999972656,2.223733e-05,433.58999999972656,7.694528e-05,433.58999999972656,2.467669e-05,433.58999999972656,9.325834e-06
433.60499999972654,2.233783e-05,433.60499999972654,7.718729e-05,433.60499999972654,2.472289e-05,433.60499999972654,1.010168e-05
433.61999999972653,2.239828e-05,433.61999999972653,8.140342e-05,433.61999999972653,2.471833e-05,433.61999999972653,1.085065e-05
433.6349999997265,2.13624e-05,433.6349999997265,8.313317e-05,433.6349999997265,2.515164e-05,433.6349999997265,1.106405e-05
433.6499999997265,2.038107e-05,433.6499999997265,8.217262e-05,433.6499999997265,2.663837e-05,433.6499999997265,1.114398e-05
433.6649999997265,2.052433e-05,433.6649999997265,8.332611e-05,433.6649999997265,3.316584e-05,433.6649999997265,1.121831e-05
433.6799999997265,2.167986e-05,433.6799999997265,8.138508e-05,433.6799999997265,3.329513e-05,433.6799999997265,1.113386e-05
433.69499999972646,2.230438e-05,433.69499999972646,8.178823e-05,433.69499999972646,3.37235e-05,433.69499999972646,1.105896e-05
433.70999999972645,2.059011e-05,433.70999999972645,7.981474e-05,433.70999999972645,3.448025e-05,433.70999999972645,1.127342e-05
433.72499999972644,1.983251e-05,433.72499999972644,7.897427e-05,433.72499999972644,3.467702e-05,433.72499999972644,1.139275e-05
433.7399999997264,1.896102e-05,433.7399999997264,6.949993e-05,433.7399999997264,3.483751e-05,433.7399999997264,1.139398e-05
433.7549999997264,1.756252e-05,433.7549999997264,7.051227e-05,433.7549999997264,3.481689e-05,433.7549999997264,1.107932e-05
433.7699999997264,1.796301e-05,433.7699999997264,7.156797e-05,433.7699999997264,3.587736e-05,433.7699999997264,1.094887e-05
433.7849999997264,1.835246e-05,433.7849999997264,7.422543e-05,433.7849999997264,3.594522e-05,433.7849999997264,1.091278e-05
433.79999999972637,1.835169e-05,433.79999999972637,8.636378e-05,433.79999999972637,3.573849e-05,433.79999999972637,1.044044e-05
433.81499999972635,1.848934e-05,433.81499999972635,8.779991e-05,433.81499999972635,3.592366e-05,433.81499999972635,9.454845e-06
433.82999999972634,1.886867e-05,433.82999999972634,8.763852e-05,433.82999999972634,3.686193e-05,433.82999999972634,9.743934e-06
433.8449999997263,1.980408e-05,433.8449999997263,8.823173e-05,433.8449999997263,3.834648e-05,433.8449999997263,9.831725e-06
433.8599999997263,2.368519e-05,433.8599999997263,9.02247e-05,433.8599999997263,4.31317e-05,433.8599999997263,9.139696e-06
433.8749999997263,2.44542e-05,433.8749999997263,9.364183e-05,433.8749999997263,4.368984e-05,433.8749999997263,8.363879e-06
433.8899999997263,2.460123e-05,433.8899999997263,9.59098e-05,433.8899999997263,4.374011e-05,433.8899999997263,8.200599e-06
433.9049999997263,2.428715e-05,433.9049999997263,9.657182e-05,433.9049999997263,3.252119e-05,433.9049999997263,8.128133e-06
433.91999999972626,2.357072e-05,433.91999999972626,9.505544e-05,433.91999999972626,3.287318e-05,433.91999999972626,8.114256e-06
433.93499999972624,2.232016e-05,433.93499999972624,9.200175e-05,433.93499999972624,3.45635e-05,433.93499999972624,8.018206e-06
433.94999999972623,2.138152e-05,433.94999999972623,9.112142e-05,433.94999999972623,3.469854e-05,433.94999999972623,7.824367e-06
433.9649999997262,2.130958e-05,433.9649999997262,9.058713e-05,433.9649999997262,3.465101e-05,433.9649999997262,7.540149e-06
433.9799999997262,2.343046e-05,433.9799999997262,8.864029e-05,433.9799999997262,3.469651e-05,433.9799999997262,7.242846e-06
433.9949999997262,2.375526e-05,433.9949999997262,8.936471e-05,433.9949999997262,3.487873e-05,433.9949999997262,7.089519e-06
434.0099999997262,2.374518e-05,434.0099999997262,8.463414e-05,434.0099999997262,3.597538e-05,434.0099999997262,6.770382e-06
434.02499999972616,2.402766e-05,434.02499999972616,8.378166e-05,434.02499999972616,3.606885e-05,434.02499999972616,6.627389e-06
434.03999999972615,2.403821e-05,434.03999999972615,7.840482e-05,434.03999999972615,3.886643e-05,434.03999999972615,6.174023e-06
434.05499999972614,2.387593e-05,434.05499999972614,6.962507e-05,434.05499999972614,3.931185e-05,434.05499999972614,5.974584e-06
434.0699999997261,2.386235e-05,434.0699999997261,6.877642e-05,434.0699999997261,3.974272e-05,434.0699999997261,5.709342e-06
434.0849999997261,2.340037e-05,434.0849999997261,6.880898e-05,434.0849999997261,3.856809e-05,434.0849999997261,5.233022e-06
434.0999999997261,2.251121e-05,434.0999999997261,6.662748e-05,434.0999999997261,3.705289e-05,434.0999999997261,5.104936e-06
434.1149999997261,1.6826e-05,434.1149999997261,5.777623e-05,434.1149999997261,3.244965e-05,434.1149999997261,4.708762e-06
434.12999999972607,1.569906e-05,434.12999999972607,4.919071e-05,434.12999999972607,3.179536e-05,434.12999999972607,4.497608e-06
434.14499999972605,1.530284e-05,434.14499999972605,4.439033e-05,434.14499999972605,3.26552e-05,434.14499999972605,4.494475e-06
434.15999999972604,1.537265e-05,434.15999999972604,4.127692e-05,434.15999999972604,3.249129e-05,434.15999999972604,4.519479e-06
434.174999999726,1.546674e-05,434.174999999726,4.212448e-05,434.174999999726,3.230128e-05,434.174999999726,4.519479e-06
434.189999999726,1.583398e-05,434.189999999726,4.17351e-05,434.189999999726,3.035891e-05,434.189999999726,4.535037e-06
434.204999999726,1.590056e-05,434.204999999726,4.156294e-05,434.204999999726,2.966044e-05,434.204999999726,4.602866e-06
434.219999999726,1.336274e-05,434.219999999726,4.095005e-05,434.219999999726,3.003282e-05,434.219999999726,4.618143e-06
434.23499999972597,1.195153e-05,434.23499999972597,3.867678e-05,434.23499999972597,3.020074e-05,434.23499999972597,4.513241e-06
434.24999999972596,1.144579e-05,434.24999999972596,3.847923e-05,434.24999999972596,2.999152e-05,434.24999999972596,4.472482e-06
434.26499999972594,9.884596e-06,434.26499999972594,3.964015e-05,434.26499999972594,2.841713e-05,434.26499999972594,4.402644e-06
434.27999999972593,8.309809e-06,434.27999999972593,3.974909e-05,434.27999999972593,2.599442e-05,434.27999999972593,4.409039e-06
434.2949999997259,8.385746e-06,434.2949999997259,3.627835e-05,434.2949999997259,2.267083e-05,434.2949999997259,4.35762e-06
434.3099999997259,8.81648e-06,434.3099999997259,3.409117e-05,434.3099999997259,2.226012e-05,434.3099999997259,4.216325e-06
434.3249999997259,1.043369e-05,434.3249999997259,3.525074e-05,434.3249999997259,2.114501e-05,434.3249999997259,4.182782e-06
434.3399999997259,1.110979e-05,434.3399999997259,3.716146e-05,434.3399999997259,2.138086e-05,434.3399999997259,4.182782e-06
434.35499999972586,1.170861e-05,434.35499999972586,3.487227e-05,434.35499999972586,2.35486e-05,434.35499999972586,4.192873e-06
434.36999999972585,1.176622e-05,434.36999999972585,3.319556e-05,434.36999999972585,2.353184e-05,434.36999999972585,4.145571e-06
434.38499999972584,1.159618e-05,434.38499999972584,3.256405e-05,434.38499999972584,2.270436e-05,434.38499999972584,4.131956e-06
434.3999999997258,1.165676e-05,434.3999999997258,3.221743e-05,434.3999999997258,2.108496e-05,434.3999999997258,3.964939e-06
434.4149999997258,1.158646e-05,434.4149999997258,3.239882e-05,434.4149999997258,2.147946e-05,434.4149999997258,3.73441e-06
434.4299999997258,1.172665e-05,434.4299999997258,3.499646e-05,434.4299999997258,2.092536e-05,434.4299999997258,3.700305e-06
434.4449999997258,1.158525e-05,434.4449999997258,3.493523e-05,434.4449999997258,2.171167e-05,434.4449999997258,3.681221e-06
434.45999999972577,1.157673e-05,434.45999999972577,3.410852e-05,434.45999999972577,2.112568e-05,434.45999999972577,3.512824e-06
434.47499999972575,1.288072e-05,434.47499999972575,3.334164e-05,434.47499999972575,2.142627e-05,434.47499999972575,3.443979e-06
434.48999999972574,1.375135e-05,434.48999999972574,3.466768e-05,434.48999999972574,2.133139e-05,434.48999999972574,3.512824e-06
434.5049999997257,1.459323e-05,434.5049999997257,3.299124e-05,434.5049999997257,2.112901e-05,434.5049999997257,3.615583e-06
434.5199999997257,1.520218e-05,434.5199999997257,3.396739e-05,434.5199999997257,2.013211e-05,434.5199999997257,3.90768e-06
434.5349999997257,1.576711e-05,434.5349999997257,3.339314e-05,434.5349999997257,1.994301e-05,434.5349999997257,3.78313e-06
434.5499999997257,1.493764e-05,434.5499999997257,3.4537e-05,434.5499999997257,1.978486e-05,434.5499999997257,3.809105e-06
434.56499999972567,1.604607e-05,434.56499999972567,3.403658e-05,434.56499999972567,2.080789e-05,434.56499999972567,3.764466e-06
434.57999999972566,1.765133e-05,434.57999999972566,3.230564e-05,434.57999999972566,2.289405e-05,434.57999999972566,3.719291e-06
434.59499999972564,1.854563e-05,434.59499999972564,3.211671e-05,434.59499999972564,2.226392e-05,434.59499999972564,3.715501e-06
434.60999999972563,1.884028e-05,434.60999999972563,3.287446e-05,434.60999999972563,1.971139e-05,434.60999999972563,3.711708e-06
434.6249999997256,1.885598e-05,434.6249999997256,3.33167e-05,434.6249999997256,2.033194e-05,434.6249999997256,3.911283e-06
434.6399999997256,1.890373e-05,434.6399999997256,3.360759e-05,434.6399999997256,2.343106e-05,434.6399999997256,3.972038e-06
434.6549999997256,1.892086e-05,434.6549999997256,3.438329e-05,434.6549999997256,2.3597e-05,434.6549999997256,3.96849e-06
434.6699999997256,1.878562e-05,434.6699999997256,3.358327e-05,434.6699999997256,2.57067e-05,434.6699999997256,4.000309e-06
434.68499999972556,1.847104e-05,434.68499999972556,3.145147e-05,434.68499999972556,2.610852e-05,434.68499999972556,4.000309e-06
434.69999999972555,1.886793e-05,434.69999999972555,3.126865e-05,434.69999999972555,2.618125e-05,434.69999999972555,3.957827e-06
434.71499999972553,1.857675e-05,434.71499999972553,3.205305e-05,434.71499999972553,2.639453e-05,434.71499999972553,4.017877e-06
434.7299999997255,1.775636e-05,434.7299999997255,3.316966e-05,434.7299999997255,2.84528e-05,434.7299999997255,4.169289e-06
434.7449999997255,1.673028e-05,434.7449999997255,3.281914e-05,434.7449999997255,2.966234e-05,434.7449999997255,4.20629e-06
434.7599999997255,1.65389e-05,434.7599999997255,3.096762e-05,434.7599999997255,3.267633e-05,434.7599999997255,4.010859e-06
434.7749999997255,1.612576e-05,434.7749999997255,3.006751e-05,434.7749999997255,3.288903e-05,434.7749999997255,3.764466e-06
434.78999999972547,1.537265e-05,434.78999999972547,2.996943e-05,434.78999999972547,3.327058e-05,434.78999999972547,3.885991e-06
434.80499999972545,1.531573e-05,434.80499999972545,2.863589e-05,434.80499999972545,3.324729e-05,434.80499999972545,3.939991e-06
434.81999999972544,1.289821e-05,434.81999999972544,2.991345e-05,434.81999999972544,3.296646e-05,434.81999999972544,4.038859e-06
434.8349999997254,9.015552e-06,434.8349999997254,3.075262e-05,434.8349999997254,3.349129e-05,434.8349999997254,4.059732e-06
434.8499999997254,7.644054e-06,434.8499999997254,2.89563e-05,434.8499999997254,3.351694e-05,434.8499999997254,4.080498e-06
434.8649999997254,6.732826e-06,434.8649999997254,2.866391e-05,434.8649999997254,3.389807e-05,434.8649999997254,3.979125e-06
434.8799999997254,6.520246e-06,434.8799999997254,2.859897e-05,434.8799999997254,3.308334e-05,434.8799999997254,3.914884e-06
434.89499999972537,6.452925e-06,434.89499999972537,2.88227e-05,434.89499999972537,3.142145e-05,434.89499999972537,3.90768e-06
434.90999999972536,6.289309e-06,434.90999999972536,2.795584e-05,434.90999999972536,3.096807e-05,434.90999999972536,3.816494e-06
434.92499999972534,6.524566e-06,434.92499999972534,2.562547e-05,434.92499999972534,2.979218e-05,434.92499999972534,3.779404e-06
434.93999999972533,6.580461e-06,434.93999999972533,2.536246e-05,434.93999999972533,2.928091e-05,434.93999999972533,3.820184e-06
434.9549999997253,1.019606e-05,434.9549999997253,2.509444e-05,434.9549999997253,2.828247e-05,434.9549999997253,3.760722e-06
434.9699999997253,1.403826e-05,434.9699999997253,2.430455e-05,434.9699999997253,2.788319e-05,434.9699999997253,3.73818e-06
434.9849999997253,1.61981e-05,434.9849999997253,2.192987e-05,434.9849999997253,2.507366e-05,434.9849999997253,3.615583e-06
434.9999999997253,1.775477e-05,434.9999999997253,2.104886e-05,434.9999999997253,2.299657e-05,434.9999999997253,3.532818e-06
435.01499999972526,1.781734e-05,435.01499999972526,2.088695e-05,435.01499999972526,1.889031e-05,435.01499999972526,3.508812e-06
435.02999999972525,2.302596e-05,435.02999999972525,2.07957e-05,435.02999999972525,1.81215e-05,435.02999999972525,3.532818e-06
435.04499999972523,2.451921e-05,435.04499999972523,2.029935e-05,435.04499999972523,1.726075e-05,435.04499999972523,3.327482e-06
435.0599999997252,2.589942e-05,435.0599999997252,1.950665e-05,435.0599999997252,1.712474e-05,435.0599999997252,3.237359e-06
435.0749999997252,2.674287e-05,435.0749999997252,1.866224e-05,435.0749999997252,1.472584e-05,435.0749999997252,3.427579e-06
435.0899999997252,2.69198e-05,435.0899999997252,2.000155e-05,435.0899999997252,1.094887e-05,435.0899999997252,3.448066e-06
435.1049999997252,2.702946e-05,435.1049999997252,2.012582e-05,435.1049999997252,1.101812e-05,435.1049999997252,3.492716e-06
435.11999999972517,2.724127e-05,435.11999999972517,2.074348e-05,435.11999999972517,8.813284e-06,435.11999999972517,3.452149e-06
435.13499999972515,2.722057e-05,435.13499999972515,2.055793e-05,435.13499999972515,8.634045e-06,435.13499999972515,3.512824e-06
435.14999999972514,2.724385e-05,435.14999999972514,2.074348e-05,435.14999999972514,8.66011e-06,435.14999999972514,3.556662e-06
435.1649999997251,2.721902e-05,435.1649999997251,2.103346e-05,435.1649999997251,6.861319e-06,435.1649999997251,3.681221e-06
435.1799999997251,2.725109e-05,435.1799999997251,2.116498e-05,435.1799999997251,7.827967e-06,435.1799999997251,3.760722e-06
435.1949999997251,2.68606e-05,435.1949999997251,2.331232e-05,435.1949999997251,1.120071e-05,435.1949999997251,3.83123e-06
435.2099999997251,2.488701e-05,435.2099999997251,2.379437e-05,435.2099999997251,1.278081e-05,435.2099999997251,4.328428e-06
435.22499999972507,2.405872e-05,435.22499999972507,2.497854e-05,435.22499999972507,1.318552e-05,435.22499999972507,4.47563e-06
435.23999999972506,2.39907e-05,435.23999999972506,2.519472e-05,435.23999999972506,1.424644e-05,435.23999999972506,4.624239e-06
435.25499999972504,2.297574e-05,435.25499999972504,2.705186e-05,435.25499999972504,1.442234e-05,435.25499999972504,5.326404e-06
435.26999999972503,2.295733e-05,435.26999999972503,2.821066e-05,435.26999999972503,1.460771e-05,435.26999999972503,5.75603e-06
435.284999999725,1.847257e-05,435.284999999725,3.15083e-05,435.284999999725,1.450513e-05,435.284999999725,5.893875e-06
435.299999999725,1.739164e-05,435.299999999725,3.670069e-05,435.299999999725,1.473923e-05,435.299999999725,5.920107e-06
435.314999999725,1.542205e-05,435.314999999725,3.778435e-05,435.314999999725,1.816886e-05,435.314999999725,5.95096e-06
435.329999999725,1.536623e-05,435.329999999725,3.650403e-05,435.329999999725,1.859115e-05,435.329999999725,5.833818e-06
435.34499999972496,1.517249e-05,435.34499999972496,3.587107e-05,435.34499999972496,1.920976e-05,435.34499999972496,5.792623e-06
435.35999999972495,1.541108e-05,435.35999999972495,3.790272e-05,435.35999999972495,1.938205e-05,435.35999999972495,5.819312e-06
435.37499999972493,1.526782e-05,435.37499999972493,4.050874e-05,435.37499999972493,1.96039e-05,435.37499999972493,5.905813e-06
435.3899999997249,1.537265e-05,435.3899999997249,4.404692e-05,435.3899999997249,1.943285e-05,435.3899999997249,5.843468e-06
435.4049999997249,1.671175e-05,435.4049999997249,4.557037e-05,435.4049999997249,1.979696e-05,435.4049999997249,5.901041e-06
435.4199999997249,1.760418e-05,435.4199999997249,5.055412e-05,435.4199999997249,2.323667e-05,435.4199999997249,5.941484e-06
435.4349999997249,1.805218e-05,435.4349999997249,5.031587e-05,435.4349999997249,2.290942e-05,435.4349999997249,5.877121e-06
435.44999999972487,1.801e-05,435.44999999972487,4.964111e-05,435.44999999972487,2.122878e-05,435.44999999972487,5.731505e-06
435.46499999972485,1.740298e-05,435.46499999972485,5.007368e-05,435.46499999972485,2.190288e-05,435.46499999972485,5.365928e-06
435.47999999972484,2.056616e-05,435.47999999972484,5.083505e-05,435.47999999972484,2.12871e-05,435.47999999972484,5.243778e-06
435.4949999997248,2.026532e-05,435.4949999997248,5.169865e-05,435.4949999997248,2.166621e-05,435.4949999997248,5.046655e-06
435.5099999997248,2.006975e-05,435.5099999997248,5.138627e-05,435.5099999997248,2.223797e-05,435.5099999997248,4.252917e-06
435.5249999997248,1.9657e-05,435.5249999997248,5.114612e-05,435.5249999997248,2.326514e-05,435.5249999997248,3.950702e-06
435.5399999997248,1.97813e-05,435.5399999997248,4.858619e-05,435.5399999997248,2.317232e-05,435.5399999997248,3.92925e-06
435.55499999972477,1.95521e-05,435.55499999972477,4.639324e-05,435.55499999972477,2.158283e-05,435.55499999972477,3.914884e-06
435.56999999972476,2.040111e-05,435.56999999972476,4.603325e-05,435.56999999972476,2.063454e-05,435.56999999972476,3.979125e-06
435.58499999972474,1.986657e-05,435.58499999972474,4.662101e-05,435.58499999972474,2.028686e-05,435.58499999972474,3.96849e-06
435.59999999972473,1.97813e-05,435.59999999972473,4.69222e-05,435.59999999972473,2.002548e-05,435.59999999972473,3.986198e-06
435.6149999997247,1.999802e-05,435.6149999997247,4.525678e-05,435.6149999997247,2.020057e-05,435.6149999997247,3.882364e-06
435.6299999997247,2.028894e-05,435.6299999997247,4.146828e-05,435.6299999997247,2.197672e-05,435.6299999997247,3.83123e-06
435.6449999997247,2.118694e-05,435.6449999997247,4.026038e-05,435.6449999997247,2.219675e-05,435.6449999997247,3.845909e-06
435.6599999997247,1.964625e-05,435.6599999997247,3.660807e-05,435.6599999997247,2.078689e-05,435.6599999997247,4.223002e-06
435.67499999972466,1.931506e-05,435.67499999972466,3.646658e-05,435.67499999972466,1.864638e-05,435.67499999972466,4.771172e-06
435.68999999972465,1.88343e-05,435.68999999972465,3.761321e-05,435.68999999972465,1.860403e-05,435.68999999972465,4.800605e-06
435.70499999972463,1.870446e-05,435.70499999972463,3.969377e-05,435.70499999972463,1.897439e-05,435.70499999972463,5.469929e-06
435.7199999997246,1.73446e-05,435.7199999997246,3.960709e-05,435.7199999997246,1.998464e-05,435.7199999997246,6.936866e-06
435.7349999997246,1.468561e-05,435.7349999997246,4.072757e-05,435.7349999997246,1.964123e-05,435.7349999997246,7.42721e-06
435.7499999997246,1.698847e-05,435.7499999997246,4.28213e-05,435.7499999997246,1.944807e-05,435.7499999997246,8.666614e-06
435.7649999997246,1.757855e-05,435.7649999997246,4.299792e-05,435.7649999997246,1.81285e-05,435.7649999997246,9.004607e-06
435.77999999972457,1.705467e-05,435.77999999972457,4.456389e-05,435.77999999972457,1.995289e-05,435.77999999972457,9.291028e-06
435.79499999972455,1.658993e-05,435.79499999972455,5.222917e-05,435.79499999972455,2.550922e-05,435.79499999972455,9.807338e-06
435.80999999972454,1.644494e-05,435.80999999972454,5.629384e-05,435.80999999972454,2.539354e-05,435.80999999972454,1.010447e-05
435.8249999997245,1.643209e-05,435.8249999997245,6.310261e-05,435.8249999997245,2.521149e-05,435.8249999997245,1.020297e-05
435.8399999997245,1.674207e-05,435.8399999997245,6.472215e-05,435.8399999997245,4.928312e-05,435.8399999997245,1.021952e-05
435.8549999997245,1.787811e-05,435.8549999997245,6.772608e-05,435.8549999997245,5.441889e-05,435.8549999997245,1.034556e-05
435.8699999997245,1.78442e-05,435.8699999997245,6.97104e-05,435.8699999997245,5.474536e-05,435.8699999997245,1.085194e-05
435.88499999972447,1.844891e-05,435.88499999972447,7.038229e-05,435.88499999972447,5.441708e-05,435.88499999972447,1.088952e-05
435.89999999972446,1.911198e-05,435.89999999972446,7.097979e-05,435.89999999972446,5.466786e-05,435.89999999972446,1.092439e-05
435.91499999972444,2.007325e-05,435.91499999972444,6.998146e-05,435.91499999972444,5.469001e-05,435.91499999972444,1.113639e-05
435.92999999972443,2.054697e-05,435.92999999972443,6.987893e-05,435.92999999972443,5.513407e-05,435.92999999972443,1.113512e-05
435.9449999997244,2.137625e-05,435.9449999997244,7.017844e-05,435.9449999997244,5.817132e-05,435.9449999997244,1.110091e-05
435.9599999997244,2.197608e-05,435.9599999997244,6.953761e-05,435.9599999997244,5.887323e-05,435.9599999997244,1.106787e-05
435.9749999997244,2.213829e-05,435.9749999997244,6.959411e-05,435.9749999997244,5.894735e-05,435.9749999997244,1.022366e-05
435.9899999997244,2.102274e-05,435.9899999997244,6.797355e-05,435.9899999997244,5.909986e-05,435.9899999997244,9.328855e-06
436.00499999972436,2.079638e-05,436.00499999972436,6.701537e-05,436.00499999972436,5.92881e-05,436.00499999972436,9.494987e-06
436.01999999972435,2.052364e-05,436.01999999972435,6.827566e-05,436.01999999972435,5.960303e-05,436.01999999972435,9.168933e-06
436.03499999972433,2.038453e-05,436.03499999972433,6.606803e-05,436.03499999972433,5.927027e-05,436.03499999972433,9.483111e-06
436.0499999997243,2.069861e-05,436.0499999997243,6.424768e-05,436.0499999997243,5.812821e-05,436.0499999997243,9.259134e-06
436.0649999997243,2.054286e-05,436.0649999997243,6.097619e-05,436.0649999997243,5.855557e-05,436.0649999997243,9.136613e-06
436.0799999997243,2.058396e-05,436.0799999997243,6.054218e-05,436.0799999997243,5.855124e-05,436.0799999997243,9.301635e-06
436.0949999997243,2.082007e-05,436.0949999997243,5.738137e-05,436.0949999997243,3.53947e-05,436.0949999997243,9.239335e-06
436.10999999972427,1.955714e-05,436.10999999972427,6.00762e-05,436.10999999972427,3.383776e-05,436.10999999972427,9.066966e-06
436.12499999972425,1.844433e-05,436.12499999972425,6.270467e-05,436.12499999972425,3.51547e-05,436.12499999972425,8.795684e-06
436.13999999972424,1.734623e-05,436.13999999972424,6.179292e-05,436.13999999972424,3.62733e-05,436.13999999972424,8.741063e-06
436.1549999997242,1.656698e-05,436.1549999997242,6.070066e-05,436.1549999997242,3.659999e-05,436.1549999997242,8.671489e-06
436.1699999997242,1.565953e-05,436.1699999997242,5.987562e-05,436.1699999997242,3.647546e-05,436.1699999997242,8.193725e-06
436.1849999997242,1.656613e-05,436.1849999997242,5.970079e-05,436.1849999997242,3.642715e-05,436.1849999997242,8.08469e-06
436.1999999997242,1.677149e-05,436.1999999997242,6.129899e-05,436.1999999997242,3.087924e-05,436.1999999997242,7.924546e-06
436.21499999972417,1.821686e-05,436.21499999972417,6.156224e-05,436.21499999972417,3.009514e-05,436.21499999972417,7.686323e-06
436.22999999972416,1.852815e-05,436.22999999972416,6.125348e-05,436.22999999972416,3.065398e-05,436.22999999972416,7.534543e-06
436.24499999972414,1.800687e-05,436.24499999972414,6.055683e-05,436.24499999972414,3.100035e-05,436.24499999972414,7.00959e-06
436.25999999972413,1.813238e-05,436.25999999972413,6.0446e-05,436.25999999972413,3.038349e-05,436.25999999972413,6.867475e-06
436.2749999997241,1.803579e-05,436.2749999997241,5.885336e-05,436.2749999997241,3.014051e-05,436.2749999997241,6.770382e-06
436.2899999997241,1.857599e-05,436.2899999997241,5.763318e-05,436.2899999997241,2.77302e-05,436.2899999997241,5.874723e-06
436.3049999997241,1.82686e-05,436.3049999997241,5.780134e-05,436.3049999997241,2.731975e-05,436.3049999997241,5.392116e-06
436.3199999997241,1.810517e-05,436.3199999997241,5.347572e-05,436.3199999997241,2.672179e-05,436.3199999997241,5.140683e-06
436.33499999972406,1.870371e-05,436.33499999972406,5.333355e-05,436.33499999972406,2.753751e-05,436.33499999972406,4.93374e-06
436.34999999972405,1.81859e-05,436.34999999972405,5.336867e-05,436.34999999972405,3.237185e-05,436.34999999972405,4.844421e-06
436.36499999972403,1.822769e-05,436.36499999972403,4.49366e-05,436.36499999972403,3.304798e-05,436.36499999972403,4.768218e-06
436.379999999724,1.827631e-05,436.379999999724,4.378228e-05,436.379999999724,3.069944e-05,436.379999999724,4.672725e-06
436.394999999724,1.884028e-05,436.394999999724,4.333112e-05,436.394999999724,2.914928e-05,436.394999999724,4.636408e-06
436.409999999724,1.897068e-05,436.409999999724,4.355777e-05,436.409999999724,2.885396e-05,436.409999999724,4.544346e-06
436.424999999724,1.881634e-05,436.424999999724,4.398803e-05,436.424999999724,2.744579e-05,436.424999999724,4.431347e-06
436.43999999972397,1.687782e-05,436.43999999972397,4.389988e-05,436.43999999972397,2.761362e-05,436.43999999972397,4.456705e-06
436.45499999972395,1.53873e-05,436.45499999972395,4.751764e-05,436.45499999972395,2.707841e-05,436.45499999972395,4.34467e-06
436.46999999972394,1.381064e-05,436.46999999972394,4.849536e-05,436.46999999972394,2.801625e-05,436.46999999972394,4.38019e-06
436.4849999997239,1.339853e-05,436.4849999997239,4.816952e-05,436.4849999997239,2.701278e-05,436.4849999997239,4.405843e-06
436.4999999997239,1.289821e-05,436.4999999997239,4.727333e-05,436.4999999997239,2.677551e-05,436.4999999997239,4.663672e-06
436.5149999997239,1.279293e-05,436.5149999997239,4.73311e-05,436.5149999997239,2.64718e-05,436.5149999997239,4.538142e-06
436.5299999997239,1.23697e-05,436.5299999997239,4.869335e-05,436.5299999997239,2.65902e-05,436.5299999997239,4.602866e-06
436.54499999972387,1.193383e-05,436.54499999972387,4.756742e-05,436.54499999972387,2.658808e-05,436.54499999972387,4.702775e-06
436.55999999972386,1.17734e-05,436.55999999972386,4.454904e-05,436.55999999972386,2.644092e-05,436.55999999972386,4.621192e-06
436.57499999972384,1.022779e-05,436.57499999972384,4.461507e-05,436.57499999972384,2.623769e-05,436.57499999972384,4.541245e-06
436.58999999972383,9.827426e-06,436.58999999972383,4.455346e-05,436.58999999972383,2.438555e-05,436.58999999972383,4.428167e-06
436.6049999997238,9.858911e-06,436.6049999997238,4.334347e-05,436.6049999997238,1.53873e-05,436.6049999997238,4.302314e-06
436.6199999997238,1.041477e-05,436.6199999997238,4.262412e-05,436.6199999997238,1.368769e-05,436.6199999997238,4.269446e-06
436.6349999997238,1.070557e-05,436.6349999997238,4.21883e-05,436.6349999997238,1.376057e-05,436.6349999997238,4.312125e-06
436.6499999997238,1.074891e-05,436.6499999997238,4.150121e-05,436.6499999997238,1.382593e-05,436.6499999997238,4.20629e-06
436.66499999972376,1.038633e-05,436.66499999972376,4.143531e-05,436.66499999972376,1.388185e-05,436.66499999972376,4.236323e-06
436.67999999972375,1.05745e-05,436.67999999972375,4.065834e-05,436.67999999972375,1.387678e-05,436.67999999972375,4.186148e-06
436.69499999972373,1.054783e-05,436.69499999972373,3.874955e-05,436.69499999972373,1.285226e-05,436.69499999972373,4.331681e-06
436.7099999997237,1.01184e-05,436.7099999997237,3.307184e-05,436.7099999997237,9.807338e-06,436.7099999997237,4.272744e-06
436.7249999997237,1.024018e-05,436.7249999997237,3.728029e-05,436.7249999997237,8.676361e-06,436.7249999997237,4.328428e-06
436.7399999997237,1.357505e-05,436.7399999997237,3.82549e-05,436.7399999997237,1.239928e-05,436.7399999997237,4.162526e-06
436.7549999997237,1.852283e-05,436.7549999997237,3.827993e-05,436.7549999997237,1.737706e-05,436.7549999997237,3.964939e-06
436.76999999972367,1.92676e-05,436.76999999972367,3.749055e-05,436.76999999972367,2.792156e-05,436.76999999972367,4.269446e-06
436.78499999972365,2.17771e-05,436.78499999972365,3.746799e-05,436.78499999972365,3.037236e-05,436.78499999972365,4.376973e-06
436.79999999972364,2.410785e-05,436.79999999972364,3.818192e-05,436.79999999972364,3.091936e-05,436.79999999972364,5.211442e-06
436.8149999997236,2.480764e-05,436.8149999997236,3.841365e-05,436.8149999997236,3.117842e-05,436.8149999997236,5.384273e-06
436.8299999997236,2.505849e-05,436.8299999997236,3.727992e-05,436.8299999997236,3.143624e-05,436.8299999997236,5.976941e-06
436.8449999997236,2.966281e-05,436.8449999997236,3.683096e-05,436.8449999997236,3.176034e-05,436.8449999997236,6.718165e-06
436.8599999997236,2.983234e-05,436.8599999997236,3.645962e-05,436.8599999997236,3.209697e-05,436.8599999997236,6.865424e-06
436.87499999972357,2.964239e-05,436.87499999972357,3.641594e-05,436.87499999972357,3.215266e-05,436.87499999972357,7.209706e-06
436.88999999972356,2.920914e-05,436.88999999972356,3.654221e-05,436.88999999972356,3.217937e-05,436.88999999972356,7.525189e-06
436.90499999972354,2.967231e-05,436.90499999972354,3.617959e-05,436.90499999972354,3.217324e-05,436.90499999972354,7.59599e-06
436.91999999972353,3.076315e-05,436.91999999972353,3.585379e-05,436.91999999972353,3.213995e-05,436.91999999972353,7.764728e-06
436.9349999997235,3.083953e-05,436.9349999997235,3.491869e-05,436.9349999997235,3.215091e-05,436.9349999997235,7.802733e-06
436.9499999997235,3.117345e-05,436.9499999997235,3.314332e-05,436.9499999997235,3.215047e-05,436.9499999997235,7.744747e-06
436.9649999997235,3.121093e-05,436.9649999997235,2.873312e-05,436.9649999997235,3.214214e-05,436.9649999997235,7.655103e-06
436.9799999997235,3.234312e-05,436.9799999997235,2.82989e-05,436.9799999997235,3.202184e-05,436.9799999997235,7.644054e-06
436.99499999972346,3.189489e-05,436.99499999972346,2.944307e-05,436.99499999972346,3.005392e-05,436.99499999972346,7.675319e-06
437.00999999972345,2.927225e-05,437.00999999972345,3.149086e-05,437.00999999972345,2.249368e-05,437.00999999972345,7.931653e-06
437.02499999972343,2.90122e-05,437.02499999972343,3.132087e-05,437.02499999972343,1.466065e-05,437.02499999972343,7.892485e-06
437.0399999997234,2.577183e-05,437.0399999997234,2.955672e-05,437.0399999997234,1.171342e-05,437.0399999997234,7.640368e-06
437.0549999997234,2.633468e-05,437.0549999997234,2.778298e-05,437.0549999997234,9.891719e-06,437.0549999997234,7.547619e-06
437.0699999997234,2.570999e-05,437.0699999997234,2.739544e-05,437.0699999997234,1.653635e-05,437.0699999997234,7.553216e-06
437.0849999997234,2.578166e-05,437.0849999997234,2.75283e-05,437.0849999997234,1.701249e-05,437.0849999997234,7.459384e-06
437.09999999972337,2.028894e-05,437.09999999972337,2.858074e-05,437.09999999972337,1.605485e-05,437.09999999972337,6.873626e-06
437.11499999972335,1.995007e-05,437.11499999972335,3.004501e-05,437.11499999972335,1.602762e-05,437.11499999972335,7.194059e-06
437.12999999972334,1.997194e-05,437.12999999972334,3.212154e-05,437.12999999972334,1.616067e-05,437.12999999972334,7.577422e-06
437.1449999997233,2.000436e-05,437.1449999997233,3.246093e-05,437.1449999997233,1.651674e-05,437.1449999997233,7.629297e-06
437.1599999997233,1.850914e-05,437.1599999997233,3.329555e-05,437.1599999997233,1.707283e-05,437.1599999997233,7.777418e-06
437.1749999997233,2.07428e-05,437.1749999997233,3.66669e-05,437.1749999997233,1.964768e-05,437.1749999997233,7.981227e-06
437.1899999997233,2.062361e-05,437.1899999997233,3.805887e-05,437.1899999997233,2.028963e-05,437.1899999997233,8.51411e-06
437.20499999972327,2.026601e-05,437.20499999972327,3.92674e-05,437.20499999972327,2.034372e-05,437.20499999972327,8.533942e-06
437.21999999972326,1.939367e-05,437.21999999972326,3.995094e-05,437.21999999972326,2.082954e-05,437.21999999972326,8.664989e-06
437.23499999972324,1.738354e-05,437.23499999972324,3.919702e-05,437.23499999972324,2.08194e-05,437.23499999972324,8.686096e-06
437.24999999972323,1.60794e-05,437.24999999972323,3.86888e-05,437.24999999972323,2.098317e-05,437.24999999972323,8.596438e-06
437.2649999997232,1.623285e-05,437.2649999997232,3.861664e-05,437.2649999997232,2.328269e-05,437.2649999997232,8.538892e-06
437.2799999997232,1.819907e-05,437.2799999997232,4.143123e-05,437.2799999997232,2.436301e-05,437.2799999997232,8.522379e-06
437.2949999997232,1.80896e-05,437.2949999997232,4.153718e-05,437.2949999997232,2.499996e-05,437.2949999997232,8.353768e-06
437.3099999997232,1.694779e-05,437.3099999997232,4.245823e-05,437.3099999997232,2.458519e-05,437.3099999997232,8.277538e-06
437.32499999972316,1.664757e-05,437.32499999972316,4.3762e-05,437.32499999972316,2.352885e-05,437.32499999972316,8.056763e-06
437.33999999972315,1.674627e-05,437.33999999972315,4.51424e-05,437.33999999972315,2.492321e-05,437.33999999972315,7.556945e-06
437.35499999972313,1.872779e-05,437.35499999972313,4.5263e-05,437.35499999972313,2.503431e-05,437.35499999972313,7.717415e-06
437.3699999997231,1.88096e-05,437.3699999997231,4.405171e-05,437.3699999997231,2.543235e-05,437.3699999997231,7.500814e-06
437.3849999997231,2.112301e-05,437.3849999997231,4.390822e-05,437.3849999997231,2.532411e-05,437.3849999997231,6.989465e-06
437.3999999997231,2.202282e-05,437.3999999997231,4.491716e-05,437.3999999997231,2.530574e-05,437.3999999997231,6.569749e-06
437.4149999997231,2.26963e-05,437.4149999997231,4.272744e-05,437.4149999997231,2.385999e-05,437.4149999997231,6.599699e-06
437.42999999972307,2.163368e-05,437.42999999972307,4.155108e-05,437.42999999972307,2.272731e-05,437.42999999972307,6.358363e-06
437.44499999972305,2.220754e-05,437.44499999972305,4.194048e-05,437.44499999972305,2.297757e-05,437.44499999972305,6.063518e-06
437.45999999972304,2.431614e-05,437.45999999972304,4.443157e-05,437.45999999972304,2.295918e-05,437.45999999972304,6.13052e-06
437.474999999723,2.598955e-05,437.474999999723,4.383726e-05,437.474999999723,2.404114e-05,437.474999999723,6.264623e-06
437.489999999723,2.702581e-05,437.489999999723,4.473395e-05,437.489999999723,2.425058e-05,437.489999999723,6.382687e-06
437.504999999723,2.734449e-05,437.504999999723,4.610449e-05,437.504999999723,2.369708e-05,437.504999999723,6.342836e-06
437.519999999723,2.768088e-05,437.519999999723,4.469394e-05,437.519999999723,2.148011e-05,437.519999999723,6.539662e-06
437.53499999972297,2.812965e-05,437.53499999972297,4.653119e-05,437.53499999972297,2.080451e-05,437.53499999972297,6.684531e-06
437.54999999972296,3.052134e-05,437.54999999972296,5.603827e-05,437.54999999972296,1.949799e-05,437.54999999972296,7.04567e-06
437.56499999972294,3.099353e-05,437.56499999972294,5.977484e-05,437.56499999972294,1.883729e-05,437.56499999972294,7.03967e-06
437.57999999972293,3.095215e-05,437.57999999972293,6.132909e-05,437.57999999972293,1.739245e-05,437.57999999972293,7.446153e-06
437.5949999997229,2.986396e-05,437.5949999997229,6.277046e-05,437.5949999997229,1.536806e-05,437.5949999997229,7.761099e-06
437.6099999997229,2.957721e-05,437.6099999997229,7.034385e-05,437.6099999997229,1.584554e-05,437.6099999997229,7.762914e-06
437.6249999997229,2.955195e-05,437.6249999997229,7.138626e-05,437.6249999997229,1.771664e-05,437.6249999997229,8.114256e-06
437.6399999997229,2.791954e-05,437.6399999997229,7.077408e-05,437.6399999997229,1.842447e-05,437.6399999997229,8.198881e-06
437.65499999972286,2.585696e-05,437.65499999972286,7.437483e-05,437.65499999972286,1.904701e-05,437.65499999972286,8.614445e-06
437.66999999972285,2.653983e-05,437.66999999972285,7.650667e-05,437.66999999972285,1.990836e-05,437.66999999972285,8.742674e-06
437.68499999972283,2.601717e-05,437.68499999972283,7.83581e-05,437.68499999972283,2.023541e-05,437.68499999972283,9.142777e-06
437.6999999997228,2.516955e-05,437.6999999997228,7.759211e-05,437.6999999997228,2.082007e-05,437.6999999997228,9.287995e-06
437.7149999997228,2.370659e-05,437.7149999997228,7.719441e-05,437.7149999997228,2.42651e-05,437.7149999997228,9.251524e-06
437.7299999997228,2.195555e-05,437.7299999997228,7.777544e-05,437.7299999997228,2.523886e-05,437.7299999997228,9.313742e-06
437.7449999997228,2.181459e-05,437.7449999997228,7.830415e-05,437.7449999997228,2.545449e-05,437.7449999997228,9.272816e-06
437.75999999972277,2.156781e-05,437.75999999972277,7.883377e-05,437.75999999972277,2.525225e-05,437.75999999972277,9.333384e-06
437.77499999972275,2.137031e-05,437.77499999972275,7.914087e-05,437.77499999972275,2.598738e-05,437.77499999972275,9.073179e-06
437.78999999972274,2.079706e-05,437.78999999972274,7.632288e-05,437.78999999972274,2.628757e-05,437.78999999972274,9.204201e-06
437.8049999997227,1.763616e-05,437.8049999997227,7.483686e-05,437.8049999997227,3.316201e-05,437.8049999997227,8.977973e-06
437.8199999997227,1.701829e-05,437.8199999997227,7.866437e-05,437.8199999997227,3.42688e-05,437.8199999997227,8.99365e-06
437.8349999997227,1.691034e-05,437.8349999997227,7.777291e-05,437.8349999997227,3.415268e-05,437.8349999997227,8.59316e-06
437.8499999997227,1.69245e-05,437.8499999997227,7.904719e-05,437.8499999997227,3.424289e-05,437.8499999997227,8.291141e-06
437.86499999972267,1.695111e-05,437.86499999972267,7.360912e-05,437.86499999972267,3.39259e-05,437.86499999972267,8.28094e-06
437.87999999972266,1.752237e-05,437.87999999972266,7.392764e-05,437.87999999972266,3.528269e-05,437.87999999972266,8.042764e-06
437.89499999972264,1.936896e-05,437.89499999972264,7.360223e-05,437.89499999972264,3.621073e-05,437.89499999972264,7.917432e-06
437.90999999972263,2.004868e-05,437.90999999972263,7.200908e-05,437.90999999972263,3.594679e-05,437.90999999972263,7.331766e-06
437.9249999997226,1.904405e-05,437.9249999997226,6.940561e-05,437.9249999997226,3.614648e-05,437.9249999997226,7.087532e-06
437.9399999997226,1.909502e-05,437.9399999997226,7.093711e-05,437.9399999997226,3.666036e-05,437.9399999997226,6.930771e-06
437.9549999997226,1.856461e-05,437.9549999997226,7.292736e-05,437.9549999997226,3.681834e-05,437.9549999997226,6.701369e-06
437.9699999997226,1.841758e-05,437.9699999997226,7.211894e-05,437.9699999997226,3.574243e-05,437.9699999997226,6.713969e-06
437.98499999972256,1.81417e-05,437.98499999972256,7.067848e-05,437.98499999972256,3.492797e-05,437.98499999972256,6.48993e-06
437.99999999972255,1.693864e-05,437.99999999972255,6.878399e-05,437.99999999972255,3.507848e-05,437.99999999972255,6.487759e-06
438.01499999972253,1.825934e-05,438.01499999972253,6.820651e-05,438.01499999972253,3.564377e-05,438.01499999972253,6.413511e-06
438.0299999997225,1.542388e-05,438.0299999997225,6.769112e-05,438.0299999997225,3.659883e-05,438.0299999997225,6.474718e-06
438.0449999997225,1.541839e-05,438.0449999997225,6.536516e-05,438.0449999997225,3.65715e-05,438.0449999997225,6.342836e-06
438.0599999997225,1.514741e-05,438.0599999997225,6.29428e-05,438.0599999997225,3.039184e-05,438.0599999997225,6.413511e-06
438.0749999997225,1.513996e-05,438.0749999997225,5.625454e-05,438.0749999997225,2.980589e-05,438.0749999997225,6.391509e-06
438.08999999972247,1.510923e-05,438.08999999972247,5.551549e-05,438.08999999972247,2.94818e-05,438.08999999972247,6.505105e-06
438.10499999972245,1.507282e-05,438.10499999972245,5.018889e-05,438.10499999972245,2.996191e-05,438.10499999972245,6.479067e-06
438.11999999972244,1.494141e-05,438.11999999972244,5.069714e-05,438.11999999972244,2.928139e-05,438.11999999972244,6.25337e-06
438.1349999997224,1.262668e-05,438.1349999997224,5.535132e-05,438.1349999997224,2.649733e-05,438.1349999997224,6.293787e-06
438.1499999997224,9.837455e-06,438.1499999997224,5.597413e-05,438.1499999997224,2.620707e-05,438.1499999997224,6.237581e-06
438.1649999997224,8.467658e-06,438.1649999997224,5.579088e-05,438.1649999997224,2.628918e-05,438.1649999997224,6.146583e-06
438.1799999997224,8.384065e-06,438.1799999997224,5.476131e-05,438.1799999997224,2.568752e-05,438.1799999997224,6.070483e-06
438.19499999972237,8.2229e-06,438.19499999972237,5.179529e-05,438.19499999972237,2.449851e-05,438.19499999972237,5.599728e-06
438.20999999972236,8.200599e-06,438.20999999972236,4.894324e-05,438.20999999972236,2.566502e-05,438.20999999972236,5.582091e-06
438.22499999972234,8.192006e-06,438.22499999972234,4.965416e-05,438.22499999972234,2.483261e-05,438.22499999972234,5.574516e-06
438.23999999972233,8.190286e-06,438.23999999972233,4.863198e-05,438.23999999972233,2.371431e-05,438.23999999972233,5.407768e-06
438.2549999997223,6.25337e-06,438.2549999997223,4.789913e-05,438.2549999997223,2.460294e-05,438.2549999997223,5.299891e-06
438.2699999997223,3.007266e-06,438.2699999997223,4.75837e-05,438.2699999997223,2.299902e-05,438.2699999997223,5.270573e-06
438.2849999997223,2.397367e-06,438.2849999997223,4.834641e-05,438.2849999997223,2.19562e-05,438.2849999997223,5.068936e-06
438.2999999997223,2.432367e-06,438.2999999997223,5.007396e-05,438.2999999997223,2.175704e-05,438.2999999997223,4.982041e-06
438.31499999972226,2.385586e-06,438.31499999972226,4.938021e-05,438.31499999972226,2.104752e-05,438.31499999972226,4.824024e-06
438.32999999972225,2.432367e-06,438.32999999972225,4.753335e-05,438.32999999972225,2.217135e-05,438.32999999972225,4.500739e-06
438.34499999972223,2.489606e-06,438.34499999972223,5.029487e-05,438.34499999972223,2.240394e-05,438.34499999972223,4.456705e-06
438.3599999997222,2.54556e-06,438.3599999997222,5.265707e-05,438.3599999997222,2.195106e-05,438.3599999997222,4.553636e-06
438.3749999997222,2.589452e-06,438.3749999997222,5.311945e-05,438.3749999997222,2.152662e-05,438.3749999997222,4.535037e-06
438.3899999997222,2.716877e-06,438.3899999997222,5.041432e-05,438.3899999997222,2.078283e-05,438.3899999997222,4.434525e-06
438.4049999997222,3.24605e-06,438.4049999997222,4.897086e-05,438.4049999997222,2.193437e-05,438.4049999997222,4.360851e-06
438.41999999972217,3.627253e-06,438.41999999972217,5.180508e-05,438.41999999972217,2.136768e-05,438.41999999972217,4.209638e-06
438.43499999972215,3.688867e-06,438.43499999972215,5.105791e-05,438.43499999972215,2.006623e-05,438.43499999972215,4.249604e-06
438.44999999972214,5.412975e-06,438.44999999972214,5.132895e-05,438.44999999972214,1.957802e-05,438.44999999972214,4.565993e-06
438.4649999997221,1.107551e-05,438.4649999997221,4.974968e-05,438.4649999997221,1.72534e-05,438.4649999997221,4.447213e-06
438.4799999997221,1.334375e-05,438.4799999997221,5.76669e-05,438.4799999997221,1.722807e-05,438.4799999997221,4.447213e-06
438.4949999997221,1.903739e-05,438.4949999997221,5.874004e-05,438.4949999997221,1.71732e-05,438.4949999997221,4.440873e-06
438.5099999997221,1.94169e-05,438.5099999997221,6.00504e-05,438.5099999997221,1.479265e-05,438.5099999997221,4.544346e-06
438.52499999972207,2.190738e-05,438.52499999972207,5.96956e-05,438.52499999972207,1.447499e-05,438.52499999972207,4.550541e-06
438.53999999972206,2.273474e-05,438.53999999972206,5.828165e-05,438.53999999972206,1.443308e-05,438.53999999972206,4.572159e-06
438.55499999972204,2.376594e-05,438.55499999972204,5.762829e-05,438.55499999972204,1.397288e-05,438.55499999972204,4.488202e-06
438.56999999972203,2.390718e-05,438.56999999972203,5.706948e-05,438.56999999972203,1.320367e-05,438.56999999972203,4.424985e-06
438.584999999722,2.398424e-05,438.584999999722,5.631461e-05,438.584999999722,1.196095e-05,438.584999999722,4.415424e-06
438.599999999722,2.410317e-05,438.599999999722,5.319338e-05,438.599999999722,1.049964e-05,438.599999999722,4.321914e-06
438.614999999722,2.413238e-05,438.614999999722,5.036876e-05,438.614999999722,9.567407e-06,438.614999999722,4.412233e-06
438.629999999722,2.41423e-05,438.629999999722,4.900623e-05,438.629999999722,9.560042e-06,438.629999999722,4.367307e-06
438.64499999972196,2.409265e-05,438.64499999972196,4.701876e-05,438.64499999972196,8.653601e-06,438.64499999972196,4.360851e-06
438.65999999972195,2.419941e-05,438.65999999972195,4.603508e-05,438.65999999972195,5.729046e-06,438.65999999972195,4.434525e-06
438.67499999972193,2.427381e-05,438.67499999972193,4.375685e-05,438.67499999972193,5.726587e-06,438.67499999972193,4.463023e-06
438.6899999997219,2.43144e-05,438.6899999997219,4.338895e-05,438.6899999997219,5.81689e-06,438.6899999997219,4.338181e-06
438.7049999997219,2.260674e-05,438.7049999997219,4.562166e-05,438.7049999997219,5.855509e-06,438.7049999997219,4.172666e-06
438.7199999997219,2.188036e-05,438.7199999997219,4.596434e-05,438.7199999997219,5.879517e-06,438.7199999997219,4.196231e-06
438.7349999997219,2.020127e-05,438.7349999997219,3.442997e-05,438.7349999997219,5.969867e-06,438.7349999997219,5.178904e-06
438.74999999972187,1.567841e-05,438.74999999972187,3.161987e-05,438.74999999972187,5.843468e-06,438.74999999972187,5.508422e-06
438.76499999972185,1.493292e-05,438.76499999972185,2.92761e-05,438.76499999972185,5.955692e-06,438.76499999972185,5.589657e-06
438.77999999972184,1.052644e-05,438.77999999972184,2.851165e-05,438.77999999972184,5.790191e-06,438.77999999972184,5.879517e-06
438.7949999997218,8.275836e-06,438.7949999997218,2.857285e-05,438.7949999997218,5.731505e-06,438.7949999997218,6.457289e-06
438.8099999997218,9.674292e-06,438.8099999997218,3.298099e-05,438.8099999997218,5.807196e-06,438.8099999997218,6.571893e-06
438.8249999997218,9.518695e-06,438.8249999997218,3.342729e-05,438.8249999997218,5.946224e-06,438.8249999997218,6.734918e-06
438.8399999997218,1.008912e-05,438.8399999997218,3.31981e-05,438.8399999997218,5.903427e-06,438.8399999997218,6.851046e-06
438.85499999972177,1.05251e-05,438.85499999972177,3.163903e-05,438.85499999972177,6.269119e-06,438.85499999972177,6.805661e-06
438.86999999972176,1.124214e-05,438.86999999972176,3.073796e-05,438.86999999972176,6.468188e-06,438.86999999972176,6.879772e-06
438.88499999972174,1.156577e-05,438.88499999972174,3.2262e-05,438.88499999972174,6.505105e-06,438.88499999972174,7.40822e-06
438.89999999972173,1.15816e-05,438.89999999972173,3.240708e-05,438.89999999972173,6.300498e-06,438.89999999972173,7.599698e-06
438.9149999997217,1.142362e-05,438.9149999997217,3.265433e-05,438.9149999997217,6.309435e-06,438.9149999997217,7.68449e-06
438.9299999997217,1.203843e-05,438.9299999997217,3.216449e-05,438.9299999997217,6.287069e-06,438.9299999997217,7.876405e-06
438.9449999997217,1.210727e-05,438.9449999997217,3.030132e-05,438.9449999997217,6.367219e-06,438.9449999997217,8.058511e-06
438.9599999997217,1.2969e-05,438.9599999997217,2.774137e-05,438.9599999997217,6.48993e-06,438.9599999997217,8.048017e-06
438.97499999972166,1.326434e-05,438.97499999972166,2.733985e-05,438.97499999972166,6.293787e-06,438.97499999972166,8.074229e-06
438.98999999972165,1.328238e-05,438.98999999972165,2.809307e-05,438.98999999972165,6.395915e-06,438.98999999972165,7.480127e-06
439.00499999972163,1.328768e-05,439.00499999972163,2.848397e-05,439.00499999972163,6.322817e-06,439.00499999972163,7.436688e-06
439.0199999997216,1.326965e-05,439.0199999997216,2.852005e-05,439.0199999997216,5.910582e-06,439.0199999997216,9.636359e-06
439.0349999997216,1.334375e-05,439.0349999997216,2.885836e-05,439.0349999997216,5.965146e-06,439.0349999997216,9.706273e-06
439.0499999997216,1.233092e-05,439.0499999997216,2.669436e-05,439.0499999997216,5.741327e-06,439.0499999997216,9.542344e-06
439.0649999997216,1.187941e-05,439.0649999997216,2.363994e-05,439.0649999997216,5.500745e-06,439.0649999997216,1.009191e-05
439.07999999972157,1.181043e-05,439.07999999972157,2.457143e-05,439.07999999972157,5.331691e-06,439.07999999972157,1.048218e-05
439.09499999972155,1.184616e-05,439.09499999972155,2.474339e-05,439.09499999972155,5.2679e-06,439.09499999972155,1.087528e-05
439.10999999972154,1.244803e-05,439.10999999972154,2.46327e-05,439.10999999972154,4.890725e-06,439.10999999972154,1.105259e-05
439.1249999997215,1.152062e-05,439.1249999997215,2.379733e-05,439.1249999997215,4.765263e-06,439.1249999997215,1.103728e-05
439.1399999997215,1.151206e-05,439.1399999997215,2.082278e-05,439.1399999997215,4.841512e-06,439.1399999997215,1.076985e-05
439.1549999997215,1.171944e-05,439.1549999997215,2.003462e-05,439.1549999997215,4.774123e-06,439.1549999997215,1.064619e-05
439.1699999997215,1.183426e-05,439.1699999997215,2.123077e-05,439.1699999997215,4.68176e-06,439.1699999997215,1.058782e-05
439.18499999972147,1.143348e-05,439.18499999972147,2.145518e-05,439.18499999972147,4.723696e-06,439.18499999972147,1.047143e-05
439.19999999972146,1.243331e-05,439.19999999972146,2.158413e-05,439.19999999972146,4.399444e-06,439.19999999972146,1.035373e-05
439.21499999972144,1.213632e-05,439.21499999972144,2.19106e-05,439.21499999972144,4.209638e-06,439.21499999972144,1.034284e-05
439.22999999972143,1.218498e-05,439.22999999972143,2.151877e-05,439.22999999972143,4.0632e-06,439.22999999972143,1.016424e-05
439.2449999997214,1.225529e-05,439.2449999997214,2.051266e-05,439.2449999997214,3.936414e-06,439.2449999997214,1.011283e-05
439.2599999997214,1.265899e-05,439.2599999997214,2.029172e-05,439.2599999997214,3.827552e-06,439.2599999997214,9.351477e-06
439.2749999997214,1.41979e-05,439.2749999997214,2.038107e-05,439.2749999997214,3.856882e-06,439.2749999997214,7.551351e-06
439.2899999997214,1.45478e-05,439.2899999997214,2.129437e-05,439.2899999997214,3.834905e-06,439.2899999997214,7.1921e-06
439.30499999972136,1.488663e-05,439.30499999972136,2.146699e-05,439.30499999972136,3.812802e-06,439.30499999972136,6.865424e-06
439.31999999972135,1.483924e-05,439.31999999972135,2.131553e-05,439.31999999972135,3.771943e-06,439.31999999972135,6.146583e-06
439.33499999972133,1.463276e-05,439.33499999972133,1.967419e-05,439.33499999972133,3.658189e-06,439.33499999972133,5.539025e-06
439.3499999997213,1.412828e-05,439.3499999997213,1.939077e-05,439.3499999997213,3.556662e-06,439.3499999997213,4.35115e-06
439.3649999997213,1.338275e-05,439.3649999997213,1.931434e-05,439.3649999997213,3.56062e-06,439.3649999997213,4.199587e-06
439.3799999997213,1.332156e-05,439.3799999997213,1.944952e-05,439.3799999997213,3.348582e-06,439.3799999997213,4.138769e-06
439.3949999997213,1.31994e-05,439.3949999997213,1.921196e-05,439.3949999997213,3.335938e-06,439.3949999997213,4.010859e-06
439.40999999972126,1.366606e-05,439.40999999972126,2.164995e-05,439.40999999972126,3.314757e-06,439.40999999972126,3.700305e-06
439.42499999972125,1.335641e-05,439.42499999972125,2.301066e-05,439.42499999972125,3.233005e-06,439.42499999972125,3.707911e-06
439.43999999972124,1.390112e-05,439.43999999972124,2.335096e-05,439.43999999972124,3.254718e-06,439.43999999972124,3.745709e-06
439.4549999997212,1.297443e-05,439.4549999997212,2.382277e-05,439.4549999997212,3.254718e-06,439.4549999997212,3.719291e-06
439.4699999997212,1.29614e-05,439.4699999997212,2.31492e-05,439.4699999997212,3.29344e-06,439.4699999997212,3.638885e-06
439.4849999997212,1.302103e-05,439.4849999997212,2.370896e-05,439.4849999997212,3.24605e-06,439.4849999997212,3.834905e-06
439.4999999997212,1.352307e-05,439.4999999997212,2.378667e-05,439.4999999997212,3.314757e-06,439.4999999997212,3.842245e-06
439.51499999972117,1.186399e-05,439.51499999972117,2.402239e-05,439.51499999972117,3.271984e-06,439.51499999972117,3.827552e-06
439.52999999972116,1.379329e-05,439.52999999972116,2.389244e-05,439.52999999972116,3.158065e-06,439.52999999972116,3.70411e-06
439.54499999972114,1.310192e-05,439.54499999972114,2.323909e-05,439.54499999972114,3.039879e-06,439.54499999972114,3.662038e-06
439.55999999972113,1.286869e-05,439.55999999972113,2.275952e-05,439.55999999972113,3.044509e-06,439.55999999972113,3.669723e-06
439.5749999997211,1.287416e-05,439.5749999997211,2.377186e-05,439.5749999997211,3.021286e-06,439.5749999997211,3.65048e-06
439.5899999997211,1.368357e-05,439.5899999997211,2.374637e-05,439.5899999997211,3.54476e-06,439.5899999997211,3.70411e-06
439.6049999997211,1.394058e-05,439.6049999997211,2.399775e-05,439.6049999997211,3.584279e-06,439.6049999997211,3.611685e-06
439.6199999997211,1.418699e-05,439.6199999997211,2.375882e-05,439.6199999997211,3.658189e-06,439.6199999997211,3.572469e-06
439.63499999972106,1.419889e-05,439.63499999972106,2.26963e-05,439.63499999972106,3.592131e-06,439.63499999972106,3.59605e-06
439.64999999972105,1.418103e-05,439.64999999972105,2.220056e-05,439.64999999972105,3.572469e-06,439.64999999972105,3.508812e-06
439.66499999972103,1.345414e-05,439.66499999972103,1.832864e-05,439.66499999972103,3.520835e-06,439.66499999972103,3.524834e-06
439.679999999721,1.308578e-05,439.679999999721,1.823e-05,439.679999999721,3.488681e-06,439.679999999721,3.524834e-06
439.694999999721,1.266789e-05,439.694999999721,1.736976e-05,439.694999999721,3.56062e-06,439.694999999721,3.536803e-06
439.709999999721,1.253711e-05,439.709999999721,1.654231e-05,439.709999999721,3.568524e-06,439.709999999721,3.568524e-06
439.724999999721,1.170982e-05,439.724999999721,1.706128e-05,439.724999999721,3.536803e-06,439.724999999721,3.871464e-06
439.73999999972096,1.101301e-05,439.73999999972096,1.643895e-05,439.73999999972096,3.665883e-06,439.73999999972096,3.73441e-06
439.75499999972095,1.084415e-05,439.75499999972095,1.637799e-05,439.75499999972095,3.584279e-06,439.75499999972095,3.745709e-06
439.76999999972094,9.817387e-06,439.76999999972094,1.598715e-05,439.76999999972094,3.768206e-06,439.76999999972094,3.79057e-06
439.7849999997209,7.190141e-06,439.7849999997209,1.578854e-05,439.7849999997209,3.79057e-06,439.7849999997209,3.753223e-06
439.7999999997209,7.711938e-06,439.7999999997209,1.543666e-05,439.7999999997209,3.900464e-06,439.7999999997209,3.723076e-06
439.8149999997209,7.59228e-06,439.8149999997209,1.415518e-05,439.8149999997209,3.932833e-06,439.8149999997209,3.838577e-06
439.8299999997209,7.164627e-06,439.8299999997209,1.441159e-05,439.8299999997209,3.989731e-06,439.8299999997209,3.820184e-06
439.84499999972087,5.986361e-06,439.84499999972087,1.485537e-05,439.84499999972087,3.524834e-06,439.84499999972087,3.896851e-06
439.85999999972086,4.998978e-06,439.85999999972086,1.464238e-05,439.85999999972086,3.472492e-06,439.85999999972086,3.896851e-06
439.87499999972084,4.870521e-06,439.87499999972084,1.467025e-05,439.87499999972084,3.431686e-06,439.87499999972084,3.797995e-06
439.8899999997208,5.235713e-06,439.8899999997208,1.549404e-05,439.8899999997208,3.512824e-06,439.8899999997208,3.871464e-06
439.9049999997208,8.204034e-06,439.9049999997208,1.528074e-05,439.9049999997208,3.512824e-06,439.9049999997208,3.914884e-06
439.9199999997208,8.238303e-06,439.9199999997208,1.462216e-05,439.9199999997208,3.512824e-06,439.9199999997208,4.024883e-06
439.9349999997208,8.750726e-06,439.9349999997208,1.462698e-05,439.9349999997208,3.568524e-06,439.9349999997208,3.925663e-06
439.9499999997208,9.462292e-06,439.9499999997208,1.455457e-05,439.9499999997208,3.496747e-06,439.9499999997208,3.950702e-06
439.96499999972076,1.077247e-05,439.96499999972076,1.482119e-05,439.96499999972076,3.476546e-06,439.96499999972076,3.961384e-06
439.97999999972075,1.104876e-05,439.97999999972075,1.497249e-05,439.97999999972075,3.36955e-06,439.97999999972075,3.603876e-06
439.99499999972073,1.284129e-05,439.99499999972073,1.522347e-05,439.99499999972073,3.443979e-06,439.99499999972073,3.603876e-06
440.0099999997207,1.347193e-05,440.0099999997207,1.574029e-05,440.0099999997207,3.801702e-06,440.0099999997207,3.646619e-06
440.0249999997207,1.415518e-05,440.0249999997207,1.581528e-05,440.0249999997207,4.269446e-06,440.0249999997207,3.646619e-06
440.0399999997207,1.522347e-05,440.0399999997207,1.546492e-05,440.0399999997207,4.347911e-06,440.0399999997207,3.665883e-06
440.0549999997207,1.565324e-05,440.0549999997207,1.507189e-05,440.0549999997207,8.634045e-06,440.0549999997207,3.584279e-06
440.06999999972066,1.661114e-05,440.06999999972066,1.586064e-05,440.06999999972066,8.663363e-06,440.06999999972066,3.492716e-06
440.08499999972065,1.66264e-05,440.08499999972065,1.996983e-05,440.08499999972065,8.666614e-06,440.08499999972065,3.4111e-06
440.09999999972064,1.829557e-05,440.09999999972064,1.968422e-05,440.09999999972064,9.612942e-06,440.09999999972064,3.492716e-06
440.1149999997206,1.946183e-05,440.1149999997206,1.959384e-05,440.1149999997206,1.039853e-05,440.1149999997206,3.484641e-06
440.1299999997206,1.970639e-05,440.1299999997206,1.949004e-05,440.1299999997206,1.187941e-05,440.1299999997206,3.460301e-06
440.1449999997206,1.975921e-05,440.1449999997206,1.961252e-05,440.1449999997206,1.358335e-05,440.1449999997206,3.484641e-06
440.1599999997206,1.979412e-05,440.1599999997206,1.977347e-05,440.1599999997206,1.391732e-05,440.1599999997206,3.452149e-06
440.17499999972057,2.178357e-05,440.17499999972057,1.977703e-05,440.17499999972057,1.439497e-05,440.17499999972057,3.484641e-06
440.18999999972056,2.168311e-05,440.18999999972056,1.946907e-05,440.18999999972056,1.498096e-05,440.18999999972056,3.520835e-06
440.20499999972054,2.159196e-05,440.20499999972054,1.945097e-05,440.20499999972054,1.497061e-05,440.20499999972054,3.516832e-06
440.2199999997205,2.115167e-05,440.2199999997205,1.930047e-05,440.2199999997205,1.497343e-05,440.2199999997205,3.443979e-06
440.2349999997205,2.137493e-05,440.2349999997205,1.867959e-05,440.2349999997205,1.498378e-05,440.2349999997205,3.439886e-06
440.2499999997205,2.145255e-05,440.2499999997205,1.829249e-05,440.2499999997205,1.500445e-05,440.2499999997205,3.390388e-06
440.2649999997205,2.10883e-05,440.2649999997205,1.873155e-05,440.2649999997205,1.547402e-05,440.2649999997205,3.398688e-06
440.2799999997205,2.087278e-05,440.2799999997205,2.027991e-05,440.2799999997205,1.579835e-05,440.2799999997205,3.528828e-06
440.29499999972046,2.016917e-05,440.29499999972046,2.048655e-05,440.29499999972046,1.524566e-05,440.29499999972046,3.548731e-06
440.30999999972045,1.95348e-05,440.30999999972045,2.081263e-05,440.30999999972045,1.389909e-05,440.30999999972045,3.54476e-06
440.32499999972043,2.063658e-05,440.32499999972043,1.684608e-05,440.32499999972043,1.389808e-05,440.32499999972043,3.540784e-06
440.3399999997204,2.011181e-05,440.3399999997204,1.559192e-05,440.3399999997204,1.388185e-05,440.3399999997204,3.504795e-06
440.3549999997204,1.924785e-05,440.3549999997204,1.560005e-05,440.3549999997204,1.348029e-05,440.3549999997204,3.452149e-06
440.3699999997204,1.823155e-05,440.3699999997204,1.57546e-05,440.3699999997204,1.374008e-05,440.3699999997204,3.464369e-06
440.3849999997204,1.999309e-05,440.3849999997204,1.541291e-05,440.3849999997204,1.25719e-05,440.3849999997204,3.435788e-06
440.39999999972036,2.052021e-05,440.39999999972036,1.598891e-05,440.39999999972036,1.043099e-05,440.39999999972036,3.443979e-06
440.41499999972035,1.959456e-05,440.41499999972035,1.618505e-05,440.41499999972035,1.039446e-05,440.41499999972035,3.435788e-06
440.42999999972034,1.732266e-05,440.42999999972034,1.613013e-05,440.42999999972034,8.840414e-06,440.42999999972034,3.36955e-06
440.4449999997203,1.72844e-05,440.4449999997203,1.554578e-05,440.4449999997203,8.784466e-06,440.4449999997203,3.373728e-06
440.4599999997203,1.738759e-05,440.4599999997203,1.623285e-05,440.4599999997203,8.790878e-06,440.4599999997203,3.4111e-06
440.4749999997203,1.676477e-05,440.4749999997203,1.653038e-05,440.4749999997203,8.789276e-06,440.4749999997203,3.356985e-06
440.4899999997203,1.758977e-05,440.4899999997203,1.690118e-05,440.4899999997203,8.789276e-06,440.4899999997203,3.331712e-06
440.50499999972027,1.64458e-05,440.50499999972027,1.771983e-05,440.50499999972027,8.103833e-06,440.50499999972027,3.276286e-06
440.51999999972026,1.705385e-05,440.51999999972026,1.769357e-05,440.51999999972026,7.117283e-06,440.51999999972026,3.202359e-06
440.53499999972024,1.696274e-05,440.53499999972024,1.659672e-05,440.53499999972024,7.442368e-06,440.53499999972024,3.175857e-06
440.5499999997202,1.720025e-05,440.5499999997202,1.609603e-05,440.5499999997202,7.417721e-06,440.5499999997202,3.135683e-06
440.5649999997202,1.816498e-05,440.5649999997202,1.64518e-05,440.5649999997202,7.392992e-06,440.5649999997202,3.228645e-06
440.5799999997202,1.699758e-05,440.5799999997202,1.797241e-05,440.5799999997202,7.396802e-06,440.5799999997202,3.241707e-06
440.5949999997202,1.746681e-05,440.5949999997202,1.850305e-05,440.5949999997202,7.379642e-06,440.5949999997202,3.28916e-06
440.6099999997202,1.791904e-05,440.6099999997202,1.847333e-05,440.6099999997202,5.664756e-06,440.6099999997202,3.29344e-06
440.62499999972016,1.806934e-05,440.62499999972016,1.830634e-05,440.62499999972016,6.284828e-06,440.62499999972016,3.361178e-06
440.63999999972015,1.521051e-05,440.63999999972015,1.78205e-05,440.63999999972015,8.500864e-06,440.63999999972015,3.377901e-06
440.65499999972013,1.594656e-05,440.65499999972013,1.701912e-05,440.65499999972013,9.524612e-06,440.65499999972013,3.390388e-06
440.6699999997201,1.600652e-05,440.6699999997201,1.714693e-05,440.6699999997201,1.000922e-05,440.6699999997201,3.314757e-06
440.6849999997201,1.595892e-05,440.6849999997201,1.73965e-05,440.6849999997201,1.129215e-05,440.6849999997201,3.361178e-06
440.6999999997201,1.625107e-05,440.6999999997201,1.788126e-05,440.6999999997201,1.185924e-05,440.6999999997201,3.540784e-06
440.7149999997201,1.614235e-05,440.7149999997201,1.689451e-05,440.7149999997201,1.184973e-05,440.7149999997201,3.619477e-06
440.72999999972006,1.591738e-05,440.72999999972006,1.669826e-05,440.72999999972006,1.183069e-05,440.72999999972006,3.745709e-06
440.74499999972005,1.552038e-05,440.74499999972005,1.63969e-05,440.74499999972005,1.186755e-05,440.74499999972005,3.688867e-06
440.75999999972004,1.506254e-05,440.75999999972004,1.523457e-05,440.75999999972004,1.233435e-05,440.75999999972004,3.845909e-06
440.77499999972,1.514927e-05,440.77499999972,1.475642e-05,440.77499999972,1.191493e-05,440.77499999972,3.889614e-06
440.78999999972,1.520681e-05,440.78999999972,1.464623e-05,440.78999999972,1.251575e-05,440.78999999972,3.925663e-06
440.80499999972,1.431056e-05,440.80499999972,1.477645e-05,440.80499999972,1.325265e-05,440.80499999972,3.900464e-06
440.81999999972,1.334164e-05,440.81999999972,1.347506e-05,440.81999999972,1.454101e-05,440.81999999972,3.893234e-06
440.83499999971997,1.288181e-05,440.83499999971997,1.472106e-05,440.83499999971997,1.463853e-05,440.83499999971997,3.964939e-06
440.84999999971996,1.369387e-05,440.84999999971996,1.786156e-05,440.84999999971996,1.465392e-05,440.84999999971996,3.932833e-06
440.86499999971994,1.288291e-05,440.86499999971994,1.869994e-05,440.86499999971994,1.446525e-05,440.86499999971994,3.922073e-06
440.8799999997199,1.280724e-05,440.8799999997199,1.877437e-05,440.8799999997199,1.31545e-05,440.8799999997199,3.911283e-06
440.8949999997199,1.208748e-05,440.8949999997199,1.881934e-05,440.8949999997199,1.375852e-05,440.8949999997199,3.834905e-06
440.9099999997199,1.243218e-05,440.9099999997199,1.876612e-05,440.9099999997199,1.3147e-05,440.9099999997199,3.84957e-06
440.9249999997199,1.273997e-05,440.9249999997199,1.869919e-05,440.9249999997199,1.24966e-05,440.9249999997199,3.82387e-06
440.9399999997199,1.304913e-05,440.9399999997199,2.218025e-05,440.9399999997199,1.154261e-05,440.9399999997199,3.809105e-06
440.95499999971986,1.290257e-05,440.95499999971986,2.414988e-05,440.95499999971986,1.285554e-05,440.95499999971986,3.741947e-06
440.96999999971985,1.35116e-05,440.96999999971985,2.421105e-05,440.96999999971985,1.40242e-05,440.96999999971985,3.631134e-06
440.98499999971983,1.318017e-05,440.98499999971983,2.416038e-05,440.98499999971983,1.439986e-05,440.98499999971983,3.572469e-06
440.9999999997198,1.242651e-05,440.9999999997198,2.402766e-05,440.9999999997198,1.43842e-05,440.9999999997198,3.57641e-06
441.0149999997198,1.23697e-05,441.0149999997198,2.363994e-05,441.0149999997198,1.395674e-05,441.0149999997198,3.472492e-06
441.0299999997198,1.203843e-05,441.0299999997198,2.34917e-05,441.0299999997198,1.382287e-05,441.0299999997198,3.452149e-06
441.0449999997198,1.236629e-05,441.0449999997198,2.356056e-05,441.0449999997198,1.301346e-05,441.0449999997198,3.443979e-06
441.05999999971976,1.251237e-05,441.05999999971976,2.369648e-05,441.05999999971976,1.263226e-05,441.05999999971976,3.568524e-06
441.07499999971975,1.220808e-05,441.07499999971975,2.327846e-05,441.07499999971975,1.114524e-05,441.07499999971975,3.508812e-06
441.08999999971974,1.177579e-05,441.08999999971974,1.97478e-05,441.08999999971974,1.100021e-05,441.08999999971974,3.423466e-06
441.1049999997197,1.109584e-05,441.1049999997197,1.981688e-05,441.1049999997197,1.099252e-05,441.1049999997197,3.427579e-06
441.1199999997197,1.122207e-05,441.1199999997197,1.997688e-05,441.1199999997197,1.147161e-05,441.1199999997197,3.435788e-06
441.1349999997197,1.147775e-05,441.1349999997197,2.104685e-05,441.1349999997197,1.043639e-05,441.1349999997197,3.635012e-06
441.1499999997197,1.102068e-05,441.1499999997197,2.146699e-05,441.1499999997197,9.838886e-06,441.1499999997197,3.635012e-06
441.16499999971967,1.178775e-05,441.16499999971967,2.162782e-05,441.16499999971967,9.791525e-06,441.16499999971967,3.768206e-06
441.17999999971966,1.116671e-05,441.17999999971966,1.850229e-05,441.17999999971966,9.755493e-06,441.17999999971966,3.768206e-06
441.19499999971964,1.078554e-05,441.19499999971964,1.572327e-05,441.19499999971964,9.688843e-06,441.19499999971964,3.771943e-06
441.2099999997196,1.05358e-05,441.2099999997196,1.472106e-05,441.2099999997196,7.822567e-06,441.2099999997196,3.730636e-06
441.2249999997196,9.941437e-06,441.2249999997196,1.521144e-05,441.2249999997196,6.384893e-06,441.2249999997196,3.82387e-06
441.2399999997196,1.251124e-05,441.2399999997196,1.579924e-05,441.2399999997196,5.521194e-06,441.2399999997196,3.84957e-06
441.2549999997196,1.251012e-05,441.2549999997196,1.630299e-05,441.2549999997196,6.678206e-06,441.2549999997196,3.809105e-06
441.2699999997196,1.258645e-05,441.2699999997196,1.658993e-05,441.2699999997196,6.686639e-06,441.2699999997196,3.73441e-06
441.28499999971956,1.232635e-05,441.28499999971956,1.710169e-05,441.28499999971956,6.881819e-06,441.28499999971956,3.707911e-06
441.29999999971955,1.198918e-05,441.29999999971955,1.692117e-05,441.29999999971955,7.883556e-06,441.29999999971955,3.700305e-06
441.31499999971953,1.178177e-05,441.31499999971953,1.647832e-05,441.31499999971953,7.947621e-06,441.31499999971953,3.564574e-06
441.3299999997195,1.182831e-05,441.3299999997195,1.641751e-05,441.3299999997195,7.979462e-06,441.3299999997195,3.580347e-06
441.3449999997195,1.206882e-05,441.3449999997195,1.642437e-05,441.3449999997195,7.981227e-06,441.3449999997195,3.631134e-06
441.3599999997195,1.237426e-05,441.3599999997195,1.567122e-05,441.3599999997195,7.737468e-06,441.3599999997195,3.59605e-06
441.3749999997195,1.233663e-05,441.3749999997195,1.468273e-05,441.3749999997195,7.266147e-06,441.3749999997195,3.484641e-06
441.38999999971946,1.199858e-05,441.38999999971946,1.304157e-05,441.38999999971946,7.285508e-06,441.38999999971946,3.327482e-06
441.40499999971945,1.097457e-05,441.40499999971945,1.271894e-05,441.40499999971945,7.283574e-06,441.40499999971945,3.276286e-06
441.41999999971944,1.095015e-05,441.41999999971944,1.265565e-05,441.41999999971944,7.29903e-06,441.41999999971944,3.171418e-06
441.4349999997194,1.095915e-05,441.4349999997194,1.294073e-05,441.4349999997194,7.287441e-06,441.4349999997194,3.140172e-06
441.4499999997194,1.090762e-05,441.4499999997194,1.307394e-05,441.4499999997194,6.48993e-06,441.4499999997194,3.135683e-06
441.4649999997194,1.08947e-05,441.4649999997194,1.297443e-05,441.4649999997194,6.479067e-06,441.4649999997194,3.085871e-06
441.4799999997194,1.084025e-05,441.4799999997194,1.268345e-05,441.4799999997194,6.479067e-06,441.4799999997194,3.058359e-06
441.49499999971937,8.469321e-06,441.49499999971937,1.219538e-05,441.49499999971937,6.230803e-06,441.49499999971937,2.993181e-06
441.50999999971935,8.891258e-06,441.50999999971935,1.169055e-05,441.50999999971935,5.259872e-06,441.50999999971935,2.983753e-06
441.52499999971934,8.66011e-06,441.52499999971934,1.114524e-05,441.52499999971934,5.222243e-06,441.52499999971934,3.030597e-06
441.5399999997193,8.296236e-06,441.5399999997193,1.116544e-05,441.5399999997193,3.572469e-06,441.5399999997193,3.11314e-06
441.5549999997193,8.166172e-06,441.5549999997193,1.143348e-05,441.5549999997193,3.021286e-06,441.5549999997193,3.162522e-06
441.5699999997193,8.212614e-06,441.5699999997193,1.140511e-05,441.5699999997193,2.907234e-06,441.5699999997193,3.175857e-06
441.5849999997193,7.947621e-06,441.5849999997193,1.140881e-05,441.5849999997193,2.878015e-06,441.5849999997193,3.267676e-06
441.5999999997193,7.85312e-06,441.5999999997193,1.129589e-05,441.5999999997193,2.892662e-06,441.5999999997193,3.276286e-06
441.61499999971926,7.534543e-06,441.61499999971926,1.127092e-05,441.61499999971926,2.803635e-06,441.61499999971926,3.271984e-06
441.62999999971925,7.38918e-06,441.62999999971925,1.147652e-05,441.62999999971925,2.737538e-06,441.62999999971925,3.314757e-06
441.64499999971923,7.184261e-06,441.64499999971923,1.104111e-05,441.64499999971923,2.737538e-06,441.64499999971923,3.306247e-06
441.6599999997192,7.688155e-06,441.6599999997192,1.106915e-05,441.6599999997192,2.742679e-06,441.6599999997192,3.548731e-06
441.6749999997192,7.647739e-06,441.6749999997192,1.112627e-05,441.6749999997192,2.848496e-06,441.6749999997192,3.572469e-06
441.6899999997192,7.530803e-06,441.6899999997192,1.069899e-05,441.6899999997192,2.931361e-06,441.6899999997192,3.540784e-06
441.7049999997192,7.66246e-06,441.7049999997192,1.014204e-05,441.7049999997192,3.002579e-06,441.7049999997192,3.845909e-06
441.71999999971916,9.007736e-06,441.71999999971916,1.029232e-05,441.71999999971916,2.993181e-06,441.71999999971916,4.17604e-06
441.73499999971915,8.963841e-06,441.73499999971915,1.037819e-05,441.73499999971915,3.19355e-06,441.73499999971915,4.219664e-06
441.74999999971914,9.071627e-06,441.74999999971914,1.053981e-05,441.74999999971914,3.310505e-06,441.74999999971914,4.864733e-06
441.7649999997191,8.747506e-06,441.7649999997191,1.020987e-05,441.7649999997191,3.331712e-06,441.7649999997191,4.987693e-06
441.7799999997191,8.846786e-06,441.7799999997191,1.005836e-05,441.7799999997191,3.365367e-06,441.7799999997191,5.143422e-06
441.7949999997191,8.963841e-06,441.7949999997191,9.733809e-06,441.7949999997191,3.423466e-06,441.7949999997191,5.315815e-06
441.8099999997191,9.012426e-06,441.8099999997191,9.736703e-06,441.8099999997191,3.456227e-06,441.8099999997191,6.158032e-06
441.82499999971907,8.935509e-06,441.82499999971907,9.751159e-06,441.82499999971907,3.406967e-06,441.82499999971907,6.266871e-06
441.83999999971905,8.818078e-06,441.83999999971905,1.005696e-05,441.83999999971905,3.340158e-06,441.83999999971905,6.879772e-06
441.85499999971904,8.36893e-06,441.85499999971904,1.000781e-05,441.85499999971904,3.340158e-06,441.85499999971904,7.36818e-06
441.869999999719,8.297934e-06,441.869999999719,9.982445e-06,441.869999999719,3.373728e-06,441.869999999719,7.97593e-06
441.884999999719,8.357139e-06,441.884999999719,9.587998e-06,441.884999999719,3.356985e-06,441.884999999719,1.022228e-05
441.899999999719,8.417602e-06,441.899999999719,9.558568e-06,441.899999999719,3.335938e-06,441.899999999719,1.029506e-05
441.914999999719,8.673113e-06,441.914999999719,9.451865e-06,441.914999999719,3.319004e-06,441.914999999719,1.172424e-05
441.929999999719,8.720087e-06,441.929999999719,9.242383e-06,441.929999999719,3.36955e-06,441.929999999719,1.224149e-05
441.94499999971896,8.718472e-06,441.94499999971896,8.651973e-06,441.94499999971896,3.394541e-06,441.94499999971896,1.281823e-05
441.95999999971895,8.46433e-06,441.95999999971895,8.470984e-06,441.95999999971895,3.377901e-06,441.95999999971895,1.291349e-05
441.97499999971893,6.918566e-06,441.97499999971893,7.22337e-06,441.97499999971893,3.352786e-06,441.97499999971893,1.35574e-05
441.9899999997189,6.095956e-06,441.9899999997189,6.612493e-06,441.9899999997189,3.158065e-06,441.9899999997189,1.369284e-05
442.0049999997189,6.302733e-06,442.0049999997189,6.135114e-06,442.0049999997189,3.067557e-06,442.0049999997189,1.351056e-05
442.0199999997189,6.734918e-06,442.0199999997189,6.158032e-06,442.0199999997189,3.117661e-06,442.0199999997189,1.351369e-05
442.0349999997189,6.977362e-06,442.0349999997189,6.144291e-06,442.0349999997189,3.122176e-06,442.0349999997189,1.35989e-05
442.04999999971886,6.953093e-06,442.04999999971886,5.074491e-06,442.04999999971886,3.072146e-06,442.04999999971886,1.362994e-05
442.06499999971885,6.922637e-06,442.06499999971885,5.405162e-06,442.06499999971885,3.049133e-06,442.06499999971885,1.335852e-05
442.07999999971884,7.154789e-06,442.07999999971884,5.664756e-06,442.07999999971884,3.058359e-06,442.07999999971884,1.337854e-05
442.0949999997188,7.168558e-06,442.0949999997188,5.159829e-06,442.0949999997188,3.053749e-06,442.0949999997188,1.294508e-05
442.1099999997188,7.331766e-06,442.1099999997188,5.195198e-06,442.1099999997188,3.153601e-06,442.1099999997188,1.286212e-05
442.1249999997188,7.398706e-06,442.1249999997188,5.233022e-06,442.1249999997188,3.215529e-06,442.1249999997188,1.242765e-05
442.1399999997188,7.283574e-06,442.1399999997188,5.243778e-06,442.1399999997188,3.140172e-06,442.1399999997188,1.072004e-05
442.15499999971877,7.166593e-06,442.15499999971877,5.797484e-06,442.15499999971877,3.215529e-06,442.15499999971877,1.035645e-05
442.16999999971875,6.559019e-06,442.16999999971875,6.353931e-06,442.16999999971875,3.11314e-06,442.16999999971875,8.913411e-06
442.18499999971874,6.879772e-06,442.18499999971874,6.340615e-06,442.18499999971874,3.072146e-06,442.18499999971874,7.968863e-06
442.1999999997187,6.908378e-06,442.1999999997187,6.309435e-06,442.1999999997187,3.044509e-06,442.1999999997187,8.379024e-06
442.2149999997187,7.011599e-06,442.2149999997187,6.345057e-06,442.2149999997187,2.979029e-06,442.2149999997187,8.715239e-06
442.2299999997187,7.037669e-06,442.2299999997187,6.726546e-06,442.2299999997187,3.039879e-06,442.2299999997187,8.335198e-06
442.2449999997187,7.560672e-06,442.2449999997187,6.764137e-06,442.2449999997187,3.035241e-06,442.2449999997187,8.414254e-06
442.2599999997187,7.123218e-06,442.2599999997187,6.795303e-06,442.2599999997187,2.897527e-06,442.2599999997187,8.609537e-06
442.27499999971866,7.139021e-06,442.27499999971866,6.79323e-06,442.27499999971866,2.863294e-06,442.27499999971866,8.645458e-06
442.28999999971865,7.065636e-06,442.28999999971865,6.928738e-06,442.28999999971865,3.011947e-06,442.28999999971865,8.243432e-06
442.30499999971863,7.383459e-06,442.30499999971863,7.00959e-06,442.30499999971863,2.960054e-06,442.30499999971863,8.121197e-06
442.3199999997186,7.34712e-06,442.3199999997186,6.764137e-06,442.3199999997186,3.007266e-06,442.3199999997186,8.102095e-06
442.3349999997186,7.164627e-06,442.3349999997186,6.500773e-06,442.3349999997186,3.219907e-06,442.3349999997186,8.074229e-06
442.3499999997186,6.961192e-06,442.3499999997186,6.580461e-06,442.3499999997186,3.224279e-06,442.3499999997186,8.129866e-06
442.3649999997186,6.959168e-06,442.3649999997186,6.629514e-06,442.3649999997186,3.259043e-06,442.3649999997186,8.012934e-06
442.37999999971856,7.781039e-06,442.37999999971856,6.556871e-06,442.37999999971856,3.184716e-06,442.37999999971856,7.968863e-06
442.39499999971855,8.154087e-06,442.39499999971855,6.589018e-06,442.39499999971855,3.19355e-06,442.39499999971855,7.919212e-06
442.40999999971854,8.202317e-06,442.40999999971854,6.2781e-06,442.40999999971854,3.108612e-06,442.40999999971854,7.972397e-06
442.4249999997185,8.297934e-06,442.4249999997185,5.657291e-06,442.4249999997185,3.049133e-06,442.4249999997185,8.023475e-06
442.4399999997185,7.979462e-06,442.4399999997185,5.659781e-06,442.4399999997185,3.025945e-06,442.4399999997185,7.651422e-06
442.4549999997185,7.811755e-06,442.4549999997185,5.716739e-06,442.4549999997185,3.053749e-06,442.4549999997185,6.095956e-06
442.4699999997185,8.023475e-06,442.4699999997185,5.599728e-06,442.4699999997185,3.011947e-06,442.4699999997185,5.238403e-06
442.48499999971847,7.981227e-06,442.48499999971847,5.173461e-06,442.48499999971847,3.058359e-06,442.48499999971847,4.858938e-06
442.49999999971845,8.162721e-06,442.49999999971845,5.12971e-06,442.49999999971845,3.094987e-06,442.49999999971845,4.624239e-06
442.51499999971844,8.258797e-06,442.51499999971844,5.420777e-06,442.51499999971844,3.144655e-06,442.51499999971844,4.179412e-06
442.5299999997184,8.178238e-06,442.5299999997184,6.347276e-06,442.5299999997184,3.166973e-06,442.5299999997184,4.05626e-06
442.5449999997184,7.806343e-06,442.5449999997184,6.428867e-06,442.5449999997184,3.025945e-06,442.5449999997184,4.077044e-06
442.5599999997184,7.571843e-06,442.5599999997184,6.353931e-06,442.5599999997184,3.104077e-06,442.5599999997184,4.049309e-06
442.5749999997184,7.52706e-06,442.5749999997184,6.452925e-06,442.5749999997184,3.053749e-06,442.5749999997184,4.066665e-06
442.5899999997184,7.614512e-06,442.5899999997184,6.7391e-06,442.5899999997184,2.863294e-06,442.5899999997184,4.121716e-06
442.60499999971836,8.43432e-06,442.60499999971836,6.778699e-06,442.60499999971836,2.813666e-06,442.60499999971836,4.017877e-06
442.61999999971835,8.43432e-06,442.61999999971835,6.861319e-06,442.61999999971835,2.892662e-06,442.61999999971835,4.038859e-06
442.63499999971833,7.053663e-06,442.63499999971833,6.855157e-06,442.63499999971833,2.916909e-06,442.63499999971833,4.165909e-06
442.6499999997183,7.15282e-06,442.6499999997183,6.877724e-06,442.6499999997183,2.95052e-06,442.6499999997183,4.077044e-06
442.6649999997183,7.170523e-06,442.6649999997183,7.142966e-06,442.6649999997183,2.960054e-06,442.6649999997183,4.000309e-06
442.6799999997183,7.540149e-06,442.6799999997183,7.599698e-06,442.6799999997183,3.025945e-06,442.6799999997183,3.925663e-06
442.6949999997183,7.732004e-06,442.6949999997183,7.761099e-06,442.6949999997183,3.039879e-06,442.6949999997183,3.914884e-06
442.70999999971826,7.827967e-06,442.70999999971826,8.236593e-06,442.70999999971826,2.997883e-06,442.70999999971826,3.779404e-06
442.72499999971825,7.753835e-06,442.72499999971825,8.275836e-06,442.72499999971825,2.979029e-06,442.72499999971825,3.719291e-06
442.73999999971824,7.771981e-06,442.73999999971824,8.25709e-06,442.73999999971824,2.931361e-06,442.73999999971824,3.540784e-06
442.7549999997182,6.757886e-06,442.7549999997182,8.303025e-06,442.7549999997182,2.873116e-06,442.7549999997182,3.496747e-06
442.7699999997182,6.682424e-06,442.7699999997182,7.993573e-06,442.7699999997182,2.863294e-06,442.7699999997182,3.36955e-06
442.7849999997182,6.701369e-06,442.7849999997182,7.519571e-06,442.7849999997182,2.863294e-06,442.7849999997182,3.361178e-06
442.7999999997182,6.692956e-06,442.7999999997182,7.302889e-06,442.7999999997182,2.921734e-06,442.7999999997182,3.40283e-06
442.81499999971817,6.709772e-06,442.81499999971817,7.352869e-06,442.81499999971817,2.853437e-06,442.81499999971817,3.398688e-06
442.82999999971815,6.603967e-06,442.82999999971815,7.398706e-06,442.82999999971815,2.768241e-06,442.82999999971815,3.415227e-06
442.84499999971814,6.468188e-06,442.84499999971814,7.669811e-06,442.84499999971814,2.828646e-06,442.84499999971814,3.340158e-06
442.8599999997181,5.464775e-06,442.8599999997181,7.66246e-06,442.8599999997181,2.793568e-06,442.8599999997181,3.297714e-06
442.8749999997181,5.464775e-06,442.8749999997181,7.536412e-06,442.8749999997181,2.722057e-06,442.8749999997181,3.323245e-06
442.8899999997181,5.291911e-06,442.8899999997181,7.410121e-06,442.8899999997181,2.696058e-06,442.8899999997181,3.202359e-06
442.9049999997181,5.699464e-06,442.9049999997181,7.341366e-06,442.9049999997181,2.669806e-06,442.9049999997181,3.276286e-06
442.9199999997181,5.428567e-06,442.9199999997181,7.12124e-06,442.9199999997181,2.701278e-06,442.9199999997181,3.175857e-06
442.93499999971806,4.463023e-06,442.93499999971806,6.513761e-06,442.93499999971806,2.653929e-06,442.93499999971806,3.081303e-06
442.94999999971805,4.478776e-06,442.94999999971805,6.077441e-06,442.94999999971805,2.659232e-06,442.94999999971805,3.076727e-06
442.96499999971803,4.162526e-06,442.96499999971803,5.724127e-06,442.96499999971803,2.758045e-06,442.96499999971803,3.131187e-06
442.979999999718,4.525708e-06,442.979999999718,5.884307e-06,442.979999999718,2.833621e-06,442.979999999718,3.099535e-06
442.994999999718,5.082812e-06,442.994999999718,5.927241e-06,442.994999999718,2.823661e-06,442.994999999718,3.094987e-06
443.009999999718,5.088352e-06,443.009999999718,6.153455e-06,443.009999999718,2.808655e-06,443.009999999718,3.067557e-06
443.024999999718,5.071714e-06,443.024999999718,6.349495e-06,443.024999999718,2.945742e-06,443.024999999718,3.094987e-06
443.03999999971796,5.329048e-06,443.03999999971796,6.476893e-06,443.03999999971796,2.960054e-06,443.03999999971796,3.072146e-06
443.05499999971795,5.352786e-06,443.05499999971795,6.487759e-06,443.05499999971795,2.878015e-06,443.05499999971795,3.081303e-06
443.06999999971794,5.941484e-06,443.06999999971794,6.633762e-06,443.06999999971794,2.863294e-06,443.06999999971794,3.206755e-06
443.0849999997179,6.079758e-06,443.0849999997179,6.11902e-06,443.0849999997179,2.887788e-06,443.0849999997179,3.197958e-06
443.0999999997179,6.139704e-06,443.0999999997179,5.677176e-06,443.0999999997179,2.823661e-06,443.0999999997179,3.24605e-06
443.1149999997179,6.189974e-06,443.1149999997179,5.654801e-06,443.1149999997179,2.833621e-06,443.1149999997179,3.171418e-06
443.1299999997179,6.795303e-06,443.1299999997179,5.629835e-06,443.1299999997179,2.902385e-06,443.1299999997179,3.319004e-06
443.14499999971787,7.417721e-06,443.14499999971787,5.667242e-06,443.14499999971787,2.868209e-06,443.14499999971787,3.280583e-06
443.15999999971785,7.19993e-06,443.15999999971785,5.407768e-06,443.15999999971785,2.823661e-06,443.15999999971785,3.284874e-06
443.17499999971784,7.358615e-06,443.17499999971784,5.286585e-06,443.17499999971784,2.798606e-06,443.17499999971784,3.496747e-06
443.1899999997178,7.421518e-06,443.1899999997178,5.350154e-06,443.1899999997178,2.813666e-06,443.1899999997178,3.476546e-06
443.2049999997178,7.607108e-06,443.2049999997178,5.599728e-06,443.2049999997178,2.803635e-06,443.2049999997178,3.552699e-06
443.2199999997178,7.977696e-06,443.2199999997178,5.75603e-06,443.2199999997178,2.669806e-06,443.2199999997178,3.536803e-06
443.2349999997178,8.576751e-06,443.2349999997178,6.881819e-06,443.2349999997178,2.669806e-06,443.2349999997178,3.607783e-06
443.2499999997178,9.330365e-06,443.2499999997178,7.432898e-06,443.2499999997178,2.74781e-06,443.2499999997178,3.677393e-06
443.26499999971776,1.038768e-05,443.26499999971776,7.285508e-06,443.26499999971776,2.701278e-06,443.26499999971776,3.685046e-06
443.27999999971775,1.041612e-05,443.27999999971775,7.156758e-06,443.27999999971775,2.74781e-06,443.27999999971775,3.638885e-06
443.29499999971773,1.035373e-05,443.29499999971773,7.113323e-06,443.29499999971773,2.803635e-06,443.29499999971773,3.67356e-06
443.3099999997177,1.055717e-05,443.3099999997177,7.017624e-06,443.3099999997177,2.997883e-06,443.3099999997177,3.631134e-06
443.3249999997177,1.192202e-05,443.3249999997177,6.928738e-06,443.3249999997177,2.983753e-06,443.3249999997177,3.524834e-06
443.3399999997177,1.264452e-05,443.3399999997177,7.067629e-06,443.3399999997177,3.085871e-06,443.3399999997177,3.548731e-06
443.3549999997177,1.264563e-05,443.3549999997177,7.101431e-06,443.3549999997177,3.11314e-06,443.3549999997177,3.564574e-06
443.36999999971766,1.243671e-05,443.36999999971766,7.260328e-06,443.36999999971766,3.135683e-06,443.36999999971766,3.568524e-06
443.38499999971765,1.256293e-05,443.38499999971765,7.219469e-06,443.38499999971765,3.202359e-06,443.38499999971765,3.520835e-06
443.39999999971764,1.324308e-05,443.39999999971764,7.160693e-06,443.39999999971764,3.215529e-06,443.39999999971764,3.540784e-06
443.4149999997176,1.355948e-05,443.4149999997176,7.137048e-06,443.4149999997176,3.241707e-06,443.4149999997176,3.504795e-06
443.4299999997176,1.350117e-05,443.4299999997176,7.111343e-06,443.4299999997176,3.228645e-06,443.4299999997176,3.423466e-06
443.4449999997176,1.346356e-05,443.4449999997176,7.087532e-06,443.4449999997176,3.237359e-06,443.4449999997176,3.435788e-06
443.4599999997176,1.336485e-05,443.4599999997176,6.631638e-06,443.4599999997176,3.241707e-06,443.4599999997176,3.386231e-06
443.47499999971757,1.300696e-05,443.47499999971757,6.552573e-06,443.47499999971757,3.24605e-06,443.47499999971757,3.323245e-06
443.48999999971755,1.199506e-05,443.48999999971755,5.294573e-06,443.48999999971755,3.254718e-06,443.48999999971755,3.348582e-06
443.50499999971754,1.179969e-05,443.50499999971754,4.70577e-06,443.50499999971754,3.254718e-06,443.50499999971754,3.297714e-06
443.5199999997175,1.158646e-05,443.5199999997175,4.726678e-06,443.5199999997175,3.263362e-06,443.5199999997175,3.377901e-06
443.5349999997175,1.211541e-05,443.5349999997175,4.777073e-06,443.5349999997175,3.117661e-06,443.5349999997175,3.452149e-06
443.5499999997175,1.266678e-05,443.5499999997175,4.832776e-06,443.5499999997175,3.108612e-06,443.5499999997175,3.476546e-06
443.5649999997175,1.215488e-05,443.5649999997175,4.902232e-06,443.5649999997175,2.921734e-06,443.5649999997175,3.492716e-06
443.5799999997175,1.054115e-05,443.5799999997175,4.803539e-06,443.5799999997175,2.912075e-06,443.5799999997175,3.56062e-06
443.59499999971746,1.042964e-05,443.59499999971746,4.70577e-06,443.59499999971746,2.783465e-06,443.59499999971746,3.540784e-06
443.60999999971745,1.097328e-05,443.60999999971745,4.559819e-06,443.60999999971745,2.742679e-06,443.60999999971745,3.452149e-06
443.62499999971743,1.109203e-05,443.62499999971743,4.321914e-06,443.62499999971743,2.685588e-06,443.62499999971743,3.480596e-06
443.6399999997174,1.2669e-05,443.6399999997174,4.347911e-06,443.6399999997174,2.664524e-06,443.6399999997174,3.344373e-06
443.6549999997174,1.150716e-05,443.6549999997174,4.82986e-06,443.6549999997174,2.637958e-06,443.6549999997174,3.373728e-06
443.6699999997174,1.146547e-05,443.6699999997174,4.867628e-06,443.6699999997174,2.643292e-06,443.6699999997174,3.327482e-06
443.6849999997174,1.158403e-05,443.6849999997174,5.677176e-06,443.6849999997174,2.711688e-06,443.6849999997174,3.263362e-06
443.69999999971736,1.184378e-05,443.69999999971736,6.365006e-06,443.69999999971736,2.690828e-06,443.69999999971736,3.24605e-06
443.71499999971735,1.295379e-05,443.71499999971735,1.059048e-05,443.71499999971735,2.727227e-06,443.71499999971735,3.202359e-06
443.72999999971734,1.347402e-05,443.72999999971734,1.091794e-05,443.72999999971734,2.752932e-06,443.72999999971734,3.158065e-06
443.7449999997173,1.364233e-05,443.7449999997173,1.148265e-05,443.7449999997173,2.701278e-06,443.7449999997173,3.215529e-06
443.7599999997173,1.343633e-05,443.7599999997173,1.187704e-05,443.7599999997173,2.737538e-06,443.7599999997173,3.398688e-06
443.7749999997173,1.416612e-05,443.7749999997173,1.340064e-05,443.7749999997173,2.763147e-06,443.7749999997173,3.340158e-06
443.7899999997173,1.387069e-05,443.7899999997173,1.796536e-05,443.7899999997173,4.516361e-06,443.7899999997173,3.406967e-06
443.80499999971727,1.381574e-05,443.80499999971727,1.951748e-05,443.80499999971727,5.828986e-06,443.80499999971727,3.568524e-06
443.81999999971725,1.42494e-05,443.81999999971725,2.397661e-05,443.81999999971725,5.862722e-06,443.81999999971725,3.57641e-06
443.83499999971724,1.496967e-05,443.83499999971724,2.572971e-05,443.83499999971724,6.524566e-06,443.83499999971724,3.484641e-06
443.8499999997172,1.527428e-05,443.8499999997172,2.582588e-05,443.8499999997172,7.457495e-06,443.8499999997172,3.592131e-06
443.8649999997172,1.486201e-05,443.8649999997172,2.586295e-05,443.8649999997172,7.851327e-06,443.8649999997172,3.564574e-06
443.8799999997172,1.379941e-05,443.8799999997172,2.637584e-05,443.8799999997172,7.845942e-06,443.8799999997172,3.568524e-06
443.8949999997172,1.372572e-05,443.8949999997172,2.903016e-05,443.8949999997172,7.844146e-06,443.8949999997172,3.607783e-06
443.9099999997172,1.629867e-05,443.9099999997172,3.170885e-05,443.9099999997172,7.874616e-06,443.9099999997172,3.764466e-06
443.92499999971716,1.752237e-05,443.92499999971716,3.251036e-05,443.92499999971716,8.136793e-06,443.92499999971716,3.86418e-06
443.93999999971714,1.756653e-05,443.93999999971714,3.236924e-05,443.93999999971714,9.304663e-06,443.93999999971714,4.762306e-06
443.95499999971713,1.734379e-05,443.95499999971713,3.164437e-05,443.95499999971713,9.31979e-06,443.95499999971713,5.441526e-06
443.9699999997171,1.64518e-05,443.9699999997171,3.122312e-05,443.9699999997171,9.31979e-06,443.9699999997171,5.61731e-06
443.9849999997171,1.672607e-05,443.9849999997171,3.208995e-05,443.9849999997171,9.322813e-06,443.9849999997171,5.898653e-06
443.9999999997171,1.692533e-05,443.9999999997171,3.214039e-05,443.9999999997171,9.315255e-06,443.9999999997171,6.030905e-06
444.0149999997171,1.651674e-05,444.0149999997171,3.199058e-05,444.0149999997171,9.31223e-06,444.0149999997171,5.948592e-06
444.02999999971706,1.599419e-05,444.02999999971706,3.108385e-05,444.02999999971706,9.29406e-06,444.02999999971706,5.967507e-06
444.04499999971705,1.610391e-05,444.04499999971705,2.89636e-05,444.04499999971705,7.824367e-06,444.04499999971705,5.948592e-06
444.05999999971704,1.649199e-05,444.05999999971704,2.85245e-05,444.05999999971704,7.786468e-06,444.05999999971704,5.850696e-06
444.074999999717,1.619723e-05,444.074999999717,2.782857e-05,444.074999999717,7.759284e-06,444.074999999717,5.833818e-06
444.089999999717,1.578854e-05,444.089999999717,2.689467e-05,444.089999999717,6.479067e-06,444.089999999717,5.831403e-06
444.104999999717,1.560456e-05,444.104999999717,2.699922e-05,444.104999999717,5.780451e-06,444.104999999717,5.824151e-06
444.119999999717,1.639347e-05,444.119999999717,3.405685e-05,444.119999999717,5.819312e-06,444.119999999717,5.879517e-06
444.13499999971697,1.714529e-05,444.13499999971697,3.400719e-05,444.13499999971697,5.884307e-06,444.13499999971697,5.979298e-06
444.14999999971695,1.628397e-05,444.14999999971695,3.228295e-05,444.14999999971695,5.865124e-06,444.14999999971695,5.946224e-06
444.16499999971694,1.655252e-05,444.16499999971694,3.398854e-05,444.16499999971694,5.836232e-06,444.16499999971694,5.998116e-06
444.1799999997169,1.602762e-05,444.1799999997169,3.770934e-05,444.1799999997169,4.097722e-06,444.1799999997169,5.738873e-06
444.1949999997169,1.628224e-05,444.1949999997169,4.183994e-05,444.1949999997169,3.488681e-06,444.1949999997169,5.216845e-06
444.2099999997169,1.63194e-05,444.2099999997169,4.33464e-05,444.2099999997169,3.488681e-06,444.2099999997169,4.538142e-06
444.2249999997169,1.669488e-05,444.2249999997169,4.462486e-05,444.2249999997169,4.29248e-06,444.2249999997169,4.572159e-06
444.2399999997169,1.680254e-05,444.2399999997169,4.595668e-05,444.2399999997169,4.36408e-06,444.2399999997169,4.262842e-06
444.25499999971686,1.652612e-05,444.25499999971686,5.54294e-05,444.25499999971686,4.38019e-06,444.25499999971686,4.402644e-06
444.26999999971684,1.706953e-05,444.26999999971684,5.649642e-05,444.26999999971684,5.34752e-06,444.26999999971684,4.69378e-06
444.28499999971683,1.721989e-05,444.28499999971683,5.717823e-05,444.28499999971683,5.415577e-06,444.28499999971683,4.645514e-06
444.2999999997168,1.742563e-05,444.2999999997168,5.731996e-05,444.2999999997168,5.508422e-06,444.2999999997168,4.81818e-06
444.3149999997168,1.668222e-05,444.3149999997168,5.604003e-05,444.3149999997168,5.632336e-06,444.3149999997168,4.925167e-06
444.3299999997168,1.648345e-05,444.3299999997168,5.647996e-05,444.3299999997168,5.701935e-06,444.3299999997168,5.013047e-06
444.3449999997168,1.663825e-05,444.3449999997168,5.657864e-05,444.3449999997168,5.743781e-06,444.3449999997168,5.310512e-06
444.35999999971676,1.648345e-05,444.35999999971676,5.533478e-05,444.35999999971676,5.758477e-06,444.35999999971676,5.358047e-06
444.37499999971675,1.619637e-05,444.37499999971675,5.386941e-05,444.37499999971675,5.869926e-06,444.37499999971675,5.418178e-06
444.38999999971674,1.792768e-05,444.38999999971674,5.396216e-05,444.38999999971674,5.845879e-06,444.38999999971674,5.323759e-06
444.4049999997167,1.791668e-05,444.4049999997167,5.399191e-05,444.4049999997167,5.824151e-06,444.4049999997167,5.281253e-06
444.4199999997167,1.635648e-05,444.4199999997167,5.143368e-05,444.4199999997167,5.865124e-06,444.4199999997167,5.389503e-06
444.4349999997167,1.631249e-05,444.4349999997167,4.925138e-05,444.4349999997167,5.862722e-06,444.4349999997167,5.533936e-06
444.4499999997167,1.621636e-05,444.4499999997167,4.810748e-05,444.4499999997167,5.843468e-06,444.4499999997167,5.667242e-06
444.46499999971667,1.611527e-05,444.46499999971667,4.801897e-05,444.46499999971667,5.684616e-06,444.46499999971667,5.669728e-06
444.47999999971665,1.641408e-05,444.47999999971665,4.735937e-05,444.47999999971665,5.257193e-06,444.47999999971665,5.828986e-06
444.49499999971664,1.640463e-05,444.49499999971664,5.121273e-05,444.49499999971664,5.286585e-06,444.49499999971664,6.044903e-06
444.5099999997166,1.613624e-05,444.5099999997166,4.376876e-05,444.5099999997166,6.799448e-06,444.5099999997166,5.884307e-06
444.5249999997166,1.581706e-05,444.5249999997166,4.491653e-05,444.5249999997166,7.03967e-06,444.5249999997166,5.768253e-06
444.5399999997166,1.578675e-05,444.5399999997166,5.695137e-05,444.5399999997166,7.033664e-06,444.5399999997166,5.790191e-06
444.5549999997166,1.676897e-05,444.5549999997166,5.901733e-05,444.5549999997166,7.164627e-06,444.5549999997166,5.760922e-06
444.5699999997166,1.715925e-05,444.5699999997166,6.04178e-05,444.5699999997166,7.156758e-06,444.5699999997166,5.898653e-06
444.58499999971656,1.717484e-05,444.58499999971656,6.342325e-05,444.58499999971656,7.213613e-06,444.58499999971656,5.814468e-06
444.59999999971654,1.778648e-05,444.59999999971654,6.365803e-05,444.59999999971654,7.306746e-06,444.59999999971654,5.833818e-06
444.61499999971653,1.841911e-05,444.61499999971653,6.618711e-05,444.61499999971653,7.27196e-06,444.61499999971653,5.802342e-06
444.6299999997165,1.734298e-05,444.6299999997165,6.847879e-05,444.6299999997165,7.917432e-06,444.6299999997165,5.782887e-06
444.6449999997165,1.56838e-05,444.6449999997165,7.021918e-05,444.6449999997165,8.794083e-06,444.6449999997165,6.042573e-06
444.6599999997165,1.525675e-05,444.6599999997165,7.083675e-05,444.6599999997165,1.047143e-05,444.6599999997165,6.079758e-06
444.6749999997165,1.469424e-05,444.6749999997165,7.247842e-05,444.6749999997165,1.088435e-05,444.6749999997165,6.051891e-06
444.68999999971646,1.452163e-05,444.68999999971646,7.30368e-05,444.68999999971646,1.1332e-05,444.68999999971646,6.139704e-06
444.70499999971645,1.456328e-05,444.70499999971645,7.22337e-05,444.70499999971645,1.140264e-05,444.70499999971645,6.367219e-06
444.71999999971644,1.443015e-05,444.71999999971644,7.18732e-05,444.71999999971644,1.142362e-05,444.71999999971644,6.953093e-06
444.7349999997164,1.385138e-05,444.7349999997164,7.028535e-05,444.7349999997164,1.138533e-05,444.7349999997164,6.881819e-06
444.7499999997164,1.446136e-05,444.7499999997164,6.675801e-05,444.7499999997164,1.254498e-05,444.7499999997164,7.308674e-06
444.7649999997164,1.576532e-05,444.7649999997164,6.972232e-05,444.7649999997164,1.226908e-05,444.7649999997164,8.805288e-06
444.7799999997164,1.577694e-05,444.7799999997164,6.300431e-05,444.7799999997164,1.231492e-05,444.7799999997164,9.207261e-06
444.79499999971637,1.564153e-05,444.79499999971637,5.843541e-05,444.79499999971637,1.242311e-05,444.79499999971637,9.221021e-06
444.80999999971635,1.391024e-05,444.80999999971635,5.662617e-05,444.80999999971635,1.240496e-05,444.80999999971635,9.472707e-06
444.82499999971634,1.387272e-05,444.82499999971634,5.539356e-05,444.82499999971634,1.27466e-05,444.82499999971634,9.636359e-06
444.8399999997163,1.328556e-05,444.8399999997163,5.411622e-05,444.8399999997163,1.270121e-05,444.8399999997163,9.717876e-06
444.8549999997163,1.318017e-05,444.8549999997163,5.393265e-05,444.8549999997163,1.323457e-05,444.8549999997163,9.680115e-06
444.8699999997163,1.336379e-05,444.8699999997163,5.191591e-05,444.8699999997163,1.459516e-05,444.8699999997163,9.741042e-06
444.8849999997163,1.318552e-05,444.8849999997163,4.898668e-05,444.8849999997163,1.444577e-05,444.8849999997163,9.671379e-06
444.8999999997163,1.317269e-05,444.8999999997163,4.680316e-05,444.8999999997163,1.387272e-05,444.8999999997163,9.442919e-06
444.91499999971626,1.310622e-05,444.91499999971626,4.539725e-05,444.91499999971626,1.302644e-05,444.91499999971626,9.503884e-06
444.92999999971624,1.307609e-05,444.92999999971624,4.321914e-05,444.92999999971624,1.268678e-05,444.92999999971624,9.465269e-06
444.94499999971623,1.322286e-05,444.94499999971623,4.223535e-05,444.94499999971623,1.244803e-05,444.94499999971623,9.39656e-06
444.9599999997162,1.31759e-05,444.9599999997162,4.21913e-05,444.9599999997162,1.376671e-05,444.9599999997162,9.003043e-06
444.9749999997162,1.30804e-05,444.9749999997162,4.306208e-05,444.9749999997162,1.429579e-05,444.9749999997162,8.415928e-06
444.9899999997162,1.250561e-05,444.9899999997162,4.454493e-05,444.9899999997162,1.44028e-05,444.9899999997162,8.444335e-06
445.0049999997162,1.04053e-05,445.0049999997162,4.455378e-05,445.0049999997162,1.300371e-05,445.0049999997162,8.026986e-06
445.01999999971616,9.78145e-06,445.01999999971616,4.150223e-05,445.01999999971616,1.279734e-05,445.01999999971616,6.203613e-06
445.03499999971615,9.478654e-06,445.03499999971615,4.339804e-05,445.03499999971615,1.327389e-05,445.03499999971615,5.922486e-06
445.04999999971614,9.570351e-06,445.04999999971614,4.487919e-05,445.04999999971614,1.305453e-05,445.04999999971614,5.905813e-06
445.0649999997161,9.75838e-06,445.0649999997161,4.478368e-05,445.0649999997161,1.342374e-05,445.0649999997161,5.344885e-06
445.0799999997161,9.75838e-06,445.0799999997161,4.569724e-05,445.0799999997161,1.347088e-05,445.0799999997161,4.990517e-06
445.0949999997161,9.539391e-06,445.0949999997161,4.578255e-05,445.0949999997161,1.650906e-05,445.0949999997161,4.762306e-06
445.1099999997161,7.562535e-06,445.1099999997161,4.562228e-05,445.1099999997161,1.608728e-05,445.1099999997161,4.657627e-06
445.12499999971607,7.431003e-06,445.12499999971607,4.377906e-05,445.12499999971607,1.506348e-05,445.12499999971607,4.52882e-06
445.13999999971605,7.423416e-06,445.13999999971605,4.260495e-05,445.13999999971605,1.4652e-05,445.13999999971605,4.418613e-06
445.15499999971604,7.089519e-06,445.15499999971604,4.552429e-05,445.15499999971604,1.478789e-05,445.15499999971604,4.519479e-06
445.169999999716,7.033664e-06,445.169999999716,4.605833e-05,445.169999999716,1.493764e-05,445.169999999716,4.602866e-06
445.184999999716,6.957143e-06,445.184999999716,4.76411e-05,445.184999999716,1.517064e-05,445.184999999716,4.633369e-06
445.199999999716,7.053663e-06,445.199999999716,4.736889e-05,445.199999999716,1.494612e-05,445.199999999716,4.559819e-06
445.214999999716,7.15282e-06,445.214999999716,4.732545e-05,445.214999999716,1.39628e-05,445.214999999716,4.516361e-06
445.229999999716,7.047669e-06,445.229999999716,4.61921e-05,445.229999999716,1.337117e-05,445.229999999716,4.565993e-06
445.24499999971596,7.27196e-06,445.24499999971596,4.403476e-05,445.24499999971596,1.316306e-05,445.24499999971596,4.450379e-06
445.25999999971594,7.560672e-06,445.25999999971594,4.128852e-05,445.25999999971594,1.326434e-05,445.25999999971594,4.354386e-06
445.27499999971593,8.095138e-06,445.27499999971593,3.980151e-05,445.27499999971593,1.259093e-05,445.27499999971593,4.121716e-06
445.2899999997159,1.035781e-05,445.2899999997159,3.835383e-05,445.2899999997159,1.259429e-05,445.2899999997159,4.083948e-06
445.3049999997159,1.076069e-05,445.3049999997159,3.551232e-05,445.3049999997159,1.253711e-05,445.3049999997159,4.155752e-06
445.3199999997159,1.180208e-05,445.3199999997159,3.297031e-05,445.3199999997159,1.21896e-05,445.3199999997159,4.338181e-06
445.3349999997159,1.268012e-05,445.3349999997159,3.012789e-05,445.3349999997159,6.844875e-06,445.3349999997159,4.370531e-06
445.34999999971586,1.552492e-05,445.34999999971586,2.955529e-05,445.34999999971586,6.331722e-06,445.34999999971586,4.409039e-06
445.36499999971585,1.58979e-05,445.36499999971585,2.956816e-05,445.36499999971585,6.282586e-06,445.36499999971585,4.469331e-06
445.37999999971584,1.716335e-05,445.37999999971584,3.024269e-05,445.37999999971584,6.311667e-06,445.37999999971584,4.547444e-06
445.3949999997158,1.784814e-05,445.3949999997158,2.936738e-05,445.3949999997158,6.233063e-06,445.3949999997158,4.575239e-06
445.4099999997158,1.817661e-05,445.4099999997158,2.323606e-05,445.4099999997158,5.126963e-06,445.4099999997158,4.354386e-06
445.4249999997158,1.97934e-05,445.4249999997158,2.129967e-05,445.4249999997158,4.367307e-06,445.4249999997158,4.239647e-06
445.4399999997158,2.155082e-05,445.4399999997158,2.219548e-05,445.4399999997158,4.456705e-06,445.4399999997158,4.285911e-06
445.45499999971577,2.188293e-05,445.45499999971577,2.866735e-05,445.45499999971577,4.383405e-06,445.45499999971577,4.47563e-06
445.46999999971575,2.25306e-05,445.46999999971575,2.940477e-05,445.46999999971575,5.121465e-06,445.46999999971575,4.506994e-06
445.48499999971574,2.355757e-05,445.48499999971574,2.964286e-05,445.48499999971574,5.118714e-06,445.48499999971574,4.636408e-06
445.4999999997157,2.384523e-05,445.4999999997157,2.984792e-05,445.4999999997157,5.159829e-06,445.4999999997157,4.861837e-06
445.5149999997157,2.393191e-05,445.5149999997157,3.007688e-05,445.5149999997157,5.151632e-06,445.5149999997157,4.850233e-06
445.5299999997157,2.366674e-05,445.5299999997157,3.008297e-05,445.5299999997157,5.113207e-06,445.5299999997157,4.81818e-06
445.5449999997157,2.278055e-05,445.5449999997157,3.143669e-05,445.5449999997157,5.289249e-06,445.5449999997157,5.02147e-06
445.55999999971567,2.263663e-05,445.55999999971567,3.426345e-05,445.55999999971567,5.254512e-06,445.55999999971567,5.043863e-06
445.57499999971566,2.183911e-05,445.57499999971566,3.453373e-05,445.57499999971566,5.254512e-06,445.57499999971566,5.104936e-06
445.58999999971564,2.021869e-05,445.58999999971564,3.448311e-05,445.58999999971564,5.219545e-06,445.58999999971564,5.104936e-06
445.60499999971563,1.914217e-05,445.60499999971563,3.40432e-05,445.60499999971563,5.181623e-06,445.60499999971563,5.088352e-06
445.6199999997156,1.885822e-05,445.6199999997156,3.407794e-05,445.6199999997156,5.135199e-06,445.6199999997156,5.286585e-06
445.6349999997156,1.778172e-05,445.6349999997156,3.41238e-05,445.6349999997156,5.104936e-06,445.6349999997156,5.310512e-06
445.6499999997156,1.71091e-05,445.6499999997156,3.401091e-05,445.6499999997156,5.181623e-06,445.6499999997156,5.286585e-06
445.6649999997156,1.685193e-05,445.6649999997156,3.322355e-05,445.6649999997156,4.950841e-06,445.6649999997156,7.113323e-06
445.67999999971556,1.573223e-05,445.67999999971556,3.376441e-05,445.67999999971556,5.029879e-06,445.67999999971556,9.961255e-06
445.69499999971555,1.353348e-05,445.69499999971555,2.949136e-05,445.69499999971555,1.429875e-05,445.69499999971555,1.583486e-05
445.70999999971554,1.275433e-05,445.70999999971554,2.561613e-05,445.70999999971554,2.628543e-05,445.70999999971554,1.947558e-05
445.7249999997155,1.051974e-05,445.7249999997155,2.678024e-05,445.7249999997155,2.971501e-05,445.7249999997155,2.337387e-05
445.7399999997155,1.685862e-05,445.7399999997155,2.730428e-05,445.7399999997155,2.971026e-05,445.7399999997155,2.603017e-05
445.7549999997155,1.646292e-05,445.7549999997155,2.682386e-05,445.7549999997155,3.060247e-05,445.7549999997155,4.367339e-05
445.7699999997155,1.690201e-05,445.7699999997155,3.08409e-05,445.7699999997155,3.098308e-05,445.7699999997155,9.555797e-05
445.78499999971547,1.790881e-05,445.78499999971547,3.263578e-05,445.78499999971547,3.109065e-05,445.78499999971547,0.0001469438
445.79999999971545,1.855323e-05,445.79999999971545,2.885299e-05,445.79999999971545,3.107433e-05,445.79999999971545,0.0001729711
445.81499999971544,1.967419e-05,445.81499999971544,2.921155e-05,445.81499999971544,3.119694e-05,445.81499999971544,0.0001787819
445.8299999997154,2.048036e-05,445.8299999997154,3.007219e-05,445.8299999997154,3.143624e-05,445.8299999997154,0.0001826078
445.8449999997154,2.051815e-05,445.8449999997154,3.117435e-05,445.8449999997154,3.144744e-05,445.8449999997154,0.0001832956
445.8599999997154,2.148142e-05,445.8599999997154,3.126505e-05,445.8599999997154,3.174348e-05,445.8599999997154,0.0001833142
445.8749999997154,2.169415e-05,445.8749999997154,3.070127e-05,445.8749999997154,3.175724e-05,445.8749999997154,0.0001845189
445.88999999971537,2.297757e-05,445.88999999971537,3.094395e-05,445.88999999971537,3.177675e-05,445.88999999971537,0.0001857941
445.90499999971536,2.350968e-05,445.90499999971536,3.099035e-05,445.90499999971536,3.208687e-05,445.90499999971536,0.0001868694
445.91999999971534,2.368935e-05,445.91999999971534,3.061811e-05,445.91999999971534,3.21658e-05,445.91999999971534,0.0001887616
445.93499999971533,2.310657e-05,445.93499999971533,3.036355e-05,445.93499999971533,3.210136e-05,445.93499999971533,0.0001913777
445.9499999997153,2.334131e-05,445.9499999997153,3.008718e-05,445.9499999997153,2.771038e-05,445.9499999997153,0.0001914016
445.9649999997153,2.318629e-05,445.9649999997153,2.956435e-05,445.9649999997153,1.792611e-05,445.9649999997153,0.0001913941
445.9799999997153,2.354261e-05,445.9799999997153,2.776421e-05,445.9799999997153,1.384934e-05,445.9799999997153,0.0001919623
445.9949999997153,1.981972e-05,445.9949999997153,2.794022e-05,445.9949999997153,1.254834e-05,445.9949999997153,0.0001915034
446.00999999971526,1.952614e-05,446.00999999971526,2.796945e-05,446.00999999971526,1.160711e-05,446.00999999971526,0.0001869514
446.02499999971525,1.924273e-05,446.02499999971525,2.210773e-05,446.02499999971525,1.114145e-05,446.02499999971525,0.0001441499
446.03999999971523,1.842829e-05,446.03999999971523,2.121152e-05,446.03999999971523,1.09553e-05,446.03999999971523,0.0001148897
446.0549999997152,1.812306e-05,446.0549999997152,2.144598e-05,446.0549999997152,1.092181e-05,446.0549999997152,7.844219e-05
446.0699999997152,1.63194e-05,446.0699999997152,2.228606e-05,446.0699999997152,1.029506e-05,446.0699999997152,7.312334e-05
446.0849999997152,1.639347e-05,446.0849999997152,2.064068e-05,446.0849999997152,9.959841e-06,446.0849999997152,6.492317e-05
446.0999999997152,1.590322e-05,446.0999999997152,1.947413e-05,446.0999999997152,9.968323e-06,446.0999999997152,6.396664e-05
446.11499999971517,1.528811e-05,446.11499999971517,1.95384e-05,446.11499999971517,1.032648e-05,446.11499999971517,6.375289e-05
446.12999999971515,1.47526e-05,446.12999999971515,1.925005e-05,446.12999999971515,1.044718e-05,446.12999999971515,5.959074e-05
446.14499999971514,1.20396e-05,446.14499999971514,1.842676e-05,446.14499999971514,1.026491e-05,446.14499999971514,5.453008e-05
446.1599999997151,1.140758e-05,446.1599999997151,1.899294e-05,446.1599999997151,8.905506e-06,446.1599999997151,5.211631e-05
446.1749999997151,1.157186e-05,446.1749999997151,1.92698e-05,446.1749999997151,9.020237e-06,446.1749999997151,4.051743e-05
446.1899999997151,1.146547e-05,446.1899999997151,1.982185e-05,446.1899999997151,8.397496e-06,446.1899999997151,3.028039e-05
446.2049999997151,1.096943e-05,446.2049999997151,2.038937e-05,446.2049999997151,8.238303e-06,446.2049999997151,2.953956e-05
446.21999999971507,1.164225e-05,446.21999999971507,2.169804e-05,446.21999999971507,8.217759e-06,446.21999999971507,2.463041e-05
446.23499999971506,1.028274e-05,446.23499999971506,2.361848e-05,446.23499999971506,9.028043e-06,446.23499999971506,1.829711e-05
446.24999999971504,1.026491e-05,446.24999999971504,2.581552e-05,446.24999999971504,8.721702e-06,446.24999999971504,1.544304e-05
446.26499999971503,1.091665e-05,446.26499999971503,2.662514e-05,446.26499999971503,8.834038e-06,446.26499999971503,1.512041e-05
446.279999999715,1.105769e-05,446.279999999715,3.024874e-05,446.279999999715,8.619349e-06,446.279999999715,9.30012e-06
446.294999999715,1.08012e-05,446.294999999715,3.173416e-05,446.294999999715,8.684475e-06,446.294999999715,7.935205e-06
446.309999999715,1.139646e-05,446.309999999715,3.903893e-05,446.309999999715,8.635676e-06,446.309999999715,8.399174e-06
446.324999999715,1.145563e-05,446.324999999715,4.041369e-05,446.324999999715,8.634045e-06,446.324999999715,8.821272e-06
446.33999999971496,1.17038e-05,446.33999999971496,4.203978e-05,446.33999999971496,7.434793e-06,446.33999999971496,8.765202e-06
446.35499999971495,1.180089e-05,446.35499999971495,4.676823e-05,446.35499999971495,7.341366e-06,446.35499999971495,1.018777e-05
446.36999999971493,1.251912e-05,446.36999999971493,4.960847e-05,446.36999999971493,6.606099e-06,446.36999999971493,1.11982e-05
446.3849999997149,1.439105e-05,446.3849999997149,5.297153e-05,446.3849999997149,6.709772e-06,446.3849999997149,1.903665e-05
446.3999999997149,1.472106e-05,446.3999999997149,5.341299e-05,446.3999999997149,6.834577e-06,446.3999999997149,2.034233e-05
446.4149999997149,1.483449e-05,446.4149999997149,5.396268e-05,446.4149999997149,6.718165e-06,446.4149999997149,2.070201e-05
446.4299999997149,1.50204e-05,446.4299999997149,5.596709e-05,446.4299999997149,6.498606e-06,446.4299999997149,2.093949e-05
446.44499999971487,1.572686e-05,446.44499999971487,5.634987e-05,446.44499999971487,6.526725e-06,446.44499999971487,2.098652e-05
446.45999999971485,1.60566e-05,446.45999999971485,5.848505e-05,446.45999999971485,6.550423e-06,446.45999999971485,2.136306e-05
446.47499999971484,1.549768e-05,446.47499999971484,5.939136e-05,446.47499999971484,5.365928e-06,446.47499999971484,2.152008e-05
446.4899999997148,1.559282e-05,446.4899999997148,5.917156e-05,446.4899999997148,4.660651e-06,446.4899999997148,2.16213e-05
446.5049999997148,1.584554e-05,446.5049999997148,6.209991e-05,446.5049999997148,4.412233e-06,446.5049999997148,2.250745e-05
446.5199999997148,1.537356e-05,446.5199999997148,6.266534e-05,446.5199999997148,4.347911e-06,446.5199999997148,2.256683e-05
446.5349999997148,1.535614e-05,446.5349999997148,6.425667e-05,446.5349999997148,4.624239e-06,446.5349999997148,2.305897e-05
446.54999999971477,1.516042e-05,446.54999999971477,7.222102e-05,446.54999999971477,4.642481e-06,446.54999999971477,2.416271e-05
446.56499999971476,1.467601e-05,446.56499999971476,7.091944e-05,446.56499999971476,5.436346e-06,446.56499999971476,2.446399e-05
446.57999999971474,1.455844e-05,446.57999999971474,7.644718e-05,446.57999999971474,5.602244e-06,446.57999999971474,2.444786e-05
446.59499999971473,1.408234e-05,446.59499999971473,7.89666e-05,446.59499999971473,6.214957e-06,446.59499999971473,2.455767e-05
446.6099999997147,1.379124e-05,446.6099999997147,7.931618e-05,446.6099999997147,6.541815e-06,446.6099999997147,2.353304e-05
446.6249999997147,1.332051e-05,446.6249999997147,7.976054e-05,446.6249999997147,8.856334e-06,446.6249999997147,2.201962e-05
446.6399999997147,1.23092e-05,446.6399999997147,8.261031e-05,446.6399999997147,8.938661e-06,446.6399999997147,1.660944e-05
446.6549999997147,1.232635e-05,446.6549999997147,8.636068e-05,446.6549999997147,8.949686e-06,446.6549999997147,1.599419e-05
446.66999999971466,1.209447e-05,446.66999999971466,8.665184e-05,446.66999999971466,9.105725e-06,446.66999999971466,1.578854e-05
446.68499999971465,1.113386e-05,446.68499999971465,8.707672e-05,446.68499999971465,1.330357e-05,446.68499999971465,1.540102e-05
446.69999999971463,1.017117e-05,446.69999999971463,9.223724e-05,446.69999999971463,1.767525e-05,446.69999999971463,1.560547e-05
446.7149999997146,9.741042e-06,446.7149999997146,9.167965e-05,446.7149999997146,1.779914e-05,446.7149999997146,1.528995e-05
446.7299999997146,9.526091e-06,446.7299999997146,9.53366e-05,446.7299999997146,1.842447e-05,446.7299999997146,1.528626e-05
446.7449999997146,9.707725e-06,446.7449999997146,9.900146e-05,446.7449999997146,1.863656e-05,446.7449999997146,1.480788e-05
446.7599999997146,1.088823e-05,446.7599999997146,0.0001027724,446.7599999997146,2.074144e-05,446.7599999997146,1.333002e-05
446.77499999971457,1.085194e-05,446.77499999971457,0.0001035758,446.77499999971457,2.085455e-05,446.77499999971457,1.335641e-05
446.78999999971455,1.102451e-05,446.78999999971455,0.0001006354,446.78999999971455,2.093209e-05,446.78999999971455,1.21572e-05
446.80499999971454,1.096172e-05,446.80499999971454,9.588497e-05,446.80499999971454,2.241966e-05,446.80499999971454,1.018915e-05
446.8199999997145,1.049158e-05,446.8199999997145,9.755926e-05,446.8199999997145,2.271119e-05,446.8199999997145,9.790087e-06
446.8349999997145,1.044583e-05,446.8349999997145,9.327058e-05,446.8349999997145,2.300392e-05,446.8349999997145,8.842007e-06
446.8499999997145,1.048218e-05,446.8499999997145,9.32597e-05,446.8499999997145,2.283428e-05,446.8499999997145,8.856334e-06
446.8649999997145,1.042694e-05,446.8649999997145,9.224778e-05,446.8649999997145,2.311815e-05,446.8649999997145,8.702299e-06
446.87999999971447,9.765595e-06,446.87999999971447,9.250793e-05,446.87999999971447,2.321301e-05,446.87999999971447,8.630781e-06
446.89499999971446,8.900759e-06,446.89499999971446,8.912873e-05,446.89499999971446,2.421629e-05,446.89499999971446,8.540542e-06
446.90999999971444,8.265616e-06,446.90999999971444,8.699515e-05,446.90999999971444,2.497798e-05,446.90999999971444,8.143716e-06
446.92499999971443,8.210899e-06,446.92499999971443,8.541927e-05,446.92499999971443,2.49153e-05,446.92499999971443,8.067247e-06
446.9399999997144,8.154087e-06,446.9399999997144,8.522577e-05,446.9399999997144,2.00943e-05,446.9399999997144,7.967094e-06
446.9549999997144,8.148903e-06,446.9549999997144,8.422219e-05,446.9549999997144,2.022775e-05,446.9549999997144,7.874616e-06
446.9699999997144,8.070739e-06,446.9699999997144,8.26836e-05,446.9699999997144,2.096504e-05,446.9699999997144,7.93343e-06
446.9849999997144,7.826167e-06,446.9849999997144,7.852385e-05,446.9849999997144,2.147487e-05,446.9849999997144,7.788277e-06
446.99999999971436,6.435437e-06,446.99999999971436,7.224735e-05,446.99999999971436,2.138415e-05,446.99999999971436,7.174451e-06
447.01499999971435,4.850233e-06,447.01499999971435,6.570006e-05,447.01499999971435,1.942705e-05,447.01499999971435,7.105398e-06
447.02999999971433,4.794733e-06,447.02999999971433,6.429875e-05,447.02999999971433,1.956938e-05,447.02999999971433,6.665538e-06
447.0449999997143,4.052786e-06,447.0449999997143,6.415707e-05,447.0449999997143,1.972854e-05,447.0449999997143,6.444187e-06
447.0599999997143,4.118297e-06,447.0599999997143,6.783996e-05,447.0599999997143,1.779994e-05,447.0599999997143,6.226279e-06
447.0749999997143,4.338181e-06,447.0749999997143,6.769133e-05,447.0749999997143,2.030282e-05,447.0749999997143,5.962784e-06
447.0899999997143,4.367307e-06,447.0899999997143,6.641741e-05,447.0899999997143,2.099525e-05,447.0899999997143,5.799914e-06
447.10499999971427,4.279333e-06,447.10499999971427,6.325222e-05,447.10499999971427,2.100263e-05,447.10499999971427,5.679657e-06
447.11999999971425,4.138769e-06,447.11999999971425,6.378382e-05,447.11999999971425,2.00992e-05,447.11999999971425,5.574516e-06
447.13499999971424,3.73818e-06,447.13499999971424,6.359869e-05,447.13499999971424,1.961252e-05,447.13499999971424,5.845879e-06
447.1499999997142,3.700305e-06,447.1499999997142,6.517588e-05,447.1499999997142,1.892607e-05,447.1499999997142,5.850696e-06
447.1649999997142,3.741947e-06,447.1649999997142,6.627516e-05,447.1649999997142,1.831788e-05,447.1649999997142,5.877121e-06
447.1799999997142,3.820184e-06,447.1799999997142,6.653989e-05,447.1799999997142,1.865771e-05,447.1799999997142,5.592176e-06
447.1949999997142,3.882364e-06,447.1949999997142,6.622136e-05,447.1949999997142,1.857296e-05,447.1949999997142,5.694519e-06
447.20999999971417,4.242968e-06,447.20999999971417,6.085247e-05,447.20999999971417,1.816731e-05,447.20999999971417,5.564399e-06
447.22499999971416,4.424985e-06,447.22499999971416,6.176168e-05,447.22499999971416,1.681762e-05,447.22499999971416,5.748683e-06
447.23999999971414,6.930771e-06,447.23999999971414,6.292108e-05,447.23999999971414,1.575192e-05,447.23999999971414,6.109804e-06
447.25499999971413,8.046266e-06,447.25499999971413,6.221708e-05,447.25499999971413,1.561359e-05,447.25499999971413,6.005157e-06
447.2699999997141,1.149737e-05,447.2699999997141,6.198525e-05,447.2699999997141,1.559824e-05,447.2699999997141,6.093644e-06
447.2849999997141,1.462891e-05,447.2849999997141,6.1453e-05,447.2849999997141,1.508497e-05,447.2849999997141,5.867525e-06
447.2999999997141,1.564783e-05,447.2999999997141,5.875874e-05,447.2999999997141,1.469903e-05,447.2999999997141,5.853103e-06
447.3149999997141,1.884701e-05,447.3149999997141,5.088933e-05,447.3149999997141,1.433417e-05,447.3149999997141,5.814468e-06
447.32999999971406,2.171881e-05,447.32999999971406,4.859576e-05,447.32999999971406,1.016562e-05,447.32999999971406,5.809621e-06
447.34499999971405,2.250369e-05,447.34499999971405,4.654723e-05,447.34499999971405,8.973265e-06,447.34499999971405,5.689569e-06
447.35999999971403,2.261671e-05,447.35999999971403,4.558397e-05,447.35999999971403,9.020237e-06,447.35999999971403,5.56946e-06
