X[s],a: EMG RMS 1-1,X[s].1,a: EMG RMS 1-2,X[s].2,a: EMG RMS 1-3,X[s].3,a: EMG RMS 1-4
523.0049999996453,2.88051e-05,523.0049999996453,2.962717e-05,523.0049999996453,4.519479e-06,523.0049999996453,4.010859e-06
523.0199999996453,2.736612e-05,523.0199999996453,2.997178e-05,523.0199999996453,4.905105e-06,523.0199999996453,3.957827e-06
523.0349999996453,2.659391e-05,523.0349999996453,3.009327e-05,523.0349999996453,4.905105e-06,523.0349999996453,3.911283e-06
523.0499999996453,2.615811e-05,523.0499999996453,2.906701e-05,523.0499999996453,4.896482e-06,523.0499999996453,3.922073e-06
523.0649999996452,2.61441e-05,523.0649999996452,2.845626e-05,523.0649999996452,4.402644e-06,523.0649999996452,3.871464e-06
523.0799999996452,2.760087e-05,523.0799999996452,2.918116e-05,523.0799999996452,4.308857e-06,523.0799999996452,3.73818e-06
523.0949999996452,2.775559e-05,523.0949999996452,2.960434e-05,523.0949999996452,4.312125e-06,523.0949999996452,3.827552e-06
523.1099999996452,2.711999e-05,523.1099999996452,2.689205e-05,523.1099999996452,4.285911e-06,523.1099999996452,3.607783e-06
523.1249999996452,2.647712e-05,523.1249999996452,2.406281e-05,523.1249999996452,4.584466e-06,523.1249999996452,3.464369e-06
523.1399999996452,2.801373e-05,523.1399999996452,2.421105e-05,523.1399999996452,4.723696e-06,523.1399999996452,3.431686e-06
523.1549999996452,2.854671e-05,523.1549999996452,2.423548e-05,523.1549999996452,4.720713e-06,523.1549999996452,3.468433e-06
523.1699999996451,2.832577e-05,523.1699999996451,2.451059e-05,523.1699999996451,4.714741e-06,523.1699999996451,3.568524e-06
523.1849999996451,2.766561e-05,523.1849999996451,2.517459e-05,523.1849999996451,4.325173e-06,523.1849999996451,3.443979e-06
523.1999999996451,2.72185e-05,523.1999999996451,2.425814e-05,523.1999999996451,4.31539e-06,523.1999999996451,3.59605e-06
523.2149999996451,2.740932e-05,523.2149999996451,2.474112e-05,523.2149999996451,4.269446e-06,523.2149999996451,3.67356e-06
523.2299999996451,2.711843e-05,523.2299999996451,2.438555e-05,523.2299999996451,4.249604e-06,523.2299999996451,3.564574e-06
523.2449999996451,2.664418e-05,523.2449999996451,2.179779e-05,523.2449999996451,4.262842e-06,523.2449999996451,3.56062e-06
523.2599999996451,2.519976e-05,523.2599999996451,2.197223e-05,523.2599999996451,4.747494e-06,523.2599999996451,3.607783e-06
523.274999999645,2.538134e-05,523.274999999645,2.14243e-05,523.274999999645,4.321914e-06,523.274999999645,3.580347e-06
523.289999999645,2.596786e-05,523.289999999645,2.157891e-05,523.289999999645,4.338181e-06,523.289999999645,3.548731e-06
523.304999999645,2.566612e-05,523.304999999645,2.177322e-05,523.304999999645,4.29248e-06,523.304999999645,3.548731e-06
523.319999999645,2.69846e-05,523.319999999645,2.16948e-05,523.319999999645,4.299038e-06,523.319999999645,3.532818e-06
523.334999999645,2.5693e-05,523.334999999645,1.984458e-05,523.334999999645,4.242968e-06,523.334999999645,3.556662e-06
523.349999999645,2.545283e-05,523.349999999645,1.964983e-05,523.349999999645,4.223002e-06,523.349999999645,3.524834e-06
523.364999999645,2.536246e-05,523.364999999645,2.099458e-05,523.364999999645,4.639445e-06,523.364999999645,3.532818e-06
523.379999999645,2.550149e-05,523.379999999645,2.149191e-05,523.379999999645,4.285911e-06,523.379999999645,3.588207e-06
523.3949999996449,2.333527e-05,523.3949999996449,2.140588e-05,523.3949999996449,4.20629e-06,523.3949999996449,3.548731e-06
523.4099999996449,2.353663e-05,523.4099999996449,2.116299e-05,523.4099999996449,4.252917e-06,523.4099999996449,3.443979e-06
523.4249999996449,2.391955e-05,523.4249999996449,1.991615e-05,523.4249999996449,4.212983e-06,523.4249999996449,3.361178e-06
523.4399999996449,2.397778e-05,523.4399999996449,1.867808e-05,523.4399999996449,4.212983e-06,523.4399999996449,3.390388e-06
523.4549999996449,2.329116e-05,523.4549999996449,2.036448e-05,523.4549999996449,4.657627e-06,523.4549999996449,3.284874e-06
523.4699999996449,2.446169e-05,523.4699999996449,2.122679e-05,523.4699999996449,4.660651e-06,523.4699999996449,3.28916e-06
523.4849999996449,2.361848e-05,523.4849999996449,2.46727e-05,523.4849999996449,4.68176e-06,523.4849999996449,3.29344e-06
523.4999999996448,2.322332e-05,523.4999999996448,2.572533e-05,523.4999999996448,4.376973e-06,523.4999999996448,3.340158e-06
523.5149999996448,2.34605e-05,523.5149999996448,2.738207e-05,523.5149999996448,4.162526e-06,523.5149999996448,3.284874e-06
523.5299999996448,2.391543e-05,523.5299999996448,2.818018e-05,523.5299999996448,4.118297e-06,523.5299999996448,3.297714e-06
523.5449999996448,2.449564e-05,523.5449999996448,2.843844e-05,523.5449999996448,4.087396e-06,523.5449999996448,3.327482e-06
523.5599999996448,2.356116e-05,523.5599999996448,3.083313e-05,523.5599999996448,4.950841e-06,523.5599999996448,3.335938e-06
523.5749999996448,2.334674e-05,523.5749999996448,3.100671e-05,523.5749999996448,5.060592e-06,523.5749999996448,3.331712e-06
523.5899999996448,2.336423e-05,523.5899999996448,3.120597e-05,523.5899999996448,5.08004e-06,523.5899999996448,3.390388e-06
523.6049999996447,2.452667e-05,523.6049999996447,3.123033e-05,523.6049999996447,4.717728e-06,523.6049999996447,3.508812e-06
523.6199999996447,2.525002e-05,523.6199999996447,3.517553e-05,523.6199999996447,4.684768e-06,523.6199999996447,3.512824e-06
523.6349999996447,2.582479e-05,523.6349999996447,3.528229e-05,523.6349999996447,4.663672e-06,523.6349999996447,3.443979e-06
523.6499999996447,2.639666e-05,523.6499999996447,3.526952e-05,523.6499999996447,4.702775e-06,523.6499999996447,3.398688e-06
523.6649999996447,2.714854e-05,523.6649999996447,3.527631e-05,523.6649999996447,4.720713e-06,523.6649999996447,3.439886e-06
523.6799999996447,2.709713e-05,523.6799999996447,3.531781e-05,523.6799999996447,4.785911e-06,523.6799999996447,3.431686e-06
523.6949999996447,2.843299e-05,523.6949999996447,3.688981e-05,523.6949999996447,5.249148e-06,523.6949999996447,3.386231e-06
523.7099999996447,2.855016e-05,523.7099999996447,3.569353e-05,523.7099999996447,4.87919e-06,523.7099999996447,3.344373e-06
523.7249999996446,2.721591e-05,523.7249999996446,3.466361e-05,523.7249999996446,4.922306e-06,523.7249999996446,3.348582e-06
523.7399999996446,2.705759e-05,523.7399999996446,3.323373e-05,523.7399999996446,4.910845e-06,523.7399999996446,3.415227e-06
523.7549999996446,2.657642e-05,523.7549999996446,3.220038e-05,523.7549999996446,4.913713e-06,523.7549999996446,3.4111e-06
523.7699999996446,2.694804e-05,523.7699999996446,3.131682e-05,523.7699999996446,4.922306e-06,523.7699999996446,3.439886e-06
523.7849999996446,2.711999e-05,523.7849999996446,3.100444e-05,523.7849999996446,4.970719e-06,523.7849999996446,3.443979e-06
523.7999999996446,2.697364e-05,523.7999999996446,3.090523e-05,523.7999999996446,4.950841e-06,523.7999999996446,3.435788e-06
523.8149999996446,2.746272e-05,523.8149999996446,2.946603e-05,523.8149999996446,4.094283e-06,523.8149999996446,3.423466e-06
523.8299999996445,2.707424e-05,523.8299999996445,2.931073e-05,523.8299999996445,4.587538e-06,523.8299999996445,3.57641e-06
523.8449999996445,2.701382e-05,523.8449999996445,2.886373e-05,523.8449999996445,4.69378e-06,523.8449999996445,3.584279e-06
523.8599999996445,2.595755e-05,523.8599999996445,2.863736e-05,523.8599999996445,4.666692e-06,523.8599999996445,3.627253e-06
523.8749999996445,2.568039e-05,523.8749999996445,2.396015e-05,523.8749999996445,4.714741e-06,523.8749999996445,3.584279e-06
523.8899999996445,2.581934e-05,523.8899999996445,2.353723e-05,523.8899999996445,4.708762e-06,523.8899999996445,3.623367e-06
523.9049999996445,2.512642e-05,523.9049999996445,2.369054e-05,523.9049999996445,4.615091e-06,523.9049999996445,3.65048e-06
523.9199999996445,2.331897e-05,523.9199999996445,2.43607e-05,523.9199999996445,4.648545e-06,523.9199999996445,3.603876e-06
523.9349999996444,2.312546e-05,523.9349999996444,2.299841e-05,523.9349999996444,4.578317e-06,523.9349999996444,3.548731e-06
523.9499999996444,2.171622e-05,523.9499999996444,2.234539e-05,523.9499999996444,4.101159e-06,523.9499999996444,3.556662e-06
523.9649999996444,2.233593e-05,523.9649999996444,2.34773e-05,523.9649999996444,4.083948e-06,523.9649999996444,3.584279e-06
523.9799999996444,2.196261e-05,523.9799999996444,2.358148e-05,523.9799999996444,4.506994e-06,523.9799999996444,3.556662e-06
523.9949999996444,2.178099e-05,523.9949999996444,2.282379e-05,523.9949999996444,4.497608e-06,523.9949999996444,3.532818e-06
524.0099999996444,2.149126e-05,524.0099999996444,2.211027e-05,524.0099999996444,4.47563e-06,524.0099999996444,3.460301e-06
524.0249999996444,2.486832e-05,524.0249999996444,2.213575e-05,524.0249999996444,4.440873e-06,524.0249999996444,3.536803e-06
524.0399999996444,2.41563e-05,524.0399999996444,2.218279e-05,524.0399999996444,4.491339e-06,524.0399999996444,3.564574e-06
524.0549999996443,2.362385e-05,524.0549999996443,2.200362e-05,524.0549999996443,4.472482e-06,524.0549999996443,3.524834e-06
524.0699999996443,2.300086e-05,524.0699999996443,2.365365e-05,524.0699999996443,4.431347e-06,524.0699999996443,3.464369e-06
524.0849999996443,2.34749e-05,524.0849999996443,2.521429e-05,524.0849999996443,3.86418e-06,524.0849999996443,3.29344e-06
524.0999999996443,2.419243e-05,524.0999999996443,2.481673e-05,524.0999999996443,4.172666e-06,524.0999999996443,3.280583e-06
524.1149999996443,2.527399e-05,524.1149999996443,2.389952e-05,524.1149999996443,4.497608e-06,524.1149999996443,3.202359e-06
524.1299999996443,2.488135e-05,524.1299999996443,2.421396e-05,524.1299999996443,4.506994e-06,524.1299999996443,3.197958e-06
524.1449999996443,2.457086e-05,524.1449999996443,2.473371e-05,524.1449999996443,4.500739e-06,524.1449999996443,3.189136e-06
524.1599999996442,2.515388e-05,524.1599999996442,2.450426e-05,524.1599999996442,4.556728e-06,524.1599999996442,3.180289e-06
524.1749999996442,2.571547e-05,524.1749999996442,2.448241e-05,524.1749999996442,4.538142e-06,524.1749999996442,3.166973e-06
524.1899999996442,2.547883e-05,524.1899999996442,2.406867e-05,524.1899999996442,4.519479e-06,524.1899999996442,3.162522e-06
524.2049999996442,2.577074e-05,524.2049999996442,2.412537e-05,524.2049999996442,4.864733e-06,524.2049999996442,3.131187e-06
524.2199999996442,2.630418e-05,524.2199999996442,2.46727e-05,524.2199999996442,4.861837e-06,524.2199999996442,3.11314e-06
524.2349999996442,2.634378e-05,524.2349999996442,2.40675e-05,524.2349999996442,4.415424e-06,524.2349999996442,3.072146e-06
524.2499999996442,2.662038e-05,524.2499999996442,2.675498e-05,524.2499999996442,4.453544e-06,524.2499999996442,3.19355e-06
524.2649999996441,2.541849e-05,524.2649999996441,2.727744e-05,524.2649999996441,4.456705e-06,524.2649999996441,3.297714e-06
524.2799999996441,2.344428e-05,524.2799999996441,2.738053e-05,524.2799999996441,4.444044e-06,524.2799999996441,3.197958e-06
524.2949999996441,2.453701e-05,524.2949999996441,2.711012e-05,524.2949999996441,4.367307e-06,524.2949999996441,3.135683e-06
524.3099999996441,2.443288e-05,524.3099999996441,2.72764e-05,524.3099999996441,4.252917e-06,524.3099999996441,3.158065e-06
524.3249999996441,2.54733e-05,524.3249999996441,2.465956e-05,524.3249999996441,4.902232e-06,524.3249999996441,3.175857e-06
524.3399999996441,2.570889e-05,524.3399999996441,2.476217e-05,524.3399999996441,4.873412e-06,524.3399999996441,3.219907e-06
524.3549999996441,2.543844e-05,524.3549999996441,2.448068e-05,524.3549999996441,4.302314e-06,524.3549999996441,3.271984e-06
524.369999999644,2.456168e-05,524.369999999644,2.436591e-05,524.369999999644,4.289197e-06,524.369999999644,3.348582e-06
524.384999999644,2.45955e-05,524.384999999644,2.448816e-05,524.384999999644,4.266145e-06,524.384999999644,3.431686e-06
524.399999999644,2.455767e-05,524.399999999644,2.451518e-05,524.399999999644,4.321914e-06,524.399999999644,3.504795e-06
524.414999999644,2.388183e-05,524.414999999644,2.561778e-05,524.414999999644,4.791795e-06,524.414999999644,3.496747e-06
524.429999999644,2.401652e-05,524.429999999644,2.586839e-05,524.429999999644,4.824024e-06,524.429999999644,3.508812e-06
524.444999999644,2.328148e-05,524.444999999644,2.56919e-05,524.444999999644,4.826943e-06,524.444999999644,3.623367e-06
524.459999999644,2.327725e-05,524.459999999644,2.891151e-05,524.459999999644,4.503868e-06,524.459999999644,3.741947e-06
524.474999999644,2.271801e-05,524.474999999644,2.808053e-05,524.474999999644,4.535037e-06,524.474999999644,3.749468e-06
524.4899999996439,2.245042e-05,524.4899999996439,2.945742e-05,524.4899999996439,4.559819e-06,524.4899999996439,3.860533e-06
524.5049999996439,2.460466e-05,524.5049999996439,2.741343e-05,524.5049999996439,4.556728e-06,524.5049999996439,3.779404e-06
524.5199999996439,2.612739e-05,524.5199999996439,2.804941e-05,524.5199999996439,4.873412e-06,524.5199999996439,3.8751e-06
524.5349999996439,2.692712e-05,524.5349999996439,3.049133e-05,524.5349999996439,4.95937e-06,524.5349999996439,3.911283e-06
524.5499999996439,2.590594e-05,524.5499999996439,3.100399e-05,524.5499999996439,5.02147e-06,524.5499999996439,3.989731e-06
524.5649999996439,2.733625e-05,524.5649999996439,3.118474e-05,524.5649999996439,4.993339e-06,524.5649999996439,4.010859e-06
524.5799999996439,2.740778e-05,524.5799999996439,3.310845e-05,524.5799999996439,4.402644e-06,524.5799999996439,4.121716e-06
524.5949999996438,2.724954e-05,524.5949999996438,3.475047e-05,524.5949999996438,4.519479e-06,524.5949999996438,4.070128e-06
524.6099999996438,2.820616e-05,524.6099999996438,3.488964e-05,524.6099999996438,4.575239e-06,524.6099999996438,3.989731e-06
524.6249999996438,2.812164e-05,524.6249999996438,3.631134e-05,524.6249999996438,4.531929e-06,524.6249999996438,3.979125e-06
524.6399999996438,2.812414e-05,524.6399999996438,3.721676e-05,524.6399999996438,4.519479e-06,524.6399999996438,3.96849e-06
524.6549999996438,2.818418e-05,524.6549999996438,3.721562e-05,524.6549999996438,4.114875e-06,524.6549999996438,3.911283e-06
524.6699999996438,2.87635e-05,524.6699999996438,3.848509e-05,524.6699999996438,3.932833e-06,524.6699999996438,3.90768e-06
524.6849999996438,2.851956e-05,524.6849999996438,3.82906e-05,524.6849999996438,4.242968e-06,524.6849999996438,3.957827e-06
524.6999999996438,2.838241e-05,524.6999999996438,4.000204e-05,524.6999999996438,4.192873e-06,524.6999999996438,3.92925e-06
524.7149999996437,2.86703e-05,524.7149999996437,3.961171e-05,524.7149999996437,4.182782e-06,524.7149999996437,3.936414e-06
524.7299999996437,2.877868e-05,524.7299999996437,3.86531e-05,524.7299999996437,4.229668e-06,524.7299999996437,3.936414e-06
524.7449999996437,2.87963e-05,524.7449999996437,3.883561e-05,524.7449999996437,4.262842e-06,524.7449999996437,3.820184e-06
524.7599999996437,2.620922e-05,524.7599999996437,3.879678e-05,524.7599999996437,4.077044e-06,524.7599999996437,3.950702e-06
524.7749999996437,2.627846e-05,524.7749999996437,3.76469e-05,524.7749999996437,4.066665e-06,524.7749999996437,3.914884e-06
524.7899999996437,2.730944e-05,524.7899999996437,3.924982e-05,524.7899999996437,4.042345e-06,524.7899999996437,4.010859e-06
524.8049999996437,2.774645e-05,524.8049999996437,3.875573e-05,524.8049999996437,4.010859e-06,524.8049999996437,4.073587e-06
524.8199999996436,2.631756e-05,524.8199999996436,3.849314e-05,524.8199999996436,4.021382e-06,524.8199999996436,4.101159e-06
524.8349999996436,2.603179e-05,524.8349999996436,3.758474e-05,524.8349999996436,4.4218e-06,524.8349999996436,4.219664e-06
524.8499999996436,2.594017e-05,524.8499999996436,3.719253e-05,524.8499999996436,4.34467e-06,524.8499999996436,4.142171e-06
524.8649999996436,2.454103e-05,524.8649999996436,3.736409e-05,524.8649999996436,4.249604e-06,524.8649999996436,4.223002e-06
524.8799999996436,2.448701e-05,524.8799999996436,3.655994e-05,524.8799999996436,4.232997e-06,524.8799999996436,4.289197e-06
524.8949999996436,2.490908e-05,524.8949999996436,3.565957e-05,524.8949999996436,4.299038e-06,524.8949999996436,4.318654e-06
524.9099999996436,2.498023e-05,524.9099999996436,3.469205e-05,524.9099999996436,4.690778e-06,524.9099999996436,4.4218e-06
524.9249999996435,2.43393e-05,524.9249999996435,3.367961e-05,524.9249999996435,4.386617e-06,524.9249999996435,4.675739e-06
524.9399999996435,2.479742e-05,524.9399999996435,3.246527e-05,524.9399999996435,4.36408e-06,524.9399999996435,4.605925e-06
524.9549999996435,2.557815e-05,524.9549999996435,3.364697e-05,524.9549999996435,4.434525e-06,524.9549999996435,4.525708e-06
524.9699999996435,2.556052e-05,524.9699999996435,3.361514e-05,524.9699999996435,4.389827e-06,524.9699999996435,4.47563e-06
524.9849999996435,2.536579e-05,524.9849999996435,3.357069e-05,524.9849999996435,4.383405e-06,524.9849999996435,4.503868e-06
524.9999999996435,2.541905e-05,524.9999999996435,3.356943e-05,524.9999999996435,5.865124e-06,524.9999999996435,4.485062e-06
525.0149999996435,2.433582e-05,525.0149999996435,3.319683e-05,525.0149999996435,5.896265e-06,525.0149999996435,4.31539e-06
525.0299999996435,2.162195e-05,525.0299999996435,3.251383e-05,525.0299999996435,5.853103e-06,525.0299999996435,4.29248e-06
525.0449999996434,2.020894e-05,525.0449999996434,3.263449e-05,525.0449999996434,5.81689e-06,525.0449999996434,4.182782e-06
525.0599999996434,2.027922e-05,525.0599999996434,3.24952e-05,525.0599999996434,5.848288e-06,525.0599999996434,4.118297e-06
525.0749999996434,1.96276e-05,525.0749999996434,3.224934e-05,525.0749999996434,5.773135e-06,525.0749999996434,4.073587e-06
525.0899999996434,1.964195e-05,525.0899999996434,3.213425e-05,525.0899999996434,5.56693e-06,525.0899999996434,3.972038e-06
525.1049999996434,1.851675e-05,525.1049999996434,3.382235e-05,525.1049999996434,5.564399e-06,525.1049999996434,3.92925e-06
525.1199999996434,1.942705e-05,525.1199999996434,3.400843e-05,525.1199999996434,6.042573e-06,525.1199999996434,3.882364e-06
525.1349999996434,2.056479e-05,525.1349999996434,3.357908e-05,525.1349999996434,6.093644e-06,525.1349999996434,3.812802e-06
525.1499999996433,1.999309e-05,525.1499999996433,3.393669e-05,525.1499999996433,5.984008e-06,525.1499999996433,3.584279e-06
525.1649999996433,2.070337e-05,525.1649999996433,3.54142e-05,525.1649999996433,5.824151e-06,525.1649999996433,3.460301e-06
525.1799999996433,2.009359e-05,525.1799999996433,3.643372e-05,525.1799999996433,5.881913e-06,525.1799999996433,3.398688e-06
525.1949999996433,1.933985e-05,525.1949999996433,3.679844e-05,525.1949999996433,5.879517e-06,525.1949999996433,3.603876e-06
525.2099999996433,1.816808e-05,525.2099999996433,3.456146e-05,525.2099999996433,5.893875e-06,525.2099999996433,3.580347e-06
525.2249999996433,1.85722e-05,525.2249999996433,3.471762e-05,525.2249999996433,6.226279e-06,525.2249999996433,3.588207e-06
525.2399999996433,1.866979e-05,525.2399999996433,3.480312e-05,525.2399999996433,5.329048e-06,525.2399999996433,3.57641e-06
525.2549999996432,1.917967e-05,525.2549999996432,3.401671e-05,525.2549999996432,4.858938e-06,525.2549999996432,3.516832e-06
525.2699999996432,1.965987e-05,525.2699999996432,3.485247e-05,525.2699999996432,4.788854e-06,525.2699999996432,3.468433e-06
525.2849999996432,1.995783e-05,525.2849999996432,3.455698e-05,525.2849999996432,4.759348e-06,525.2849999996432,3.406967e-06
525.2999999996432,2.162651e-05,525.2999999996432,3.318367e-05,525.2999999996432,4.765263e-06,525.2999999996432,3.4111e-06
525.3149999996432,2.104283e-05,525.3149999996432,3.404279e-05,525.3149999996432,4.756387e-06,525.3149999996432,3.448066e-06
525.3299999996432,2.078351e-05,525.3299999996432,3.448597e-05,525.3299999996432,5.085583e-06,525.3299999996432,3.435788e-06
525.3449999996432,2.114967e-05,525.3449999996432,3.228295e-05,525.3449999996432,5.135199e-06,525.3449999996432,3.419349e-06
525.3599999996432,2.175899e-05,525.3599999996432,3.188252e-05,525.3599999996432,4.844421e-06,525.3599999996432,3.568524e-06
525.3749999996431,2.22367e-05,525.3749999996431,3.216405e-05,525.3749999996431,4.768218e-06,525.3749999996431,3.580347e-06
525.3899999996431,2.106023e-05,525.3899999996431,3.315394e-05,525.3899999996431,4.771172e-06,525.3899999996431,3.588207e-06
525.4049999996431,2.29125e-05,525.4049999996431,3.397403e-05,525.4049999996431,4.741556e-06,525.4049999996431,3.688867e-06
525.4199999996431,2.329419e-05,525.4199999996431,3.328455e-05,525.4199999996431,4.723696e-06,525.4199999996431,3.685046e-06
525.4349999996431,2.31352e-05,525.4349999996431,3.159893e-05,525.4349999996431,5.091119e-06,525.4349999996431,3.508812e-06
525.4499999996431,2.473314e-05,525.4499999996431,3.014985e-05,525.4499999996431,5.077266e-06,525.4499999996431,3.427579e-06
525.464999999643,2.490229e-05,525.464999999643,2.976947e-05,525.464999999643,5.029879e-06,525.464999999643,3.423466e-06
525.479999999643,2.514491e-05,525.479999999643,3.026131e-05,525.479999999643,4.717728e-06,525.479999999643,3.435788e-06
525.494999999643,2.51309e-05,525.494999999643,3.243228e-05,525.494999999643,4.741556e-06,525.494999999643,3.540784e-06
525.509999999643,2.577292e-05,525.509999999643,3.223536e-05,525.509999999643,4.744526e-06,525.509999999643,3.568524e-06
525.524999999643,2.549154e-05,525.524999999643,3.154003e-05,525.524999999643,4.66971e-06,525.524999999643,3.568524e-06
525.539999999643,2.662885e-05,525.539999999643,3.069944e-05,525.539999999643,5.243778e-06,525.539999999643,3.56062e-06
525.554999999643,2.562382e-05,525.554999999643,3.127045e-05,525.554999999643,5.219545e-06,525.554999999643,3.492716e-06
525.569999999643,2.578221e-05,525.569999999643,3.133346e-05,525.569999999643,5.216845e-06,525.569999999643,3.512824e-06
525.584999999643,2.547441e-05,525.584999999643,3.333699e-05,525.584999999643,4.896482e-06,525.584999999643,3.524834e-06
525.5999999996429,2.589398e-05,525.5999999996429,3.351525e-05,525.5999999996429,4.762306e-06,525.5999999996429,3.452149e-06
525.6149999996429,2.632131e-05,525.6149999996429,3.478693e-05,525.6149999996429,4.723696e-06,525.6149999996429,3.356985e-06
525.6299999996429,2.582207e-05,525.6299999996429,3.612153e-05,525.6299999996429,4.648545e-06,525.6299999996429,3.331712e-06
525.6449999996429,2.778095e-05,525.6449999996429,3.503589e-05,525.6449999996429,4.602866e-06,525.6449999996429,3.431686e-06
525.6599999996429,2.642919e-05,525.6599999996429,3.361765e-05,525.6599999996429,4.882076e-06,525.6599999996429,3.373728e-06
525.6749999996429,2.641853e-05,525.6749999996429,3.294808e-05,525.6749999996429,4.850233e-06,525.6749999996429,3.460301e-06
525.6899999996429,2.663149e-05,525.6899999996429,3.25554e-05,525.6899999996429,4.39624e-06,525.6899999996429,3.512824e-06
525.7049999996428,2.53669e-05,525.7049999996428,3.350979e-05,525.7049999996428,4.386617e-06,525.7049999996428,3.508812e-06
525.7199999996428,2.549707e-05,525.7199999996428,3.388102e-05,525.7199999996428,4.367307e-06,525.7199999996428,3.484641e-06
525.7349999996428,2.602746e-05,525.7349999996428,3.290873e-05,525.7349999996428,4.256228e-06,525.7349999996428,3.460301e-06
525.7499999996428,2.53369e-05,525.7499999996428,3.260469e-05,525.7499999996428,4.29576e-06,525.7499999996428,3.431686e-06
525.7649999996428,2.478492e-05,525.7649999996428,3.2817e-05,525.7649999996428,4.31539e-06,525.7649999996428,3.516832e-06
525.7799999996428,2.520926e-05,525.7799999996428,3.323881e-05,525.7799999996428,4.31539e-06,525.7799999996428,3.540784e-06
525.7949999996428,2.496782e-05,525.7949999996428,3.343488e-05,525.7949999996428,3.564574e-06,525.7949999996428,3.556662e-06
525.8099999996427,2.538189e-05,525.8099999996427,3.267288e-05,525.8099999996427,3.619477e-06,525.8099999996427,3.556662e-06
525.8249999996427,2.577675e-05,525.8249999996427,3.163101e-05,525.8249999996427,3.658189e-06,525.8249999996427,3.588207e-06
525.8399999996427,2.592116e-05,525.8399999996427,2.906265e-05,525.8399999996427,3.67356e-06,525.8399999996427,3.646619e-06
525.8549999996427,2.553461e-05,525.8549999996427,2.891298e-05,525.8549999996427,3.73441e-06,525.8549999996427,3.786851e-06
525.8699999996427,2.436706e-05,525.8699999996427,2.543456e-05,525.8699999996427,3.764466e-06,525.8699999996427,3.989731e-06
525.8849999996427,2.360595e-05,525.8849999996427,2.503318e-05,525.8849999996427,3.723076e-06,525.8849999996427,4.216325e-06
525.8999999996427,2.267394e-05,525.8999999996427,2.499771e-05,525.8999999996427,3.677393e-06,525.8999999996427,4.179412e-06
525.9149999996426,2.394897e-05,525.9149999996426,2.714284e-05,525.9149999996426,3.423466e-06,525.9149999996426,4.223002e-06
525.9299999996426,2.401945e-05,525.9299999996426,2.932226e-05,525.9299999996426,4.045829e-06,525.9299999996426,4.199587e-06
525.9449999996426,2.364769e-05,525.9449999996426,3.039369e-05,525.9449999996426,4.066665e-06,525.9449999996426,4.155752e-06
525.9599999996426,2.298616e-05,525.9599999996426,3.148236e-05,525.9599999996426,4.080498e-06,525.9599999996426,4.279333e-06
525.9749999996426,2.325727e-05,525.9749999996426,3.303647e-05,525.9749999996426,4.135364e-06,525.9749999996426,4.223002e-06
525.9899999996426,2.313642e-05,525.9899999996426,3.363441e-05,525.9899999996426,4.038859e-06,525.9899999996426,4.20294e-06
526.0049999996426,2.411019e-05,526.0049999996426,3.374438e-05,526.0049999996426,4.101159e-06,526.0049999996426,4.135364e-06
526.0199999996426,2.445881e-05,526.0199999996426,3.3621e-05,526.0199999996426,4.155752e-06,526.0199999996426,4.152361e-06
526.0349999996425,2.351088e-05,526.0349999996425,3.427414e-05,526.0349999996425,4.785911e-06,526.0349999996425,4.212983e-06
526.0499999996425,2.385704e-05,526.0499999996425,3.535409e-05,526.0499999996425,4.803539e-06,526.0499999996425,4.216325e-06
526.0649999996425,2.377542e-05,526.0649999996425,3.54889e-05,526.0649999996425,4.780021e-06,526.0649999996425,4.165909e-06
526.0799999996425,2.352585e-05,526.0799999996425,3.53744e-05,526.0799999996425,4.821102e-06,526.0799999996425,4.196231e-06
526.0949999996425,2.407862e-05,526.0949999996425,3.479827e-05,526.0949999996425,4.882076e-06,526.0949999996425,4.179412e-06
526.1099999996425,2.571547e-05,526.1099999996425,3.634198e-05,526.1099999996425,5.219545e-06,526.1099999996425,4.094283e-06
526.1249999996425,2.593312e-05,526.1249999996425,3.772279e-05,526.1249999996425,5.222243e-06,526.1249999996425,3.982663e-06
526.1399999996424,2.528625e-05,526.1399999996424,3.788748e-05,526.1399999996424,5.241091e-06,526.1399999996424,3.827552e-06
526.1549999996424,2.561448e-05,526.1549999996424,3.732938e-05,526.1549999996424,5.206033e-06,526.1549999996424,3.896851e-06
526.1699999996424,2.424594e-05,526.1699999996424,3.611412e-05,526.1699999996424,4.788854e-06,526.1699999996424,3.84957e-06
526.1849999996424,2.413471e-05,526.1849999996424,3.41015e-05,526.1849999996424,5.291911e-06,526.1849999996424,3.764466e-06
526.1999999996424,2.794627e-05,526.1999999996424,3.275642e-05,526.1999999996424,5.331691e-06,526.1999999996424,3.794284e-06
526.2149999996424,2.729241e-05,526.2149999996424,2.885006e-05,526.2149999996424,5.302549e-06,526.2149999996424,3.711708e-06
526.2299999996424,2.740573e-05,526.2299999996424,2.997272e-05,526.2299999996424,5.2679e-06,526.2299999996424,3.681221e-06
526.2449999996423,2.759372e-05,526.2449999996423,2.934627e-05,526.2449999996423,5.315815e-06,526.2449999996423,3.715501e-06
526.2599999996423,2.856496e-05,526.2599999996423,2.900394e-05,526.2599999996423,5.305204e-06,526.2599999996423,3.775675e-06
526.2749999996423,2.882075e-05,526.2749999996423,2.802278e-05,526.2749999996423,5.654801e-06,526.2749999996423,3.715501e-06
526.2899999996423,2.890226e-05,526.2899999996423,2.735119e-05,526.2899999996423,5.270573e-06,526.2899999996423,3.715501e-06
526.3049999996423,2.782959e-05,526.3049999996423,2.741292e-05,526.3049999996423,5.321112e-06,526.3049999996423,3.753223e-06
526.3199999996423,2.812464e-05,526.3199999996423,2.781895e-05,526.3199999996423,7.196016e-06,526.3199999996423,3.805405e-06
526.3349999996423,2.779464e-05,526.3349999996423,2.911447e-05,526.3349999996423,7.412022e-06,526.3349999996423,3.786851e-06
526.3499999996423,2.866981e-05,526.3499999996423,2.95734e-05,526.3499999996423,7.667973e-06,526.3499999996423,3.771943e-06
526.3649999996422,2.663995e-05,526.3649999996422,2.764422e-05,526.3649999996422,7.929877e-06,526.3649999996422,3.532818e-06
526.3799999996422,2.650265e-05,526.3799999996422,2.661879e-05,526.3799999996422,8.395818e-06,526.3799999996422,3.584279e-06
526.3949999996422,2.625164e-05,526.3949999996422,2.675551e-05,526.3949999996422,9.034282e-06,526.3949999996422,3.536803e-06
526.4099999996422,2.560788e-05,526.4099999996422,2.916571e-05,526.4099999996422,9.287995e-06,526.4099999996422,3.382069e-06
526.4249999996422,2.590431e-05,526.4249999996422,2.945742e-05,526.4249999996422,9.188883e-06,526.4249999996422,3.406967e-06
526.4399999996422,2.432598e-05,526.4399999996422,2.949613e-05,526.4399999996422,1.027177e-05,526.4399999996422,3.468433e-06
526.4549999996422,2.252934e-05,526.4549999996422,3.0477e-05,526.4549999996422,1.060377e-05,526.4549999996422,3.398688e-06
526.4699999996421,2.254872e-05,526.4699999996421,3.012041e-05,526.4699999996421,1.088694e-05,526.4699999996421,3.528828e-06
526.4849999996421,2.192795e-05,526.4849999996421,3.102533e-05,526.4849999996421,1.110345e-05,526.4849999996421,3.588207e-06
526.4999999996421,2.148142e-05,526.4999999996421,3.137883e-05,526.4999999996421,1.108695e-05,526.4999999996421,3.627253e-06
526.5149999996421,1.848858e-05,526.5149999996421,3.269917e-05,526.5149999996421,1.106151e-05,526.5149999996421,3.662038e-06
526.5299999996421,1.833556e-05,526.5299999996421,3.287532e-05,526.5299999996421,1.179253e-05,526.5299999996421,3.584279e-06
526.5449999996421,1.986161e-05,526.5449999996421,3.198882e-05,526.5449999996421,1.175903e-05,526.5449999996421,3.564574e-06
526.5599999996421,1.998886e-05,526.5599999996421,3.456513e-05,526.5599999996421,1.175544e-05,526.5599999996421,3.580347e-06
526.574999999642,1.965127e-05,526.574999999642,3.371639e-05,526.574999999642,1.112753e-05,526.574999999642,3.580347e-06
526.589999999642,2.166426e-05,526.589999999642,3.335684e-05,526.589999999642,1.094629e-05,526.589999999642,3.536803e-06
526.604999999642,2.027922e-05,526.604999999642,3.190637e-05,526.604999999642,1.063825e-05,526.604999999642,3.603876e-06
526.619999999642,2.056342e-05,526.619999999642,3.263103e-05,526.619999999642,1.139646e-05,526.619999999642,3.623367e-06
526.634999999642,2.127981e-05,526.634999999642,3.365158e-05,526.634999999642,1.16616e-05,526.634999999642,3.654337e-06
526.649999999642,2.209753e-05,526.649999999642,3.278006e-05,526.649999999642,1.179611e-05,526.649999999642,3.730636e-06
526.664999999642,2.204903e-05,526.664999999642,3.057345e-05,526.664999999642,1.171463e-05,526.664999999642,3.786851e-06
526.679999999642,2.192859e-05,526.679999999642,3.076269e-05,526.679999999642,1.09347e-05,526.679999999642,3.726858e-06
526.6949999996419,2.282564e-05,526.6949999996419,3.313014e-05,526.6949999996419,1.18414e-05,526.6949999996419,3.78313e-06
526.7099999996419,2.239891e-05,526.7099999996419,3.336402e-05,526.7099999996419,1.178416e-05,526.7099999996419,3.885991e-06
526.7249999996419,2.210581e-05,526.7249999996419,3.370846e-05,526.7249999996419,1.173985e-05,526.7249999996419,3.797995e-06
526.7399999996419,2.285648e-05,526.7399999996419,3.328201e-05,526.7399999996419,1.179253e-05,526.7399999996419,3.779404e-06
526.7549999996419,2.335036e-05,526.7549999996419,3.452802e-05,526.7549999996419,1.177819e-05,526.7549999996419,3.878734e-06
526.7699999996419,2.334553e-05,526.7699999996419,3.505197e-05,526.7699999996419,1.178297e-05,526.7699999996419,3.845909e-06
526.7849999996419,2.387239e-05,526.7849999996419,3.613947e-05,526.7849999996419,1.166884e-05,526.7849999996419,3.893234e-06
526.7999999996418,2.269505e-05,526.7999999996418,3.504473e-05,526.7999999996418,1.164104e-05,526.7999999996418,4.01437e-06
526.8149999996418,2.241275e-05,526.8149999996418,3.497634e-05,526.8149999996418,1.257526e-05,526.8149999996418,4.024883e-06
526.8299999996418,2.166166e-05,526.8299999996418,3.523355e-05,526.8299999996418,1.254722e-05,526.8299999996418,3.996786e-06
526.8449999996418,2.244101e-05,526.8449999996418,3.542733e-05,526.8449999996418,1.314379e-05,526.8449999996418,4.070128e-06
526.8599999996418,2.282132e-05,526.8599999996418,3.479584e-05,526.8599999996418,1.313199e-05,526.8599999996418,3.96849e-06
526.8749999996418,2.239891e-05,526.8749999996418,3.554205e-05,526.8749999996418,1.252475e-05,526.8749999996418,3.91848e-06
526.8899999996418,2.273598e-05,526.8899999996418,3.50588e-05,526.8899999996418,1.285773e-05,526.8899999996418,3.964939e-06
526.9049999996417,2.207138e-05,526.9049999996417,3.518714e-05,526.9049999996417,1.305021e-05,526.9049999996417,3.86418e-06
526.9199999996417,2.34761e-05,526.9199999996417,3.632957e-05,526.9199999996417,1.337644e-05,526.9199999996417,3.827552e-06
526.9349999996417,2.402239e-05,526.9349999996417,3.450067e-05,526.9349999996417,1.295705e-05,526.9349999996417,3.84957e-06
526.9499999996417,2.392249e-05,526.9499999996417,3.306161e-05,526.9499999996417,1.214213e-05,526.9499999996417,3.812802e-06
526.9649999996417,2.435376e-05,526.9649999996417,3.213951e-05,526.9649999996417,1.196213e-05,526.9649999996417,3.707911e-06
526.9799999996417,2.441327e-05,526.9799999996417,3.197958e-05,526.9799999996417,1.194091e-05,526.9799999996417,3.688867e-06
526.9949999996417,2.396485e-05,526.9949999996417,3.298141e-05,526.9949999996417,1.233778e-05,526.9949999996417,3.654337e-06
527.0099999996416,2.394545e-05,527.0099999996416,3.203107e-05,527.0099999996416,1.176023e-05,527.0099999996416,3.57641e-06
527.0249999996416,2.494242e-05,527.0249999996416,3.004032e-05,527.0249999996416,1.183307e-05,527.0249999996416,3.528828e-06
527.0399999996416,2.502136e-05,527.0399999996416,2.984178e-05,527.0399999996416,1.228744e-05,527.0399999996416,3.496747e-06
527.0549999996416,2.598684e-05,527.0549999996416,2.942632e-05,527.0549999996416,1.114271e-05,527.0549999996416,3.484641e-06
527.0699999996416,2.573025e-05,527.0699999996416,2.857285e-05,527.0699999996416,1.172785e-05,527.0699999996416,3.532818e-06
527.0849999996416,2.318569e-05,527.0849999996416,2.821216e-05,527.0849999996416,1.126842e-05,527.0849999996416,3.528828e-06
527.0999999996416,2.297451e-05,527.0999999996416,2.891249e-05,527.0999999996416,1.104749e-05,527.0999999996416,3.452149e-06
527.1149999996416,2.342204e-05,527.1149999996416,2.883199e-05,527.1149999996416,1.096172e-05,527.1149999996416,3.516832e-06
527.1299999996415,2.361371e-05,527.1299999996415,2.663995e-05,527.1299999996415,1.018224e-05,527.1299999996415,3.435788e-06
527.1449999996415,2.327967e-05,527.1449999996415,2.716825e-05,527.1449999996415,9.756936e-06,527.1449999996415,3.4111e-06
527.1599999996415,2.307179e-05,527.1599999996415,2.818218e-05,527.1599999996415,8.68934e-06,527.1599999996415,3.524834e-06
527.1749999996415,2.02535e-05,527.1749999996415,2.714076e-05,527.1749999996415,8.687718e-06,527.1749999996415,3.59605e-06
527.1899999996415,2.041146e-05,527.1899999996415,2.872037e-05,527.1899999996415,9.327345e-06,527.1899999996415,3.611685e-06
527.2049999996415,2.03257e-05,527.2049999996415,2.862949e-05,527.2049999996415,9.266738e-06,527.2049999996415,3.599965e-06
527.2199999996415,2.000859e-05,527.2199999996415,2.947511e-05,527.2199999996415,9.068521e-06,527.2199999996415,3.584279e-06
527.2349999996414,1.990553e-05,527.2349999996414,2.769665e-05,527.2349999996414,9.152018e-06,527.2349999996414,3.642754e-06
527.2499999996414,2.024446e-05,527.2499999996414,2.938177e-05,527.2499999996414,8.547137e-06,527.2499999996414,3.631134e-06
527.2649999996414,2.01496e-05,527.2649999996414,2.869191e-05,527.2649999996414,8.540542e-06,527.2649999996414,3.536803e-06
527.2799999996414,1.923174e-05,527.2799999996414,3.138018e-05,527.2799999996414,8.439329e-06,527.2799999996414,3.711708e-06
527.2949999996414,1.941908e-05,527.2949999996414,3.230215e-05,527.2949999996414,7.809951e-06,527.2949999996414,3.715501e-06
527.3099999996414,2.004235e-05,527.3099999996414,3.206008e-05,527.3099999996414,7.60896e-06,527.3099999996414,3.619477e-06
527.3249999996414,2.023819e-05,527.3249999996414,3.314119e-05,527.3249999996414,6.671875e-06,527.3249999996414,3.556662e-06
527.3399999996413,2.010831e-05,527.3399999996413,3.305565e-05,527.3399999996413,6.703471e-06,527.3399999996413,3.54476e-06
527.3549999996413,2.069997e-05,527.3549999996413,3.27792e-05,527.3549999996413,6.618881e-06,527.3549999996413,3.552699e-06
527.3699999996413,1.958737e-05,527.3699999996413,3.260166e-05,527.3699999996413,6.257873e-06,527.3699999996413,3.59605e-06
527.3849999996413,1.973425e-05,527.3849999996413,3.293312e-05,527.3849999996413,6.203613e-06,527.3849999996413,3.623367e-06
527.3999999996413,1.939367e-05,527.3999999996413,3.366999e-05,527.3999999996413,5.654801e-06,527.3999999996413,3.715501e-06
527.4149999996413,2.00992e-05,527.4149999996413,3.273749e-05,527.4149999996413,5.639834e-06,527.4149999996413,3.638885e-06
527.4299999996413,2.042595e-05,527.4299999996413,3.210882e-05,527.4299999996413,5.168013e-06,527.4299999996413,3.654337e-06
527.4449999996413,2.028616e-05,527.4449999996413,3.225764e-05,527.4449999996413,5.192486e-06,527.4449999996413,3.67356e-06
527.4599999996412,2.124139e-05,527.4599999996412,3.229561e-05,527.4599999996412,5.066156e-06,527.4599999996412,3.700305e-06
527.4749999996412,2.200554e-05,527.4749999996412,3.191079e-05,527.4749999996412,4.950841e-06,527.4749999996412,3.688867e-06
527.4899999996412,2.157238e-05,527.4899999996412,3.075262e-05,527.4899999996412,5.467352e-06,527.4899999996412,3.654337e-06
527.5049999996412,2.071086e-05,527.5049999996412,3.003564e-05,527.5049999996412,5.487926e-06,527.5049999996412,3.669723e-06
527.5199999996412,2.102542e-05,527.5199999996412,2.926551e-05,527.5199999996412,5.222243e-06,527.5199999996412,3.685046e-06
527.5349999996412,2.116432e-05,527.5349999996412,2.803133e-05,527.5349999996412,5.579567e-06,527.5349999996412,3.631134e-06
527.5499999996412,1.963191e-05,527.5499999996412,2.69846e-05,527.5499999996412,5.75603e-06,527.5499999996412,3.723076e-06
527.5649999996411,1.984742e-05,527.5649999996411,2.562657e-05,527.5649999996411,6.692956e-06,527.5649999996411,3.669723e-06
527.5799999996411,2.058738e-05,527.5799999996411,2.559742e-05,527.5799999996411,6.640129e-06,527.5799999996411,3.764466e-06
527.5949999996411,2.06666e-05,527.5949999996411,2.766408e-05,527.5949999996411,7.293238e-06,527.5949999996411,3.856882e-06
527.6099999996411,2.062771e-05,527.6099999996411,2.839035e-05,527.6099999996411,7.289374e-06,527.6099999996411,3.856882e-06
527.6249999996411,2.090987e-05,527.6249999996411,2.847507e-05,527.6249999996411,8.248557e-06,527.6249999996411,3.753223e-06
527.6399999996411,2.081872e-05,527.6399999996411,2.822314e-05,527.6399999996411,8.477633e-06,527.6399999996411,3.692683e-06
527.6549999996411,2.194143e-05,527.6549999996411,2.870467e-05,527.6549999996411,8.55208e-06,527.6549999996411,3.794284e-06
527.669999999641,2.206882e-05,527.669999999641,2.920336e-05,527.669999999641,8.43432e-06,527.669999999641,3.756974e-06
527.684999999641,2.184943e-05,527.684999999641,2.932226e-05,527.684999999641,8.446003e-06,527.684999999641,3.797995e-06
527.699999999641,2.117962e-05,527.699999999641,2.887056e-05,527.699999999641,8.545489e-06,527.699999999641,3.688867e-06
527.714999999641,2.016567e-05,527.714999999641,2.94947e-05,527.714999999641,9.624658e-06,527.714999999641,3.677393e-06
527.729999999641,2.15155e-05,527.729999999641,2.950807e-05,527.729999999641,9.608544e-06,527.729999999641,3.669723e-06
527.744999999641,2.243536e-05,527.744999999641,3.254847e-05,527.744999999641,9.284961e-06,527.744999999641,3.768206e-06
527.759999999641,2.220437e-05,527.759999999641,3.355264e-05,527.759999999641,9.29406e-06,527.759999999641,3.786851e-06
527.774999999641,2.25381e-05,527.774999999641,3.204954e-05,527.774999999641,9.374045e-06,527.774999999641,3.760722e-06
527.7899999996409,2.21758e-05,527.7899999996409,3.241186e-05,527.7899999996409,9.40555e-06,527.7899999996409,3.797995e-06
527.8049999996409,2.205478e-05,527.8049999996409,3.595345e-05,527.8049999996409,9.716427e-06,527.8049999996409,3.756974e-06
527.8199999996409,2.085523e-05,527.8199999996409,3.740704e-05,527.8199999996409,9.637821e-06,527.8199999996409,3.753223e-06
527.8349999996409,2.055999e-05,527.8349999996409,3.782385e-05,527.8349999996409,9.804465e-06,527.8349999996409,3.696496e-06
527.8499999996409,2.035133e-05,527.8499999996409,3.648781e-05,527.8499999996409,9.352983e-06,527.8499999996409,3.57641e-06
527.8649999996409,2.197415e-05,527.8649999996409,3.636368e-05,527.8649999996409,9.601211e-06,527.8649999996409,3.812802e-06
527.8799999996409,2.174733e-05,527.8799999996409,3.683134e-05,527.8799999996409,9.44441e-06,527.8799999996409,3.957827e-06
527.8949999996408,2.2042e-05,527.8949999996408,3.679384e-05,527.8949999996408,9.549722e-06,527.8949999996408,3.932833e-06
527.9099999996408,2.178745e-05,527.9099999996408,3.541142e-05,527.9099999996408,9.530527e-06,527.9099999996408,3.812802e-06
527.9249999996408,2.168051e-05,527.9249999996408,3.478612e-05,527.9249999996408,9.514254e-06,527.9249999996408,3.768206e-06
527.9399999996408,2.192602e-05,527.9399999996408,3.407422e-05,527.9399999996408,9.25609e-06,527.9399999996408,3.885991e-06
527.9549999996408,2.228606e-05,527.9549999996408,3.633578e-05,527.9549999996408,8.886504e-06,527.9549999996408,4.028382e-06
527.9699999996408,2.277437e-05,527.9699999996408,3.652332e-05,527.9699999996408,8.715239e-06,527.9699999996408,4.017877e-06
527.9849999996408,2.129371e-05,527.9849999996408,3.644455e-05,527.9849999996408,8.713623e-06,527.9849999996408,3.90768e-06
527.9999999996407,2.076384e-05,527.9999999996407,3.38311e-05,527.9999999996407,8.724932e-06,527.9999999996407,3.90768e-06
528.0149999996407,2.061951e-05,528.0149999996407,3.297842e-05,528.0149999996407,9.09334e-06,528.0149999996407,3.834905e-06
528.0299999996407,1.970782e-05,528.0299999996407,3.307056e-05,528.0299999996407,8.965412e-06,528.0299999996407,3.82387e-06
528.0449999996407,2.029588e-05,528.0449999996407,3.098581e-05,528.0449999996407,8.141986e-06,528.0449999996407,3.70411e-06
528.0599999996407,2.0379e-05,528.0599999996407,2.804037e-05,528.0599999996407,7.831566e-06,528.0599999996407,3.70411e-06
528.0749999996407,2.119558e-05,528.0749999996407,2.594832e-05,528.0749999996407,7.761099e-06,528.0749999996407,3.73441e-06
528.0899999996407,2.137954e-05,528.0899999996407,2.427265e-05,528.0899999996407,7.730182e-06,528.0899999996407,3.700305e-06
528.1049999996407,2.387829e-05,528.1049999996407,2.32839e-05,528.1049999996407,7.761099e-06,528.1049999996407,3.812802e-06
528.1199999996406,2.393132e-05,528.1199999996406,2.260924e-05,528.1199999996406,7.726537e-06,528.1199999996406,3.568524e-06
528.1349999996406,2.35964e-05,528.1349999996406,2.034579e-05,528.1349999996406,6.851046e-06,528.1349999996406,3.631134e-06
528.1499999996406,2.362564e-05,528.1499999996406,2.000084e-05,528.1499999996406,6.380479e-06,528.1499999996406,3.827552e-06
528.1649999996406,2.22538e-05,528.1649999996406,1.993877e-05,528.1649999996406,6.395915e-06,528.1649999996406,3.856882e-06
528.1799999996406,2.183331e-05,528.1799999996406,1.976492e-05,528.1799999996406,6.382687e-06,528.1799999996406,3.957827e-06
528.1949999996406,2.18475e-05,528.1949999996406,1.93209e-05,528.1949999996406,6.411314e-06,528.1949999996406,3.99326e-06
528.2099999996406,2.135713e-05,528.2099999996406,1.246387e-05,528.2099999996406,6.461651e-06,528.2099999996406,4.052786e-06
528.2249999996405,2.025628e-05,528.2249999996405,1.106023e-05,528.2249999996405,5.758477e-06,528.2249999996405,4.035369e-06
528.2399999996405,2.005711e-05,528.2399999996405,1.065942e-05,528.2399999996405,5.889093e-06,528.2399999996405,4.289197e-06
528.2549999996405,1.983748e-05,528.2549999996405,1.369592e-05,528.2549999996405,5.321112e-06,528.2549999996405,4.38019e-06
528.2699999996405,1.974495e-05,528.2699999996405,1.402219e-05,528.2699999996405,4.81818e-06,528.2699999996405,4.510119e-06
528.2849999996405,1.969137e-05,528.2849999996405,1.406132e-05,528.2849999996405,4.81818e-06,528.2849999996405,4.714741e-06
528.2999999996405,1.901592e-05,528.2999999996405,1.430859e-05,528.2999999996405,4.907976e-06,528.2999999996405,5.559333e-06
528.3149999996405,1.870446e-05,528.3149999996405,1.509617e-05,528.3149999996405,4.847328e-06,528.3149999996405,5.943854e-06
528.3299999996404,1.728929e-05,528.3299999996404,1.92793e-05,528.3299999996404,4.73561e-06,528.3299999996404,6.228541e-06
528.3449999996404,1.614671e-05,528.3449999996404,2.195748e-05,528.3449999996404,4.67875e-06,528.3449999996404,6.353931e-06
528.3599999996404,1.072135e-05,528.3599999996404,2.230627e-05,528.3599999996404,4.630328e-06,528.3599999996404,6.325044e-06
528.3749999996404,7.621908e-06,528.3749999996404,2.341662e-05,528.3749999996404,4.328428e-06,528.3749999996404,6.496438e-06
528.3899999996404,7.478244e-06,528.3899999996404,2.3792e-05,528.3899999996404,4.367307e-06,528.3899999996404,7.059652e-06
528.4049999996404,7.325999e-06,528.4049999996404,2.383282e-05,528.4049999996404,4.39624e-06,528.4049999996404,7.817162e-06
528.4199999996404,7.250621e-06,528.4199999996404,2.419243e-05,528.4199999996404,4.469331e-06,528.4199999996404,9.607078e-06
528.4349999996404,8.509145e-06,528.4349999996404,2.434277e-05,528.4349999996404,4.440873e-06,528.4349999996404,1.354492e-05
528.4499999996403,1.389707e-05,528.4499999996403,2.434971e-05,528.4499999996403,4.47563e-06,528.4499999996403,1.524382e-05
528.4649999996403,1.546947e-05,528.4649999996403,2.463384e-05,528.4649999996403,4.531929e-06,528.4649999996403,1.546947e-05
528.4799999996403,2.088627e-05,528.4799999996403,2.455251e-05,528.4799999996403,4.028382e-06,528.4799999996403,1.623546e-05
528.4949999996403,2.817718e-05,528.4949999996403,2.282071e-05,528.4949999996403,3.986198e-06,528.4949999996403,1.691284e-05
528.5099999996403,2.991957e-05,528.5099999996403,2.273908e-05,528.5099999996403,3.99326e-06,528.5099999996403,1.725585e-05
528.5249999996403,3.034452e-05,528.5249999996403,2.234287e-05,528.5249999996403,3.922073e-06,528.5249999996403,1.755129e-05
528.5399999996403,3.115039e-05,528.5399999996403,2.228669e-05,528.5399999996403,3.950702e-06,528.5399999996403,1.738759e-05
528.5549999996402,3.161141e-05,528.5549999996402,2.217834e-05,528.5549999996402,4.007346e-06,528.5549999996402,1.825086e-05
528.5699999996402,3.178118e-05,528.5699999996402,2.01929e-05,528.5699999996402,4.145571e-06,528.5699999996402,1.905884e-05
528.5849999996402,3.199014e-05,528.5849999996402,1.629175e-05,528.5849999996402,4.226336e-06,528.5849999996402,1.905144e-05
528.5999999996402,3.207414e-05,528.5999999996402,1.538181e-05,528.5999999996402,4.29248e-06,528.5999999996402,1.907657e-05
528.6149999996402,3.283674e-05,528.6149999996402,1.456231e-05,528.6149999996402,4.219664e-06,528.6149999996402,1.91782e-05
528.6299999996402,3.702436e-05,528.6299999996402,1.400511e-05,528.6299999996402,5.451871e-06,528.6299999996402,1.915542e-05
528.6449999996402,4.122878e-05,528.6449999996402,1.528258e-05,528.6449999996402,6.098266e-06,528.6449999996402,1.908395e-05
528.6599999996401,4.149612e-05,528.6599999996401,1.580905e-05,528.6599999996401,6.360578e-06,528.6599999996401,1.934931e-05
528.6749999996401,4.158158e-05,528.6749999996401,1.665264e-05,528.6749999996401,6.485587e-06,528.6749999996401,1.8601e-05
528.6899999996401,4.121169e-05,528.6899999996401,1.959312e-05,528.6899999996401,7.209706e-06,528.6899999996401,1.535798e-05
528.7049999996401,3.890194e-05,528.7049999996401,2.213893e-05,528.7049999996401,7.262268e-06,528.7049999996401,1.483924e-05
528.7199999996401,3.957577e-05,528.7199999996401,2.332682e-05,528.7199999996401,7.564397e-06,528.7199999996401,1.451289e-05
528.7349999996401,3.721373e-05,528.7349999996401,2.638332e-05,528.7349999996401,7.892485e-06,528.7349999996401,1.410133e-05
528.7499999996401,3.406885e-05,528.7499999996401,2.687738e-05,528.7499999996401,7.981227e-06,528.7499999996401,1.359993e-05
528.76499999964,3.4137e-05,528.76499999964,2.681861e-05,528.76499999964,8.183403e-06,528.76499999964,1.345309e-05
528.77999999964,3.433163e-05,528.77999999964,2.847754e-05,528.77999999964,8.358825e-06,528.77999999964,1.299613e-05
528.79499999964,3.768767e-05,528.79499999964,3.094623e-05,528.79499999964,8.557019e-06,528.79499999964,1.293746e-05
528.80999999964,4.096691e-05,528.80999999964,3.191785e-05,528.80999999964,8.69096e-06,528.80999999964,1.146178e-05
528.82499999964,4.202135e-05,528.82499999964,3.211759e-05,528.82499999964,8.607901e-06,528.82499999964,1.035917e-05
528.83999999964,4.322729e-05,528.83999999964,3.276415e-05,528.83999999964,8.787673e-06,528.83999999964,1.038497e-05
528.85499999964,4.764938e-05,528.85499999964,3.312206e-05,528.85499999964,8.946537e-06,528.85499999964,1.06845e-05
528.86999999964,4.614481e-05,528.86999999964,3.407588e-05,528.86999999964,8.677985e-06,528.86999999964,1.05745e-05
528.88499999964,4.513928e-05,528.88499999964,3.450231e-05,528.88499999964,8.171345e-06,528.88499999964,1.03142e-05
528.8999999996399,4.525211e-05,528.8999999996399,3.40767e-05,528.8999999996399,7.811755e-06,528.8999999996399,1.032102e-05
528.9149999996399,4.725843e-05,528.9149999996399,3.521955e-05,528.9149999996399,7.764728e-06,528.9149999996399,8.814882e-06
528.9299999996399,4.831959e-05,528.9299999996399,3.801257e-05,528.9299999996399,7.762914e-06,528.9299999996399,8.971695e-06
528.9449999996399,4.940017e-05,528.9449999996399,3.750595e-05,528.9449999996399,7.498936e-06,528.9449999996399,9.018676e-06
528.9599999996399,5.104052e-05,528.9599999996399,3.717965e-05,528.9599999996399,8.018206e-06,528.9599999996399,9.574765e-06
528.9749999996399,5.215765e-05,528.9749999996399,3.844114e-05,528.9749999996399,7.777418e-06,528.9749999996399,9.743934e-06
528.9899999996398,5.190506e-05,528.9899999996398,4.013492e-05,528.9899999996398,7.799122e-06,528.9899999996398,9.334893e-06
529.0049999996398,5.3191e-05,529.0049999996398,4.366339e-05,529.0049999996398,7.896054e-06,529.0049999996398,9.861767e-06
529.0199999996398,5.553502e-05,529.0199999996398,4.59625e-05,529.0199999996398,8.023475e-06,529.0199999996398,1.000641e-05
529.0349999996398,5.633937e-05,529.0349999996398,5.388143e-05,529.0349999996398,7.922768e-06,529.0349999996398,9.988088e-06
529.0499999996398,5.310141e-05,529.0499999996398,6.788687e-05,529.0499999996398,8.167896e-06,529.0499999996398,1.019883e-05
529.0649999996398,5.504585e-05,529.0649999996398,8.148454e-05,529.0649999996398,8.62425e-06,529.0649999996398,1.154871e-05
529.0799999996398,5.68412e-05,529.0799999996398,8.527766e-05,529.0799999996398,9.331874e-06,529.0799999996398,1.31791e-05
529.0949999996398,5.883996e-05,529.0949999996398,8.768785e-05,529.0949999996398,9.42201e-06,529.0949999996398,1.629867e-05
529.1099999996397,5.631261e-05,529.1099999996397,9.129271e-05,529.1099999996397,9.831725e-06,529.1099999996397,1.736976e-05
529.1249999996397,5.691624e-05,529.1249999996397,9.322511e-05,529.1249999996397,1.056384e-05,529.1249999996397,2.186103e-05
529.1399999996397,5.745889e-05,529.1399999996397,9.567141e-05,529.1399999996397,1.070952e-05,529.1399999996397,2.398776e-05
529.1549999996397,5.402973e-05,529.1549999996397,9.682719e-05,529.1549999996397,1.063825e-05,529.1549999996397,2.457258e-05
529.1699999996397,5.719227e-05,529.1699999996397,9.589158e-05,529.1699999996397,1.121705e-05,529.1699999996397,2.449851e-05
529.1849999996397,5.721148e-05,529.1849999996397,9.542565e-05,529.1849999996397,1.108186e-05,529.1849999996397,2.448529e-05
529.1999999996397,5.640434e-05,529.1999999996397,9.481744e-05,529.1999999996397,1.091149e-05,529.1999999996397,2.551088e-05
529.2149999996396,5.893206e-05,529.2149999996396,9.447214e-05,529.2149999996396,1.09797e-05,529.2149999996396,2.587329e-05
529.2299999996396,5.920916e-05,529.2299999996396,9.357697e-05,529.2299999996396,1.155968e-05,529.2299999996396,2.842853e-05
529.2449999996396,5.936265e-05,529.2449999996396,9.245294e-05,529.2449999996396,1.246613e-05,529.2449999996396,3.053472e-05
529.2599999996396,5.711439e-05,529.2599999996396,9.176596e-05,529.2599999996396,1.278963e-05,529.2599999996396,3.457898e-05
529.2749999996396,5.665005e-05,529.2749999996396,8.826125e-05,529.2749999996396,1.374008e-05,529.2749999996396,3.765027e-05
529.2899999996396,5.709613e-05,529.2899999996396,8.77272e-05,529.2899999996396,1.488852e-05,529.2899999996396,4.152361e-05
529.3049999996396,5.717749e-05,529.3049999996396,6.759533e-05,529.3049999996396,1.502884e-05,529.3049999996396,4.469709e-05
529.3199999996395,5.294839e-05,529.3199999996395,6.359825e-05,529.3199999996395,1.482879e-05,529.3199999996395,4.610663e-05
529.3349999996395,5.750888e-05,529.3349999996395,5.891341e-05,529.3349999996395,1.880286e-05,529.3349999996395,4.722831e-05
529.3499999996395,6.04707e-05,529.3499999996395,5.512487e-05,529.3499999996395,1.878187e-05,529.3499999996395,4.683415e-05
529.3649999996395,6.33299e-05,529.3649999996395,4.904962e-05,529.3649999996395,1.977062e-05,529.3649999996395,4.669136e-05
529.3799999996395,6.527178e-05,529.3799999996395,4.414499e-05,529.3799999996395,1.976064e-05,529.3799999996395,4.629354e-05
529.3949999996395,6.568526e-05,529.3949999996395,3.886752e-05,529.3949999996395,1.972425e-05,529.3949999996395,4.543075e-05
529.4099999996395,6.521996e-05,529.4099999996395,3.834318e-05,529.4099999996395,1.977774e-05,529.4099999996395,4.562876e-05
529.4249999996395,6.205929e-05,529.4249999996395,3.828251e-05,529.4249999996395,1.961468e-05,529.4249999996395,4.574408e-05
529.4399999996394,6.266871e-05,529.4399999996394,3.782385e-05,529.4399999996394,1.960031e-05,529.4399999996394,4.563555e-05
529.4549999996394,6.205907e-05,529.4549999996394,3.782459e-05,529.4549999996394,1.940166e-05,529.4549999996394,4.499487e-05
529.4699999996394,5.86474e-05,529.4699999996394,3.770934e-05,529.4699999996394,1.917012e-05,529.4699999996394,4.466746e-05
529.4849999996394,5.799112e-05,529.4849999996394,3.70924e-05,529.4849999996394,1.859115e-05,529.4849999996394,4.310132e-05
529.4999999996394,5.766422e-05,529.4999999996394,3.612699e-05,529.4999999996394,1.818978e-05,529.4999999996394,4.074452e-05
529.5149999996394,5.732193e-05,529.5149999996394,3.546111e-05,529.5149999996394,1.713871e-05,529.5149999996394,3.659229e-05
529.5299999996394,5.416279e-05,529.5299999996394,2.864622e-05,529.5299999996394,1.644409e-05,529.5299999996394,3.517753e-05
529.5449999996393,5.359781e-05,529.5449999996393,2.825357e-05,529.5449999996393,1.579567e-05,529.5449999996393,2.811362e-05
529.5599999996393,5.332193e-05,529.5599999996393,2.62076e-05,529.5599999996393,1.528534e-05,529.5599999996393,2.371134e-05
529.5749999996393,5.377178e-05,529.5749999996393,2.425349e-05,529.5749999996393,1.473349e-05,529.5749999996393,2.222719e-05
529.5899999996393,4.0845e-05,529.5899999996393,2.277065e-05,529.5899999996393,9.417524e-06,529.5899999996393,1.716664e-05
529.6049999996393,4.13349e-05,529.6049999996393,2.169934e-05,529.6049999996393,7.194059e-06,529.6049999996393,1.658653e-05
529.6199999996393,3.807071e-05,529.6199999996393,2.243285e-05,529.6199999996393,5.418178e-06,529.6199999996393,1.288072e-05
529.6349999996393,3.322779e-05,529.6349999996393,1.857372e-05,529.6349999996393,5.154366e-06,529.6349999996393,1.086492e-05
529.6499999996392,3.105619e-05,529.6499999996392,2.075841e-05,529.6499999996392,4.81818e-06,529.6499999996392,1.029779e-05
529.6649999996392,3.092893e-05,529.6649999996392,2.577511e-05,529.6649999996392,4.242968e-06,529.6649999996392,9.287995e-06
529.6799999996392,3.030132e-05,529.6799999996392,2.999105e-05,529.6799999996392,4.042345e-06,529.6799999996392,9.065413e-06
529.6949999996392,3.032502e-05,529.6949999996392,3.069393e-05,529.6949999996392,3.939991e-06,529.6949999996392,8.861105e-06
529.7099999996392,3.082125e-05,529.7099999996392,3.031015e-05,529.7099999996392,4.077044e-06,529.7099999996392,9.045189e-06
529.7249999996392,2.765899e-05,529.7249999996392,3.010122e-05,529.7249999996392,3.922073e-06,529.7249999996392,8.697441e-06
529.7399999996392,2.775863e-05,529.7399999996392,3.131412e-05,529.7399999996392,3.989731e-06,529.7399999996392,8.864284e-06
529.7549999996392,2.843497e-05,529.7549999996392,3.531462e-05,529.7549999996392,4.142171e-06,529.7549999996392,8.694202e-06
529.7699999996391,2.879679e-05,529.7699999996391,3.513867e-05,529.7699999996391,4.466178e-06,529.7699999996391,9.37705e-06
529.7849999996391,2.953622e-05,529.7849999996391,3.555236e-05,529.7849999996391,4.675739e-06,529.7849999996391,9.139696e-06
529.7999999996391,3.197958e-05,529.7999999996391,3.613596e-05,529.7999999996391,4.956529e-06,529.7999999996391,9.44441e-06
529.8149999996391,3.10843e-05,529.8149999996391,3.606806e-05,529.8149999996391,5.082812e-06,529.8149999996391,9.634898e-06
529.8299999996391,2.925155e-05,529.8299999996391,3.639852e-05,529.8299999996391,5.104936e-06,529.8299999996391,9.938602e-06
529.8449999996391,2.850523e-05,529.8449999996391,3.628418e-05,529.8449999996391,5.113207e-06,529.8449999996391,1.010029e-05
529.8599999996391,2.504725e-05,529.8599999996391,3.617881e-05,529.8599999996391,5.066156e-06,529.8599999996391,1.042829e-05
529.874999999639,2.381331e-05,529.874999999639,3.550478e-05,529.874999999639,5.249148e-06,529.874999999639,1.289056e-05
529.889999999639,2.486153e-05,529.889999999639,3.523595e-05,529.889999999639,5.490492e-06,529.889999999639,1.309332e-05
529.904999999639,2.488928e-05,529.904999999639,3.271597e-05,529.904999999639,5.758477e-06,529.904999999639,1.380656e-05
529.919999999639,2.488475e-05,529.919999999639,2.998165e-05,529.919999999639,5.787757e-06,529.919999999639,1.531297e-05
529.934999999639,2.455251e-05,529.934999999639,2.498079e-05,529.934999999639,6.06584e-06,529.934999999639,1.562531e-05
529.949999999639,2.364948e-05,529.949999999639,2.523439e-05,529.949999999639,6.463831e-06,529.949999999639,1.557565e-05
529.964999999639,2.450082e-05,529.964999999639,2.507086e-05,529.964999999639,6.797376e-06,529.964999999639,1.558288e-05
529.979999999639,2.472004e-05,529.979999999639,2.494863e-05,529.979999999639,7.485775e-06,529.979999999639,1.556027e-05
529.9949999996389,2.485473e-05,529.9949999996389,1.961539e-05,529.9949999996389,7.50457e-06,529.9949999996389,1.714447e-05
530.0099999996389,2.428425e-05,530.0099999996389,1.56163e-05,530.0099999996389,7.555081e-06,530.0099999996389,1.850229e-05
530.0249999996389,2.474339e-05,530.0249999996389,1.526044e-05,530.0249999996389,7.60896e-06,530.0249999996389,1.821377e-05
530.0399999996389,2.383755e-05,530.0399999996389,1.264897e-05,530.0399999996389,7.543885e-06,530.0399999996389,1.903295e-05
530.0549999996389,2.002126e-05,530.0549999996389,1.15609e-05,530.0549999996389,7.523317e-06,530.0549999996389,1.930047e-05
530.0699999996389,1.964697e-05,530.0699999996389,1.112753e-05,530.0699999996389,7.487657e-06,530.0699999996389,1.939149e-05
530.0849999996389,1.925151e-05,530.0849999996389,1.030463e-05,530.0849999996389,7.406318e-06,530.0849999996389,1.939658e-05
530.0999999996388,1.901592e-05,530.0999999996388,1.023605e-05,530.0999999996388,7.404416e-06,530.0999999996388,1.944445e-05
530.1149999996388,2.198953e-05,530.1149999996388,9.968323e-06,530.1149999996388,7.29903e-06,530.1149999996388,1.850762e-05
530.1299999996388,2.164539e-05,530.1299999996388,9.820256e-06,530.1299999996388,7.21166e-06,530.1299999996388,1.732266e-05
530.1449999996388,2.094218e-05,530.1449999996388,9.713527e-06,530.1449999996388,6.961192e-06,530.1449999996388,1.710498e-05
530.1599999996388,2.135053e-05,530.1599999996388,9.716427e-06,530.1599999996388,6.813935e-06,530.1599999996388,1.630817e-05
530.1749999996388,2.07774e-05,530.1749999996388,9.797278e-06,530.1749999996388,6.784931e-06,530.1749999996388,1.554396e-05
530.1899999996388,2.277375e-05,530.1899999996388,8.987383e-06,530.1899999996388,6.316129e-06,530.1899999996388,1.506815e-05
530.2049999996387,2.376179e-05,530.2049999996387,8.183403e-06,530.2049999996387,6.183143e-06,530.2049999996387,1.505786e-05
530.2199999996387,2.264534e-05,530.2199999996387,8.107309e-06,530.2199999996387,5.687093e-06,530.2199999996387,1.490838e-05
530.2349999996387,2.237689e-05,530.2349999996387,8.195444e-06,530.2349999996387,4.83569e-06,530.2349999996387,1.448666e-05
530.2499999996387,2.266213e-05,530.2499999996387,8.343643e-06,530.2499999996387,4.79767e-06,530.2499999996387,1.132205e-05
530.2649999996387,2.252747e-05,530.2649999996387,8.495891e-06,530.2649999996387,4.630328e-06,530.2649999996387,1.007795e-05
530.2799999996387,2.246109e-05,530.2799999996387,8.29284e-06,530.2799999996387,4.376973e-06,530.2799999996387,9.487566e-06
530.2949999996387,2.296592e-05,530.2949999996387,7.883556e-06,530.2949999996387,4.196231e-06,530.2949999996387,7.379642e-06
530.3099999996386,2.303635e-05,530.3099999996386,7.856707e-06,530.3099999996386,4.20629e-06,530.3099999996386,6.520246e-06
530.3249999996386,2.361073e-05,530.3249999996386,7.605257e-06,530.3249999996386,4.15914e-06,530.3249999996386,6.005157e-06
530.3399999996386,2.390246e-05,530.3399999996386,7.22532e-06,530.3399999996386,4.216325e-06,530.3399999996386,5.310512e-06
530.3549999996386,2.424477e-05,530.3549999996386,7.472591e-06,530.3549999996386,4.226336e-06,530.3549999996386,5.096651e-06
530.3699999996386,2.099324e-05,530.3699999996386,7.897837e-06,530.3699999996386,4.209638e-06,530.3699999996386,4.967884e-06
530.3849999996386,2.149322e-05,530.3849999996386,7.910313e-06,530.3849999996386,4.27604e-06,530.3849999996386,5.032679e-06
530.3999999996386,2.1687e-05,530.3999999996386,8.197163e-06,530.3999999996386,4.212983e-06,530.3999999996386,5.043863e-06
530.4149999996386,2.217453e-05,530.4149999996386,8.131598e-06,530.4149999996386,4.182782e-06,530.4149999996386,4.70577e-06
530.4299999996385,2.202474e-05,530.4299999996385,8.166172e-06,530.4299999996385,4.128545e-06,530.4299999996385,4.229668e-06
530.4449999996385,2.000014e-05,530.4449999996385,8.341955e-06,530.4449999996385,4.182782e-06,530.4449999996385,4.209638e-06
530.4599999996385,2.039903e-05,530.4599999996385,8.469321e-06,530.4599999996385,3.889614e-06,530.4599999996385,4.223002e-06
530.4749999996385,2.012862e-05,530.4749999996385,8.565246e-06,530.4749999996385,3.939991e-06,530.4749999996385,4.0632e-06
530.4899999996385,2.258991e-05,530.4899999996385,8.702299e-06,530.4899999996385,4.01437e-06,530.4899999996385,3.760722e-06
530.5049999996385,2.316745e-05,530.5049999996385,8.306418e-06,530.5049999996385,4.01437e-06,530.5049999996385,3.723076e-06
530.5199999996385,2.471662e-05,530.5199999996385,8.291141e-06,530.5199999996385,3.957827e-06,530.5199999996385,3.700305e-06
530.5349999996384,2.522211e-05,530.5349999996384,8.205751e-06,530.5349999996384,3.975583e-06,530.5349999996384,3.603876e-06
530.5499999996384,2.544121e-05,530.5499999996384,8.155816e-06,530.5499999996384,4.010859e-06,530.5499999996384,3.568524e-06
530.5649999996384,2.571766e-05,530.5649999996384,8.167896e-06,530.5649999996384,3.950702e-06,530.5649999996384,3.504795e-06
530.5799999996384,2.801725e-05,530.5799999996384,8.233172e-06,530.5799999996384,3.896851e-06,530.5799999996384,3.65048e-06
530.5949999996384,2.827699e-05,530.5949999996384,8.192006e-06,530.5949999996384,3.885991e-06,530.5949999996384,4.045829e-06
530.6099999996384,2.85763e-05,530.6099999996384,6.571893e-06,530.6099999996384,3.904074e-06,530.6099999996384,4.073587e-06
530.6249999996384,2.87493e-05,530.6249999996384,6.428867e-06,530.6249999996384,3.982663e-06,530.6249999996384,4.108022e-06
530.6399999996383,2.920914e-05,530.6399999996383,6.042573e-06,530.6399999996383,3.845909e-06,530.6399999996383,4.010859e-06
530.6549999996383,2.968845e-05,530.6549999996383,5.649817e-06,530.6549999996383,3.900464e-06,530.6549999996383,4.031877e-06
530.6699999996383,3.119604e-05,530.6699999996383,5.637336e-06,530.6699999996383,3.979125e-06,530.6699999996383,3.92925e-06
530.6849999996383,3.243966e-05,530.6849999996383,5.420777e-06,530.6849999996383,4.305587e-06,530.6849999996383,4.003829e-06
530.6999999996383,3.216273e-05,530.6999999996383,5.013047e-06,530.6999999996383,4.266145e-06,530.6999999996383,4.007346e-06
530.7149999996383,3.337837e-05,530.7149999996383,4.785911e-06,530.7149999996383,4.347911e-06,530.7149999996383,4.024883e-06
530.7299999996383,3.382735e-05,530.7299999996383,4.262842e-06,530.7299999996383,4.39624e-06,530.7299999996383,4.083948e-06
530.7449999996383,3.286546e-05,530.7449999996383,4.199587e-06,530.7449999996383,4.447213e-06,530.7449999996383,4.232997e-06
530.7599999996382,3.246961e-05,530.7599999996382,4.101159e-06,530.7599999996382,4.541245e-06,530.7599999996382,4.522595e-06
530.7749999996382,3.437674e-05,530.7749999996382,4.246287e-06,530.7749999996382,4.75046e-06,530.7749999996382,4.618143e-06
530.7899999996382,3.305309e-05,530.7899999996382,4.229668e-06,530.7899999996382,4.925167e-06,530.7899999996382,4.717728e-06
530.8049999996382,3.3068e-05,530.8049999996382,4.367307e-06,530.8049999996382,4.993339e-06,530.8049999996382,4.765263e-06
530.8199999996382,3.42042e-05,530.8199999996382,4.488202e-06,530.8199999996382,4.984868e-06,530.8199999996382,5.508422e-06
530.8349999996382,3.323076e-05,530.8349999996382,5.477649e-06,530.8349999996382,5.046655e-06,530.8349999996382,6.230803e-06
530.8499999996382,3.439149e-05,530.8499999996382,5.436346e-06,530.8499999996382,5.068936e-06,530.8499999996382,8.857925e-06
530.8649999996381,3.549049e-05,530.8649999996381,5.95096e-06,530.8649999996381,5.165286e-06,530.8649999996381,9.886021e-06
530.8799999996381,3.594052e-05,530.8799999996381,6.116717e-06,530.8799999996381,5.132455e-06,530.8799999996381,1.006116e-05
530.8949999996381,3.507487e-05,530.8949999996381,6.333946e-06,530.8949999996381,5.143422e-06,530.8949999996381,1.07266e-05
530.9099999996381,3.590287e-05,530.9099999996381,6.871577e-06,530.9099999996381,5.071714e-06,530.9099999996381,1.095015e-05
530.9249999996381,3.82479e-05,530.9249999996381,7.037669e-06,530.9249999996381,5.071714e-06,530.9249999996381,1.125592e-05
530.9399999996381,3.821585e-05,530.9399999996381,7.746566e-06,530.9399999996381,4.873412e-06,530.9399999996381,1.162288e-05
530.9549999996381,4.020927e-05,530.9549999996381,8.779654e-06,530.9549999996381,4.884961e-06,530.9549999996381,1.238564e-05
530.969999999638,3.961562e-05,530.969999999638,1.157186e-05,530.969999999638,4.93374e-06,530.969999999638,1.337117e-05
530.984999999638,4.144313e-05,530.984999999638,1.392643e-05,530.984999999638,5.181623e-06,530.984999999638,1.368769e-05
530.999999999638,4.163812e-05,530.999999999638,1.590056e-05,530.999999999638,5.336972e-06,530.999999999638,2.852993e-05
531.014999999638,4.07497e-05,531.014999999638,1.64672e-05,531.014999999638,5.297233e-06,531.014999999638,2.921252e-05
531.029999999638,4.221867e-05,531.029999999638,1.675721e-05,531.029999999638,5.457037e-06,531.029999999638,3.132222e-05
531.044999999638,4.467408e-05,531.044999999638,1.934349e-05,531.044999999638,6.208153e-06,531.044999999638,3.567576e-05
531.059999999638,4.475693e-05,531.059999999638,1.954128e-05,531.059999999638,6.601833e-06,531.059999999638,3.630242e-05
531.074999999638,4.610694e-05,531.074999999638,1.981048e-05,531.074999999638,7.166593e-06,531.074999999638,3.670529e-05
531.0899999996379,4.642632e-05,531.0899999996379,1.963908e-05,531.0899999996379,7.536412e-06,531.0899999996379,3.880404e-05
531.1049999996379,4.60412e-05,531.1049999996379,1.974495e-05,531.1049999996379,7.788277e-06,531.1049999996379,4.071962e-05
531.1199999996379,4.683054e-05,531.1199999996379,1.963836e-05,531.1199999996379,8.075974e-06,531.1199999996379,4.175636e-05
531.1349999996379,4.786176e-05,531.1349999996379,1.972068e-05,531.1349999996379,8.54384e-06,531.1349999996379,4.212247e-05
531.1499999996379,4.859982e-05,531.1499999996379,1.994512e-05,531.1499999996379,9.023361e-06,531.1499999996379,4.213752e-05
531.1649999996379,4.647363e-05,531.1649999996379,2.021591e-05,531.1649999996379,9.63051e-06,531.1649999996379,4.321034e-05
531.1799999996379,4.510306e-05,531.1799999996379,2.018592e-05,531.1799999996379,1.000641e-05,531.1799999996379,4.501709e-05
531.1949999996378,4.570618e-05,531.1949999996378,2.006062e-05,531.1949999996378,1.065942e-05,531.1949999996378,4.574962e-05
531.2099999996378,4.414531e-05,531.2099999996378,1.897587e-05,531.2099999996378,1.112753e-05,531.2099999996378,4.562506e-05
531.2249999996378,4.715877e-05,531.2249999996378,2.002055e-05,531.2249999996378,1.122584e-05,531.2249999996378,4.584589e-05
531.2399999996378,4.672906e-05,531.2399999996378,1.834554e-05,531.2399999996378,1.119317e-05,531.2399999996378,4.003794e-05
531.2549999996378,4.784734e-05,531.2549999996378,2.135053e-05,531.2549999996378,1.144825e-05,531.2549999996378,3.864872e-05
531.2699999996378,4.848461e-05,531.2699999996378,2.448183e-05,531.2699999996378,1.159618e-05,531.2699999996378,3.94285e-05
531.2849999996378,4.662313e-05,531.2849999996378,2.450369e-05,531.2849999996378,1.166522e-05,531.2849999996378,3.47022e-05
531.2999999996377,4.749718e-05,531.2999999996377,2.464356e-05,531.2999999996377,1.121956e-05,531.2999999996377,3.402458e-05
531.3149999996377,4.64157e-05,531.3149999996377,2.485133e-05,531.3149999996377,1.099893e-05,531.3149999996377,3.289931e-05
531.3299999996377,4.80219e-05,531.3299999996377,2.473599e-05,531.3299999996377,1.082075e-05,531.3299999996377,3.299508e-05
531.3449999996377,4.717191e-05,531.3449999996377,2.472574e-05,531.3449999996377,1.051573e-05,531.3449999996377,3.090934e-05
531.3599999996377,4.742268e-05,531.3599999996377,2.473086e-05,531.3599999996377,1.034147e-05,531.3599999996377,2.640466e-05
531.3749999996377,4.589718e-05,531.3749999996377,2.591301e-05,531.3749999996377,1.015592e-05,531.3749999996377,2.569629e-05
531.3899999996377,4.661648e-05,531.3899999996377,2.685902e-05,531.3899999996377,9.713527e-06,531.3899999996377,2.499432e-05
531.4049999996377,4.534384e-05,531.4049999996377,2.673602e-05,531.4049999996377,8.888089e-06,531.4049999996377,2.474567e-05
531.4199999996376,4.4646e-05,531.4199999996376,2.659338e-05,531.4199999996376,8.535592e-06,531.4199999996376,2.274713e-05
531.4349999996376,4.607362e-05,531.4349999996376,2.689519e-05,531.4349999996376,8.277538e-06,531.4349999996376,1.818203e-05
531.4499999996376,4.577332e-05,531.4499999996376,2.688733e-05,531.4499999996376,7.154789e-06,531.4499999996376,1.75304e-05
531.4649999996376,4.585665e-05,531.4649999996376,2.799311e-05,531.4649999996376,7.174451e-06,531.4649999996376,1.683353e-05
531.4799999996376,4.224069e-05,531.4799999996376,2.874685e-05,531.4799999996376,6.942956e-06,531.4799999996376,1.533595e-05
531.4949999996376,4.030724e-05,531.4949999996376,2.858665e-05,531.4949999996376,6.688745e-06,531.4949999996376,1.531389e-05
531.5099999996376,3.867823e-05,531.5099999996376,2.694072e-05,531.5099999996376,5.943854e-06,531.5099999996376,1.344471e-05
531.5249999996375,3.963126e-05,531.5249999996375,2.49994e-05,531.5249999996375,5.669728e-06,531.5249999996375,1.058116e-05
531.5399999996375,3.83112e-05,531.5399999996375,2.387239e-05,531.5399999996375,5.407768e-06,531.5399999996375,1.046066e-05
531.5549999996375,3.543647e-05,531.5549999996375,2.294015e-05,531.5549999996375,5.259872e-06,531.5549999996375,1.027863e-05
531.5699999996375,3.36863e-05,531.5699999996375,2.283737e-05,531.5699999996375,5.477649e-06,531.5699999996375,9.181215e-06
531.5849999996375,3.189268e-05,531.5849999996375,2.306569e-05,531.5849999996375,5.373798e-06,531.5849999996375,8.402527e-06
531.5999999996375,3.195578e-05,531.5999999996375,2.608044e-05,531.5999999996375,5.407768e-06,531.5999999996375,8.367247e-06
531.6149999996375,3.072467e-05,531.6149999996375,2.774442e-05,531.6149999996375,5.352786e-06,531.6149999996375,8.314893e-06
531.6299999996374,2.959673e-05,531.6299999996374,2.623447e-05,531.6299999996374,5.336972e-06,531.6299999996374,8.684475e-06
531.6449999996374,2.902045e-05,531.6449999996374,2.63518e-05,531.6449999996374,5.305204e-06,531.6449999996374,9.152018e-06
531.6599999996374,2.89636e-05,531.6599999996374,2.841564e-05,531.6599999996374,5.291911e-06,531.6599999996374,8.892842e-06
531.6749999996374,2.884517e-05,531.6749999996374,3.043908e-05,531.6749999996374,5.235713e-06,531.6749999996374,8.561957e-06
531.6899999996374,2.522936e-05,531.6899999996374,3.091981e-05,531.6899999996374,5.318464e-06,531.6899999996374,8.794083e-06
531.7049999996374,2.594343e-05,531.7049999996374,3.16933e-05,531.7049999996374,4.747494e-06,531.7049999996374,9.410042e-06
531.7199999996374,2.579969e-05,531.7199999996374,3.099353e-05,531.7199999996374,4.858938e-06,531.7199999996374,1.035509e-05
531.7349999996374,2.406047e-05,531.7349999996374,2.977988e-05,531.7349999996374,4.844421e-06,531.7349999996374,1.040395e-05
531.7499999996373,2.334915e-05,531.7499999996373,3.001828e-05,531.7499999996373,4.850233e-06,531.7499999996373,1.067131e-05
531.7649999996373,2.209115e-05,531.7649999996373,3.107388e-05,531.7649999996373,4.782967e-06,531.7649999996373,1.043504e-05
531.7799999996373,2.255247e-05,531.7799999996373,3.102533e-05,531.7799999996373,4.645514e-06,531.7799999996373,1.045662e-05
531.7949999996373,2.321058e-05,531.7949999996373,3.171996e-05,531.7949999996373,5.137942e-06,531.7949999996373,1.027863e-05
531.8099999996373,2.318325e-05,531.8099999996373,3.223929e-05,531.8099999996373,4.893604e-06,531.8099999996373,1.035509e-05
531.8249999996373,2.25949e-05,531.8249999996373,3.560343e-05,531.8249999996373,4.79767e-06,531.8249999996373,1.089211e-05
531.8399999996373,2.186619e-05,531.8399999996373,3.648897e-05,531.8399999996373,4.844421e-06,531.8399999996373,1.080902e-05
531.8549999996372,2.155278e-05,531.8549999996372,3.434148e-05,531.8549999996372,4.747494e-06,531.8549999996372,1.073711e-05
531.8699999996372,2.070065e-05,531.8699999996372,3.646889e-05,531.8699999996372,4.771172e-06,531.8699999996372,1.064222e-05
531.8849999996372,2.256933e-05,531.8849999996372,3.662384e-05,531.8849999996372,5.013047e-06,531.8849999996372,1.020159e-05
531.8999999996372,2.384523e-05,531.8999999996372,3.548374e-05,531.8999999996372,4.993339e-06,531.8999999996372,9.854623e-06
531.9149999996372,2.32603e-05,531.9149999996372,3.455127e-05,531.9149999996372,4.990517e-06,531.9149999996372,9.955596e-06
531.9299999996372,2.276199e-05,531.9299999996372,3.246136e-05,531.9299999996372,4.965048e-06,531.9299999996372,1.020849e-05
531.9449999996372,2.228858e-05,531.9449999996372,3.234834e-05,531.9449999996372,5.041069e-06,531.9449999996372,1.054783e-05
531.9599999996371,2.252184e-05,531.9599999996371,3.229037e-05,531.9599999996371,5.371176e-06,531.9599999996371,9.858911e-06
531.9749999996371,2.293401e-05,531.9749999996371,3.256621e-05,531.9749999996371,5.48279e-06,531.9749999996371,9.327345e-06
531.9899999996371,2.304186e-05,531.9899999996371,3.133121e-05,531.9899999996371,5.526294e-06,531.9899999996371,9.808774e-06
532.0049999996371,2.356414e-05,532.0049999996371,3.126865e-05,532.0049999996371,5.881913e-06,532.0049999996371,1.004995e-05
532.0199999996371,2.160501e-05,532.0199999996371,2.993557e-05,532.0199999996371,6.139704e-06,532.0199999996371,1.064355e-05
532.0349999996371,2.163433e-05,532.0349999996371,2.98125e-05,532.0349999996371,6.304968e-06,532.0349999996371,1.108441e-05
532.0499999996371,2.196325e-05,532.0499999996371,2.948371e-05,532.0499999996371,6.327271e-06,532.0499999996371,1.112753e-05
532.064999999637,2.338351e-05,532.064999999637,2.771292e-05,532.064999999637,6.483414e-06,532.064999999637,1.097585e-05
532.079999999637,2.367745e-05,532.079999999637,2.439941e-05,532.079999999637,6.975343e-06,532.079999999637,1.053312e-05
532.094999999637,2.351867e-05,532.094999999637,2.383814e-05,532.094999999637,6.910417e-06,532.094999999637,1.061837e-05
532.109999999637,2.355876e-05,532.109999999637,2.748836e-05,532.109999999637,6.926705e-06,532.109999999637,1.048621e-05
532.124999999637,2.339797e-05,532.124999999637,2.904422e-05,532.124999999637,6.914493e-06,532.124999999637,1.050768e-05
532.139999999637,2.244289e-05,532.139999999637,2.919033e-05,532.139999999637,6.770382e-06,532.139999999637,1.059314e-05
532.154999999637,2.284847e-05,532.154999999637,2.919564e-05,532.154999999637,6.983416e-06,532.154999999637,1.062765e-05
532.169999999637,2.434682e-05,532.169999999637,2.946364e-05,532.169999999637,6.987449e-06,532.169999999637,1.051305e-05
532.184999999637,2.442884e-05,532.184999999637,2.99078e-05,532.184999999637,6.965238e-06,532.184999999637,9.890295e-06
532.1999999996369,2.534913e-05,532.1999999996369,2.930111e-05,532.1999999996369,6.772462e-06,532.1999999996369,9.416029e-06
532.2149999996369,2.574394e-05,532.2149999996369,2.921686e-05,532.2149999996369,6.640129e-06,532.2149999996369,9.41902e-06
532.2299999996369,2.609934e-05,532.2299999996369,2.988801e-05,532.2299999996369,6.563313e-06,532.2299999996369,8.702299e-06
532.2449999996369,2.788723e-05,532.2449999996369,3.010403e-05,532.2449999996369,6.844875e-06,532.2449999996369,7.719241e-06
532.2599999996369,3.005252e-05,532.2599999996369,3.046313e-05,532.2599999996369,6.535352e-06,532.2599999996369,7.449935e-06
532.2749999996369,3.093075e-05,532.2749999996369,3.101671e-05,532.2749999996369,6.439814e-06,532.2749999996369,6.53104e-06
532.2899999996368,3.305608e-05,532.2899999996368,3.107252e-05,532.2899999996368,6.284828e-06,532.2899999996368,5.95096e-06
532.3049999996368,3.233832e-05,532.3049999996368,3.259172e-05,532.3049999996368,6.035575e-06,532.3049999996368,5.706874e-06
532.3199999996368,3.355852e-05,532.3199999996368,3.525273e-05,532.3199999996368,5.941484e-06,532.3199999996368,5.34752e-06
532.3349999996368,3.362561e-05,532.3349999996368,3.625466e-05,532.3349999996368,5.516089e-06,532.3349999996368,5.278585e-06
532.3499999996368,3.618349e-05,532.3499999996368,3.754649e-05,532.3499999996368,5.684616e-06,532.3499999996368,5.165286e-06
532.3649999996368,3.86418e-05,532.3649999996368,3.636445e-05,532.3649999996368,5.862722e-06,532.3649999996368,5.230329e-06
532.3799999996368,3.973598e-05,532.3799999996368,3.611607e-05,532.3799999996368,6.201342e-06,532.3799999996368,5.148897e-06
532.3949999996368,3.899452e-05,532.3949999996368,3.843198e-05,532.3949999996368,6.280343e-06,532.3949999996368,4.967884e-06
532.4099999996367,4.135705e-05,532.4099999996367,3.941885e-05,532.4099999996367,6.659195e-06,532.4099999996367,5.035477e-06
532.4249999996367,4.737156e-05,532.4249999996367,4.302969e-05,532.4249999996367,6.865424e-06,532.4249999996367,5.275916e-06
532.4399999996367,4.853572e-05,532.4399999996367,4.612526e-05,532.4399999996367,7.095478e-06,532.4399999996367,5.394728e-06
532.4549999996367,5.130644e-05,532.4549999996367,4.899272e-05,532.4549999996367,7.333686e-06,532.4549999996367,5.922486e-06
532.4699999996367,5.276556e-05,532.4699999996367,5.087217e-05,532.4699999996367,7.540149e-06,532.4699999996367,6.612493e-06
532.4849999996367,5.346097e-05,532.4849999996367,6.049213e-05,532.4849999996367,7.497057e-06,532.4849999996367,7.316379e-06
532.4999999996367,5.289356e-05,532.4999999996367,6.13975e-05,532.4999999996367,7.413922e-06,532.4999999996367,7.493299e-06
532.5149999996366,5.685731e-05,532.5149999996366,6.180431e-05,532.5149999996366,7.413922e-06,532.5149999996366,8.363879e-06
532.5299999996366,5.638311e-05,532.5299999996366,6.157368e-05,532.5299999996366,7.528932e-06,532.5299999996366,9.045189e-06
532.5449999996366,5.847999e-05,532.5449999996366,6.161691e-05,532.5449999996366,7.872827e-06,532.5449999996366,9.472707e-06
532.5599999996366,6.10016e-05,532.5599999996366,5.994991e-05,532.5599999996366,8.15236e-06,532.5599999996366,1.015592e-05
532.5749999996366,6.558031e-05,532.5749999996366,5.891174e-05,532.5749999996366,8.599714e-06,532.5749999996366,1.176502e-05
532.5899999996366,6.691482e-05,532.5899999996366,5.90295e-05,532.5899999996366,8.957552e-06,532.5899999996366,1.265454e-05
532.6049999996366,7.313221e-05,532.6049999996366,6.087006e-05,532.6049999996366,9.468245e-06,532.6049999996366,1.512228e-05
532.6199999996365,7.316186e-05,532.6199999996365,6.079573e-05,532.6199999996365,9.707725e-06,532.6199999996365,1.792847e-05
532.6349999996365,7.323307e-05,532.6349999996365,6.011885e-05,532.6349999996365,9.965496e-06,532.6349999996365,2.076927e-05
532.6499999996365,7.882805e-05,532.6499999996365,5.816236e-05,532.6499999996365,1.030326e-05,532.6499999996365,2.806046e-05
532.6649999996365,7.779065e-05,532.6649999996365,5.761143e-05,532.6649999996365,1.001907e-05,532.6649999996365,2.893635e-05
532.6799999996365,7.550679e-05,532.6799999996365,5.600584e-05,532.6799999996365,1.024843e-05,532.6799999996365,3.21925e-05
532.6949999996365,7.407802e-05,532.6949999996365,5.8046e-05,532.6949999996365,1.044179e-05,532.6949999996365,3.407092e-05
532.7099999996365,7.315454e-05,532.7099999996365,5.558826e-05,532.7099999996365,1.030736e-05,532.7099999996365,3.419473e-05
532.7249999996365,7.220425e-05,532.7249999996365,5.12009e-05,532.7249999996365,1.036596e-05,532.7249999996365,3.448434e-05
532.7399999996364,7.455946e-05,532.7399999996364,4.568245e-05,532.7399999996364,1.047412e-05,532.7399999996364,3.590954e-05
532.7549999996364,7.537496e-05,532.7549999996364,4.433286e-05,532.7549999996364,1.084805e-05,532.7549999996364,3.756637e-05
532.7699999996364,7.571545e-05,532.7699999996364,4.340453e-05,532.7699999996364,1.092052e-05,532.7699999996364,3.973811e-05
532.7849999996364,7.679741e-05,532.7849999996364,4.352444e-05,532.7849999996364,1.097714e-05,532.7849999996364,4.001929e-05
532.7999999996364,7.623091e-05,532.7999999996364,4.409294e-05,532.7999999996364,1.107805e-05,532.7999999996364,4.04245e-05
532.8149999996364,7.260271e-05,532.8149999996364,4.423457e-05,532.8149999996364,1.105386e-05,532.8149999996364,4.182883e-05
532.8299999996364,7.023363e-05,532.8299999996364,4.587845e-05,532.8299999996364,1.1207e-05,532.8299999996364,4.278411e-05
532.8449999996363,6.88673e-05,532.8449999996363,4.366404e-05,532.8449999996363,1.09938e-05,532.8449999996363,4.287653e-05
532.8599999996363,6.439376e-05,532.8599999996363,3.883489e-05,532.8599999996363,1.054115e-05,532.8599999996363,4.257684e-05
532.8749999996363,6.660105e-05,532.8749999996363,3.896489e-05,532.8749999996363,1.031556e-05,532.8749999996363,4.122057e-05
532.8899999996363,6.511188e-05,532.8899999996363,3.917905e-05,532.8899999996363,1.006956e-05,532.8899999996363,3.642638e-05
532.9049999996363,6.15405e-05,532.9049999996363,3.912292e-05,532.9049999996363,9.672836e-06,532.9049999996363,3.5783e-05
532.9199999996363,6.043412e-05,532.9199999996363,3.922648e-05,532.9199999996363,9.546771e-06,532.9199999996363,3.469326e-05
532.9349999996363,5.978544e-05,532.9349999996363,3.764391e-05,532.9349999996363,9.309204e-06,532.9349999996363,3.24631e-05
532.9499999996362,6.279133e-05,532.9499999996362,3.364069e-05,532.9499999996362,8.995216e-06,532.9499999996362,3.087194e-05
532.9649999996362,6.35036e-05,532.9649999996362,3.243879e-05,532.9649999996362,9.007736e-06,532.9649999996362,3.101216e-05
532.9799999996362,6.452968e-05,532.9799999996362,3.11992e-05,532.9799999996362,8.957552e-06,532.9799999996362,2.97671e-05
532.9949999996362,6.164662e-05,532.9949999996362,2.966519e-05,532.9949999996362,8.837226e-06,532.9949999996362,2.856989e-05
533.0099999996362,6.059311e-05,533.0099999996362,3.049318e-05,533.0099999996362,8.141986e-06,533.0099999996362,2.617802e-05
533.0249999996362,5.903117e-05,533.0249999996362,3.316371e-05,533.0249999996362,7.854914e-06,533.0249999996362,2.274032e-05
533.0399999996362,5.697536e-05,533.0399999996362,3.278564e-05,533.0399999996362,7.603404e-06,533.0399999996362,2.217262e-05
533.0549999996362,5.635412e-05,533.0549999996362,3.24275e-05,533.0549999996362,7.362442e-06,533.0549999996362,2.118295e-05
533.0699999996361,5.629985e-05,533.0699999996361,3.165639e-05,533.0699999996361,6.930771e-06,533.0699999996361,1.769835e-05
533.0849999996361,5.712549e-05,533.0849999996361,2.95572e-05,533.0849999996361,6.576178e-06,533.0849999996361,1.50457e-05
533.0999999996361,6.128589e-05,533.0999999996361,2.918792e-05,533.0999999996361,6.584741e-06,533.0999999996361,1.443211e-05
533.1149999996361,5.662145e-05,533.1149999996361,2.982573e-05,533.1149999996361,6.64861e-06,533.1149999996361,1.345728e-05
533.1299999996361,5.44414e-05,533.1299999996361,2.981723e-05,533.1299999996361,6.280343e-06,533.1299999996361,1.300155e-05
533.1449999996361,5.397704e-05,533.1449999996361,3.046082e-05,533.1449999996361,6.230803e-06,533.1449999996361,1.291131e-05
533.159999999636,5.441889e-05,533.159999999636,3.071916e-05,533.159999999636,6.327271e-06,533.159999999636,1.193855e-05
533.174999999636,5.426984e-05,533.174999999636,2.782149e-05,533.174999999636,6.269119e-06,533.174999999636,1.143717e-05
533.189999999636,5.409565e-05,533.189999999636,2.756716e-05,533.189999999636,5.860319e-06,533.189999999636,1.051439e-05
533.204999999636,5.118741e-05,533.204999999636,2.752267e-05,533.204999999636,5.946224e-06,533.204999999636,1.005836e-05
533.219999999636,4.88147e-05,533.219999999636,2.707476e-05,533.219999999636,5.953326e-06,533.219999999636,9.592404e-06
533.234999999636,4.648909e-05,533.234999999636,2.693392e-05,533.234999999636,5.838645e-06,533.234999999636,8.932356e-06
533.249999999636,4.428072e-05,533.249999999636,2.596948e-05,533.249999999636,5.654801e-06,533.249999999636,8.638938e-06
533.264999999636,4.508026e-05,533.264999999636,2.272235e-05,533.264999999636,5.639834e-06,533.264999999636,7.8907e-06
533.279999999636,4.398771e-05,533.279999999636,2.100598e-05,533.279999999636,6.086705e-06,533.279999999636,7.41962e-06
533.2949999996359,4.219197e-05,533.2949999996359,2.057369e-05,533.2949999996359,5.760922e-06,533.2949999996359,6.969281e-06
533.3099999996359,4.1814e-05,533.3099999996359,2.006764e-05,533.3099999996359,5.639834e-06,533.3099999996359,6.842817e-06
533.3249999996359,4.210875e-05,533.3249999996359,1.966847e-05,533.3249999996359,5.56693e-06,533.3249999996359,6.623136e-06
533.3399999996359,3.647082e-05,533.3399999996359,1.872779e-05,533.3399999996359,5.418178e-06,533.3399999996359,6.703471e-06
533.3549999996359,3.495619e-05,533.3549999996359,1.823696e-05,533.3549999996359,5.336972e-06,533.3549999996359,7.40822e-06
533.3699999996359,3.650248e-05,533.3699999996359,1.68352e-05,533.3699999996359,5.135199e-06,533.3699999996359,7.534543e-06
533.3849999996359,3.756149e-05,533.3849999996359,1.750789e-05,533.3849999996359,5.118714e-06,533.3849999996359,7.457495e-06
533.3999999996358,3.601882e-05,533.3999999996358,1.563523e-05,533.3999999996358,4.987693e-06,533.3999999996358,7.634834e-06
533.4149999996358,3.532977e-05,533.4149999996358,1.527705e-05,533.4149999996358,5.154366e-06,533.4149999996358,7.655103e-06
533.4299999996358,3.44181e-05,533.4299999996358,1.583576e-05,533.4299999996358,5.371176e-06,533.4299999996358,7.618211e-06
533.4449999996358,3.125739e-05,533.4449999996358,1.506254e-05,533.4449999996358,5.259872e-06,533.4449999996358,7.36818e-06
533.4599999996358,3.01676e-05,533.4599999996358,1.497531e-05,533.4599999996358,5.336972e-06,533.4599999996358,7.793701e-06
533.4749999996358,3.079382e-05,533.4749999996358,1.533411e-05,533.4749999996358,5.334332e-06,533.4749999996358,7.719241e-06
533.4899999996358,3.050472e-05,533.4899999996358,1.557655e-05,533.4899999996358,5.373798e-06,533.4899999996358,7.804539e-06
533.5049999996357,3.048902e-05,533.5049999996357,1.565593e-05,533.5049999996357,5.379038e-06,533.5049999996357,7.781039e-06
533.5199999996357,2.877966e-05,533.5199999996357,1.658993e-05,533.5199999996357,5.451871e-06,533.5199999996357,7.809951e-06
533.5349999996357,2.75462e-05,533.5349999996357,1.801469e-05,533.5349999996357,5.041069e-06,533.5349999996357,8.093397e-06
533.5499999996357,2.742525e-05,533.5499999996357,2.064477e-05,533.5499999996357,5.043863e-06,533.5499999996357,8.041013e-06
533.5649999996357,2.758606e-05,533.5649999996357,2.081331e-05,533.5649999996357,5.046655e-06,533.5649999996357,8.093397e-06
533.5799999996357,2.463327e-05,533.5799999996357,2.120754e-05,533.5799999996357,5.043863e-06,533.5799999996357,8.08469e-06
533.5949999996357,2.307912e-05,533.5949999996357,2.401359e-05,533.5949999996357,5.14616e-06,533.5949999996357,7.728359e-06
533.6099999996356,2.200362e-05,533.6099999996356,2.482183e-05,533.6099999996356,5.168013e-06,533.6099999996356,7.166593e-06
533.6249999996356,1.670079e-05,533.6249999996356,2.539465e-05,533.6249999996356,5.12971e-06,533.6249999996356,7.1921e-06
533.6399999996356,1.58642e-05,533.6399999996356,2.40089e-05,533.6399999996356,5.176183e-06,533.6399999996356,7.115304e-06
533.6549999996356,1.57179e-05,533.6549999996356,2.353723e-05,533.6549999996356,5.099414e-06,533.6549999996356,7.129148e-06
533.6699999996356,1.569188e-05,533.6699999996356,2.307912e-05,533.6699999996356,4.782967e-06,533.6699999996356,7.3106e-06
533.6849999996356,1.592181e-05,533.6849999996356,2.254435e-05,533.6849999996356,4.627284e-06,533.6849999996356,7.582997e-06
533.6999999996356,1.654486e-05,533.6999999996356,2.270684e-05,533.6999999996356,4.544346e-06,533.6999999996356,7.573703e-06
533.7149999996356,1.673028e-05,533.7149999996356,2.268512e-05,533.7149999996356,4.249604e-06,533.7149999996356,7.343284e-06
533.7299999996355,1.712227e-05,533.7299999996355,2.294629e-05,533.7299999996355,4.29248e-06,533.7299999996355,7.682656e-06
533.7449999996355,1.715925e-05,533.7449999996355,2.399305e-05,533.7449999996355,4.285911e-06,533.7449999996355,7.421518e-06
533.7599999996355,1.732429e-05,533.7599999996355,2.420465e-05,533.7599999996355,4.338181e-06,533.7599999996355,7.423416e-06
533.7749999996355,1.721662e-05,533.7749999996355,2.530463e-05,533.7749999996355,4.148967e-06,533.7749999996355,7.434793e-06
533.7899999996355,1.756733e-05,533.7899999996355,2.378608e-05,533.7899999996355,4.052786e-06,533.7899999996355,7.05566e-06
533.8049999996355,1.744986e-05,533.8049999996355,2.285771e-05,533.8049999996355,4.305587e-06,533.8049999996355,7.013608e-06
533.8199999996355,1.810828e-05,533.8199999996355,2.310535e-05,533.8199999996355,4.440873e-06,533.8199999996355,6.932803e-06
533.8349999996354,1.954921e-05,533.8349999996354,2.587057e-05,533.8349999996354,4.393035e-06,533.8349999996354,6.94904e-06
533.8499999996354,1.973139e-05,533.8499999996354,2.53191e-05,533.8499999996354,4.189512e-06,533.8499999996354,6.940926e-06
533.8649999996354,1.860706e-05,533.8649999996354,2.491643e-05,533.8649999996354,4.272744e-06,533.8649999996354,6.828391e-06
533.8799999996354,1.869241e-05,533.8799999996354,2.446111e-05,533.8799999996354,4.428167e-06,533.8799999996354,6.65708e-06
533.8949999996354,1.89922e-05,533.8949999996354,2.444325e-05,533.8949999996354,4.463023e-06,533.8949999996354,6.603967e-06
533.9099999996354,2.028477e-05,533.9099999996354,2.440519e-05,533.9099999996354,4.463023e-06,533.9099999996354,5.93674e-06
533.9249999996354,2.205222e-05,533.9249999996354,2.427671e-05,533.9249999996354,4.565993e-06,533.9249999996354,5.657291e-06
533.9399999996353,2.242091e-05,533.9399999996353,2.408271e-05,533.9399999996353,4.612038e-06,533.9399999996353,5.297233e-06
533.9549999996353,2.24272e-05,533.9549999996353,2.40306e-05,533.9549999996353,4.645514e-06,533.9549999996353,5.342249e-06
533.9699999996353,2.180426e-05,533.9699999996353,2.385113e-05,533.9699999996353,4.559819e-06,533.9699999996353,4.973552e-06
533.9849999996353,2.093949e-05,533.9849999996353,2.322636e-05,533.9849999996353,4.463023e-06,533.9849999996353,4.444044e-06
533.9999999996353,2.097175e-05,533.9999999996353,2.249493e-05,533.9999999996353,4.434525e-06,533.9999999996353,4.418613e-06
534.0149999996353,2.141969e-05,534.0149999996353,2.250995e-05,534.0149999996353,4.373753e-06,534.0149999996353,4.491339e-06
534.0299999996353,2.221769e-05,534.0299999996353,2.122082e-05,534.0299999996353,4.556728e-06,534.0299999996353,4.38019e-06
534.0449999996353,2.376356e-05,534.0449999996353,2.209689e-05,534.0449999996353,4.538142e-06,534.0449999996353,4.373753e-06
534.0599999996352,2.327967e-05,534.0599999996352,2.228479e-05,534.0599999996352,4.27604e-06,534.0599999996352,4.424985e-06
534.0749999996352,2.280156e-05,534.0749999996352,2.122082e-05,534.0749999996352,4.302314e-06,534.0749999996352,4.48192e-06
534.0899999996352,2.183718e-05,534.0899999996352,1.619376e-05,534.0899999996352,4.209638e-06,534.0899999996352,4.525708e-06
534.1049999996352,2.300821e-05,534.1049999996352,1.531757e-05,534.1049999996352,4.209638e-06,534.1049999996352,4.531929e-06
534.1199999996352,2.422559e-05,534.1199999996352,1.41223e-05,534.1199999996352,4.4218e-06,534.1199999996352,4.516361e-06
534.1349999996352,2.477184e-05,534.1349999996352,1.417705e-05,534.1349999996352,4.262842e-06,534.1349999996352,4.440873e-06
534.1499999996352,2.417612e-05,534.1499999996352,1.400209e-05,534.1499999996352,4.259536e-06,534.1499999996352,4.279333e-06
534.1649999996351,2.300759e-05,534.1649999996351,1.489514e-05,534.1649999996351,4.239647e-06,534.1649999996351,4.262842e-06
534.1799999996351,2.166491e-05,534.1799999996351,1.540743e-05,534.1799999996351,4.15914e-06,534.1799999996351,4.269446e-06
534.1949999996351,2.155213e-05,534.1949999996351,1.522902e-05,534.1949999996351,4.192873e-06,534.1949999996351,4.077044e-06
534.2099999996351,2.243913e-05,534.2099999996351,1.56829e-05,534.2099999996351,4.223002e-06,534.2099999996351,3.885991e-06
534.2249999996351,2.293585e-05,534.2249999996351,1.741997e-05,534.2249999996351,4.331681e-06,534.2249999996351,3.922073e-06
534.2399999996351,2.324636e-05,534.2399999996351,1.994512e-05,534.2399999996351,4.347911e-06,534.2399999996351,4.01437e-06
534.2549999996351,2.308461e-05,534.2549999996351,1.943865e-05,534.2549999996351,4.409039e-06,534.2549999996351,3.922073e-06
534.269999999635,2.330326e-05,534.269999999635,1.882757e-05,534.269999999635,4.418613e-06,534.269999999635,3.84957e-06
534.284999999635,2.240206e-05,534.284999999635,1.732103e-05,534.284999999635,4.186148e-06,534.284999999635,3.853228e-06
534.299999999635,2.244164e-05,534.299999999635,1.636939e-05,534.299999999635,4.135364e-06,534.299999999635,3.741947e-06
534.314999999635,2.400538e-05,534.314999999635,1.665602e-05,534.314999999635,4.29576e-06,534.314999999635,3.658189e-06
534.329999999635,2.453529e-05,534.329999999635,1.682265e-05,534.329999999635,4.179412e-06,534.329999999635,3.627253e-06
534.344999999635,2.540852e-05,534.344999999635,1.70067e-05,534.344999999635,4.20629e-06,534.344999999635,3.564574e-06
534.359999999635,2.417787e-05,534.359999999635,1.70555e-05,534.359999999635,4.0632e-06,534.359999999635,3.456227e-06
534.374999999635,2.226898e-05,534.374999999635,1.696689e-05,534.374999999635,4.066665e-06,534.374999999635,3.452149e-06
534.3899999996349,2.270871e-05,534.3899999996349,1.69403e-05,534.3899999996349,4.024883e-06,534.3899999996349,3.504795e-06
534.4049999996349,2.265094e-05,534.4049999996349,1.692616e-05,534.4049999996349,4.045829e-06,534.4049999996349,3.57641e-06
534.4199999996349,2.470636e-05,534.4199999996349,1.566133e-05,534.4199999996349,4.097722e-06,534.4199999996349,3.588207e-06
534.4349999996349,2.558531e-05,534.4349999996349,1.534238e-05,534.4349999996349,4.192873e-06,534.4349999996349,3.635012e-06
534.4499999996349,2.503431e-05,534.4499999996349,1.507095e-05,534.4499999996349,4.114875e-06,534.4499999996349,3.615583e-06
534.4649999996349,2.397602e-05,534.4649999996349,1.409334e-05,534.4649999996349,4.038859e-06,534.4649999996349,3.588207e-06
534.4799999996349,2.3407e-05,534.4799999996349,1.008493e-05,534.4799999996349,3.961384e-06,534.4799999996349,3.603876e-06
534.4949999996348,2.322696e-05,534.4949999996348,7.655103e-06,534.4949999996348,4.11145e-06,534.4949999996348,3.452149e-06
534.5099999996348,2.401418e-05,534.5099999996348,8.200599e-06,534.5099999996348,4.142171e-06,534.5099999996348,3.488681e-06
534.5249999996348,2.538966e-05,534.5249999996348,8.397496e-06,534.5249999996348,4.196231e-06,534.5249999996348,3.57641e-06
534.5399999996348,2.590377e-05,534.5399999996348,8.287742e-06,534.5399999996348,4.266145e-06,534.5399999996348,3.556662e-06
534.5549999996348,2.501235e-05,534.5549999996348,8.005899e-06,534.5549999996348,4.232997e-06,534.5549999996348,3.512824e-06
534.5699999996348,2.487909e-05,534.5699999996348,7.352869e-06,534.5699999996348,4.196231e-06,534.5699999996348,3.488681e-06
534.5849999996348,2.367269e-05,534.5849999996348,6.53104e-06,534.5849999996348,4.212983e-06,534.5849999996348,3.54476e-06
534.5999999996347,2.341723e-05,534.5999999996347,6.424483e-06,534.5999999996347,4.192873e-06,534.5999999996347,3.568524e-06
534.6149999996347,2.374399e-05,534.6149999996347,7.295169e-06,534.6149999996347,4.192873e-06,534.6149999996347,3.57641e-06
534.6299999996347,2.511521e-05,534.6299999996347,9.085591e-06,534.6299999996347,4.049309e-06,534.6299999996347,3.536803e-06
534.6449999996347,2.520311e-05,534.6449999996347,9.961255e-06,534.6449999996347,4.409039e-06,534.6449999996347,3.484641e-06
534.6599999996347,2.496726e-05,534.6599999996347,1.084805e-05,534.6599999996347,4.399444e-06,534.6599999996347,3.423466e-06
534.6749999996347,2.211537e-05,534.6749999996347,1.165918e-05,534.6749999996347,4.29576e-06,534.6749999996347,3.40283e-06
534.6899999996347,2.195876e-05,534.6899999996347,1.186755e-05,534.6899999996347,4.266145e-06,534.6899999996347,3.415227e-06
534.7049999996347,2.171427e-05,534.7049999996347,1.188178e-05,534.7049999996347,4.341427e-06,534.7049999996347,3.512824e-06
534.7199999996346,2.206053e-05,534.7199999996346,1.205831e-05,534.7199999996346,4.39624e-06,534.7199999996346,3.386231e-06
534.7349999996346,2.656476e-05,534.7349999996346,1.207698e-05,534.7349999996346,4.488202e-06,534.7349999996346,3.431686e-06
534.7499999996346,2.671283e-05,534.7499999996346,1.173985e-05,534.7499999996346,4.4218e-06,534.7499999996346,3.615583e-06
534.7649999996346,2.383577e-05,534.7649999996346,1.150104e-05,534.7649999996346,4.34467e-06,534.7649999996346,3.78313e-06
534.7799999996346,2.355996e-05,534.7799999996346,1.161197e-05,534.7799999996346,4.305587e-06,534.7799999996346,3.786851e-06
534.7949999996346,2.21332e-05,534.7949999996346,1.187585e-05,534.7949999996346,4.252917e-06,534.7949999996346,3.797995e-06
534.8099999996346,2.180038e-05,534.8099999996346,1.193501e-05,534.8099999996346,4.196231e-06,534.8099999996346,3.775675e-06
534.8249999996345,2.292848e-05,534.8249999996345,1.274107e-05,534.8249999996345,4.249604e-06,534.8249999996345,3.914884e-06
534.8399999996345,2.429759e-05,534.8399999996345,1.282922e-05,534.8399999996345,4.246287e-06,534.8399999996345,3.878734e-06
534.8549999996345,2.659709e-05,534.8549999996345,1.288619e-05,534.8549999996345,4.232997e-06,534.8549999996345,3.809105e-06
534.8699999996345,2.536135e-05,534.8699999996345,1.26512e-05,534.8699999996345,4.209638e-06,534.8699999996345,3.972038e-06
534.8849999996345,2.434508e-05,534.8849999996345,1.111233e-05,534.8849999996345,4.142171e-06,534.8849999996345,3.911283e-06
534.8999999996345,2.42221e-05,534.8999999996345,1.043909e-05,534.8999999996345,3.78313e-06,534.8999999996345,3.964939e-06
534.9149999996345,2.426801e-05,534.9149999996345,1.16483e-05,534.9149999996345,3.73441e-06,534.9149999996345,4.028382e-06
534.9299999996344,2.419359e-05,534.9299999996344,1.331204e-05,534.9299999996344,3.768206e-06,534.9299999996344,4.083948e-06
534.9449999996344,2.606478e-05,534.9449999996344,1.409334e-05,534.9449999996344,3.779404e-06,534.9449999996344,4.003829e-06
534.9599999996344,2.608315e-05,534.9599999996344,1.395977e-05,534.9599999996344,3.658189e-06,534.9599999996344,4.003829e-06
534.9749999996344,2.493734e-05,534.9749999996344,1.402722e-05,534.9749999996344,3.564574e-06,534.9749999996344,4.017877e-06
534.9899999996344,2.274589e-05,534.9899999996344,1.398497e-05,534.9899999996344,3.390388e-06,534.9899999996344,3.947135e-06
535.0049999996344,2.252372e-05,535.0049999996344,1.401114e-05,535.0049999996344,3.344373e-06,535.0049999996344,3.711708e-06
535.0199999996344,2.375052e-05,535.0199999996344,1.402521e-05,535.0199999996344,3.331712e-06,535.0199999996344,3.568524e-06
535.0349999996344,2.360178e-05,535.0349999996344,1.368357e-05,535.0349999996344,3.29344e-06,535.0349999996344,3.516832e-06
535.0499999996343,2.513875e-05,535.0499999996343,1.366709e-05,535.0499999996343,3.276286e-06,535.0499999996343,3.564574e-06
535.0649999996343,2.702529e-05,535.0649999996343,1.360511e-05,535.0649999996343,3.377901e-06,535.0649999996343,3.56062e-06
535.0799999996343,2.621083e-05,535.0799999996343,1.398699e-05,535.0799999996343,3.271984e-06,535.0799999996343,3.398688e-06
535.0949999996343,2.26584e-05,535.0949999996343,1.478598e-05,535.0949999996343,3.158065e-06,535.0949999996343,3.59605e-06
535.1099999996343,2.253435e-05,535.1099999996343,1.466353e-05,535.1099999996343,3.365367e-06,535.1099999996343,3.631134e-06
535.1249999996343,2.623554e-05,535.1249999996343,1.482119e-05,535.1249999996343,3.552699e-06,535.1249999996343,3.564574e-06
535.1399999996343,2.638225e-05,535.1399999996343,1.486769e-05,535.1399999996343,3.54476e-06,535.1399999996343,3.568524e-06
535.1549999996342,2.618233e-05,535.1549999996342,1.473923e-05,535.1549999996342,3.59605e-06,535.1549999996342,3.456227e-06
535.1699999996342,2.640306e-05,535.1699999996342,1.19786e-05,535.1699999996342,3.700305e-06,535.1699999996342,3.504795e-06
535.1849999996342,2.609286e-05,535.1849999996342,1.119065e-05,535.1849999996342,3.786851e-06,535.1849999996342,3.520835e-06
535.1999999996342,2.470237e-05,535.1999999996342,1.055317e-05,535.1999999996342,3.730636e-06,535.1999999996342,3.662038e-06
535.2149999996342,2.478321e-05,535.2149999996342,1.081423e-05,535.2149999996342,3.834905e-06,535.2149999996342,3.711708e-06
535.2299999996342,2.418369e-05,535.2299999996342,1.091278e-05,535.2299999996342,3.83123e-06,535.2299999996342,3.805405e-06
535.2449999996342,2.455365e-05,535.2449999996342,1.124089e-05,535.2449999996342,3.943564e-06,535.2449999996342,3.797995e-06
535.2599999996341,2.437747e-05,535.2599999996341,1.122333e-05,535.2599999996341,3.961384e-06,535.2599999996341,3.900464e-06
535.2749999996341,2.358745e-05,535.2749999996341,1.124966e-05,535.2749999996341,3.964939e-06,535.2749999996341,3.896851e-06
535.2899999996341,2.389598e-05,535.2899999996341,1.129589e-05,535.2899999996341,4.0632e-06,535.2899999996341,3.834905e-06
535.3049999996341,2.119092e-05,535.3049999996341,1.117679e-05,535.3049999996341,4.101159e-06,535.3049999996341,3.82387e-06
535.3199999996341,2.129636e-05,535.3199999996341,1.119946e-05,535.3199999996341,4.077044e-06,535.3199999996341,3.856882e-06
535.3349999996341,2.135185e-05,535.3349999996341,8.965412e-06,535.3349999996341,4.121716e-06,535.3349999996341,3.779404e-06
535.3499999996341,2.141377e-05,535.3499999996341,9.913058e-06,535.3499999996341,4.052786e-06,535.3499999996341,3.540784e-06
535.364999999634,2.039558e-05,535.364999999634,9.778569e-06,535.364999999634,3.91848e-06,535.364999999634,3.524834e-06
535.379999999634,1.67286e-05,535.379999999634,9.526091e-06,535.379999999634,3.741947e-06,535.379999999634,3.540784e-06
535.394999999634,1.707366e-05,535.394999999634,8.835633e-06,535.394999999634,3.719291e-06,535.394999999634,3.580347e-06
535.409999999634,1.900406e-05,535.409999999634,8.795684e-06,535.409999999634,3.711708e-06,535.409999999634,3.638885e-06
535.424999999634,2.100531e-05,535.424999999634,8.532291e-06,535.424999999634,3.726858e-06,535.424999999634,3.540784e-06
535.439999999634,2.233909e-05,535.439999999634,8.794083e-06,535.439999999634,3.775675e-06,535.439999999634,3.496747e-06
535.454999999634,2.508209e-05,535.454999999634,9.110365e-06,535.454999999634,4.101159e-06,535.454999999634,3.500774e-06
535.469999999634,2.602151e-05,535.469999999634,1.057184e-05,535.469999999634,4.312125e-06,535.469999999634,3.443979e-06
535.4849999996339,2.61468e-05,535.4849999996339,1.103473e-05,535.4849999996339,4.596741e-06,535.4849999996339,3.386231e-06
535.4999999996339,2.750321e-05,535.4999999996339,1.156577e-05,535.4999999996339,4.768218e-06,535.4999999996339,3.356985e-06
535.5149999996339,2.986349e-05,535.5149999996339,1.330675e-05,535.5149999996339,4.956529e-06,535.5149999996339,3.719291e-06
535.5299999996339,3.059188e-05,535.5299999996339,1.851142e-05,535.5299999996339,5.612292e-06,535.5299999996339,3.764466e-06
535.5449999996339,3.254977e-05,535.5449999996339,1.893277e-05,535.5449999996339,5.696992e-06,535.5449999996339,4.347911e-06
535.5599999996339,3.308121e-05,535.5599999996339,1.930047e-05,535.5599999996339,5.860319e-06,535.5599999996339,4.651575e-06
535.5749999996339,3.442015e-05,535.5749999996339,1.950232e-05,535.5749999996339,6.58688e-06,535.5749999996339,5.619817e-06
535.5899999996338,3.910743e-05,535.5899999996338,1.95629e-05,535.5899999996338,7.190141e-06,535.5899999996338,5.836232e-06
535.6049999996338,3.959997e-05,535.6049999996338,1.947268e-05,535.6049999996338,7.24479e-06,535.6049999996338,6.318359e-06
535.6199999996338,4.332982e-05,535.6199999996338,1.956938e-05,535.6199999996338,7.733825e-06,535.6199999996338,7.784659e-06
535.6349999996338,4.723637e-05,535.6349999996338,1.97642e-05,535.6349999996338,7.915653e-06,535.6349999996338,9.004607e-06
535.6499999996338,4.900767e-05,535.6499999996338,1.992251e-05,535.6499999996338,8.174792e-06,535.6499999996338,9.304663e-06
535.6649999996338,5.189963e-05,535.6649999996338,2.02361e-05,535.6649999996338,8.744285e-06,535.6649999996338,9.590935e-06
535.6799999996338,5.666149e-05,535.6799999996338,2.045007e-05,535.6799999996338,8.856334e-06,535.6799999996338,9.667009e-06
535.6949999996338,5.612067e-05,535.6949999996338,2.06359e-05,535.6949999996338,9.09334e-06,535.6949999996338,1.146915e-05
535.7099999996337,5.614651e-05,535.7099999996337,2.02361e-05,535.7099999996337,9.040516e-06,535.7099999996337,1.210843e-05
535.7249999996337,5.657988e-05,535.7249999996337,1.98772e-05,535.7249999996337,9.20267e-06,535.7249999996337,1.228744e-05
535.7399999996337,5.764222e-05,535.7399999996337,2.030629e-05,535.7399999996337,9.37705e-06,535.7399999996337,1.291131e-05
535.7549999996337,5.830653e-05,535.7549999996337,2.007396e-05,535.7549999996337,1.067394e-05,535.7549999996337,1.509057e-05
535.7699999996337,5.95555e-05,535.7699999996337,1.824931e-05,535.7699999996337,1.074891e-05,535.7699999996337,1.570445e-05
535.7849999996337,6.007549e-05,535.7849999996337,1.582775e-05,535.7849999996337,1.096943e-05,535.7849999996337,1.822228e-05
535.7999999996337,6.272937e-05,535.7999999996337,1.580192e-05,535.7999999996337,1.109965e-05,535.7999999996337,1.911419e-05
535.8149999996336,6.393228e-05,535.8149999996336,1.583931e-05,535.8149999996336,1.119568e-05,535.8149999996336,2.011251e-05
535.8299999996336,6.705047e-05,535.8299999996336,1.541657e-05,535.8299999996336,1.079598e-05,535.8299999996336,2.01524e-05
535.8449999996336,6.764595e-05,535.8449999996336,1.534605e-05,535.8449999996336,1.100917e-05,535.8449999996336,2.019987e-05
535.8599999996336,6.91219e-05,535.8599999996336,2.014051e-05,535.8599999996336,1.461638e-05,535.8599999996336,2.030768e-05
535.8749999996336,6.653863e-05,535.8749999996336,2.553571e-05,535.8749999996336,1.529179e-05,535.8749999996336,2.041491e-05
535.8899999996336,6.466358e-05,535.8899999996336,2.760189e-05,535.8899999996336,1.537814e-05,535.8899999996336,2.033679e-05
535.9049999996336,6.421457e-05,535.9049999996336,2.744836e-05,535.9049999996336,1.543757e-05,535.9049999996336,2.090245e-05
535.9199999996335,6.060032e-05,535.9199999996335,2.755847e-05,535.9199999996335,1.535614e-05,535.9199999996335,2.083969e-05
535.9349999996335,6.18747e-05,535.9349999996335,2.754671e-05,535.9349999996335,1.531941e-05,535.9349999996335,2.077469e-05
535.9499999996335,6.18066e-05,535.9499999996335,2.721954e-05,535.9499999996335,1.522162e-05,535.9499999996335,1.996771e-05
535.9649999996335,6.120217e-05,535.9649999996335,2.731717e-05,535.9649999996335,1.51381e-05,535.9649999996335,1.993594e-05
535.9799999996335,6.125761e-05,535.9799999996335,2.723816e-05,535.9799999996335,1.505412e-05,535.9799999996335,2.032778e-05
535.9949999996335,6.117201e-05,535.9949999996335,2.713453e-05,535.9949999996335,1.470766e-05,535.9949999996335,1.963693e-05
536.0099999996335,6.331522e-05,536.0099999996335,2.696789e-05,536.0099999996335,1.421278e-05,536.0099999996335,1.815645e-05
536.0249999996335,6.101222e-05,536.0249999996335,2.636943e-05,536.0249999996335,1.402621e-05,536.0249999996335,1.775636e-05
536.0399999996334,5.766764e-05,536.0399999996334,2.608369e-05,536.0399999996334,1.401214e-05,536.0399999996334,1.521422e-05
536.0549999996334,5.500131e-05,536.0549999996334,2.612955e-05,536.0549999996334,1.383306e-05,536.0549999996334,1.447694e-05
536.0699999996334,5.185156e-05,536.0699999996334,2.598846e-05,536.0699999996334,1.39153e-05,536.0699999996334,1.301995e-05
536.0849999996334,5.209414e-05,536.0849999996334,2.59266e-05,536.0849999996334,1.365885e-05,536.0849999996334,1.258869e-05
536.0999999996334,4.617502e-05,536.0999999996334,2.550701e-05,536.0999999996334,1.359579e-05,536.0999999996334,1.223919e-05
536.1149999996334,4.675739e-05,536.1149999996334,1.777459e-05,536.1149999996334,8.517419e-06,536.1149999996334,1.182831e-05
536.1299999996334,5.016334e-05,536.1299999996334,1.491499e-05,536.1299999996334,8.392462e-06,536.1299999996334,1.074366e-05
536.1449999996333,4.945375e-05,536.1449999996333,1.206531e-05,536.1449999996333,7.938755e-06,536.1449999996333,9.380055e-06
536.1599999996333,4.98272e-05,536.1599999996333,1.179969e-05,536.1599999996333,7.897837e-06,536.1599999996333,8.705536e-06
536.1749999996333,4.49366e-05,536.1749999996333,1.135807e-05,536.1749999996333,7.59228e-06,536.1749999996333,8.716856e-06
536.1899999996333,4.454935e-05,536.1899999996333,1.137666e-05,536.1899999996333,7.571843e-06,536.1899999996333,8.581677e-06
536.2049999996333,4.493409e-05,536.2049999996333,1.115787e-05,536.2049999996333,7.506446e-06,536.2049999996333,8.348708e-06
536.2199999996333,4.412552e-05,536.2199999996333,1.037819e-05,536.2199999996333,7.392992e-06,536.2199999996333,7.704628e-06
536.2349999996333,4.343567e-05,536.2349999996333,1.008912e-05,536.2349999996333,7.28164e-06,536.2349999996333,6.047233e-06
536.2499999996332,4.225736e-05,536.2499999996332,9.817387e-06,536.2499999996332,7.103415e-06,536.2499999996332,5.95096e-06
536.2649999996332,3.908041e-05,536.2649999996332,9.732362e-06,536.2649999996332,6.146583e-06,536.2649999996332,5.672212e-06
536.2799999996332,3.85341e-05,536.2799999996332,9.433964e-06,536.2799999996332,6.03324e-06,536.2799999996332,5.358047e-06
536.2949999996332,3.79265e-05,536.2949999996332,9.749715e-06,536.2949999996332,5.824151e-06,536.2949999996332,4.93374e-06
536.3099999996332,3.722282e-05,536.3099999996332,9.595341e-06,536.3099999996332,5.56693e-06,536.3099999996332,4.887844e-06
536.3249999996332,3.572233e-05,536.3249999996332,1.079859e-05,536.3249999996332,5.326404e-06,536.3249999996332,4.67875e-06
536.3399999996332,3.372893e-05,536.3399999996332,1.137047e-05,536.3399999996332,4.870521e-06,536.3399999996332,4.782967e-06
536.3549999996332,3.2196e-05,536.3549999996332,1.188297e-05,536.3549999996332,4.777073e-06,536.3549999996332,4.815255e-06
536.3699999996331,3.102034e-05,536.3699999996331,1.393856e-05,536.3699999996331,4.618143e-06,536.3699999996331,4.982041e-06
536.3849999996331,2.628114e-05,536.3849999996331,1.488758e-05,536.3849999996331,4.553636e-06,536.3849999996331,5.110451e-06
536.3999999996331,2.654301e-05,536.3999999996331,1.780468e-05,536.3999999996331,4.087396e-06,536.3999999996331,5.099414e-06
536.4149999996331,2.448989e-05,536.4149999996331,1.807246e-05,536.4149999996331,3.972038e-06,536.4149999996331,5.162558e-06
536.4299999996331,2.365305e-05,536.4299999996331,2.050991e-05,536.4299999996331,3.677393e-06,536.4299999996331,6.53104e-06
536.4449999996331,2.942872e-05,536.4449999996331,2.210008e-05,536.4449999996331,3.692683e-06,536.4449999996331,7.22142e-06
536.459999999633,3.224235e-05,536.459999999633,2.29788e-05,536.459999999633,3.741947e-06,536.459999999633,7.446153e-06
536.474999999633,3.363399e-05,536.474999999633,2.420174e-05,536.474999999633,3.786851e-06,536.474999999633,7.573703e-06
536.489999999633,3.500532e-05,536.489999999633,2.414813e-05,536.489999999633,3.979125e-06,536.489999999633,8.204034e-06
536.504999999633,3.4468e-05,536.504999999633,2.473656e-05,536.504999999633,4.118297e-06,536.504999999633,8.789276e-06
536.519999999633,3.494853e-05,536.519999999633,2.493169e-05,536.519999999633,4.450379e-06,536.519999999633,9.917319e-06
536.534999999633,3.682407e-05,536.534999999633,2.463041e-05,536.534999999633,4.756387e-06,536.534999999633,1.134194e-05
536.549999999633,4.070751e-05,536.549999999633,2.461267e-05,536.549999999633,5.049445e-06,536.549999999633,1.16797e-05
536.564999999633,4.146692e-05,536.564999999633,2.444498e-05,536.564999999633,5.599728e-06,536.564999999633,1.443211e-05
536.579999999633,4.28831e-05,536.579999999633,2.398894e-05,536.579999999633,5.741327e-06,536.579999999633,1.60829e-05
536.5949999996329,4.329957e-05,536.5949999996329,2.36953e-05,536.5949999996329,5.850696e-06,536.5949999996329,1.633234e-05
536.6099999996329,4.378389e-05,536.6099999996329,2.336785e-05,536.6099999996329,6.298262e-06,536.6099999996329,1.776191e-05
536.6249999996329,4.546856e-05,536.6249999996329,2.189645e-05,536.6249999996329,6.362793e-06,536.6249999996329,1.8377e-05
536.6399999996329,4.52658e-05,536.6399999996329,1.96792e-05,536.6399999996329,6.42229e-06,536.6399999996329,1.841146e-05
536.6549999996329,4.560931e-05,536.6549999996329,1.848934e-05,536.6549999996329,6.511599e-06,536.6549999996329,1.863731e-05
536.6699999996329,4.562444e-05,536.6699999996329,1.826706e-05,536.6699999996329,6.552573e-06,536.6699999996329,1.87308e-05
536.6849999996329,4.607882e-05,536.6849999996329,1.570265e-05,536.6849999996329,6.559019e-06,536.6849999996329,1.815179e-05
536.6999999996328,4.287357e-05,536.6999999996328,1.441062e-05,536.6999999996328,6.446372e-06,536.6999999996328,1.798808e-05
536.7149999996328,4.186653e-05,536.7149999996328,1.309116e-05,536.7149999996328,6.371642e-06,536.7149999996328,1.795359e-05
536.7299999996328,4.114053e-05,536.7299999996328,1.218729e-05,536.7299999996328,6.365006e-06,536.7299999996328,1.768959e-05
536.7449999996328,4.003336e-05,536.7449999996328,1.368152e-05,536.7449999996328,6.266871e-06,536.7449999996328,1.754727e-05
536.7599999996328,3.849973e-05,536.7599999996328,1.674627e-05,536.7599999996328,6.086705e-06,536.7599999996328,1.729254e-05
536.7749999996328,3.84503e-05,536.7749999996328,1.899739e-05,536.7749999996328,5.958057e-06,536.7749999996328,1.631422e-05
536.7899999996328,3.633926e-05,536.7899999996328,1.921416e-05,536.7899999996328,5.699464e-06,536.7899999996328,1.553127e-05
536.8049999996327,3.410191e-05,536.8049999996327,1.894765e-05,536.8049999996327,5.577042e-06,536.8049999996327,1.506722e-05
536.8199999996327,3.561253e-05,536.8199999996327,1.929682e-05,536.8199999996327,5.336972e-06,536.8199999996327,1.214677e-05
536.8349999996327,3.423178e-05,536.8349999996327,1.919582e-05,536.8349999996327,5.151632e-06,536.8349999996327,1.046604e-05
536.8499999996327,3.414195e-05,536.8499999996327,1.982682e-05,536.8499999996327,5.173461e-06,536.8499999996327,9.700467e-06
536.8649999996327,3.351105e-05,536.8649999996327,1.995642e-05,536.8649999996327,4.675739e-06,536.8649999996327,7.575563e-06
536.8799999996327,3.422808e-05,536.8799999996327,2.039282e-05,536.8799999996327,4.608983e-06,536.8799999996327,6.019215e-06
536.8949999996327,3.41337e-05,536.8949999996327,2.081398e-05,536.8949999996327,4.52882e-06,536.8949999996327,5.8867e-06
536.9099999996326,3.386938e-05,536.9099999996326,2.184234e-05,536.9099999996326,4.447213e-06,536.9099999996326,4.893604e-06
536.9249999996326,3.370595e-05,536.9249999996326,2.15652e-05,536.9249999996326,4.453544e-06,536.9249999996326,4.648545e-06
536.9399999996326,3.336107e-05,536.9399999996326,2.194657e-05,536.9399999996326,4.544346e-06,536.9399999996326,4.47563e-06
536.9549999996326,3.108068e-05,536.9549999996326,2.210518e-05,536.9549999996326,4.535037e-06,536.9549999996326,4.440873e-06
536.9699999996326,2.977231e-05,536.9699999996326,2.192345e-05,536.9699999996326,4.547444e-06,536.9699999996326,4.544346e-06
536.9849999996326,3.276115e-05,536.9849999996326,2.163954e-05,536.9849999996326,4.690778e-06,536.9849999996326,4.559819e-06
536.9999999996326,3.275383e-05,536.9999999996326,1.986657e-05,536.9999999996326,4.531929e-06,536.9999999996326,4.513241e-06
537.0149999996326,3.201875e-05,537.0149999996326,1.742967e-05,537.0149999996326,4.506994e-06,537.0149999996326,4.17604e-06
537.0299999996325,3.166261e-05,537.0299999996325,1.541657e-05,537.0299999996325,4.409039e-06,537.0299999996325,4.114875e-06
537.0449999996325,3.202095e-05,537.0449999996325,1.521699e-05,537.0449999996325,4.386617e-06,537.0449999996325,3.950702e-06
537.0599999996325,3.091389e-05,537.0599999996325,1.580726e-05,537.0599999996325,4.312125e-06,537.0599999996325,3.867824e-06
537.0749999996325,2.998776e-05,537.0749999996325,1.765452e-05,537.0749999996325,4.021382e-06,537.0749999996325,3.756974e-06
537.0899999996325,3.056331e-05,537.0899999996325,1.736976e-05,537.0899999996325,3.996786e-06,537.0899999996325,3.83123e-06
537.1049999996325,3.116532e-05,537.1049999996325,1.777142e-05,537.1049999996325,3.979125e-06,537.1049999996325,4.444044e-06
537.1199999996325,3.139948e-05,537.1199999996325,1.756412e-05,537.1199999996325,3.885991e-06,537.1199999996325,4.428167e-06
537.1349999996324,2.772004e-05,537.1349999996324,1.700918e-05,537.1349999996324,3.856882e-06,537.1349999996324,4.624239e-06
537.1499999996324,2.776472e-05,537.1499999996324,1.669826e-05,537.1499999996324,3.73818e-06,537.1499999996324,4.587538e-06
537.1649999996324,3.011853e-05,537.1649999996324,1.542479e-05,537.1649999996324,3.893234e-06,537.1649999996324,4.741556e-06
537.1799999996324,3.01176e-05,537.1799999996324,1.516228e-05,537.1799999996324,3.975583e-06,537.1799999996324,4.702775e-06
537.1949999996324,3.172795e-05,537.1949999996324,1.519847e-05,537.1949999996324,3.867824e-06,537.1949999996324,4.663672e-06
537.2099999996324,3.063881e-05,537.2099999996324,1.483734e-05,537.2099999996324,4.073587e-06,537.2099999996324,4.723696e-06
537.2249999996324,3.534771e-05,537.2249999996324,1.520681e-05,537.2249999996324,4.094283e-06,537.2249999996324,4.744526e-06
537.2399999996323,3.319004e-05,537.2399999996323,1.49866e-05,537.2399999996323,4.080498e-06,537.2399999996323,4.902232e-06
537.2549999996323,3.335051e-05,537.2549999996323,1.506161e-05,537.2549999996323,4.262842e-06,537.2549999996323,4.942298e-06
537.2699999996323,3.693294e-05,537.2699999996323,1.511575e-05,537.2699999996323,4.331681e-06,537.2699999996323,5.041069e-06
537.2849999996323,3.680877e-05,537.2849999996323,1.512507e-05,537.2849999996323,4.513241e-06,537.2849999996323,5.151632e-06
537.2999999996323,3.873501e-05,537.2999999996323,1.541748e-05,537.2999999996323,4.593675e-06,537.2999999996323,5.200618e-06
537.3149999996323,3.982698e-05,537.3149999996323,1.422764e-05,537.3149999996323,4.702775e-06,537.3149999996323,5.318464e-06
537.3299999996323,4.045132e-05,537.3299999996323,1.236401e-05,537.3299999996323,5.121465e-06,537.3299999996323,5.305204e-06
537.3449999996323,4.231665e-05,537.3449999996323,1.109965e-05,537.3449999996323,5.454455e-06,537.3449999996323,5.233022e-06
537.3599999996322,4.206625e-05,537.3599999996322,1.099637e-05,537.3599999996322,5.53139e-06,537.3599999996322,5.035477e-06
537.3749999996322,4.58935e-05,537.3749999996322,1.110853e-05,537.3749999996322,5.654801e-06,537.3749999996322,5.310512e-06
537.3899999996322,4.64336e-05,537.3899999996322,1.08947e-05,537.3899999996322,5.657291e-06,537.3899999996322,5.214144e-06
537.4049999996322,4.887411e-05,537.4049999996322,1.064619e-05,537.4049999996322,5.736418e-06,537.4049999996322,5.241091e-06
537.4199999996322,5.121685e-05,537.4199999996322,1.044583e-05,537.4199999996322,5.782887e-06,537.4199999996322,5.211442e-06
537.4349999996322,5.168421e-05,537.4349999996322,9.788648e-06,537.4349999996322,5.826569e-06,537.4349999996322,5.741327e-06
537.4499999996322,5.272604e-05,537.4499999996322,1.010726e-05,537.4499999996322,6.162605e-06,537.4499999996322,5.790191e-06
537.4649999996321,5.581359e-05,537.4649999996321,9.70337e-06,537.4649999996321,6.141998e-06,537.4649999996321,5.965146e-06
537.4799999996321,5.372303e-05,537.4799999996321,9.716427e-06,537.4799999996321,6.809799e-06,537.4799999996321,8.056763e-06
537.4949999996321,5.899608e-05,537.4949999996321,9.985267e-06,537.4949999996321,6.910417e-06,537.4949999996321,8.846786e-06
537.5099999996321,5.847107e-05,537.5099999996321,1.026491e-05,537.5099999996321,7.349037e-06,537.5099999996321,9.788648e-06
537.5249999996321,5.993205e-05,537.5249999996321,1.150716e-05,537.5249999996321,7.706456e-06,537.5249999996321,1.031283e-05
537.5399999996321,6.542914e-05,537.5399999996321,1.298203e-05,537.5399999996321,8.018206e-06,537.5399999996321,1.096558e-05
537.5549999996321,6.415772e-05,537.5549999996321,1.403625e-05,537.5549999996321,8.188566e-06,537.5549999996321,1.152551e-05
537.569999999632,6.452423e-05,537.569999999632,1.921489e-05,537.569999999632,9.216436e-06,537.569999999632,1.287744e-05
537.584999999632,6.492838e-05,537.584999999632,2.82755e-05,537.584999999632,9.505367e-06,537.584999999632,1.344681e-05
537.599999999632,6.384187e-05,537.599999999632,3.227335e-05,537.599999999632,9.549722e-06,537.599999999632,1.425138e-05
