X[s],a: EMG RMS 1-1,X[s].1,a: EMG RMS 1-2,X[s].2,a: EMG RMS 1-3,X[s].3,a: EMG RMS 1-4
479.00999999968525,0.0005977158,479.00999999968525,0.003273528,479.00999999968525,0.0006035176,479.00999999968525,0.0005332921
479.02499999968524,0.0006181533,479.02499999968524,0.003303136,479.02499999968524,0.0006303827,479.02499999968524,0.000552934
479.0399999996852,0.0006275608,479.0399999996852,0.003281729,479.0399999996852,0.0006362254,479.0399999996852,0.0005609005
479.0549999996852,0.0006293256,479.0549999996852,0.003271485,479.0549999996852,0.0006361246,479.0549999996852,0.0005640761
479.0699999996852,0.0006307313,479.0699999996852,0.003278277,479.0699999996852,0.0006344179,479.0699999996852,0.0005667399
479.0849999996852,0.000624117,479.0849999996852,0.003249098,479.0849999996852,0.0006206808,479.0849999996852,0.0005610525
479.09999999968517,0.0006257214,479.09999999968517,0.00333518,479.09999999968517,0.000624106,479.09999999968517,0.0005578861
479.11499999968515,0.0006716811,479.11499999968515,0.003461875,479.11499999968515,0.0006812083,479.11499999968515,0.0005806738
479.12999999968514,0.000682257,479.12999999968514,0.003400032,479.12999999968514,0.0006816064,479.12999999968514,0.0005808275
479.1449999996851,0.0007716707,479.1449999996851,0.003545422,479.1449999996851,0.0008283291,479.1449999996851,0.0006688882
479.1599999996851,0.0009350984,479.1599999996851,0.003626439,479.1599999996851,0.001008806,479.1599999996851,0.000795354
479.1749999996851,0.0009614849,479.1749999996851,0.003618533,479.1749999996851,0.001042835,479.1749999996851,0.0008184152
479.1899999996851,0.00107138,479.1899999996851,0.003815038,479.1899999996851,0.001182061,479.1899999996851,0.0009311787
479.20499999968507,0.001104446,479.20499999968507,0.004017816,479.20499999968507,0.00120904,479.20499999968507,0.0009539804
479.21999999968506,0.001083456,479.21999999968506,0.003958761,479.21999999968506,0.001199236,479.21999999968506,0.0009466512
479.23499999968504,0.001168421,479.23499999968504,0.004079731,479.23499999968504,0.001297694,479.23499999968504,0.001020577
479.24999999968503,0.001176976,479.24999999968503,0.004090026,479.24999999968503,0.001300553,479.24999999968503,0.001018679
479.264999999685,0.001208848,479.264999999685,0.00413603,479.264999999685,0.001344511,479.264999999685,0.001052381
479.279999999685,0.00124423,479.279999999685,0.004307995,479.279999999685,0.001377401,479.279999999685,0.001082096
479.294999999685,0.001249479,479.294999999685,0.004385762,479.294999999685,0.001382546,479.294999999685,0.00108647
479.309999999685,0.001284622,479.309999999685,0.004617915,479.309999999685,0.001423334,479.309999999685,0.001123595
479.32499999968496,0.00129216,479.32499999968496,0.004779268,479.32499999968496,0.001430459,479.32499999968496,0.001130325
479.33999999968495,0.001320879,479.33999999968495,0.004881157,479.33999999968495,0.001462645,479.33999999968495,0.001161442
479.35499999968494,0.00133709,479.35499999968494,0.004945658,479.35499999968494,0.001474046,479.35499999968494,0.001182695
479.3699999996849,0.001301587,479.3699999996849,0.00485953,479.3699999996849,0.001443493,479.3699999996849,0.00116198
479.3849999996849,0.001306134,479.3849999996849,0.004852621,479.3849999996849,0.00144656,479.3849999996849,0.001170786
479.3999999996849,0.001239549,479.3999999996849,0.004830053,479.3999999996849,0.001355369,479.3999999996849,0.001111358
479.4149999996849,0.001140767,479.4149999996849,0.004841596,479.4149999996849,0.001258677,479.4149999996849,0.001037731
479.42999999968487,0.001105968,479.42999999968487,0.004766164,479.42999999968487,0.001204156,479.42999999968487,0.0009985914
479.44499999968485,0.00102036,479.44499999968485,0.004700843,479.44499999968485,0.001104,479.44499999968485,0.000916472
479.45999999968484,0.001033521,479.45999999968484,0.004602895,479.45999999968484,0.001116604,479.45999999968484,0.0009307743
479.4749999996848,0.001013453,479.4749999996848,0.00457275,479.4749999996848,0.001081727,479.4749999996848,0.0009074248
479.4899999996848,0.0009087553,479.4899999996848,0.004419758,479.4899999996848,0.0009746406,479.4899999996848,0.0008202523
479.5049999996848,0.0008973578,479.5049999996848,0.004287194,479.5049999996848,0.0009614266,479.5049999996848,0.000812939
479.5199999996848,0.0008397528,479.5199999996848,0.004080903,479.5199999996848,0.0008871817,479.5199999996848,0.0007580228
479.53499999968477,0.0007960119,479.53499999968477,0.003821005,479.53499999968477,0.0008479743,479.53499999968477,0.0007216546
479.54999999968476,0.0007880272,479.54999999968476,0.003761288,479.54999999968476,0.0008335482,479.54999999968476,0.000709691
479.56499999968474,0.000729153,479.56499999968474,0.003577208,479.56499999968474,0.0007691997,479.56499999968474,0.00064739
479.57999999968473,0.0007116102,479.57999999968473,0.003446682,479.57999999968473,0.0007447437,479.57999999968473,0.0006297751
479.5949999996847,0.000644482,479.5949999996847,0.003187355,479.5949999996847,0.0006728315,479.5949999996847,0.0005605642
479.6099999996847,0.0006178431,479.6099999996847,0.003000152,479.6099999996847,0.0006483538,479.6099999996847,0.000534036
479.6249999996847,0.0005705622,479.6249999996847,0.002943449,479.6249999996847,0.0005830587,479.6249999996847,0.0004862369
479.6399999996847,0.00054603,479.6399999996847,0.002858583,479.6399999996847,0.0005579088,479.6399999996847,0.0004592235
479.65499999968466,0.0005525402,479.65499999968466,0.002860129,479.65499999968466,0.000555999,479.65499999968466,0.0004815373
479.66999999968465,0.0005253829,479.66999999968465,0.002921671,479.66999999968465,0.0005296528,479.66999999968465,0.0004631473
479.68499999968463,0.0005266806,479.68499999968463,0.002822455,479.68499999968463,0.0005233354,479.68499999968463,0.0004617868
479.6999999996846,0.0005084916,479.6999999996846,0.00273877,479.6999999996846,0.0005080903,479.6999999996846,0.0004442338
479.7149999996846,0.0004353315,479.7149999996846,0.002645387,479.7149999996846,0.0004454757,479.7149999996846,0.0003760958
479.7299999996846,0.0004374266,479.7299999996846,0.002848006,479.7299999996846,0.0004395762,479.7299999996846,0.0003831711
479.7449999996846,0.0003852933,479.7449999996846,0.002925127,479.7449999996846,0.0003760654,479.7449999996846,0.0003475883
479.75999999968457,0.0003570803,479.75999999968457,0.003066878,479.75999999968457,0.0003540116,479.75999999968457,0.00032249
479.77499999968455,0.0003607646,479.77499999968455,0.003170394,479.77499999968455,0.0003566394,479.77499999968455,0.0003219209
479.78999999968454,0.0003528488,479.78999999968454,0.003274129,479.78999999968454,0.0003470938,479.78999999968454,0.0003254918
479.8049999996845,0.0003477666,479.8049999996845,0.003444014,479.8049999996845,0.0003430118,479.8049999996845,0.0003260862
479.8199999996845,0.0003477066,479.8199999996845,0.00349737,479.8199999996845,0.0003428422,479.8199999996845,0.0003273419
479.8349999996845,0.0003478979,479.8349999996845,0.003651314,479.8349999996845,0.0003423062,479.8349999996845,0.000328059
479.8499999996845,0.0003477604,479.8499999996845,0.003841331,479.8499999996845,0.0003415885,479.8499999996845,0.0003243221
479.86499999968447,0.0003454522,479.86499999968447,0.004002897,479.86499999968447,0.0003407551,479.86499999968447,0.0003215287
479.87999999968446,0.0003383576,479.87999999968446,0.00398948,479.87999999968446,0.0003389076,479.87999999968446,0.000318061
479.89499999968444,0.0003254338,479.89499999968444,0.003903589,479.89499999968444,0.000326595,479.89499999968444,0.0003061269
479.90999999968443,0.0002627736,479.90999999968443,0.003824778,479.90999999968443,0.00026631,479.90999999968443,0.0002336583
479.9249999996844,0.000254102,479.9249999996844,0.003944899,479.9249999996844,0.0002763295,479.9249999996844,0.0002395355
479.9399999996844,0.0002421456,479.9399999996844,0.004089678,479.9399999996844,0.0002725095,479.9399999996844,0.00024019
479.9549999996844,0.0001841594,479.9549999996844,0.004144599,479.9549999996844,0.0002323533,479.9549999996844,0.0002201535
479.9699999996844,0.0001780902,479.9699999996844,0.004156478,479.9699999996844,0.0002518086,479.9699999996844,0.0002201854
479.98499999968436,0.0001583029,479.98499999968436,0.004022804,479.98499999968436,0.0002771434,479.98499999968436,0.0002070517
479.99999999968435,0.0001577633,479.99999999968435,0.004024071,479.99999999968435,0.00030354,479.99999999968435,0.000206798
480.01499999968433,0.0001543136,480.01499999968433,0.003952546,480.01499999968433,0.0003470973,480.01499999968433,0.0002184877
480.0299999996843,0.0001433964,480.0299999996843,0.003847219,480.0299999996843,0.0003636104,480.0299999996843,0.0002122223
480.0449999996843,0.0001435803,480.0449999996843,0.003785965,480.0449999996843,0.0003847298,480.0449999996843,0.0002106683
480.0599999996843,0.0001421404,480.0599999996843,0.003624117,480.0599999996843,0.0004012092,480.0599999996843,0.0002217356
480.0749999996843,0.0001453538,480.0749999996843,0.003486015,480.0749999996843,0.0004107872,480.0749999996843,0.0002261847
480.08999999968427,0.0001451041,480.08999999968427,0.003354922,480.08999999968427,0.0004171285,480.08999999968427,0.000232824
480.10499999968425,0.0001477045,480.10499999968425,0.003134915,480.10499999968425,0.000423451,480.10499999968425,0.000237045
480.11999999968424,0.000143476,480.11999999968424,0.002832382,480.11999999968424,0.0004222674,480.11999999968424,0.0002401253
480.1349999996842,0.0001362273,480.1349999996842,0.002611375,480.1349999996842,0.0004197839,480.1349999996842,0.0002420991
480.1499999996842,0.0001437964,480.1499999996842,0.002617143,480.1499999996842,0.0004233761,480.1499999996842,0.0002418957
480.1649999996842,0.0001429605,480.1649999996842,0.002438434,480.1649999996842,0.0004197381,480.1649999996842,0.0002384565
480.1799999996842,0.0001394586,480.1799999996842,0.002174123,480.1799999996842,0.0004165352,480.1799999996842,0.0002314905
480.19499999968417,0.0001350978,480.19499999968417,0.001847812,480.19499999968417,0.0004097287,480.19499999968417,0.0002281381
480.20999999968416,0.0001301598,480.20999999968416,0.001707538,480.20999999968416,0.0003934,480.20999999968416,0.0002243886
480.22499999968414,0.0001261022,480.22499999968414,0.001685677,480.22499999968414,0.0003851568,480.22499999968414,0.0002159438
480.23999999968413,0.0001218966,480.23999999968413,0.001455395,480.23999999968413,0.0003595047,480.23999999968413,0.0002096693
480.2549999996841,0.0001195883,480.2549999996841,0.00163385,480.2549999996841,0.0003357918,480.2549999996841,0.0001934123
480.2699999996841,0.0001126135,480.2699999996841,0.001788432,480.2699999996841,0.0002957106,480.2699999996841,0.0001890331
480.2849999996841,0.0001138554,480.2849999996841,0.002044644,480.2849999996841,0.0002718326,480.2849999996841,0.0001869152
480.2999999996841,0.0001139573,480.2999999996841,0.002090551,480.2999999996841,0.0002384845,480.2999999996841,0.000176589
480.31499999968406,0.0001097649,480.31499999968406,0.002195463,480.31499999968406,0.0002100837,480.31499999968406,0.0001620824
480.32999999968405,0.0001074113,480.32999999968405,0.002220442,480.32999999968405,0.0001931409,480.32999999968405,0.0001513076
480.34499999968403,0.0001035441,480.34499999968403,0.002210278,480.34499999968403,0.0001832898,480.34499999968403,0.0001391572
480.359999999684,9.794503e-05,480.359999999684,0.00219974,480.359999999684,0.0001661862,480.359999999684,0.0001283754
480.374999999684,9.707942e-05,480.374999999684,0.002181072,480.374999999684,0.0001615106,480.374999999684,0.0001152082
480.389999999684,9.119606e-05,480.389999999684,0.002162294,480.389999999684,0.0001485471,480.389999999684,0.0001122088
480.404999999684,8.183197e-05,480.404999999684,0.00212284,480.404999999684,0.0001328702,480.404999999684,0.0001075753
480.41999999968397,8.041398e-05,480.41999999968397,0.002160341,480.41999999968397,0.0001333721,480.41999999968397,0.0001086498
480.43499999968395,7.260271e-05,480.43499999968395,0.002121389,480.43499999968395,0.0001196188,480.43499999968395,0.0001003399
480.44999999968394,7.141211e-05,480.44999999968394,0.002063059,480.44999999968394,0.0001096959,480.44999999968394,9.692679e-05
480.4649999996839,7.23029e-05,480.4649999996839,0.002055336,480.4649999996839,0.0001097953,480.4649999996839,9.396215e-05
480.4799999996839,7.306263e-05,480.4799999996839,0.002036445,480.4799999996839,0.0001052554,480.4799999996839,9.342827e-05
480.4949999996839,7.44428e-05,480.4949999996839,0.002006588,480.4949999996839,0.000102146,480.4949999996839,9.024235e-05
480.5099999996839,6.757511e-05,480.5099999996839,0.0018419,480.5099999996839,9.414832e-05,480.5099999996839,8.913917e-05
480.52499999968387,6.99712e-05,480.52499999968387,0.001570522,480.52499999968387,9.479753e-05,480.52499999968387,8.631352e-05
480.53999999968386,7.688924e-05,480.53999999968386,0.001410674,480.53999999968386,9.617937e-05,480.53999999968386,8.677854e-05
480.55499999968384,8.111461e-05,480.55499999968384,0.001377404,480.55499999968384,0.0001012405,480.55499999968384,8.898606e-05
480.56999999968383,8.224579e-05,480.56999999968383,0.001344822,480.56999999968383,0.0001024756,480.56999999968383,8.876004e-05
480.5849999996838,8.534007e-05,480.5849999996838,0.001493378,480.5849999996838,0.0001071215,480.5849999996838,8.907783e-05
480.5999999996838,8.708707e-05,480.5999999996838,0.001510878,480.5999999996838,0.0001089468,480.5999999996838,8.982554e-05
480.6149999996838,9.057469e-05,480.6149999996838,0.001471619,480.6149999996838,0.0001133982,480.6149999996838,8.911625e-05
480.6299999996838,9.166582e-05,480.6299999996838,0.001523274,480.6299999996838,0.0001150642,480.6299999996838,9.099054e-05
480.64499999968376,8.810582e-05,480.64499999968376,0.001507095,480.64499999968376,0.0001141559,480.64499999968376,8.371572e-05
480.65999999968375,8.872114e-05,480.65999999968375,0.001595652,480.65999999968375,0.0001147777,480.65999999968375,8.338408e-05
480.67499999968373,9.026701e-05,480.67499999968373,0.001632984,480.67499999968373,0.0001156797,480.67499999968373,8.234216e-05
480.6899999996837,8.997534e-05,480.6899999996837,0.001615809,480.6899999996837,0.0001154386,480.6899999996837,7.976778e-05
480.7049999996837,9.254097e-05,480.7049999996837,0.001642541,480.7049999996837,0.0001177697,480.7049999996837,8.072275e-05
480.7199999996837,9.36683e-05,480.7199999996837,0.001642267,480.7199999996837,0.0001178977,480.7199999996837,8.01608e-05
480.7349999996837,9.03121e-05,480.7349999996837,0.001645622,480.7349999996837,0.0001161752,480.7349999996837,7.828453e-05
480.74999999968367,9.269124e-05,480.74999999968367,0.001643032,480.74999999968367,0.000116194,480.74999999968367,8.380721e-05
480.76499999968365,9.291665e-05,480.76499999968365,0.001648342,480.76499999968365,0.0001162203,480.76499999968365,8.329839e-05
480.77999999968364,9.137121e-05,480.77999999968364,0.001628957,480.77999999968364,0.0001141498,480.77999999968364,8.257722e-05
480.7949999996836,8.313198e-05,480.7949999996836,0.001390211,480.7949999996836,0.0001089991,480.7949999996836,7.592094e-05
480.8099999996836,7.876906e-05,480.8099999996836,0.001362029,480.8099999996836,0.0001042419,480.8099999996836,7.471874e-05
480.8249999996836,8.102478e-05,480.8249999996836,0.001212307,480.8249999996836,0.0001029488,480.8249999996836,7.711937e-05
480.8399999996836,8.667426e-05,480.8399999996836,0.00104391,480.8399999996836,0.0001049801,480.8399999996836,8.006057e-05
480.85499999968357,8.528294e-05,480.85499999968357,0.001035915,480.85499999968357,0.0001013363,480.85499999968357,8.183782e-05
480.86999999968356,9.087219e-05,480.86999999968356,0.001032786,480.86999999968356,0.0001035022,480.86999999968356,8.333508e-05
480.88499999968354,9.072946e-05,480.88499999968354,0.0008981493,480.88499999968354,0.0001031047,480.88499999968354,8.326337e-05
480.89999999968353,0.0001016069,480.89999999968353,0.0008783924,480.89999999968353,0.000111469,480.89999999968353,9.217399e-05
480.9149999996835,0.0001049957,480.9149999996835,0.0007098872,480.9149999996835,0.0001119785,480.9149999996835,0.0001032303
480.9299999996835,0.0001037488,480.9299999996835,0.0005736399,480.9299999996835,0.0001104335,480.9299999996835,0.0001032696
480.9449999996835,0.0001061061,480.9449999996835,0.0005613142,480.9449999996835,0.0001136748,480.9449999996835,0.0001045482
480.9599999996835,0.0001035849,480.9599999996835,0.0004728958,480.9599999996835,0.0001094712,480.9599999996835,0.0001053826
480.97499999968346,0.000103011,480.97499999968346,0.0004661699,480.97499999968346,0.0001104685,480.97499999968346,0.0001053116
480.98999999968345,0.0001040542,480.98999999968345,0.0004628256,480.98999999968345,0.0001090596,480.98999999968345,0.0001055706
481.00499999968343,0.0001003904,481.00499999968343,0.0004158423,481.00499999968343,0.0001065068,481.00499999968343,9.707957e-05
481.0199999996834,9.980935e-05,481.0199999996834,0.0003990883,481.0199999996834,0.0001039385,481.0199999996834,9.795208e-05
481.0349999996834,9.960774e-05,481.0349999996834,0.0003808994,481.0349999996834,0.0001028487,481.0349999996834,9.789065e-05
481.0499999996834,9.973875e-05,481.0499999996834,0.0003665429,481.0499999996834,0.0001019692,481.0499999996834,9.987778e-05
481.0649999996834,9.872461e-05,481.0649999996834,0.0003586586,481.0649999996834,0.0001025233,481.0649999996834,0.0001009644
481.07999999968337,9.486541e-05,481.07999999968337,0.0003535258,481.07999999968337,9.993262e-05,481.07999999968337,9.72922e-05
481.09499999968335,8.742078e-05,481.09499999968335,0.0003145677,481.09499999968335,9.147568e-05,481.09499999968335,9.232853e-05
481.10999999968334,8.381864e-05,481.10999999968334,0.0002998713,481.10999999968334,8.990344e-05,481.10999999968334,8.953903e-05
481.1249999996833,8.025809e-05,481.1249999996833,0.0002850207,481.1249999996833,8.699093e-05,481.1249999996833,8.85363e-05
481.1399999996833,7.835917e-05,481.1399999996833,0.0002726848,481.1399999996833,8.715369e-05,481.1399999996833,8.67105e-05
481.1549999996833,6.843187e-05,481.1549999996833,0.0002377425,481.1549999996833,7.758557e-05,481.1549999996833,7.703805e-05
481.1699999996833,6.483719e-05,481.1699999996833,0.0002114255,481.1699999996833,7.428993e-05,481.1699999996833,6.55541e-05
481.18499999968327,6.61605e-05,481.18499999968327,0.0002168003,481.18499999968327,7.336414e-05,481.18499999968327,6.625582e-05
481.19999999968326,6.811143e-05,481.19999999968326,0.0002111092,481.19999999968326,7.042451e-05,481.19999999968326,6.846336e-05
481.21499999968324,7.113878e-05,481.21499999968324,0.000216014,481.21499999968324,7.621908e-05,481.21499999968324,6.92166e-05
481.22999999968323,7.551761e-05,481.22999999968323,0.0002177183,481.22999999968323,7.505395e-05,481.22999999968323,7.598715e-05
481.2449999996832,8.014094e-05,481.2449999996832,0.0002186229,481.2449999996832,7.825754e-05,481.2449999996832,7.674383e-05
481.2599999996832,8.461317e-05,481.2599999996832,0.0002188723,481.2599999996832,7.91528e-05,481.2599999996832,9.588291e-05
481.2749999996832,8.768817e-05,481.2749999996832,0.000221556,481.2749999996832,8.10764e-05,481.2749999996832,9.711134e-05
481.2899999996832,9.014395e-05,481.2899999996832,0.0002166927,481.2899999996832,8.264543e-05,481.2899999996832,9.910385e-05
481.30499999968316,9.531369e-05,481.30499999968316,0.0002262083,481.30499999968316,8.089776e-05,481.30499999968316,0.0001052059
481.31999999968315,9.736457e-05,481.31999999968315,0.0002248957,481.31999999968315,8.264441e-05,481.31999999968315,0.0001073675
481.33499999968313,0.0001020639,481.33499999968313,0.0002212408,481.33499999968313,8.418673e-05,481.33499999968313,0.0001101262
481.3499999996831,0.0001078246,481.3499999996831,0.0002294788,481.3499999996831,8.851848e-05,481.3499999996831,0.0001142215
481.3649999996831,0.0001119312,481.3649999996831,0.0002319599,481.3649999996831,8.809303e-05,481.3649999996831,0.0001183829
481.3799999996831,0.0001153149,481.3799999996831,0.0002281592,481.3799999996831,8.860898e-05,481.3799999996831,0.0001203938
481.3949999996831,0.0001220262,481.3949999996831,0.0002446239,481.3949999996831,9.439696e-05,481.3949999996831,0.0001328182
481.40999999968307,0.0001234531,481.40999999968307,0.0002616664,481.40999999968307,9.597616e-05,481.40999999968307,0.0001377361
481.42499999968305,0.0001277469,481.42499999968305,0.0002608795,481.42499999968305,0.0001018235,481.42499999968305,0.0001438958
481.43999999968304,0.0001280775,481.43999999968304,0.0002629737,481.43999999968304,0.0001034372,481.43999999968304,0.0001453082
481.454999999683,0.0001292353,481.454999999683,0.0002739021,481.454999999683,0.0001074667,481.454999999683,0.000145245
481.469999999683,0.0001302145,481.469999999683,0.0002725517,481.469999999683,0.000105606,481.469999999683,0.0001458571
481.484999999683,0.000127609,481.484999999683,0.0002733009,481.484999999683,0.0001067231,481.484999999683,0.0001455238
481.499999999683,0.0001281337,481.499999999683,0.0002715774,481.499999999683,0.0001098964,481.499999999683,0.0001418577
481.51499999968297,0.0001267003,481.51499999968297,0.0002772045,481.51499999968297,0.0001125639,481.51499999968297,0.000134881
481.52999999968296,0.0001268008,481.52999999968296,0.0002790969,481.52999999968296,0.0001149009,481.52999999968296,0.0001341989
481.54499999968294,0.0001336502,481.54499999968294,0.0002696243,481.54499999968294,0.0001223284,481.54499999968294,0.0001388024
481.55999999968293,0.0001374802,481.55999999968293,0.00026748,481.55999999968293,0.0001249279,481.55999999968293,0.0001378631
481.5749999996829,0.0001325483,481.5749999996829,0.0002638592,481.5749999996829,0.0001250767,481.5749999996829,0.0001341421
481.5899999996829,0.0001706088,481.5899999996829,0.0002796059,481.5899999996829,0.0001490049,481.5899999996829,0.0001618165
481.6049999996829,0.0001900018,481.6049999996829,0.0003049695,481.6049999996829,0.0001693373,481.6049999996829,0.0001657109
481.6199999996829,0.0002081968,481.6199999996829,0.000331495,481.6199999996829,0.0001767855,481.6199999996829,0.0001684384
481.63499999968286,0.0002175783,481.63499999968286,0.0003385551,481.63499999968286,0.0001917403,481.63499999968286,0.0001749554
481.64999999968285,0.0002864566,481.64999999968285,0.0003823189,481.64999999968285,0.0002364712,481.64999999968285,0.0002184758
481.66499999968283,0.0002863149,481.66499999968283,0.0003706295,481.66499999968283,0.0002390346,481.66499999968283,0.0002133353
481.6799999996828,0.0002883449,481.6799999996828,0.0003695517,481.6799999996828,0.0002402941,481.6799999996828,0.0002139193
481.6949999996828,0.0002895798,481.6949999996828,0.0003737145,481.6949999996828,0.0002387455,481.6949999996828,0.0002130281
481.7099999996828,0.0002905572,481.7099999996828,0.0003664905,481.7099999996828,0.0002390338,481.7099999996828,0.0002145954
481.7249999996828,0.0002928438,481.7249999996828,0.0003691255,481.7249999996828,0.000239487,481.7249999996828,0.0002167643
481.73999999968277,0.0002941229,481.73999999968277,0.0003867104,481.73999999968277,0.0002405625,481.73999999968277,0.0002180504
481.75499999968275,0.0002962203,481.75499999968275,0.0003805872,481.75499999968275,0.0002396752,481.75499999968275,0.0002208958
481.76999999968274,0.0003020149,481.76999999968274,0.0004094756,481.76999999968274,0.0002426898,481.76999999968274,0.0002280074
481.7849999996827,0.0003050573,481.7849999996827,0.0004326137,481.7849999996827,0.0002408388,481.7849999996827,0.0002323346
481.7999999996827,0.0003047862,481.7999999996827,0.0004321754,481.7999999996827,0.0002394187,481.7999999996827,0.0002298647
481.8149999996827,0.000306662,481.8149999996827,0.0004354802,481.8149999996827,0.0002385229,481.8149999996827,0.0002351714
481.8299999996827,0.0003079916,481.8299999996827,0.0004389295,481.8299999996827,0.0002372049,481.8299999996827,0.0002367465
481.84499999968267,0.0002940109,481.84499999968267,0.0004318043,481.84499999968267,0.0002247623,481.84499999968267,0.0002223738
481.85999999968266,0.0002740865,481.85999999968266,0.0004006646,481.85999999968266,0.0002060541,481.85999999968266,0.000219826
481.87499999968264,0.0002618633,481.87499999968264,0.00038838,481.87499999968264,0.0001955301,481.87499999968264,0.0002180163
481.88999999968263,0.0002317149,481.88999999968263,0.00037093,481.88999999968263,0.0001554591,481.88999999968263,0.0001929858
481.9049999996826,0.000194423,481.9049999996826,0.000353342,481.9049999996826,0.0001215353,481.9049999996826,0.0001703778
481.9199999996826,0.0001951128,481.9199999996826,0.0003613053,481.9199999996826,0.000118296,481.9199999996826,0.0001735243
481.9349999996826,0.0001974274,481.9349999996826,0.0003575812,481.9349999996826,0.0001201115,481.9349999996826,0.0001740756
481.9499999996826,0.0001937391,481.9499999996826,0.0003504445,481.9499999996826,0.000120402,481.9499999996826,0.0001740833
481.96499999968256,0.0001929923,481.96499999968256,0.0003487776,481.96499999968256,0.0001209289,481.96499999968256,0.000174426
481.97999999968255,0.0001932874,481.97999999968255,0.0003503819,481.97999999968255,0.0001223745,481.97999999968255,0.0001737692
481.99499999968253,0.0001908751,481.99499999968253,0.0003339848,481.99499999968253,0.0001223704,481.99499999968253,0.0001705543
482.0099999996825,0.0001888736,482.0099999996825,0.000328065,482.0099999996825,0.0001259972,482.0099999996825,0.0001675375
482.0249999996825,0.0001841277,482.0249999996825,0.0002975477,482.0249999996825,0.0001289346,482.0249999996825,0.0001644105
482.0399999996825,0.0001792606,482.0399999996825,0.0002617879,482.0399999996825,0.0001349403,482.0399999996825,0.0001559408
482.0549999996825,0.0001764107,482.0549999996825,0.000258327,482.0549999996825,0.0001422648,482.0549999996825,0.0001520192
482.06999999968247,0.0001752518,482.06999999968247,0.0002621088,482.06999999968247,0.0001478201,482.06999999968247,0.0001531007
482.08499999968245,0.0001754035,482.08499999968245,0.0002529972,482.08499999968245,0.000153307,482.08499999968245,0.0001488255
482.09999999968244,0.000172375,482.09999999968244,0.0002496401,482.09999999968244,0.0001551417,482.09999999968244,0.0001456771
482.1149999996824,0.0001729158,482.1149999996824,0.0002461842,482.1149999996824,0.0001594681,482.1149999996824,0.0001453099
482.1299999996824,0.0001694477,482.1299999996824,0.0002210538,482.1299999996824,0.0001612235,482.1299999996824,0.0001437153
482.1449999996824,0.0001706097,482.1449999996824,0.0002239974,482.1449999996824,0.0001672384,482.1449999996824,0.0001447527
482.1599999996824,0.0001716257,482.1599999996824,0.0002288766,482.1599999996824,0.0001703295,482.1599999996824,0.0001438717
482.17499999968237,0.0001720374,482.17499999968237,0.0002145093,482.17499999968237,0.0001742552,482.17499999968237,0.000143688
482.18999999968236,0.0001779253,482.18999999968236,0.00022382,482.18999999968236,0.0001806257,482.18999999968236,0.0001487206
482.20499999968234,0.0001831003,482.20499999968234,0.0002366025,482.20499999968234,0.000184931,482.20499999968234,0.0001527441
482.21999999968233,0.0001849924,482.21999999968233,0.000235434,482.21999999968233,0.0001862966,482.21999999968233,0.0001511733
482.2349999996823,0.0002050121,482.2349999996823,0.0002570059,482.2349999996823,0.0001990451,482.2349999996823,0.0001640425
482.2499999996823,0.0002094871,482.2499999996823,0.0002591791,482.2499999996823,0.0002000503,482.2499999996823,0.000166892
482.2649999996823,0.0002133201,482.2649999996823,0.0002618228,482.2649999996823,0.0002006661,482.2649999996823,0.0001658452
482.2799999996823,0.0002150375,482.2799999996823,0.0002660833,482.2799999996823,0.000200095,482.2799999996823,0.0001689008
482.29499999968226,0.0002259106,482.29499999968226,0.000279813,482.29499999968226,0.0002033919,482.29499999968226,0.0001751306
482.30999999968225,0.0002329367,482.30999999968225,0.0002865003,482.30999999968225,0.0002057556,482.30999999968225,0.0001824994
482.32499999968223,0.0002422372,482.32499999968223,0.0002864576,482.32499999968223,0.0002093754,482.32499999968223,0.0001864603
482.3399999996822,0.0002448156,482.3399999996822,0.0002946861,482.3399999996822,0.0002111097,482.3399999996822,0.0001888135
482.3549999996822,0.0002678993,482.3549999996822,0.0003080039,482.3549999996822,0.0002281498,482.3549999996822,0.0002083698
482.3699999996822,0.0002721995,482.3699999996822,0.0003192185,482.3699999996822,0.0002313485,482.3699999996822,0.0002083432
482.3849999996822,0.0002773455,482.3849999996822,0.0003210581,482.3849999996822,0.0002356097,482.3849999996822,0.0002134579
482.39999999968217,0.0002843793,482.39999999968217,0.0003290918,482.39999999968217,0.0002395044,482.39999999968217,0.0002165216
482.41499999968215,0.0002904835,482.41499999968215,0.0003272644,482.41499999968215,0.0002427,482.41499999968215,0.0002225497
482.42999999968214,0.0002942613,482.42999999968214,0.0003471246,482.42999999968214,0.0002427408,482.42999999968214,0.0002255296
482.4449999996821,0.0002974897,482.4449999996821,0.0003577363,482.4449999996821,0.0002435774,482.4449999996821,0.0002272894
482.4599999996821,0.0003009303,482.4599999996821,0.0003513971,482.4599999996821,0.000245427,482.4599999996821,0.0002269358
482.4749999996821,0.0003090621,482.4749999996821,0.0003815914,482.4749999996821,0.0002509315,482.4749999996821,0.000231009
482.4899999996821,0.0003025844,482.4899999996821,0.0003873555,482.4899999996821,0.0002466715,482.4899999996821,0.0002250129
482.50499999968207,0.0003108029,482.50499999968207,0.0004056482,482.50499999968207,0.0002522786,482.50499999968207,0.000228095
482.51999999968206,0.000315136,482.51999999968206,0.0004239992,482.51999999968206,0.0002543804,482.51999999968206,0.0002306661
482.53499999968204,0.0003226065,482.53499999968204,0.0004624893,482.53499999968204,0.0002602691,482.53499999968204,0.0002338157
482.54999999968203,0.0003226276,482.54999999968203,0.0004728108,482.54999999968203,0.0002597954,482.54999999968203,0.0002341799
482.564999999682,0.0003315565,482.564999999682,0.0004801198,482.564999999682,0.0002665992,482.564999999682,0.0002381497
482.579999999682,0.0003294488,482.579999999682,0.0004933932,482.579999999682,0.0002666163,482.579999999682,0.000238648
482.594999999682,0.0003382201,482.594999999682,0.0005011614,482.594999999682,0.0002752188,482.594999999682,0.0002442219
482.609999999682,0.0003298135,482.609999999682,0.0004973057,482.609999999682,0.0002693267,482.609999999682,0.0002341545
482.62499999968196,0.000341975,482.62499999968196,0.0005037622,482.62499999968196,0.0002791362,482.62499999968196,0.0002451796
482.63999999968195,0.0003436659,482.63999999968195,0.0005084104,482.63999999968195,0.0002792081,482.63999999968195,0.0002446403
482.65499999968193,0.0003551169,482.65499999968193,0.0005129519,482.65499999968193,0.0002891579,482.65499999968193,0.0002530018
482.6699999996819,0.0003617393,482.6699999996819,0.0005193969,482.6699999996819,0.0002973613,482.6699999996819,0.0002581984
482.6849999996819,0.0003746854,482.6849999996819,0.0005205375,482.6849999996819,0.0003095421,482.6849999996819,0.0002672895
482.6999999996819,0.0003844412,482.6999999996819,0.0005201728,482.6999999996819,0.0003196416,482.6999999996819,0.0002774375
482.7149999996819,0.0003959599,482.7149999996819,0.0005352991,482.7149999996819,0.0003320145,482.7149999996819,0.0002878821
482.72999999968187,0.0004023357,482.72999999968187,0.0005185847,482.72999999968187,0.0003384296,482.72999999968187,0.0002954915
482.74499999968185,0.0004143802,482.74499999968185,0.0005130759,482.74499999968185,0.0003493385,482.74499999968185,0.0003060401
482.75999999968184,0.0004204976,482.75999999968184,0.0005211934,482.75999999968184,0.000358504,482.75999999968184,0.0003132333
482.7749999996818,0.0004321212,482.7749999996818,0.0005011865,482.7749999996818,0.0003702848,482.7749999996818,0.0003221361
482.7899999996818,0.0004365104,482.7899999996818,0.0004931292,482.7899999996818,0.0003739765,482.7899999996818,0.0003283311
482.8049999996818,0.0004426301,482.8049999996818,0.0004904567,482.8049999996818,0.0003808858,482.8049999996818,0.0003339761
482.8199999996818,0.0004455192,482.8199999996818,0.0004946303,482.8199999996818,0.000385032,482.8199999996818,0.0003365153
482.83499999968177,0.000450063,482.83499999968177,0.0004958883,482.83499999968177,0.0003841943,482.83499999968177,0.0003427839
482.84999999968176,0.0004512751,482.84999999968176,0.0004992329,482.84999999968176,0.0003865042,482.84999999968176,0.0003420331
482.86499999968174,0.0004532579,482.86499999968174,0.0004962614,482.86499999968174,0.0003843227,482.86499999968174,0.000344461
482.87999999968173,0.0004586192,482.87999999968173,0.0004994125,482.87999999968173,0.0003875009,482.87999999968173,0.0003437724
482.8949999996817,0.0004574731,482.8949999996817,0.0005093621,482.8949999996817,0.0003883248,482.8949999996817,0.0003437032
482.9099999996817,0.0004586807,482.9099999996817,0.0005118254,482.9099999996817,0.0003901047,482.9099999996817,0.0003445809
482.9249999996817,0.0004590022,482.9249999996817,0.0005224642,482.9249999996817,0.0003908939,482.9249999996817,0.000345601
482.9399999996817,0.0004634187,482.9399999996817,0.0005254439,482.9399999996817,0.0003910406,482.9399999996817,0.0003489754
482.95499999968166,0.0004649507,482.95499999968166,0.0005269789,482.95499999968166,0.0003911851,482.95499999968166,0.0003484633
482.96999999968165,0.000467358,482.96999999968165,0.0005352781,482.96999999968165,0.0003944142,482.96999999968165,0.0003491335
482.98499999968163,0.000471009,482.98499999968163,0.0005436796,482.98499999968163,0.0004014003,482.98499999968163,0.000352924
482.9999999996816,0.0004703118,482.9999999996816,0.0005395319,482.9999999996816,0.0004044581,482.9999999996816,0.0003526517
483.0149999996816,0.0004724232,483.0149999996816,0.0005404069,483.0149999996816,0.0004048181,483.0149999996816,0.0003510102
483.0299999996816,0.0004779456,483.0299999996816,0.0005530436,483.0299999996816,0.0004122087,483.0299999996816,0.0003608016
483.0449999996816,0.0004806216,483.0449999996816,0.0005667445,483.0449999996816,0.0004171029,483.0449999996816,0.0003625465
483.05999999968157,0.0004792926,483.05999999968157,0.0005717937,483.05999999968157,0.0004185013,483.05999999968157,0.0003639353
483.07499999968155,0.0004973114,483.07499999968155,0.0006064547,483.07499999968155,0.0004439652,483.07499999968155,0.0003772378
483.08999999968154,0.0004947864,483.08999999968154,0.0006017761,483.08999999968154,0.0004420321,483.08999999968154,0.0003746608
483.1049999996815,0.0004997005,483.1049999996815,0.0006132473,483.1049999996815,0.0004497043,483.1049999996815,0.0003822219
483.1199999996815,0.0005074064,483.1199999996815,0.0006221377,483.1199999996815,0.0004600577,483.1199999996815,0.0003843101
483.1349999996815,0.0005093501,483.1349999996815,0.0006420332,483.1349999996815,0.00046606,483.1349999996815,0.0003863108
483.1499999996815,0.0005111884,483.1499999996815,0.0006427368,483.1499999996815,0.000469285,483.1499999996815,0.0003906145
483.16499999968147,0.0005078315,483.16499999968147,0.0006558997,483.16499999968147,0.0004681706,483.16499999968147,0.0003860719
483.17999999968146,0.0005078573,483.17999999968146,0.0006521947,483.17999999968146,0.0004743068,483.17999999968146,0.000387467
483.19499999968144,0.0005022957,483.19499999968144,0.0006549252,483.19499999968144,0.0004748646,483.19499999968144,0.0003859995
483.20999999968143,0.0004982115,483.20999999968143,0.0006521784,483.20999999968143,0.000473035,483.20999999968143,0.0003812108
483.2249999996814,0.0004914358,483.2249999996814,0.0006409743,483.2249999996814,0.0004658141,483.2249999996814,0.0003785323
483.2399999996814,0.0004857954,483.2399999996814,0.0006416342,483.2399999996814,0.0004593486,483.2399999996814,0.0003722047
483.2549999996814,0.0004821126,483.2549999996814,0.0006486083,483.2549999996814,0.0004555871,483.2549999996814,0.0003697408
483.2699999996814,0.0004743707,483.2699999996814,0.000638416,483.2699999996814,0.0004472177,483.2699999996814,0.0003680944
483.28499999968136,0.000464389,483.28499999968136,0.000637176,483.28499999968136,0.0004343213,483.28499999968136,0.0003566117
483.29999999968135,0.0004561848,483.29999999968135,0.0006146925,483.29999999968135,0.0004312181,483.29999999968135,0.0003505929
483.31499999968133,0.0004424762,483.31499999968133,0.0006180828,483.31499999968133,0.0004137744,483.31499999968133,0.0003451166
483.3299999996813,0.0004326313,483.3299999996813,0.000577452,483.3299999996813,0.0004044733,483.3299999996813,0.000331327
483.3449999996813,0.0004386569,483.3449999996813,0.0005884853,483.3449999996813,0.0004095486,483.3449999996813,0.000333691
483.3599999996813,0.0004275304,483.3599999996813,0.0005691244,483.3599999996813,0.0004012443,483.3599999996813,0.0003249135
483.3749999996813,0.0004245695,483.3749999996813,0.0005670173,483.3749999996813,0.0003983965,483.3749999996813,0.0003258388
483.38999999968127,0.0004130303,483.38999999968127,0.0005399217,483.38999999968127,0.0003917069,483.38999999968127,0.0003195255
483.40499999968125,0.0004122757,483.40499999968125,0.0005456695,483.40499999968125,0.0003942418,483.40499999968125,0.0003190654
483.41999999968124,0.0004101464,483.41999999968124,0.0005411932,483.41999999968124,0.0003875344,483.41999999968124,0.0003162382
483.4349999996812,0.0004110423,483.4349999996812,0.0005235598,483.4349999996812,0.0003823329,483.4349999996812,0.0003181036
483.4499999996812,0.0004053327,483.4499999996812,0.0005517642,483.4499999996812,0.0003802168,483.4499999996812,0.0003145623
483.4649999996812,0.0004040372,483.4649999996812,0.0005462819,483.4649999996812,0.0003846682,483.4649999996812,0.0003156496
483.4799999996812,0.0004011978,483.4799999996812,0.0005406266,483.4799999996812,0.0003805894,483.4799999996812,0.0003106475
483.49499999968117,0.0003995427,483.49499999968117,0.0005475394,483.49499999968117,0.0003850089,483.49499999968117,0.0003085785
483.50999999968116,0.0003996766,483.50999999968116,0.0005295202,483.50999999968116,0.0003904814,483.50999999968116,0.0003048252
483.52499999968114,0.0003943989,483.52499999968114,0.0005312634,483.52499999968114,0.0003970503,483.52499999968114,0.0003010524
483.53999999968113,0.0003978326,483.53999999968113,0.0005235138,483.53999999968113,0.0004047616,483.53999999968113,0.0003046498
483.5549999996811,0.0003908738,483.5549999996811,0.0005239276,483.5549999996811,0.000403968,483.5549999996811,0.0002998052
483.5699999996811,0.0003832905,483.5699999996811,0.00052571,483.5699999996811,0.0004004069,483.5699999996811,0.0002946061
483.5849999996811,0.0003780879,483.5849999996811,0.000518087,483.5849999996811,0.0004005138,483.5849999996811,0.000291692
483.5999999996811,0.0003706699,483.5999999996811,0.0005135676,483.5999999996811,0.0003947346,483.5999999996811,0.0002851009
483.61499999968106,0.0003633536,483.61499999968106,0.0005077294,483.61499999968106,0.0003922735,483.61499999968106,0.0002812482
483.62999999968105,0.0003573861,483.62999999968105,0.0005051037,483.62999999968105,0.000387733,483.62999999968105,0.0002764143
483.64499999968103,0.0003483896,483.64499999968103,0.000488592,483.64499999968103,0.000378237,483.64499999968103,0.0002716001
483.659999999681,0.0003423184,483.659999999681,0.0004741432,483.659999999681,0.000374358,483.659999999681,0.0002686274
483.674999999681,0.0003293003,483.674999999681,0.0004475996,483.674999999681,0.0003672942,483.674999999681,0.0002575473
483.689999999681,0.0003206866,483.689999999681,0.0004361893,483.689999999681,0.0003644301,483.689999999681,0.0002504845
483.704999999681,0.0003173524,483.704999999681,0.0004193742,483.704999999681,0.0003575448,483.704999999681,0.0002520167
483.71999999968097,0.0003233646,483.71999999968097,0.0004181579,483.71999999968097,0.0003623286,483.71999999968097,0.0002587957
483.73499999968095,0.0003073498,483.73499999968095,0.0004090897,483.73499999968095,0.000349099,483.73499999968095,0.0002493928
483.74999999968094,0.0003291563,483.74999999968094,0.0004030243,483.74999999968094,0.0003608513,483.74999999968094,0.0002800896
483.7649999996809,0.0003259523,483.7649999996809,0.0003971977,483.7649999996809,0.0003491565,483.7649999996809,0.0002818981
483.7799999996809,0.0003395843,483.7799999996809,0.0003950458,483.7799999996809,0.0003642943,483.7799999996809,0.0002928639
483.7949999996809,0.0003302954,483.7949999996809,0.0003854591,483.7949999996809,0.0003516419,483.7949999996809,0.0002943018
483.8099999996809,0.0003262675,483.8099999996809,0.0003937615,483.8099999996809,0.0003429077,483.8099999996809,0.0002951823
483.82499999968087,0.0003187553,483.82499999968087,0.0003931474,483.82499999968087,0.0003332884,483.82499999968087,0.0002923834
483.83999999968086,0.0003137461,483.83999999968086,0.0003871818,483.83999999968086,0.0003244351,483.83999999968086,0.0002871955
483.85499999968084,0.0003052751,483.85499999968084,0.0003856218,483.85499999968084,0.0003144644,483.85499999968084,0.0002835421
483.86999999968083,0.0002961403,483.86999999968083,0.0003803312,483.86999999968083,0.0003035528,483.86999999968083,0.0002767955
483.8849999996808,0.0002911141,483.8849999996808,0.0003932926,483.8849999996808,0.0002967923,483.8849999996808,0.0002737802
483.8999999996808,0.0002819387,483.8999999996808,0.0003942634,483.8999999996808,0.0002870542,483.8999999996808,0.000267354
483.9149999996808,0.0002745026,483.9149999996808,0.0003928659,483.9149999996808,0.0002792493,483.9149999996808,0.0002641889
483.9299999996808,0.0002709667,483.9299999996808,0.0004086804,483.9299999996808,0.000273954,483.9299999996808,0.000262883
483.94499999968076,0.0002624293,483.94499999968076,0.0004180637,483.94499999968076,0.000262058,483.94499999968076,0.0002591865
483.95999999968075,0.0002540515,483.95999999968075,0.0004051847,483.95999999968075,0.0002502814,483.95999999968075,0.0002498474
483.97499999968073,0.0002316527,483.97499999968073,0.0003952217,483.97499999968073,0.0002300661,483.97499999968073,0.0002380875
483.9899999996807,0.0002220238,483.9899999996807,0.0003889796,483.9899999996807,0.000214933,483.9899999996807,0.0002284694
484.0049999996807,0.000179761,484.0049999996807,0.0003820179,484.0049999996807,0.0001946342,484.0049999996807,0.0001903786
484.0199999996807,0.0001513528,484.0199999996807,0.0003611233,484.0199999996807,0.0001715518,484.0199999996807,0.0001688583
484.0349999996807,0.0001041397,484.0349999996807,0.0003570482,484.0349999996807,0.0001146301,484.0349999996807,0.0001463954
484.04999999968067,9.211514e-05,484.04999999968067,0.0003362029,484.04999999968067,0.0001037599,484.04999999968067,0.0001190068
484.06499999968065,8.637226e-05,484.06499999968065,0.0003003855,484.06499999968065,0.0001054592,484.06499999968065,0.0001097678
484.07999999968064,8.473445e-05,484.07999999968064,0.0002936902,484.07999999968064,0.000104184,484.07999999968064,0.0001095972
484.0949999996806,7.944059e-05,484.0949999996806,0.0002886084,484.0949999996806,0.000106564,484.0949999996806,0.0001098084
484.1099999996806,8.001323e-05,484.1099999996806,0.0002829769,484.1099999996806,0.0001080596,484.1099999996806,0.0001097047
484.1249999996806,7.959842e-05,484.1249999996806,0.0002671209,484.1249999996806,0.0001102407,484.1249999996806,0.0001053171
484.1399999996806,7.188731e-05,484.1399999996806,0.0002217445,484.1399999996806,0.0001092773,484.1399999996806,9.701803e-05
484.15499999968057,7.251281e-05,484.15499999968057,0.0001972833,484.15499999968057,0.0001164344,484.15499999968057,9.755883e-05
484.16999999968056,7.276124e-05,484.16999999968056,0.0001914254,484.16999999968056,0.000119672,484.16999999968056,9.612356e-05
484.18499999968054,7.056159e-05,484.18499999968054,0.0001388921,484.18499999968054,0.0001238071,484.18499999968054,9.029275e-05
484.19999999968053,7.108787e-05,484.19999999968053,0.0001139147,484.19999999968053,0.0001274232,484.19999999968053,9.006062e-05
484.2149999996805,7.054183e-05,484.2149999996805,0.0001050648,484.2149999996805,0.0001341457,484.2149999996805,8.699611e-05
484.2299999996805,7.69213e-05,484.2299999996805,0.0001037775,484.2299999996805,0.000144342,484.2299999996805,8.394426e-05
484.2449999996805,8.022333e-05,484.2449999996805,0.0001047542,484.2449999996805,0.0001515754,484.2449999996805,9.680144e-05
484.2599999996805,8.036649e-05,484.2599999996805,0.0001051331,484.2599999996805,0.000154744,484.2599999996805,9.598512e-05
484.27499999968046,8.647934e-05,484.27499999968046,0.0001066502,484.27499999968046,0.0001637894,484.27499999968046,9.928861e-05
484.28999999968045,9.375533e-05,484.28999999968045,0.0001078398,484.28999999968045,0.0001768775,484.28999999968045,0.000111024
484.30499999968043,9.179512e-05,484.30499999968043,0.0001071802,484.30499999968043,0.0001795955,484.30499999968043,0.0001113591
484.3199999996804,9.079093e-05,484.3199999996804,0.0001078764,484.3199999996804,0.0001824424,484.3199999996804,0.00011356
484.3349999996804,9.187642e-05,484.3349999996804,0.0001047889,484.3349999996804,0.0001848835,484.3349999996804,0.0001131538
484.3499999996804,9.153295e-05,484.3499999996804,0.0001031133,484.3499999996804,0.0001837575,484.3499999996804,0.0001123017
484.3649999996804,9.145966e-05,484.3649999996804,0.0001005271,484.3649999996804,0.0001852866,484.3649999996804,0.0001104667
484.37999999968036,9.187811e-05,484.37999999968036,9.134223e-05,484.37999999968036,0.000183679,484.37999999968036,0.0001107544
484.39499999968035,9.135364e-05,484.39499999968035,8.714399e-05,484.39499999968035,0.000179968,484.39499999968035,0.0001153025
484.40999999968034,9.242521e-05,484.40999999968034,9.054576e-05,484.40999999968034,0.0001817584,484.40999999968034,0.0001141828
484.4249999996803,9.167412e-05,484.4249999996803,9.145982e-05,484.4249999996803,0.0001776294,484.4249999996803,0.000111945
484.4399999996803,0.0001073968,484.4399999996803,9.437203e-05,484.4399999996803,0.0001848017,484.4399999996803,0.0001138554
484.4549999996803,0.0001102891,484.4549999996803,9.598306e-05,484.4549999996803,0.0001833097,484.4549999996803,0.0001181198
484.4699999996803,0.000114572,484.4699999996803,9.995151e-05,484.4699999996803,0.0001828304,484.4699999996803,0.000122743
484.48499999968027,0.0001327392,484.48499999968027,0.0001123062,484.48499999968027,0.0001802894,484.48499999968027,0.0001297632
484.49999999968026,0.0001650383,484.49999999968026,0.0001282743,484.49999999968026,0.000202189,484.49999999968026,0.0001283472
484.51499999968024,0.0001662432,484.51499999968024,0.0001353149,484.51499999968024,0.0002019843,484.51499999968024,0.0001302968
484.52999999968023,0.0001657986,484.52999999968023,0.000140526,484.52999999968023,0.0001958942,484.52999999968023,0.0001308278
484.5449999996802,0.0001638334,484.5449999996802,0.00014002,484.5449999996802,0.0001863309,484.5449999996802,0.0001221152
484.5599999996802,0.0001621029,484.5599999996802,0.0001395716,484.5599999996802,0.0001835344,484.5599999996802,0.0001213694
484.5749999996802,0.00016211,484.5749999996802,0.0001400421,484.5749999996802,0.0001787576,484.5749999996802,0.0001213943
484.5899999996802,0.0001621912,484.5899999996802,0.0001526867,484.5899999996802,0.000178896,484.5899999996802,0.0001216358
484.60499999968016,0.0001628324,484.60499999968016,0.0001624545,484.60499999968016,0.0001772278,484.60499999968016,0.0001225803
484.61999999968015,0.0001628528,484.61999999968015,0.0001719692,484.61999999968015,0.0001771131,484.61999999968015,0.0001225007
484.63499999968013,0.0001624829,484.63499999968013,0.0001966247,484.63499999968013,0.0001774135,484.63499999968013,0.000122957
484.6499999996801,0.0001627694,484.6499999996801,0.00019837,484.6499999996801,0.000176303,484.6499999996801,0.0001174734
484.6649999996801,0.0001628076,484.6649999996801,0.0002030904,484.6649999996801,0.0001777605,484.6649999996801,0.0001182008
484.6799999996801,0.0001562122,484.6799999996801,0.0002009924,484.6799999996801,0.0001704829,484.6799999996801,0.0001141477
484.6949999996801,0.0001519556,484.6949999996801,0.0002011377,484.6949999996801,0.000168583,484.6949999996801,0.0001140608
484.70999999968006,0.0001492473,484.70999999968006,0.0002026525,484.70999999968006,0.0001666701,484.70999999968006,9.964634e-05
484.72499999968005,0.0001392353,484.72499999968005,0.0002000192,484.72499999968005,0.000158822,484.72499999968005,0.0001004196
484.73999999968004,0.0001236693,484.73999999968004,0.0001954856,484.73999999968004,0.0001526987,484.73999999968004,8.883364e-05
484.75499999968,8.246183e-05,484.75499999968,0.0001876151,484.75499999968,0.0001217192,484.75499999968,7.383249e-05
484.76999999968,8.121614e-05,484.76999999968,0.0001815122,484.76999999968,0.0001213367,484.76999999968,7.248017e-05
484.78499999968,7.947444e-05,484.78499999968,0.0001791491,484.78499999968,0.0001205063,484.78499999968,6.486955e-05
484.79999999968,7.745383e-05,484.79999999968,0.0001791112,484.79999999968,0.0001208887,484.79999999968,6.367506e-05
484.81499999967997,7.712376e-05,484.81499999967997,0.0001792391,484.81499999967997,0.0001178554,484.81499999967997,6.310105e-05
484.82999999967996,7.75932e-05,484.82999999967996,0.0001746528,484.82999999967996,0.000117201,484.82999999967996,6.010058e-05
484.84499999967994,7.369614e-05,484.84499999967994,0.0001580306,484.84499999967994,0.0001141112,484.84499999967994,5.847613e-05
484.8599999996799,7.730273e-05,484.8599999996799,0.0001539693,484.8599999996799,0.0001147703,484.8599999996799,5.929451e-05
484.8749999996799,7.863141e-05,484.8749999996799,0.0001288359,484.8749999996799,0.0001156792,484.8749999996799,5.812409e-05
484.8899999996799,7.770169e-05,484.8899999996799,0.0001120336,484.8899999996799,0.0001108124,484.8899999996799,5.719375e-05
484.9049999996799,7.849137e-05,484.9049999996799,0.0001011322,484.9049999996799,0.0001121825,484.9049999996799,5.639634e-05
484.9199999996799,8.131858e-05,484.9199999996799,9.451596e-05,484.9199999996799,0.000112762,484.9199999996799,5.469568e-05
484.93499999967986,8.593734e-05,484.93499999967986,9.630642e-05,484.93499999967986,0.000111987,484.93499999967986,5.584287e-05
484.94999999967985,8.47519e-05,484.94999999967985,9.382878e-05,484.94999999967985,0.000111948,484.94999999967985,5.503689e-05
484.96499999967983,8.457737e-05,484.96499999967983,8.28191e-05,484.96499999967983,0.0001106912,484.96499999967983,5.445486e-05
484.9799999996798,7.613679e-05,484.9799999996798,8.34334e-05,484.9799999996798,0.0001106626,484.9799999996798,4.996272e-05
484.9949999996798,7.594562e-05,484.9949999996798,7.074283e-05,484.9949999996798,0.0001104004,484.9949999996798,4.915662e-05
485.0099999996798,7.984509e-05,485.0099999996798,6.542591e-05,485.0099999996798,0.0001156607,485.0099999996798,5.467198e-05
485.0249999996798,7.778341e-05,485.0249999996798,6.500231e-05,485.0249999996798,0.0001119217,485.0249999996798,5.240123e-05
485.03999999967976,7.474796e-05,485.03999999967976,6.113423e-05,485.03999999967976,0.0001093876,485.03999999967976,4.793676e-05
485.05499999967975,7.627432e-05,485.05499999967975,6.014299e-05,485.05499999967975,0.0001080863,485.05499999967975,4.817273e-05
485.06999999967974,7.882144e-05,485.06999999967974,6.109966e-05,485.06999999967974,0.000108562,485.06999999967974,4.878151e-05
485.0849999996797,8.429542e-05,485.0849999996797,6.540157e-05,485.0849999996797,0.0001096882,485.0849999996797,4.981985e-05
485.0999999996797,8.857988e-05,485.0999999996797,8.325018e-05,485.0999999996797,0.0001117672,485.0999999996797,5.029263e-05
485.1149999996797,8.779285e-05,485.1149999996797,8.41201e-05,485.1149999996797,0.0001085885,485.1149999996797,5.166377e-05
485.1299999996797,8.690442e-05,485.1299999996797,9.275307e-05,485.1299999996797,0.0001091194,485.1299999996797,5.278852e-05
485.14499999967967,0.0001129458,485.14499999967967,0.0001009217,485.14499999967967,0.0001164972,485.14499999967967,5.794787e-05
485.15999999967966,0.0001257265,485.15999999967966,0.0001040091,485.15999999967966,0.0001203066,485.15999999967966,6.338104e-05
485.17499999967964,0.000130035,485.17499999967964,0.0001037281,485.17499999967964,0.0001222126,485.17499999967964,7.023202e-05
485.1899999996796,0.0001370633,485.1899999996796,0.0001021019,485.1899999996796,0.0001280186,485.1899999996796,7.55357e-05
485.2049999996796,0.0001378892,485.2049999996796,0.0001376818,485.2049999996796,0.0001310106,485.2049999996796,7.683151e-05
485.2199999996796,0.0001420181,485.2199999996796,0.0001843565,485.2199999996796,0.0001335032,485.2199999996796,7.814477e-05
485.2349999996796,0.0001442973,485.2349999996796,0.0001880881,485.2349999996796,0.0001308733,485.2349999996796,7.598419e-05
485.2499999996796,0.0001469315,485.2499999996796,0.0002310786,485.2499999996796,0.0001358665,485.2499999996796,8.003048e-05
485.26499999967956,0.0001458833,485.26499999967956,0.0003062531,485.26499999967956,0.0001315982,485.26499999967956,7.812044e-05
485.27999999967955,0.0001477585,485.27999999967955,0.0003182797,485.27999999967955,0.0001322442,485.27999999967955,7.832555e-05
485.29499999967953,0.0001488295,485.29499999967953,0.0003190198,485.29499999967953,0.0001328444,485.29499999967953,7.969234e-05
485.3099999996795,0.0001485105,485.3099999996795,0.0003310563,485.3099999996795,0.0001350371,485.3099999996795,7.917219e-05
485.3249999996795,0.0001439704,485.3249999996795,0.0003428043,485.3249999996795,0.0001327907,485.3249999996795,7.82714e-05
485.3399999996795,0.0001431137,485.3399999996795,0.0003468846,485.3399999996795,0.0001311525,485.3399999996795,7.877711e-05
485.3549999996795,0.0001415726,485.3549999996795,0.0003517167,485.3549999996795,0.0001311704,485.3549999996795,7.759611e-05
485.36999999967946,0.0001400741,485.36999999967946,0.000352623,485.36999999967946,0.0001313119,485.36999999967946,7.733025e-05
485.38499999967945,0.0001372788,485.38499999967945,0.0003484211,485.38499999967945,0.0001262264,485.38499999967945,7.67719e-05
485.39999999967944,0.0001079272,485.39999999967944,0.0003479897,485.39999999967944,0.0001167325,485.39999999967944,7.04711e-05
485.4149999996794,0.0001028939,485.4149999996794,0.0003588695,485.4149999996794,0.000116687,485.4149999996794,6.973929e-05
485.4299999996794,8.868256e-05,485.4299999996794,0.0003618534,485.4299999996794,0.0001080636,485.4299999996794,6.207109e-05
485.4449999996794,8.874305e-05,485.4449999996794,0.0003608693,485.4449999996794,0.0001064729,485.4449999996794,6.211488e-05
485.4599999996794,8.856366e-05,485.4599999996794,0.0003418298,485.4599999996794,0.000106819,485.4599999996794,6.259989e-05
485.47499999967937,8.155435e-05,485.47499999967937,0.0003290257,485.47499999967937,0.0001036295,485.47499999967937,6.085826e-05
485.48999999967936,7.686634e-05,485.48999999967936,0.0003269982,485.48999999967936,0.0001082758,485.48999999967936,6.137433e-05
485.50499999967934,7.54663e-05,485.50499999967934,0.0002826767,485.50499999967934,0.0001042628,485.50499999967934,5.928857e-05
485.5199999996793,7.205505e-05,485.5199999996793,0.0002174508,485.5199999996793,0.0001036306,485.5199999996793,5.915561e-05
485.5349999996793,6.939546e-05,485.5349999996793,0.0002196347,485.5349999996793,0.0001056612,485.5349999996793,5.92427e-05
485.5499999996793,7.371028e-05,485.5499999996793,0.0002222744,485.5499999996793,0.0001084478,485.5499999996793,6.698047e-05
485.5649999996793,8.060679e-05,485.5649999996793,0.0002146701,485.5649999996793,0.0001079525,485.5649999996793,7.213847e-05
485.5799999996793,8.219644e-05,485.5799999996793,0.0002049951,485.5799999996793,0.0001113295,485.5799999996793,7.220756e-05
485.59499999967926,8.624822e-05,485.59499999967926,0.0001907163,485.59499999967926,0.0001159176,485.59499999967926,7.563876e-05
485.60999999967925,8.539865e-05,485.60999999967925,0.0001834021,485.60999999967925,0.0001153113,485.60999999967925,7.949252e-05
485.62499999967923,8.623989e-05,485.62499999967923,0.0001812098,485.62499999967923,0.0001175235,485.62499999967923,7.914942e-05
485.6399999996792,8.697636e-05,485.6399999996792,0.0001808528,485.6399999996792,0.0001245649,485.6399999996792,7.916063e-05
485.6549999996792,8.30557e-05,485.6549999996792,0.0001712838,485.6549999996792,0.0001246515,485.6549999996792,7.729799e-05
485.6699999996792,8.164826e-05,485.6699999996792,0.0001558251,485.6699999996792,0.000124849,485.6699999996792,7.668892e-05
485.6849999996792,7.868299e-05,485.6849999996792,0.0001503438,485.6849999996792,0.0001258818,485.6849999996792,7.449897e-05
485.69999999967916,7.662184e-05,485.69999999967916,0.0001501402,485.69999999967916,0.0001244963,485.69999999967916,7.33983e-05
485.71499999967915,7.721959e-05,485.71499999967915,0.0001449358,485.71499999967915,0.0001256927,485.71499999967915,7.212559e-05
485.72999999967914,7.769208e-05,485.72999999967914,0.000132351,485.72999999967914,0.0001222332,485.72999999967914,7.167811e-05
485.7449999996791,7.593356e-05,485.7449999996791,0.0001336573,485.7449999996791,0.0001233384,485.7449999996791,7.109203e-05
485.7599999996791,7.65595e-05,485.7599999996791,0.0001332675,485.7599999996791,0.0001195778,485.7599999996791,7.044631e-05
485.7749999996791,7.619967e-05,485.7749999996791,0.0001285154,485.7749999996791,0.0001185934,485.7749999996791,6.988114e-05
485.7899999996791,7.666449e-05,485.7899999996791,0.0001044202,485.7899999996791,0.0001206831,485.7899999996791,7.01664e-05
485.80499999967907,6.878502e-05,485.80499999967907,0.0001151207,485.80499999967907,0.000115268,485.80499999967907,6.154874e-05
485.81999999967906,6.118215e-05,485.81999999967906,0.0001098811,485.81999999967906,0.0001202374,485.81999999967906,5.666199e-05
485.83499999967904,5.866661e-05,485.83499999967904,0.0001378271,485.83499999967904,0.0001182146,485.83499999967904,5.885528e-05
485.849999999679,5.391385e-05,485.849999999679,0.0001420811,485.849999999679,0.0001156922,485.849999999679,5.440957e-05
485.864999999679,6.023263e-05,485.864999999679,0.0001444806,485.864999999679,0.000116746,485.864999999679,5.019843e-05
485.879999999679,6.344657e-05,485.879999999679,0.000163577,485.879999999679,0.0001160425,485.879999999679,5.346255e-05
485.894999999679,7.273161e-05,485.894999999679,0.0002273767,485.894999999679,0.0001115021,485.894999999679,5.476491e-05
485.909999999679,7.693668e-05,485.909999999679,0.000238746,485.909999999679,0.0001090445,485.909999999679,5.525606e-05
485.92499999967896,8.786374e-05,485.92499999967896,0.0002597417,485.92499999967896,0.0001120204,485.92499999967896,6.976211e-05
485.93999999967895,9.802841e-05,485.93999999967895,0.0002979443,485.93999999967895,0.0001157834,485.93999999967895,7.648365e-05
485.95499999967893,9.832485e-05,485.95499999967893,0.0002982715,485.95499999967893,0.000115196,485.95499999967893,7.668433e-05
485.9699999996789,0.0001067026,485.9699999996789,0.000298399,485.9699999996789,0.0001224171,485.9699999996789,9.053534e-05
485.9849999996789,0.0001114686,485.9849999996789,0.0003009251,485.9849999996789,0.0001240792,485.9849999996789,9.806835e-05
485.9999999996789,0.0001123051,485.9999999996789,0.000299546,485.9999999996789,0.0001257757,485.9999999996789,0.0001000308
486.0149999996789,0.0001153658,486.0149999996789,0.0003012292,486.0149999996789,0.0001285089,486.0149999996789,0.0001092398
486.02999999967886,0.0001159571,486.02999999967886,0.0003049497,486.02999999967886,0.000128538,486.02999999967886,0.0001102131
486.04499999967885,0.0001179689,486.04499999967885,0.0003078881,486.04499999967885,0.0001288472,486.04499999967885,0.0001147595
486.05999999967884,0.0001180714,486.05999999967884,0.0003081696,486.05999999967884,0.0001286129,486.05999999967884,0.0001186777
486.0749999996788,0.0001218518,486.0749999996788,0.0003081354,486.0749999996788,0.0001278382,486.0749999996788,0.0001201151
486.0899999996788,0.0001276668,486.0899999996788,0.0003045563,486.0899999996788,0.0001342046,486.0899999996788,0.0001299989
486.1049999996788,0.0001262262,486.1049999996788,0.000303764,486.1049999996788,0.0001313755,486.1049999996788,0.0001348505
486.1199999996788,0.0001267801,486.1199999996788,0.0003053235,486.1199999996788,0.0001320131,486.1199999996788,0.0001358545
486.13499999967877,0.0001236626,486.13499999967877,0.0002876755,486.13499999967877,0.0001296576,486.13499999967877,0.000137299
486.14999999967876,0.0001210968,486.14999999967876,0.0002405801,486.14999999967876,0.0001301833,486.14999999967876,0.0001383047
486.16499999967874,0.0001172757,486.16499999967874,0.0002381724,486.16499999967874,0.0001301895,486.16499999967874,0.0001368914
486.1799999996787,0.0001075681,486.1799999996787,0.0001883401,486.1799999996787,0.0001249212,486.1799999996787,0.0001320939
486.1949999996787,0.0001050691,486.1949999996787,0.0001647137,486.1949999996787,0.0001249452,486.1949999996787,0.0001303953
486.2099999996787,0.000106469,486.2099999996787,0.00016882,486.2099999996787,0.0001228378,486.2099999996787,0.0001329951
486.2249999996787,0.0001013095,486.2249999996787,0.0001650962,486.2249999996787,0.0001205889,486.2249999996787,0.0001261636
486.2399999996787,9.444694e-05,486.2399999996787,0.0001777037,486.2399999996787,0.00011479,486.2399999996787,0.0001192696
486.25499999967866,9.76131e-05,486.25499999967866,0.0001788159,486.25499999967866,0.0001174948,486.25499999967866,0.0001227695
486.26999999967865,9.542521e-05,486.26999999967865,0.0001790065,486.26999999967865,0.0001160415,486.26999999967865,0.0001157955
486.28499999967863,9.684508e-05,486.28499999967863,0.0001676159,486.28499999967863,0.000116284,486.28499999967863,0.0001147264
486.2999999996786,9.915885e-05,486.2999999996786,0.0001622883,486.2999999996786,0.0001144699,486.2999999996786,0.0001153295
486.3149999996786,9.81245e-05,486.3149999996786,0.0001509458,486.3149999996786,0.0001108152,486.3149999996786,0.0001089613
486.3299999996786,9.839946e-05,486.3299999996786,0.0001417134,486.3299999996786,0.0001082193,486.3299999996786,0.0001115679
486.3449999996786,8.832316e-05,486.3449999996786,0.0001356879,486.3449999996786,9.881474e-05,486.3449999996786,9.16964e-05
486.35999999967856,8.71157e-05,486.35999999967856,0.0001293504,486.35999999967856,9.907912e-05,486.35999999967856,9.050328e-05
486.37499999967855,8.369435e-05,486.37499999967855,0.0001265917,486.37499999967855,9.705374e-05,486.37499999967855,8.843314e-05
486.38999999967854,8.152896e-05,486.38999999967854,0.0001261549,486.38999999967854,9.194999e-05,486.38999999967854,8.464779e-05
486.4049999996785,8.117138e-05,486.4049999996785,0.0001266265,486.4049999996785,9.092224e-05,486.4049999996785,8.367146e-05
486.4199999996785,7.947161e-05,486.4199999996785,0.0001282854,486.4199999996785,9.014207e-05,486.4199999996785,8.261321e-05
486.4349999996785,7.8449e-05,486.4349999996785,0.0001257547,486.4349999996785,8.800056e-05,486.4349999996785,8.093867e-05
486.4499999996785,7.704006e-05,486.4499999996785,0.0001264711,486.4499999996785,8.597388e-05,486.4499999996785,8.005177e-05
486.46499999967847,7.585003e-05,486.46499999967847,0.0001193021,486.46499999967847,8.41623e-05,486.46499999967847,7.619709e-05
486.47999999967845,7.374047e-05,486.47999999967845,0.0001162226,486.47999999967845,8.306367e-05,486.47999999967845,7.554782e-05
486.49499999967844,7.006776e-05,486.49499999967844,0.000101337,486.49499999967844,8.211911e-05,486.49499999967844,7.155597e-05
486.5099999996784,6.803073e-05,486.5099999996784,9.166029e-05,486.5099999996784,8.093432e-05,486.5099999996784,6.752653e-05
486.5249999996784,6.613665e-05,486.5249999996784,9.793582e-05,486.5249999996784,7.336164e-05,486.5249999996784,6.694597e-05
486.5399999996784,6.510928e-05,486.5399999996784,9.036168e-05,486.5399999996784,7.433069e-05,486.5399999996784,7.01419e-05
486.5549999996784,6.2515e-05,486.5549999996784,0.0001105854,486.5549999996784,7.534655e-05,486.5549999996784,6.708176e-05
486.5699999996784,6.268759e-05,486.5699999996784,0.0001131339,486.5699999996784,7.765055e-05,486.5699999996784,6.808475e-05
486.58499999967836,5.919679e-05,486.58499999967836,0.0001167639,486.58499999967836,7.818136e-05,486.58499999967836,6.679683e-05
486.59999999967835,6.206542e-05,486.59999999967835,0.0001189516,486.59999999967835,7.796232e-05,486.59999999967835,6.943422e-05
486.61499999967833,6.235413e-05,486.61499999967833,0.000117764,486.61499999967833,7.909921e-05,486.61499999967833,7.068706e-05
486.6299999996783,6.51908e-05,486.6299999996783,0.0001312903,486.6299999996783,8.351811e-05,486.6299999996783,7.327114e-05
486.6449999996783,6.614943e-05,486.6449999996783,0.000133345,486.6449999996783,8.724754e-05,486.6449999996783,7.439434e-05
486.6599999996783,6.862982e-05,486.6599999996783,0.0001379699,486.6599999996783,9.023875e-05,486.6599999996783,7.519796e-05
486.6749999996783,6.918118e-05,486.6749999996783,0.0001365078,486.6749999996783,9.526742e-05,486.6749999996783,7.558604e-05
486.68999999967826,6.92758e-05,486.68999999967826,0.0001361102,486.68999999967826,0.0001012455,486.68999999967826,7.802444e-05
486.70499999967825,6.863372e-05,486.70499999967825,0.0001360052,486.70499999967825,0.0001038405,486.70499999967825,7.9431e-05
486.71999999967824,6.668898e-05,486.71999999967824,0.0001354321,486.71999999967824,0.0001089638,486.71999999967824,8.128982e-05
486.7349999996782,6.9569e-05,486.7349999996782,0.0001363044,486.7349999996782,0.000112007,486.7349999996782,8.3103e-05
486.7499999996782,7.007641e-05,486.7499999996782,0.0001366741,486.7499999996782,0.0001138202,486.7499999996782,8.559965e-05
486.7649999996782,7.837966e-05,486.7649999996782,0.0001423676,486.7649999996782,0.0001260404,486.7649999996782,9.120811e-05
486.7799999996782,8.279477e-05,486.7799999996782,0.000147785,486.7799999996782,0.0001335889,486.7799999996782,9.184314e-05
486.79499999967817,9.218317e-05,486.79499999967817,0.0001509412,486.79499999967817,0.0001432435,486.79499999967817,9.354761e-05
486.80999999967815,9.29403e-05,486.80999999967815,0.0001432362,486.80999999967815,0.0001427657,486.80999999967815,9.564123e-05
486.82499999967814,9.360527e-05,486.82499999967814,0.0001443925,486.82499999967814,0.0001416396,486.82499999967814,9.718021e-05
486.8399999996781,9.188455e-05,486.8399999996781,0.0001387084,486.8399999996781,0.0001417419,486.8399999996781,9.703066e-05
486.8549999996781,9.169977e-05,486.8549999996781,0.0001377032,486.8549999996781,0.0001421533,486.8549999996781,9.635936e-05
486.8699999996781,9.127789e-05,486.8699999996781,0.0001377628,486.8699999996781,0.000140837,486.8699999996781,9.704052e-05
486.8849999996781,8.881953e-05,486.8849999996781,0.0001217332,486.8849999996781,0.0001413216,486.8849999996781,9.234515e-05
486.8999999996781,9.037197e-05,486.8999999996781,0.0001216464,486.8999999996781,0.0001391647,486.8999999996781,9.259773e-05
486.91499999967806,9.177548e-05,486.91499999967806,0.00012074,486.91499999967806,0.0001426481,486.91499999967806,9.529581e-05
486.92999999967805,9.194493e-05,486.92999999967805,0.0001198854,486.92999999967805,0.0001404432,486.92999999967805,9.283626e-05
486.94499999967803,9.705243e-05,486.94499999967803,0.0001212877,486.94499999967803,0.0001401501,486.94499999967803,9.621393e-05
486.959999999678,9.731667e-05,486.959999999678,0.0001223112,486.959999999678,0.0001387937,486.959999999678,9.616326e-05
486.974999999678,9.680507e-05,486.974999999678,0.0001222662,486.974999999678,0.0001346556,486.974999999678,9.302785e-05
486.989999999678,9.906547e-05,486.989999999678,0.0001216257,486.989999999678,0.0001380941,486.989999999678,9.326544e-05
487.004999999678,9.779794e-05,487.004999999678,0.0001203691,487.004999999678,0.0001303978,487.004999999678,9.047417e-05
487.01999999967796,8.884379e-05,487.01999999967796,0.0001086948,487.01999999967796,0.0001257339,487.01999999967796,8.397043e-05
487.03499999967795,8.600517e-05,487.03499999967795,0.0001004412,487.03499999967795,0.0001189902,487.03499999967795,8.059228e-05
487.04999999967794,7.44074e-05,487.04999999967794,9.274107e-05,487.04999999967794,0.000112184,487.04999999967794,7.507891e-05
487.0649999996779,7.331458e-05,487.0649999996779,9.080458e-05,487.0649999996779,0.0001140014,487.0649999996779,7.317438e-05
487.0799999996779,7.286378e-05,487.0799999996779,8.741659e-05,487.0799999996779,0.0001165424,487.0799999996779,7.287229e-05
487.0949999996779,7.247239e-05,487.0949999996779,9.956375e-05,487.0949999996779,0.0001202555,487.0949999996779,7.201221e-05
487.1099999996779,7.313375e-05,487.1099999996779,0.0001089098,487.1099999996779,0.0001198508,487.1099999996779,7.341558e-05
487.12499999967787,7.264034e-05,487.12499999967787,0.0001148127,487.12499999967787,0.0001195411,487.12499999967787,7.317129e-05
487.13999999967785,7.111105e-05,487.13999999967785,0.0001145908,487.13999999967785,0.0001208885,487.13999999967785,7.288968e-05
487.15499999967784,6.953174e-05,487.15499999967784,0.0001124724,487.15499999967784,0.0001166123,487.15499999967784,7.892896e-05
487.1699999996778,6.9637e-05,487.1699999996778,0.0001713362,487.1699999996778,0.0001177226,487.1699999996778,7.904755e-05
487.1849999996778,6.95929e-05,487.1849999996778,0.0007600877,487.1849999996778,0.0001133256,487.1849999996778,8.149076e-05
487.1999999996778,6.435897e-05,487.1999999996778,0.0008416889,487.1999999996778,0.000113813,487.1999999996778,7.865828e-05
487.2149999996778,6.269433e-05,487.2149999996778,0.0008844924,487.2149999996778,0.0001157332,487.2149999996778,7.735811e-05
487.2299999996778,6.035435e-05,487.2299999996778,0.0008887896,487.2299999996778,0.0001161807,487.2299999996778,7.97268e-05
487.24499999967776,5.579416e-05,487.24499999967776,0.0008967516,487.24499999967776,0.0001174833,487.24499999967776,7.915333e-05
487.25999999967775,5.650814e-05,487.25999999967775,0.0009065107,487.25999999967775,0.0001145808,487.25999999967775,8.088157e-05
487.27499999967773,5.672609e-05,487.27499999967773,0.0009209415,487.27499999967773,0.0001153259,487.27499999967773,8.160132e-05
487.2899999996777,5.501513e-05,487.2899999996777,0.0009274241,487.2899999996777,0.0001132903,487.2899999996777,8.207656e-05
487.3049999996777,5.569839e-05,487.3049999996777,0.0009313507,487.3049999996777,0.0001136824,487.3049999996777,8.211054e-05
487.3199999996777,5.349495e-05,487.3199999996777,0.000931732,487.3199999996777,0.0001133173,487.3199999996777,8.264134e-05
487.3349999996777,5.423894e-05,487.3349999996777,0.0009339479,487.3349999996777,0.0001133368,487.3349999996777,8.258592e-05
487.34999999967766,5.314065e-05,487.34999999967766,0.0009334013,487.34999999967766,0.0001132048,487.34999999967766,8.142003e-05
487.36499999967765,5.315656e-05,487.36499999967765,0.000932807,487.36499999967765,0.0001181592,487.36499999967765,8.172172e-05
487.37999999967764,5.401852e-05,487.37999999967764,0.0009334504,487.37999999967764,0.0001186238,487.37999999967764,8.209595e-05
487.3949999996776,5.51057e-05,487.3949999996776,0.0009417526,487.3949999996776,0.0001188672,487.3949999996776,8.247293e-05
487.4099999996776,5.277064e-05,487.4099999996776,0.0009455627,487.4099999996776,0.000121266,487.4099999996776,7.415214e-05
487.4249999996776,5.117393e-05,487.4249999996776,0.000638682,487.4249999996776,0.0001197283,487.4249999996776,7.148565e-05
487.4399999996776,4.677907e-05,487.4399999996776,0.0005482852,487.4399999996776,0.0001244266,487.4399999996776,6.818192e-05
487.45499999967757,4.575547e-05,487.45499999967757,0.000420323,487.45499999967757,0.000123459,487.45499999967757,6.767031e-05
487.46999999967755,4.762898e-05,487.46999999967755,0.0003513913,487.46999999967755,0.0001243907,487.46999999967755,6.971707e-05
487.48499999967754,4.702595e-05,487.48499999967754,0.0003542964,487.48499999967754,0.0001220696,487.48499999967754,6.684974e-05
487.4999999996775,4.784498e-05,487.4999999996775,0.000608284,487.4999999996775,0.0001232386,487.4999999996775,6.88628e-05
487.5149999996775,4.757838e-05,487.5149999996775,0.0007756882,487.5149999996775,0.0001243182,487.5149999996775,6.928291e-05
487.5299999996775,4.636256e-05,487.5299999996775,0.001019563,487.5299999996775,0.000124081,487.5299999996775,7.113165e-05
487.5449999996775,4.618752e-05,487.5449999996775,0.001145685,487.5449999996775,0.0001249679,487.5449999996775,7.63738e-05
487.5599999996775,4.833096e-05,487.5599999996775,0.001204238,487.5599999996775,0.0001263035,487.5599999996775,7.882037e-05
487.57499999967746,5.034638e-05,487.57499999967746,0.001581329,487.57499999967746,0.000133435,487.57499999967746,7.705048e-05
487.58999999967745,5.435958e-05,487.58999999967745,0.001869405,487.58999999967745,0.0001288743,487.58999999967745,8.151565e-05
487.60499999967743,5.642207e-05,487.60499999967743,0.002309761,487.60499999967743,0.000133595,487.60499999967743,8.340587e-05
487.6199999996774,5.912798e-05,487.6199999996774,0.002440307,487.6199999996774,0.0001289615,487.6199999996774,8.158112e-05
487.6349999996774,5.924912e-05,487.6349999996774,0.00256794,487.6349999996774,0.0001290369,487.6349999996774,8.731113e-05
487.6499999996774,5.972344e-05,487.6499999996774,0.002598071,487.6499999996774,0.0001244901,487.6499999996774,9.558009e-05
487.6649999996774,6.10653e-05,487.6649999996774,0.002633986,487.6649999996774,0.0001246112,487.6649999996774,9.943038e-05
487.67999999967736,6.402937e-05,487.67999999967736,0.002645128,487.67999999967736,0.0001220407,487.67999999967736,0.0001023198
487.69499999967735,6.682213e-05,487.69499999967735,0.002671449,487.69499999967735,0.0001186448,487.69499999967735,0.000109319
487.70999999967734,6.74898e-05,487.70999999967734,0.002685977,487.70999999967734,0.000112525,487.70999999967734,0.0001089236
487.7249999996773,6.5759e-05,487.7249999996773,0.002689722,487.7249999996773,0.0001103661,487.7249999996773,0.0001075982
487.7399999996773,7.105219e-05,487.7399999996773,0.002703104,487.7399999996773,0.0001098356,487.7399999996773,0.0001075446
487.7549999996773,7.480711e-05,487.7549999996773,0.002633706,487.7549999996773,0.0001077642,487.7549999996773,0.000112521
487.7699999996773,7.759974e-05,487.7699999996773,0.002615946,487.7699999996773,0.0001058638,487.7699999996773,0.0001097927
487.78499999967727,8.188807e-05,487.78499999967727,0.002516399,487.78499999967727,0.000104173,487.78499999967727,0.0001099275
487.79999999967725,8.233155e-05,487.79999999967725,0.002478321,487.79999999967725,0.0001005633,487.79999999967725,0.000104504
487.81499999967724,8.073897e-05,487.81499999967724,0.002422342,487.81499999967724,9.982487e-05,487.81499999967724,0.0001041474
487.8299999996772,7.658764e-05,487.8299999996772,0.002103804,487.8299999996772,8.903449e-05,487.8299999996772,0.0001032426
487.8449999996772,7.926892e-05,487.8449999996772,0.001853788,487.8449999996772,9.186062e-05,487.8449999996772,0.0001000787
487.8599999996772,7.466273e-05,487.8599999996772,0.00130772,487.8599999996772,8.551947e-05,487.8599999996772,9.909291e-05
487.8749999996772,7.498842e-05,487.8749999996772,0.001156218,487.8749999996772,8.276244e-05,487.8749999996772,9.955144e-05
487.8899999996772,7.7718e-05,487.8899999996772,0.0009852697,487.8899999996772,8.652136e-05,487.8899999996772,9.399813e-05
487.90499999967716,7.912805e-05,487.90499999967716,0.0008989926,487.90499999967716,8.650996e-05,487.90499999967716,8.658841e-05
487.91999999967715,7.918714e-05,487.91999999967715,0.0008572955,487.91999999967715,8.679704e-05,487.91999999967715,8.657442e-05
487.93499999967713,7.94115e-05,487.93499999967713,0.0008284326,487.93499999967713,8.867715e-05,487.93499999967713,8.375913e-05
487.9499999996771,7.950173e-05,487.9499999996771,0.0007550762,487.9499999996771,9.08587e-05,487.9499999996771,7.666449e-05
487.9649999996771,8.278933e-05,487.9649999996771,0.0007456936,487.9649999996771,9.089637e-05,487.9649999996771,7.624643e-05
487.9799999996771,8.185039e-05,487.9799999996771,0.0007191882,487.9799999996771,9.158372e-05,487.9799999996771,7.781365e-05
487.9949999996771,7.892699e-05,487.9949999996771,0.0006639476,487.9949999996771,9.120471e-05,487.9949999996771,7.777653e-05
488.00999999967706,7.639538e-05,488.00999999967706,0.0006500052,488.00999999967706,9.509085e-05,488.00999999967706,6.84226e-05
488.02499999967705,7.314569e-05,488.02499999967705,0.0007529175,488.02499999967705,9.514772e-05,488.02499999967705,6.883968e-05
488.03999999967704,7.221127e-05,488.03999999967704,0.0007526781,488.03999999967704,9.748183e-05,488.03999999967704,6.953032e-05
488.054999999677,7.208788e-05,488.054999999677,0.0007909599,488.054999999677,9.562576e-05,488.054999999677,6.672382e-05
488.069999999677,7.205523e-05,488.069999999677,0.0009316368,488.069999999677,9.54103e-05,488.069999999677,6.666003e-05
488.084999999677,7.26351e-05,488.084999999677,0.0009479602,488.084999999677,9.672982e-05,488.084999999677,6.471214e-05
488.099999999677,7.000924e-05,488.099999999677,0.001072683,488.099999999677,9.460624e-05,488.099999999677,6.362195e-05
488.11499999967697,7.121517e-05,488.11499999967697,0.001372697,488.11499999967697,9.353315e-05,488.11499999967697,6.577121e-05
488.12999999967695,7.209062e-05,488.12999999967695,0.001624574,488.12999999967695,9.332176e-05,488.12999999967695,6.390627e-05
488.14499999967694,6.926116e-05,488.14499999967694,0.00163362,488.14499999967694,8.86824e-05,488.14499999967694,6.145758e-05
488.1599999996769,7.780406e-05,488.1599999996769,0.001703779,488.1599999996769,9.183839e-05,488.1599999996769,6.895806e-05
488.1749999996769,9.524597e-05,488.1749999996769,0.001761369,488.1749999996769,0.0001019909,488.1749999996769,8.096234e-05
488.1899999996769,9.702049e-05,488.1899999996769,0.002155314,488.1899999996769,0.0001013059,488.1899999996769,8.159234e-05
488.2049999996769,0.0001091245,488.2049999996769,0.002393216,488.2049999996769,0.0001104127,488.2049999996769,9.516579e-05
488.2199999996769,0.0001231951,488.2199999996769,0.002624636,488.2199999996769,0.0001164095,488.2199999996769,0.0001000438
488.23499999967686,0.0001235034,488.23499999967686,0.00298738,488.23499999967686,0.0001153708,488.23499999967686,9.984717e-05
488.24999999967685,0.0001239125,488.24999999967685,0.003257886,488.24999999967685,0.0001156179,488.24999999967685,0.0001000612
488.26499999967683,0.0001293291,488.26499999967683,0.003389489,488.26499999967683,0.0001140352,488.26499999967683,0.0001006571
488.2799999996768,0.0001315708,488.2799999996768,0.003601928,488.2799999996768,0.0001142714,488.2799999996768,0.0001005197
488.2949999996768,0.0001306033,488.2949999996768,0.003753577,488.2949999996768,0.000112532,488.2949999996768,9.945772e-05
488.3099999996768,0.0001306808,488.3099999996768,0.00377755,488.3099999996768,0.0001115684,488.3099999996768,9.960265e-05
488.3249999996768,0.0001309599,488.3249999996768,0.003972652,488.3249999996768,0.0001100826,488.3249999996768,9.927442e-05
488.33999999967676,0.0001308012,488.33999999967676,0.004082529,488.33999999967676,0.0001087848,488.33999999967676,0.0001000618
488.35499999967675,0.0001312356,488.35499999967675,0.003979397,488.35499999967675,0.0001086795,488.35499999967675,0.0001027643
488.36999999967674,0.0001306162,488.36999999967674,0.004031528,488.36999999967674,0.000108972,488.36999999967674,0.0001017353
488.3849999996767,0.0001290392,488.3849999996767,0.003974992,488.3849999996767,0.0001075681,488.3849999996767,0.0001019365
488.3999999996767,0.0001292993,488.3999999996767,0.004047068,488.3999999996767,0.0001093805,488.3999999996767,0.0001021143
488.4149999996767,0.0001214261,488.4149999996767,0.004120012,488.4149999996767,0.0001047588,488.4149999996767,0.0001000935
488.4299999996767,0.000110374,488.4299999996767,0.004171503,488.4299999996767,9.859482e-05,488.4299999996767,9.34851e-05
488.44499999967667,0.0001087853,488.44499999967667,0.004183924,488.44499999967667,9.635906e-05,488.44499999967667,8.730243e-05
488.45999999967665,8.802873e-05,488.45999999967665,0.004237959,488.45999999967665,8.328249e-05,488.45999999967665,7.33505e-05
488.47499999967664,8.019189e-05,488.47499999967664,0.004137008,488.47499999967664,8.179581e-05,488.47499999967664,7.253729e-05
488.4899999996766,8.021455e-05,488.4899999996766,0.003924071,488.4899999996766,8.221872e-05,488.4899999996766,7.255477e-05
488.5049999996766,7.910508e-05,488.5049999996766,0.00385362,488.5049999996766,8.413249e-05,488.5049999996766,7.560411e-05
488.5199999996766,7.31582e-05,488.5199999996766,0.003804216,488.5199999996766,8.100078e-05,488.5199999996766,7.535459e-05
488.5349999996766,7.07263e-05,488.5349999996766,0.003760973,488.5349999996766,7.991298e-05,488.5349999996766,7.55838e-05
488.5499999996766,8.305994e-05,488.5499999996766,0.003674978,488.5499999996766,8.371236e-05,488.5499999996766,8.156074e-05
488.56499999967656,9.200864e-05,488.56499999967656,0.003764719,488.56499999967656,9.008783e-05,488.56499999967656,8.941514e-05
488.57999999967655,0.0001237252,488.57999999967655,0.003688379,488.57999999967655,0.0001205699,488.57999999967655,0.0001118434
488.59499999967653,0.0001392343,488.59499999967653,0.003669163,488.59499999967653,0.0001273331,488.59499999967653,0.0001172484
488.6099999996765,0.000156144,488.6099999996765,0.00369807,488.6099999996765,0.0001452287,488.6099999996765,0.0001307514
488.6249999996765,0.0001758935,488.6249999996765,0.003924143,488.6249999996765,0.000162962,488.6249999996765,0.0001423401
488.6399999996765,0.0001789131,488.6399999996765,0.004149862,488.6399999996765,0.0001652175,488.6399999996765,0.0001450689
488.6549999996765,0.0001897413,488.6549999996765,0.004104767,488.6549999996765,0.0001779151,488.6549999996765,0.000159542
488.66999999967646,0.0001929752,488.66999999967646,0.004118519,488.66999999967646,0.0001807764,488.66999999967646,0.0001591892
488.68499999967645,0.0001944801,488.68499999967645,0.004057953,488.68499999967645,0.0001818154,488.68499999967645,0.000162764
488.69999999967644,0.0001959988,488.69999999967644,0.004157663,488.69999999967644,0.0001834713,488.69999999967644,0.0001679601
488.7149999996764,0.0001961776,488.7149999996764,0.00424811,488.7149999996764,0.0001850052,488.7149999996764,0.0001677078
488.7299999996764,0.0001971749,488.7299999996764,0.004291737,488.7299999996764,0.0001861248,488.7299999996764,0.0001692228
488.7449999996764,0.0002014656,488.7449999996764,0.004472334,488.7449999996764,0.0001927243,488.7449999996764,0.0001756822
488.7599999996764,0.0002007316,488.7599999996764,0.004611741,488.7599999996764,0.0001934189,488.7599999996764,0.0001755612
488.77499999967637,0.0002019372,488.77499999967637,0.004556589,488.77499999967637,0.000195083,488.77499999967637,0.0001777472
488.78999999967635,0.0002020096,488.78999999967635,0.004606266,488.78999999967635,0.0002004483,488.78999999967635,0.00017838
488.80499999967634,0.0001974621,488.80499999967634,0.00470476,488.80499999967634,0.0001999938,488.80499999967634,0.0001748408
488.8199999996763,0.0001918133,488.8199999996763,0.004649864,488.8199999996763,0.0001964983,488.8199999996763,0.0001698435
488.8349999996763,0.0001751926,488.8349999996763,0.00456701,488.8349999996763,0.0001868728,488.8349999996763,0.0001590895
488.8499999996763,0.0002141789,488.8499999996763,0.004729487,488.8499999996763,0.0002205285,488.8499999996763,0.0001904642
488.8649999996763,0.0001979769,488.8649999996763,0.00488954,488.8649999996763,0.0002058927,488.8649999996763,0.0001760192
488.8799999996763,0.0001941147,488.8799999996763,0.004961592,488.8799999996763,0.0002124273,488.8799999996763,0.0001787487
488.89499999967626,0.0002176502,488.89499999967626,0.00493992,488.89499999967626,0.0002247272,488.89499999967626,0.0001873569
488.90999999967624,0.0002148265,488.90999999967624,0.004926849,488.90999999967624,0.0002152077,488.90999999967624,0.0001793149
488.92499999967623,0.0002123199,488.92499999967623,0.004950164,488.92499999967623,0.0002151571,488.92499999967623,0.0001786048
488.9399999996762,0.0002114014,488.9399999996762,0.005054467,488.9399999996762,0.0002146065,488.9399999996762,0.00017479
488.9549999996762,0.0002124985,488.9549999996762,0.005059749,488.9549999996762,0.0002134469,488.9549999996762,0.0001725988
488.9699999996762,0.0002118162,488.9699999996762,0.005059748,488.9699999996762,0.0002112777,488.9699999996762,0.0001725145
488.9849999996762,0.0002115257,488.9849999996762,0.005135733,488.9849999996762,0.0002119225,488.9849999996762,0.0001698421
488.99999999967616,0.0002126357,488.99999999967616,0.005018191,488.99999999967616,0.0002102555,488.99999999967616,0.0001674151
489.01499999967615,0.0002144506,489.01499999967615,0.00506305,489.01499999967615,0.0002107056,489.01499999967615,0.0001693629
489.02999999967614,0.0002148983,489.02999999967614,0.005114515,489.02999999967614,0.0002111697,489.02999999967614,0.0001677707
489.0449999996761,0.000216435,489.0449999996761,0.005046301,489.0449999996761,0.0002072955,489.0449999996761,0.0001684149
489.0599999996761,0.0002193393,489.0599999996761,0.004872807,489.0599999996761,0.0002114295,489.0599999996761,0.0001709044
489.0749999996761,0.0002240755,489.0749999996761,0.004677999,489.0749999996761,0.0002118243,489.0749999996761,0.0001729489
489.0899999996761,0.0002075621,489.0899999996761,0.004744423,489.0899999996761,0.0001923858,489.0899999996761,0.0001579736
489.10499999967607,0.0001691627,489.10499999967607,0.004828254,489.10499999967607,0.00016244,489.10499999967607,0.0001259626
489.11999999967605,0.0001664282,489.11999999967605,0.004786548,489.11999999967605,0.0001549971,489.11999999967605,0.000122806
489.13499999967604,0.0001481229,489.13499999967604,0.004642179,489.13499999967604,0.0001320009,489.13499999967604,0.0001066337
489.149999999676,0.0001257018,489.149999999676,0.004478689,489.149999999676,0.0001190145,489.149999999676,9.500045e-05
489.164999999676,0.0001172531,489.164999999676,0.004379888,489.164999999676,0.0001148404,489.164999999676,8.913221e-05
489.179999999676,0.0001158965,489.179999999676,0.004234749,489.179999999676,0.0001120724,489.179999999676,8.852198e-05
489.194999999676,0.0001142534,489.194999999676,0.00403037,489.194999999676,0.0001111502,489.194999999676,8.743915e-05
489.209999999676,0.0001113402,489.209999999676,0.003786855,489.209999999676,0.0001079576,489.209999999676,8.600599e-05
489.22499999967596,0.0001086355,489.22499999967596,0.00349243,489.22499999967596,0.0001059355,489.22499999967596,8.24138e-05
489.23999999967594,0.0001025299,489.23999999967594,0.003272311,489.23999999967594,9.734403e-05,489.23999999967594,8.018469e-05
489.25499999967593,9.681424e-05,489.25499999967593,0.003134568,489.25499999967593,9.044661e-05,489.25499999967593,7.833059e-05
489.2699999996759,9.289815e-05,489.2699999996759,0.002899377,489.2699999996759,8.842644e-05,489.2699999996759,7.251534e-05
489.2849999996759,8.617747e-05,489.2849999996759,0.002612394,489.2849999996759,7.936217e-05,489.2849999996759,6.907256e-05
489.2999999996759,7.905094e-05,489.2999999996759,0.002252431,489.2999999996759,7.473025e-05,489.2999999996759,6.581596e-05
489.3149999996759,4.658898e-05,489.3149999996759,0.001904034,489.3149999996759,4.452468e-05,489.3149999996759,5.103059e-05
489.32999999967586,4.603111e-05,489.32999999967586,0.001820124,489.32999999967586,4.536155e-05,489.32999999967586,4.983653e-05
489.34499999967585,5.109321e-05,489.34499999967585,0.00163627,489.34499999967585,4.906254e-05,489.34499999967585,5.698896e-05
489.35999999967584,5.243724e-05,489.35999999967584,0.001411975,489.35999999967584,4.887383e-05,489.35999999967584,5.847854e-05
489.3749999996758,5.199183e-05,489.3749999996758,0.001262317,489.3749999996758,4.681038e-05,489.3749999996758,5.82224e-05
489.3899999996758,5.089348e-05,489.3899999996758,0.001219217,489.3899999996758,4.660016e-05,489.3899999996758,5.724077e-05
489.4049999996758,5.094632e-05,489.4049999996758,0.001180202,489.4049999996758,4.612191e-05,489.4049999996758,5.992947e-05
489.4199999996758,5.021555e-05,489.4199999996758,0.001125358,489.4199999996758,4.480349e-05,489.4199999996758,5.903833e-05
489.43499999967577,5.013272e-05,489.43499999967577,0.001081969,489.43499999967577,4.529162e-05,489.43499999967577,5.995461e-05
489.44999999967575,5.049948e-05,489.44999999967575,0.00106983,489.44999999967575,4.492249e-05,489.44999999967575,5.969183e-05
489.46499999967574,5.053963e-05,489.46499999967574,0.00107465,489.46499999967574,4.469898e-05,489.46499999967574,5.964697e-05
489.4799999996757,5.069436e-05,489.4799999996757,0.001073502,489.4799999996757,4.411562e-05,489.4799999996757,5.874796e-05
489.4949999996757,4.892625e-05,489.4949999996757,0.001036898,489.4949999996757,4.186485e-05,489.4949999996757,5.657466e-05
489.5099999996757,4.800576e-05,489.5099999996757,0.001046385,489.5099999996757,4.167193e-05,489.5099999996757,5.445201e-05
489.5249999996757,5.003344e-05,489.5249999996757,0.001046093,489.5249999996757,4.303066e-05,489.5249999996757,5.632461e-05
489.5399999996757,5.285786e-05,489.5399999996757,0.001025411,489.5399999996757,4.46056e-05,489.5399999996757,5.839948e-05
489.55499999967566,5.270413e-05,489.55499999967566,0.000993163,489.55499999967566,4.313791e-05,489.55499999967566,5.743805e-05
489.56999999967564,5.265573e-05,489.56999999967564,0.0009679578,489.56999999967564,4.234428e-05,489.56999999967564,5.709515e-05
489.58499999967563,5.247672e-05,489.58499999967563,0.0007019591,489.58499999967563,4.223235e-05,489.58499999967563,5.691277e-05
489.5999999996756,4.684588e-05,489.5999999996756,0.0006824602,489.5999999996756,3.710038e-05,489.5999999996756,4.751972e-05
489.6149999996756,4.310099e-05,489.6149999996756,0.0005999836,489.6149999996756,3.557533e-05,489.6149999996756,4.287948e-05
489.6299999996756,4.227936e-05,489.6299999996756,0.0005048217,489.6299999996756,3.498922e-05,489.6299999996756,4.259404e-05
489.6449999996756,4.152429e-05,489.6449999996756,0.0004591755,489.6449999996756,3.352408e-05,489.6449999996756,3.892908e-05
489.65999999967556,4.096863e-05,489.65999999967556,0.0004515047,489.65999999967556,3.360005e-05,489.65999999967556,3.488398e-05
489.67499999967555,3.997561e-05,489.67499999967555,0.0004480798,489.67499999967555,3.514348e-05,489.67499999967555,3.345046e-05
489.68999999967554,3.959748e-05,489.68999999967554,0.000439605,489.68999999967554,3.507407e-05,489.68999999967554,3.206887e-05
489.7049999996755,3.908401e-05,489.7049999996755,0.0004352836,489.7049999996755,3.588678e-05,489.7049999996755,3.164659e-05
489.7199999996755,3.758137e-05,489.7199999996755,0.000414292,489.7199999996755,3.727992e-05,489.7199999996755,3.086784e-05
489.7349999996755,3.703729e-05,489.7349999996755,0.0004049724,489.7349999996755,3.719101e-05,489.7349999996755,3.176877e-05
489.7499999996755,3.599809e-05,489.7499999996755,0.0003231282,489.7499999996755,3.542415e-05,489.7499999996755,3.12673e-05
489.76499999967547,3.542574e-05,489.76499999967547,0.0002629169,489.76499999967547,3.534372e-05,489.76499999967547,3.194079e-05
489.77999999967545,3.178473e-05,489.77999999967545,0.0002449439,489.77999999967545,3.012648e-05,489.77999999967545,2.319844e-05
489.79499999967544,3.039601e-05,489.79499999967544,0.0002401548,489.79499999967544,3.014378e-05,489.79499999967544,2.228542e-05
489.8099999996754,3.092255e-05,489.8099999996754,0.0002118626,489.8099999996754,2.846567e-05,489.8099999996754,2.235674e-05
489.8249999996754,3.123575e-05,489.8249999996754,0.0001862679,489.8249999996754,2.788976e-05,489.8249999996754,2.257557e-05
489.8399999996754,3.295535e-05,489.8399999996754,0.0001730188,489.8399999996754,2.795433e-05,489.8399999996754,2.282441e-05
489.8549999996754,3.301471e-05,489.8549999996754,0.0001669465,489.8549999996754,2.794828e-05,489.8549999996754,2.29125e-05
489.8699999996754,3.37377e-05,489.8699999996754,0.0001707589,489.8699999996754,2.746067e-05,489.8699999996754,2.298003e-05
489.88499999967536,3.438042e-05,489.88499999967536,0.0001612895,489.88499999967536,2.767579e-05,489.88499999967536,2.229174e-05
489.89999999967534,3.486984e-05,489.89999999967534,0.0001533845,489.89999999967534,2.765033e-05,489.89999999967534,2.14039e-05
489.91499999967533,3.56884e-05,489.91499999967533,0.0001444004,489.91499999967533,2.715321e-05,489.91499999967533,2.15024e-05
489.9299999996753,3.529148e-05,489.9299999996753,0.0001407227,489.9299999996753,2.412946e-05,489.9299999996753,2.135119e-05
489.9449999996753,3.566155e-05,489.9449999996753,0.0001357342,489.9449999996753,2.289159e-05,489.9449999996753,2.093276e-05
489.9599999996753,3.781454e-05,489.9599999996753,0.0001359159,489.9599999996753,2.038107e-05,489.9599999996753,2.08883e-05
489.9749999996753,3.64229e-05,489.9749999996753,0.0001338741,489.9749999996753,1.911714e-05,489.9749999996753,1.945169e-05
489.98999999967526,3.631484e-05,489.98999999967526,0.0001337029,489.98999999967526,1.969924e-05,489.98999999967526,1.957658e-05
490.00499999967525,3.646966e-05,490.00499999967525,0.0001352572,490.00499999967525,2.003602e-05,490.00499999967525,1.924566e-05
490.01999999967524,3.62395e-05,490.01999999967524,0.0001350042,490.01999999967524,1.99423e-05,490.01999999967524,2.041836e-05
490.0349999996752,3.65715e-05,490.0349999996752,0.0001357439,490.0349999996752,1.992958e-05,490.0349999996752,2.340098e-05
490.0499999996752,3.823796e-05,490.0499999996752,0.0001283212,490.0499999996752,1.920976e-05,490.0499999996752,2.438036e-05
490.0649999996752,3.933979e-05,490.0649999996752,0.0001275797,490.0649999996752,2.04487e-05,490.0649999996752,2.715166e-05
490.0799999996752,4.053794e-05,490.0799999996752,0.000114791,490.0799999996752,2.01915e-05,490.0799999996752,2.822863e-05
490.09499999967517,3.898188e-05,490.09499999967517,0.0001215223,490.09499999967517,2.045696e-05,490.09499999967517,2.876252e-05
490.10999999967515,3.843051e-05,490.10999999967515,0.0001194269,490.10999999967515,2.040249e-05,490.10999999967515,2.858813e-05
490.12499999967514,3.904543e-05,490.12499999967514,0.0001194376,490.12499999967514,2.030629e-05,490.12499999967514,2.875175e-05
490.1399999996751,3.874155e-05,490.1399999996751,0.0001240375,490.1399999996751,2.111901e-05,490.1399999996751,2.971595e-05
490.1549999996751,3.864471e-05,490.1549999996751,0.0001243351,490.1549999996751,2.155278e-05,490.1549999996751,3.011853e-05
490.1699999996751,3.830789e-05,490.1699999996751,0.0001228964,490.1699999996751,2.193694e-05,490.1699999996751,3.044001e-05
490.1849999996751,3.894862e-05,490.1849999996751,0.0001214797,490.1849999996751,2.278921e-05,490.1849999996751,3.044001e-05
490.1999999996751,3.811065e-05,490.1999999996751,0.0001198245,490.1999999996751,2.282071e-05,490.1999999996751,3.04525e-05
490.21499999967506,3.704186e-05,490.21499999967506,0.000122895,490.21499999967506,2.196004e-05,490.21499999967506,3.041964e-05
490.22999999967504,3.766224e-05,490.22999999967504,0.0001220842,490.22999999967504,2.169804e-05,490.22999999967504,3.04062e-05
490.24499999967503,3.913012e-05,490.24499999967503,0.0001197903,490.24499999967503,2.156716e-05,490.24499999967503,3.014051e-05
490.259999999675,3.903171e-05,490.259999999675,0.0001202566,490.259999999675,2.211219e-05,490.259999999675,2.97671e-05
490.274999999675,3.917257e-05,490.274999999675,0.0001194012,490.274999999675,2.216818e-05,490.274999999675,2.819917e-05
490.289999999675,3.61975e-05,490.289999999675,0.0001151272,490.289999999675,2.114767e-05,490.289999999675,2.57505e-05
490.304999999675,3.622551e-05,490.304999999675,0.0001140763,490.304999999675,2.167726e-05,490.304999999675,2.430918e-05
490.31999999967496,3.388768e-05,490.31999999967496,0.0001069421,490.31999999967496,1.995077e-05,490.31999999967496,1.973425e-05
490.33499999967495,3.289631e-05,490.33499999967495,0.0001061904,490.33499999967495,1.919362e-05,490.33499999967495,1.830634e-05
490.34999999967494,3.290915e-05,490.34999999967494,8.995685e-05,490.34999999967494,1.871726e-05,490.34999999967494,1.731859e-05
490.3649999996749,3.2217e-05,490.3649999996749,8.355909e-05,490.3649999996749,1.869015e-05,490.3649999996749,1.700587e-05
490.3799999996749,3.282944e-05,490.3799999996749,9.311942e-05,490.3799999996749,1.919215e-05,490.3799999996749,1.819752e-05
490.3949999996749,3.253116e-05,490.3949999996749,9.007079e-05,490.3949999996749,1.852283e-05,490.3949999996749,1.660605e-05
490.4099999996749,3.337415e-05,490.4099999996749,9.869335e-05,490.4099999996749,1.939004e-05,490.4099999996749,1.716582e-05
490.42499999967487,3.366078e-05,490.42499999967487,0.0001132244,490.42499999967487,1.923833e-05,490.42499999967487,1.68419e-05
490.43999999967485,3.234921e-05,490.43999999967485,0.0001198299,490.43999999967485,1.852663e-05,490.43999999967485,1.677065e-05
490.45499999967484,3.242055e-05,490.45499999967484,0.0001187726,490.45499999967484,1.878412e-05,490.45499999967484,1.75304e-05
490.4699999996748,3.36566e-05,490.4699999996748,0.0001615891,490.4699999996748,1.926175e-05,490.4699999996748,1.978985e-05
490.4849999996748,3.2916e-05,490.4849999996748,0.0001702817,490.4849999996748,1.875485e-05,490.4849999996748,1.972854e-05
490.4999999996748,3.18834e-05,490.4999999996748,0.0001789527,490.4999999996748,1.820526e-05,490.4999999996748,1.931142e-05
490.5149999996748,3.139588e-05,490.5149999996748,0.0001829163,490.5149999996748,1.74135e-05,490.5149999996748,1.974638e-05
490.52999999967477,3.198926e-05,490.52999999967477,0.0001846332,490.52999999967477,1.794182e-05,490.52999999967477,2.177387e-05
490.54499999967476,3.170663e-05,490.54499999967476,0.0001848906,490.54499999967476,1.740379e-05,490.54499999967476,2.179844e-05
490.55999999967474,3.171107e-05,490.55999999967474,0.000190375,490.55999999967474,1.672523e-05,490.55999999967474,2.307424e-05
490.57499999967473,3.281399e-05,490.57499999967473,0.0001931645,490.57499999967473,1.656868e-05,490.57499999967473,2.34653e-05
490.5899999996747,3.264484e-05,490.5899999996747,0.0001942788,490.5899999996747,1.721826e-05,490.5899999996747,2.34743e-05
490.6049999996747,3.301514e-05,490.6049999996747,0.0001943709,490.6049999996747,1.737706e-05,490.6049999996747,2.426801e-05
490.6199999996747,3.341676e-05,490.6199999996747,0.000193427,490.6199999996747,1.71272e-05,490.6199999996747,2.492491e-05
490.6349999996747,3.576095e-05,490.6349999996747,0.0001960271,490.6349999996747,2.200618e-05,490.6349999996747,2.731356e-05
490.64999999967466,3.698934e-05,490.64999999967466,0.000196869,490.64999999967466,2.326151e-05,490.64999999967466,2.706332e-05
490.66499999967465,3.755287e-05,490.66499999967465,0.0001917579,490.66499999967465,2.359402e-05,490.66499999967465,2.676182e-05
490.67999999967464,4.001964e-05,490.67999999967464,0.0001839177,490.67999999967464,2.48031e-05,490.67999999967464,2.659921e-05
490.6949999996746,4.02957e-05,490.6949999996746,0.0001786825,490.6949999996746,2.484679e-05,490.6949999996746,2.6806e-05
490.7099999996746,4.001365e-05,490.7099999996746,0.0001749121,490.7099999996746,2.522322e-05,490.7099999996746,2.646594e-05
490.7249999996746,4.040323e-05,490.7249999996746,0.0001333987,490.7249999996746,2.537745e-05,490.7249999996746,2.588581e-05
490.7399999996746,4.037429e-05,490.7399999996746,0.0001274727,490.7399999996746,2.536412e-05,490.7399999996746,2.59217e-05
490.75499999967457,4.059836e-05,490.75499999967457,0.0001115872,490.75499999967457,2.55776e-05,490.75499999967457,2.606424e-05
490.76999999967455,4.114498e-05,490.76999999967455,0.0001064175,490.76999999967455,2.54329e-05,490.76999999967455,2.484736e-05
490.78499999967454,4.056364e-05,490.78499999967454,0.0001070879,490.78499999967454,2.514828e-05,490.78499999967454,2.392249e-05
490.7999999996745,3.978558e-05,490.7999999996745,0.0001054351,490.7999999996745,2.506805e-05,490.7999999996745,2.342925e-05
490.8149999996745,3.89573e-05,490.8149999996745,0.0001016375,490.8149999996745,2.503262e-05,490.8149999996745,2.227594e-05
490.8299999996745,3.98376e-05,490.8299999996745,9.962627e-05,490.8299999996745,2.509108e-05,490.8299999996745,2.22424e-05
490.8449999996745,3.922289e-05,490.8449999996745,9.908054e-05,490.8449999996745,2.445362e-05,490.8449999996745,2.212683e-05
490.85999999967447,3.915567e-05,490.85999999967447,9.966995e-05,490.85999999967447,2.452265e-05,490.85999999967447,2.091862e-05
490.87499999967446,3.797253e-05,490.87499999967446,9.520589e-05,490.87499999967446,2.224873e-05,490.87499999967446,1.708191e-05
490.88999999967444,3.557652e-05,490.88999999967444,9.073878e-05,490.88999999967444,1.827862e-05,490.88999999967444,1.645351e-05
490.90499999967443,3.602625e-05,490.90499999967443,9.013114e-05,490.90499999967443,1.732022e-05,490.90499999967443,1.578497e-05
490.9199999996744,3.429017e-05,490.9199999996744,8.885537e-05,490.9199999996744,1.499505e-05,490.9199999996744,1.522717e-05
490.9349999996744,3.082537e-05,490.9349999996744,8.648651e-05,490.9349999996744,1.390821e-05,490.9349999996744,1.478217e-05
490.9499999996744,3.040342e-05,490.9499999996744,8.747023e-05,490.9499999996744,1.41203e-05,490.9499999996744,1.425533e-05
490.9649999996744,2.993557e-05,490.9649999996744,8.72259e-05,490.9649999996744,1.32654e-05,490.9649999996744,1.302536e-05
490.97999999967436,2.811813e-05,490.97999999967436,8.780762e-05,490.97999999967436,1.243105e-05,490.97999999967436,1.217457e-05
490.99499999967435,2.811863e-05,490.99499999967435,8.793938e-05,490.99499999967435,1.246387e-05,490.99499999967435,1.269677e-05
491.00999999967433,2.875077e-05,491.00999999967433,8.872178e-05,491.00999999967433,1.185805e-05,491.00999999967433,1.315343e-05
491.0249999996743,2.776472e-05,491.0249999996743,8.660582e-05,491.0249999996743,1.20933e-05,491.0249999996743,1.388794e-05
491.0399999996743,2.815318e-05,491.0399999996743,8.580249e-05,491.0399999996743,1.208281e-05,491.0399999996743,1.402722e-05
491.0549999996743,2.758249e-05,491.0549999996743,8.195668e-05,491.0549999996743,1.208165e-05,491.0549999996743,1.399001e-05
491.0699999996743,2.715736e-05,491.0699999996743,7.612476e-05,491.0699999996743,1.216415e-05,491.0699999996743,1.432139e-05
491.08499999967427,2.731924e-05,491.08499999967427,7.342402e-05,491.08499999967427,1.268345e-05,491.08499999967427,1.407133e-05
491.09999999967425,2.737178e-05,491.09999999967425,7.19995e-05,491.09999999967425,1.29342e-05,491.09999999967425,1.398397e-05
491.11499999967424,2.797096e-05,491.11499999967424,7.004906e-05,491.11499999967424,1.253374e-05,491.11499999967424,1.386865e-05
491.1299999996742,2.737024e-05,491.1299999996742,5.093969e-05,491.1299999996742,1.270675e-05,491.1299999996742,1.29342e-05
491.1449999996742,2.684224e-05,491.1449999996742,4.844363e-05,491.1449999996742,1.25831e-05,491.1449999996742,1.249434e-05
491.1599999996742,2.523383e-05,491.1599999996742,4.888737e-05,491.1599999996742,1.258534e-05,491.1599999996742,1.246726e-05
491.1749999996742,2.55313e-05,491.1749999996742,5.021022e-05,491.1749999996742,1.252925e-05,491.1749999996742,1.210494e-05
491.18999999967417,2.6426e-05,491.18999999967417,4.954226e-05,491.18999999967417,1.159618e-05,491.18999999967417,1.262333e-05
491.20499999967416,2.614572e-05,491.20499999967416,4.570187e-05,491.20499999967416,1.153773e-05,491.20499999967416,1.252362e-05
491.21999999967414,2.838042e-05,491.21999999967414,4.66639e-05,491.21999999967414,1.154383e-05,491.21999999967414,1.267567e-05
491.23499999967413,2.848991e-05,491.23499999967413,4.69318e-05,491.23499999967413,1.187822e-05,491.23499999967413,1.25775e-05
491.2499999996741,2.840523e-05,491.2499999996741,5.15524e-05,491.2499999996741,1.192793e-05,491.2499999996741,1.160711e-05
491.2649999996741,2.7633e-05,491.2649999996741,5.418776e-05,491.2649999996741,1.187822e-05,491.2649999996741,1.136179e-05
491.2799999996741,2.708777e-05,491.2799999996741,5.460159e-05,491.2799999996741,1.172304e-05,491.2799999996741,1.04053e-05
491.2949999996741,2.760597e-05,491.2949999996741,5.943167e-05,491.2949999996741,1.172064e-05,491.2949999996741,1.070031e-05
491.30999999967406,2.738979e-05,491.30999999967406,6.37319e-05,491.30999999967406,1.170019e-05,491.30999999967406,1.078815e-05
491.32499999967405,2.648723e-05,491.32499999967405,7.878908e-05,491.32499999967405,1.138161e-05,491.32499999967405,1.057717e-05
491.33999999967403,2.592442e-05,491.33999999967403,7.940529e-05,491.33999999967403,1.074628e-05,491.33999999967403,1.068186e-05
491.354999999674,2.541683e-05,491.354999999674,8.556905e-05,491.354999999674,1.092955e-05,491.354999999674,1.09797e-05
491.369999999674,2.58297e-05,491.369999999674,8.638808e-05,491.369999999674,1.081423e-05,491.369999999674,1.1125e-05
491.384999999674,2.637851e-05,491.384999999674,8.622812e-05,491.384999999674,9.949936e-06,491.384999999674,1.149247e-05
491.399999999674,2.501798e-05,491.399999999674,8.637144e-05,491.399999999674,9.824559e-06,491.399999999674,1.141375e-05
491.41499999967397,2.536524e-05,491.41499999967397,8.558468e-05,491.41499999967397,9.903105e-06,491.41499999967397,1.215024e-05
491.42999999967395,2.594398e-05,491.42999999967395,8.777632e-05,491.42999999967395,1.078684e-05,491.42999999967395,1.26512e-05
491.44499999967394,2.55721e-05,491.44499999967394,8.862678e-05,491.44499999967394,1.093986e-05,491.44499999967394,1.353764e-05
491.4599999996739,2.573299e-05,491.4599999996739,8.886535e-05,491.4599999996739,1.091536e-05,491.4599999996739,1.36475e-05
491.4749999996739,2.474965e-05,491.4749999996739,9.078953e-05,491.4749999996739,1.140264e-05,491.4749999996739,1.417109e-05
491.4899999996739,2.518466e-05,491.4899999996739,9.442143e-05,491.4899999996739,1.213168e-05,491.4899999996739,1.408334e-05
491.5049999996739,2.6697e-05,491.5049999996739,9.53363e-05,491.5049999996739,1.230004e-05,491.5049999996739,1.402822e-05
491.51999999967387,2.86167e-05,491.51999999967387,9.349413e-05,491.51999999967387,1.269455e-05,491.51999999967387,1.394362e-05
491.53499999967386,2.944451e-05,491.53499999967386,0.0001163032,491.53499999967386,1.32367e-05,491.53499999967386,1.414422e-05
491.54999999967384,2.87635e-05,491.54999999967384,0.0001242227,491.54999999967384,1.321326e-05,491.54999999967384,1.391732e-05
491.56499999967383,2.924337e-05,491.56499999967383,0.0001233318,491.56499999967383,1.337222e-05,491.56499999967383,1.438028e-05
491.5799999996738,3.02026e-05,491.5799999996738,0.0001236392,491.5799999996738,1.335747e-05,491.5799999996738,1.466257e-05
491.5949999996738,3.046406e-05,491.5949999996738,0.0001290053,491.5949999996738,1.363717e-05,491.5949999996738,1.61144e-05
491.6099999996738,3.079473e-05,491.6099999996738,0.0001270121,491.6099999996738,1.327283e-05,491.6099999996738,1.604256e-05
491.6249999996738,3.064203e-05,491.6249999996738,0.0001280725,491.6249999996738,1.31962e-05,491.6249999996738,1.710251e-05
491.63999999967376,3.037468e-05,491.63999999967376,0.0001304363,491.63999999967376,1.3209e-05,491.63999999967376,1.725095e-05
491.65499999967375,3.09849e-05,491.65499999967375,0.0001310917,491.65499999967375,1.316841e-05,491.65499999967375,1.71346e-05
491.66999999967373,3.155253e-05,491.66999999967373,0.0001322425,491.66999999967373,1.333847e-05,491.66999999967373,1.715925e-05
491.6849999996737,3.105801e-05,491.6849999996737,0.0001376582,491.6849999996737,1.266567e-05,491.6849999996737,1.686363e-05
491.6999999996737,3.017601e-05,491.6999999996737,0.0001417773,491.6999999996737,1.242198e-05,491.6999999996737,1.588904e-05
491.7149999996737,3.163368e-05,491.7149999996737,0.000188697,491.7149999996737,1.329298e-05,491.7149999996737,1.703897e-05
491.7299999996737,3.419802e-05,491.7299999996737,0.0002150713,491.7299999996737,1.29614e-05,491.7299999996737,1.700835e-05
491.74499999967367,3.337415e-05,491.74499999967367,0.0002130739,491.74499999967367,1.190784e-05,491.74499999967367,1.690451e-05
491.75999999967365,3.17497e-05,491.75999999967365,0.0002232033,491.75999999967365,1.199975e-05,491.75999999967365,1.676729e-05
491.77499999967364,3.227073e-05,491.77499999967364,0.000234399,491.77499999967364,1.175424e-05,491.77499999967364,1.81075e-05
491.7899999996736,3.219644e-05,491.7899999996736,0.0002276094,491.7899999996736,1.138656e-05,491.7899999996736,1.892384e-05
491.8049999996736,3.303647e-05,491.8049999996736,0.0002264041,491.8049999996736,1.132703e-05,491.8049999996736,1.885672e-05
491.8199999996736,3.272199e-05,491.8199999996736,0.0002279553,491.8199999996736,1.176263e-05,491.8199999996736,1.900629e-05
491.8349999996736,3.330148e-05,491.8349999996736,0.0002279956,491.8349999996736,1.289274e-05,491.8349999996736,1.918848e-05
491.84999999967357,3.305778e-05,491.84999999967357,0.0002261128,491.84999999967357,1.28369e-05,491.84999999967357,1.823078e-05
491.86499999967356,3.292884e-05,491.86499999967356,0.0002260849,491.86499999967356,1.320473e-05,491.86499999967356,1.823155e-05
491.87999999967354,3.33167e-05,491.87999999967354,0.000225552,491.87999999967354,1.37175e-05,491.87999999967354,1.719533e-05
491.89499999967353,3.362729e-05,491.89499999967353,0.0002248137,491.89499999967353,1.35116e-05,491.89499999967353,1.720844e-05
491.9099999996735,3.279724e-05,491.9099999996735,0.0002257222,491.9099999996735,1.352307e-05,491.9099999996735,1.747084e-05
491.9249999996735,3.212022e-05,491.9249999996735,0.0002233965,491.9249999996735,1.347297e-05,491.9249999996735,1.689534e-05
491.9399999996735,3.281099e-05,491.9399999996735,0.0002187687,491.9399999996735,1.347088e-05,491.9399999996735,1.701249e-05
491.9549999996735,3.269055e-05,491.9549999996735,0.0002118258,491.9549999996735,1.331733e-05,491.9549999996735,1.679331e-05
491.96999999967346,3.098262e-05,491.96999999967346,0.0001598972,491.96999999967346,1.27134e-05,491.96999999967346,1.581884e-05
491.98499999967345,3.081988e-05,491.98499999967345,0.0001309949,491.98499999967345,1.256741e-05,491.98499999967345,1.566583e-05
491.99999999967343,3.032409e-05,491.99999999967343,0.0001274437,491.99999999967343,1.265677e-05,491.99999999967343,1.574297e-05
492.0149999996734,2.966993e-05,492.0149999996734,0.0001133371,492.0149999996734,1.25135e-05,492.0149999996734,1.55004e-05
492.0299999996734,2.834765e-05,492.0299999996734,0.000103368,492.0299999996734,1.193973e-05,492.0299999996734,1.415916e-05
492.0449999996734,2.825457e-05,492.0449999996734,8.715013e-05,492.0449999996734,1.163499e-05,492.0449999996734,1.312126e-05
492.0599999996734,2.848199e-05,492.0599999996734,9.19175e-05,492.0599999996734,1.182116e-05,492.0599999996734,1.324202e-05
492.07499999967337,2.758045e-05,492.07499999967337,9.447661e-05,492.07499999967337,1.115535e-05,492.07499999967337,1.25562e-05
492.08999999967335,2.86354e-05,492.08999999967335,0.0001019779,492.08999999967335,1.035781e-05,492.08999999967335,1.226104e-05
492.10499999967334,2.861128e-05,492.10499999967334,0.0001544805,492.10499999967334,1.091794e-05,492.10499999967334,1.235945e-05
492.1199999996733,2.836801e-05,492.1199999996733,0.0001681133,492.1199999996733,1.053981e-05,492.1199999996733,1.263449e-05
492.1349999996733,3.037097e-05,492.1349999996733,0.0001711458,492.1349999996733,1.06779e-05,492.1349999996733,1.236856e-05
492.1499999996733,2.999715e-05,492.1499999996733,0.0001814438,492.1499999996733,1.073973e-05,492.1499999996733,1.281384e-05
492.1649999996733,3.042612e-05,492.1649999996733,0.0001914137,492.1649999996733,1.08012e-05,492.1649999996733,1.293855e-05
492.17999999967327,3.01648e-05,492.17999999967327,0.0001984613,492.17999999967327,9.996546e-06,492.17999999967327,1.241063e-05
492.19499999967326,2.902045e-05,492.19499999967326,0.00020104,492.19499999967326,9.93435e-06,492.19499999967326,1.240723e-05
492.20999999967324,2.875224e-05,492.20999999967324,0.0002071344,492.20999999967324,9.874615e-06,492.20999999967324,1.21189e-05
492.22499999967323,2.860242e-05,492.22499999967323,0.0002078645,492.22499999967323,9.699014e-06,492.22499999967323,1.218151e-05
492.2399999996732,2.874489e-05,492.2399999996732,0.000212559,492.2399999996732,9.636359e-06,492.2399999996732,1.229431e-05
492.2549999996732,2.889056e-05,492.2549999996732,0.000214655,492.2549999996732,9.76848e-06,492.2549999996732,1.232064e-05
492.2699999996732,2.922457e-05,492.2699999996732,0.0002158574,492.2699999996732,1.019745e-05,492.2699999996732,1.276206e-05
492.2849999996732,2.952668e-05,492.2849999996732,0.0002137617,492.2849999996732,1.013648e-05,492.2849999996732,1.283141e-05
492.29999999967316,2.95033e-05,492.29999999967316,0.0002121936,492.29999999967316,9.972562e-06,492.29999999967316,1.301454e-05
492.31499999967315,2.999387e-05,492.31499999967315,0.0002103794,492.31499999967315,1.015315e-05,492.31499999967315,1.332579e-05
492.32999999967313,3.00164e-05,492.32999999967313,0.0002066629,492.32999999967313,1.001766e-05,492.32999999967313,1.303401e-05
492.3449999996731,2.88847e-05,492.3449999996731,0.0001958636,492.3449999996731,9.577708e-06,492.3449999996731,1.270121e-05
492.3599999996731,2.900345e-05,492.3599999996731,0.0001538229,492.3599999996731,8.903924e-06,492.3599999996731,1.285445e-05
492.3749999996731,2.929198e-05,492.3749999996731,0.0001459873,492.3749999996731,8.984247e-06,492.3749999996731,1.27764e-05
492.3899999996731,2.719831e-05,492.3899999996731,0.0001490069,492.3899999996731,8.784466e-06,492.3899999996731,1.219307e-05
492.40499999967307,2.690933e-05,492.40499999967307,0.0001457048,492.40499999967307,8.902342e-06,492.40499999967307,1.193973e-05
492.41999999967305,2.608261e-05,492.41999999967305,0.0001299256,492.41999999967305,8.872225e-06,492.41999999967305,1.176383e-05
492.43499999967304,2.715218e-05,492.43499999967304,0.0001383268,492.43499999967304,9.53496e-06,492.43499999967304,1.19786e-05
492.449999999673,2.657483e-05,492.449999999673,0.0001345397,492.449999999673,1.007795e-05,492.449999999673,1.219653e-05
492.464999999673,2.721022e-05,492.464999999673,0.0001417871,492.464999999673,1.018224e-05,492.464999999673,1.257414e-05
492.479999999673,2.691561e-05,492.479999999673,0.0001376348,492.479999999673,1.034147e-05,492.479999999673,1.281274e-05
492.494999999673,2.649733e-05,492.494999999673,0.0001347792,492.494999999673,1.059048e-05,492.494999999673,1.282922e-05
492.50999999967297,2.629346e-05,492.50999999967297,0.0001547069,492.50999999967297,1.063031e-05,492.50999999967297,1.307932e-05
492.52499999967296,2.693026e-05,492.52499999967296,0.0001633121,492.52499999967296,1.065281e-05,492.52499999967296,1.224034e-05
492.53999999967294,2.727486e-05,492.53999999967294,0.0001631861,492.53999999967294,1.092439e-05,492.53999999967294,1.275433e-05
492.55499999967293,2.536246e-05,492.55499999967293,0.000165785,492.55499999967293,1.069372e-05,492.55499999967293,1.199153e-05
492.5699999996729,2.467669e-05,492.5699999996729,0.0001711917,492.5699999996729,1.081032e-05,492.5699999996729,1.215372e-05
492.5849999996729,2.49119e-05,492.5849999996729,0.0001717777,492.5849999996729,1.11136e-05,492.5849999996729,1.217457e-05
492.5999999996729,2.630257e-05,492.5999999996729,0.000173247,492.5999999996729,1.128716e-05,492.5999999996729,1.206298e-05
492.6149999996729,2.666215e-05,492.6149999996729,0.0001916216,492.6149999996729,1.225184e-05,492.6149999996729,1.379941e-05
492.62999999967286,3.102215e-05,492.62999999967286,0.000191479,492.62999999967286,1.296357e-05,492.62999999967286,1.438224e-05
492.64499999967285,3.055824e-05,492.64499999967285,0.0001931888,492.64499999967285,1.289821e-05,492.64499999967285,1.49612e-05
492.65999999967283,3.121138e-05,492.65999999967283,0.0001988664,492.65999999967283,1.411631e-05,492.65999999967283,1.574297e-05
492.6749999996728,3.227292e-05,492.6749999996728,0.0002170163,492.6749999996728,1.497155e-05,492.6749999996728,1.590233e-05
492.6899999996728,3.186219e-05,492.6899999996728,0.0002417558,492.6899999996728,1.462602e-05,492.6899999996728,1.580905e-05
492.7049999996728,3.18834e-05,492.7049999996728,0.0002411417,492.7049999996728,1.474114e-05,492.7049999996728,1.587485e-05
492.7199999996728,3.173505e-05,492.7199999996728,0.0002426865,492.7199999996728,1.559102e-05,492.7199999996728,1.621549e-05
492.73499999967277,3.218638e-05,492.73499999967277,0.0002554689,492.73499999967277,1.549858e-05,492.73499999967277,1.605397e-05
492.74999999967275,3.274222e-05,492.74999999967275,0.0002578164,492.74999999967275,1.533319e-05,492.74999999967275,1.67286e-05
492.76499999967274,3.267892e-05,492.76499999967274,0.0002466578,492.76499999967274,1.524936e-05,492.76499999967274,1.67866e-05
492.7799999996727,3.177586e-05,492.7799999996727,0.0002428048,492.7799999996727,1.51502e-05,492.7799999996727,1.679919e-05
492.7949999996727,3.153556e-05,492.7949999996727,0.0002422489,492.7949999996727,1.51055e-05,492.7949999996727,1.677569e-05
492.8099999996727,3.161185e-05,492.8099999996727,0.0002399022,492.8099999996727,1.484683e-05,492.8099999996727,1.666617e-05
492.8249999996727,3.161542e-05,492.8249999996727,0.000237082,492.8249999996727,1.477073e-05,492.8249999996727,1.651503e-05
492.83999999967267,3.180156e-05,492.83999999967267,0.0002367038,492.83999999967267,1.459034e-05,492.83999999967267,1.64672e-05
492.85499999967266,3.051119e-05,492.85499999967266,0.0002320802,492.85499999967266,1.434105e-05,492.85499999967266,1.651759e-05
492.86999999967264,2.949279e-05,492.86999999967264,0.0002192016,492.86999999967264,1.334481e-05,492.86999999967264,1.526229e-05
492.88499999967263,2.546943e-05,492.88499999967263,0.0002179697,492.88499999967263,1.222998e-05,492.88499999967263,1.455941e-05
492.8999999996726,2.559467e-05,492.8999999996726,0.0002170629,492.8999999996726,1.239928e-05,492.8999999996726,1.499881e-05
492.9149999996726,2.449449e-05,492.9149999996726,0.0002057164,492.9149999996726,1.129215e-05,492.9149999996726,1.438714e-05
492.9299999996726,2.432309e-05,492.9299999996726,0.0001711362,492.9299999996726,1.1207e-05,492.9299999996726,1.411232e-05
492.9449999996726,2.401183e-05,492.9449999996726,0.0001383911,492.9449999996726,1.110599e-05,492.9449999996726,1.435087e-05
492.95999999967256,2.272607e-05,492.95999999967256,0.0001375177,492.95999999967256,1.051171e-05,492.95999999967256,1.424545e-05
492.97499999967255,2.568203e-05,492.97499999967255,0.0001299379,492.97499999967255,1.004575e-05,492.97499999967255,1.454586e-05
492.98999999967253,2.607666e-05,492.98999999967253,0.0001020028,492.98999999967253,1.010865e-05,492.98999999967253,1.460192e-05
493.0049999996725,2.535024e-05,493.0049999996725,8.850479e-05,493.0049999996725,1.007934e-05,493.0049999996725,1.474305e-05
493.0199999996725,2.57915e-05,493.0199999996725,8.957616e-05,493.0199999996725,1.040395e-05,493.0199999996725,1.517528e-05
493.0349999996725,2.617641e-05,493.0349999996725,8.912637e-05,493.0349999996725,1.042424e-05,493.0349999996725,1.51381e-05
493.0499999996725,2.6418e-05,493.0499999996725,8.92988e-05,493.0499999996725,1.049024e-05,493.0499999996725,1.546765e-05
493.06499999967247,2.643239e-05,493.06499999967247,8.904319e-05,493.06499999967247,1.080381e-05,493.06499999967247,1.542844e-05
493.07999999967245,2.636409e-05,493.07999999967245,8.961892e-05,493.07999999967245,1.086232e-05,493.07999999967245,1.560637e-05
493.09499999967244,2.562712e-05,493.09499999967244,9.322375e-05,493.09499999967244,1.082465e-05,493.09499999967244,1.557565e-05
493.1099999996724,2.64212e-05,493.1099999996724,9.169256e-05,493.1099999996724,1.104366e-05,493.1099999996724,1.539462e-05
493.1249999996724,2.624574e-05,493.1249999996724,9.083514e-05,493.1249999996724,1.107042e-05,493.1249999996724,1.488852e-05
493.1399999996724,2.561448e-05,493.1399999996724,9.097444e-05,493.1399999996724,1.072792e-05,493.1399999996724,1.480598e-05
493.1549999996724,2.54063e-05,493.1549999996724,8.673535e-05,493.1549999996724,1.041883e-05,493.1549999996724,1.41691e-05
493.16999999967237,2.559907e-05,493.16999999967237,7.819721e-05,493.16999999967237,9.275854e-06,493.16999999967237,1.378307e-05
493.18499999967236,2.560512e-05,493.18499999967236,7.734445e-05,493.18499999967236,8.69096e-06,493.18499999967236,1.386865e-05
493.19999999967234,2.529182e-05,493.19999999967234,7.330747e-05,493.19999999967234,8.800488e-06,493.19999999967234,1.368152e-05
493.21499999967233,2.535746e-05,493.21499999967233,6.733579e-05,493.21499999967233,9.077836e-06,493.21499999967233,1.317269e-05
493.2299999996723,2.238633e-05,493.2299999996723,6.378117e-05,493.2299999996723,9.034282e-06,493.2299999996723,1.251687e-05
493.2449999996723,2.367389e-05,493.2449999996723,7.415119e-05,493.2449999996723,9.589467e-06,493.2449999996723,1.251237e-05
493.2599999996723,2.404993e-05,493.2599999996723,7.609127e-05,493.2599999996723,9.526091e-06,493.2599999996723,1.135311e-05
493.2749999996723,2.422559e-05,493.2749999996723,8.049819e-05,493.2749999996723,9.430977e-06,493.2749999996723,1.106787e-05
493.28999999967226,2.468697e-05,493.28999999967226,8.465012e-05,493.28999999967226,9.301635e-06,493.28999999967226,1.091794e-05
493.30499999967225,2.34971e-05,493.30499999967225,8.503084e-05,493.30499999967225,9.013988e-06,493.30499999967225,1.058382e-05
493.31999999967223,2.353843e-05,493.31999999967223,9.285507e-05,493.31999999967223,8.729774e-06,493.31999999967223,1.065016e-05
493.3349999996722,2.380561e-05,493.3349999996722,0.0001013486,493.3349999996722,8.974835e-06,493.3349999996722,1.105386e-05
493.3499999996722,2.483829e-05,493.3499999996722,0.0001063472,493.3499999996722,9.136613e-06,493.3499999996722,1.206531e-05
493.3649999996722,2.455996e-05,493.3649999996722,0.000112411,493.3649999996722,9.046747e-06,493.3649999996722,1.249096e-05
493.3799999996722,2.552412e-05,493.3799999996722,0.0001188339,493.3799999996722,9.224075e-06,493.3799999996722,1.432729e-05
493.39499999967217,2.674234e-05,493.39499999967217,0.0001195917,493.39499999967217,1.03442e-05,493.39499999967217,1.499881e-05
493.40999999967215,2.729447e-05,493.40999999967215,0.0001214092,493.40999999967215,1.125466e-05,493.40999999967215,1.52281e-05
