X[s],a: EMG RMS 1-1,X[s].1,a: EMG RMS 1-2,X[s].2,a: EMG RMS 1-3,X[s].3,a: EMG RMS 1-4
274.0049999998717,8.365563e-06,274.0049999998717,1.236629e-05,274.0049999998717,1.252137e-05,274.0049999998717,4.415424e-06
274.0199999998717,8.046266e-06,274.0199999998717,1.143225e-05,274.0199999998717,1.249322e-05,274.0199999998717,4.328428e-06
274.0349999998717,8.088174e-06,274.0349999998717,1.136551e-05,274.0349999998717,1.162167e-05,274.0349999998717,4.299038e-06
274.04999999987166,8.103833e-06,274.04999999987166,1.178536e-05,274.04999999987166,1.072398e-05,274.04999999987166,4.525708e-06
274.06499999987165,8.077717e-06,274.06499999987165,1.193383e-05,274.06499999987165,1.169055e-05,274.06499999987165,4.723696e-06
274.07999999987163,7.904969e-06,274.07999999987163,1.188771e-05,274.07999999987163,1.17038e-05,274.07999999987163,4.905105e-06
274.0949999998716,8.075974e-06,274.0949999998716,1.186992e-05,274.0949999998716,1.183664e-05,274.0949999998716,4.887844e-06
274.1099999998716,9.931514e-06,274.1099999998716,1.147406e-05,274.1099999998716,1.164588e-05,274.1099999998716,4.965048e-06
274.1249999998716,1.271451e-05,274.1249999998716,1.182712e-05,274.1249999998716,1.137171e-05,274.1249999998716,4.990517e-06
274.1399999998716,1.385748e-05,274.1399999998716,1.144702e-05,274.1399999998716,1.055584e-05,274.1399999998716,5.102175e-06
274.15499999987156,1.41492e-05,274.15499999987156,1.131583e-05,274.15499999987156,1.027999e-05,274.15499999987156,5.159829e-06
274.16999999987155,1.416512e-05,274.16999999987155,1.135559e-05,274.16999999987155,1.027177e-05,274.16999999987155,5.135199e-06
274.18499999987154,1.404127e-05,274.18499999987154,1.193973e-05,274.18499999987154,1.067131e-05,274.18499999987154,5.085583e-06
274.1999999998715,1.451095e-05,274.1999999998715,1.201266e-05,274.1999999998715,1.157916e-05,274.1999999998715,5.137942e-06
274.2149999998715,1.477455e-05,274.2149999998715,1.237995e-05,274.2149999998715,1.060244e-05,274.2149999998715,5.192486e-06
274.2299999998715,1.464527e-05,274.2299999998715,1.211309e-05,274.2299999998715,1.032375e-05,274.2299999998715,5.415577e-06
274.2449999998715,1.507469e-05,274.2449999998715,1.216183e-05,274.2449999998715,9.830293e-06,274.2449999998715,5.441526e-06
274.25999999987147,1.513717e-05,274.25999999987147,1.190665e-05,274.25999999987147,1.018777e-05,274.25999999987147,5.428567e-06
274.27499999987145,1.531113e-05,274.27499999987145,1.208048e-05,274.27499999987145,1.030326e-05,274.27499999987145,5.449287e-06
274.28999999987144,1.530837e-05,274.28999999987144,1.208398e-05,274.28999999987144,1.029916e-05,274.28999999987144,5.331691e-06
274.3049999998714,1.526875e-05,274.3049999998714,1.168453e-05,274.3049999998714,1.040936e-05,274.3049999998714,5.159829e-06
274.3199999998714,1.513717e-05,274.3199999998714,1.172785e-05,274.3199999998714,9.30012e-06,274.3199999998714,5.115961e-06
274.3349999998714,1.507843e-05,274.3349999998714,1.154627e-05,274.3349999998714,9.383058e-06,274.3349999998714,4.970719e-06
274.3499999998714,1.481264e-05,274.3499999998714,1.198213e-05,274.3499999998714,9.853194e-06,274.3499999998714,4.956529e-06
274.3649999998714,1.180089e-05,274.3649999998714,1.183069e-05,274.3649999998714,9.910215e-06,274.3649999998714,4.919443e-06
274.37999999987136,1.091665e-05,274.37999999987136,1.217457e-05,274.37999999987136,1.029643e-05,274.37999999987136,4.744526e-06
274.39499999987135,9.571822e-06,274.39499999987135,1.24469e-05,274.39499999987135,1.040665e-05,274.39499999987135,4.768218e-06
274.40999999987133,9.343943e-06,274.40999999987133,1.254722e-05,274.40999999987133,1.153773e-05,274.40999999987133,4.850233e-06
274.4249999998713,9.691749e-06,274.4249999998713,1.268345e-05,274.4249999998713,1.138904e-05,274.4249999998713,4.803539e-06
274.4399999998713,9.573294e-06,274.4399999998713,1.219076e-05,274.4399999998713,1.041748e-05,274.4399999998713,4.870521e-06
274.4549999998713,8.797286e-06,274.4549999998713,1.204896e-05,274.4549999998713,1.029506e-05,274.4549999998713,4.939447e-06
274.4699999998713,8.54384e-06,274.4699999998713,1.153895e-05,274.4699999998713,1.047143e-05,274.4699999998713,4.907976e-06
274.48499999987126,7.671647e-06,274.48499999987126,1.150349e-05,274.48499999987126,1.040665e-05,274.48499999987126,4.953686e-06
274.49999999987125,7.951166e-06,274.49999999987125,1.152062e-05,274.49999999987125,1.102962e-05,274.49999999987125,4.982041e-06
274.51499999987124,7.854914e-06,274.51499999987124,1.175304e-05,274.51499999987124,1.108949e-05,274.51499999987124,5.049445e-06
274.5299999998712,7.881768e-06,274.5299999998712,1.117427e-05,274.5299999998712,1.105259e-05,274.5299999998712,5.392116e-06
274.5449999998712,7.788277e-06,274.5449999998712,1.102835e-05,274.5449999998712,1.153529e-05,274.5449999998712,5.446701e-06
274.5599999998712,7.804539e-06,274.5599999998712,1.091278e-05,274.5599999998712,1.146178e-05,274.5599999998712,5.454455e-06
274.5749999998712,7.97593e-06,274.5749999998712,1.092181e-05,274.5749999998712,1.221846e-05,274.5749999998712,5.344885e-06
274.58999999987117,8.176516e-06,274.58999999987117,1.071346e-05,274.58999999987117,1.208631e-05,274.58999999987117,5.363302e-06
274.60499999987115,8.236593e-06,274.60499999987115,1.046335e-05,274.60499999987115,1.175065e-05,274.60499999987115,5.467352e-06
274.61999999987114,8.612809e-06,274.61999999987114,1.019192e-05,274.61999999987114,1.220115e-05,274.61999999987114,5.518642e-06
274.6349999998711,8.779654e-06,274.6349999998711,9.457824e-06,274.6349999998711,1.20933e-05,274.6349999998711,5.659781e-06
274.6499999998711,8.694202e-06,274.6499999998711,9.289512e-06,274.6499999998711,1.169176e-05,274.6499999998711,5.632336e-06
274.6649999998711,7.979462e-06,274.6649999998711,9.230183e-06,274.6649999998711,1.160468e-05,274.6649999998711,5.589657e-06
274.6799999998711,8.007658e-06,274.6799999998711,9.34545e-06,274.6799999998711,1.187704e-05,274.6799999998711,5.587136e-06
274.6949999998711,8.34702e-06,274.6949999998711,9.164322e-06,274.6949999998711,1.182474e-05,274.6949999998711,5.462197e-06
274.70999999987106,8.519072e-06,274.70999999987106,9.29406e-06,274.70999999987106,1.179492e-05,274.70999999987106,5.397339e-06
274.72499999987105,8.469321e-06,274.72499999987105,9.514254e-06,274.72499999987105,1.182116e-05,274.72499999987105,5.243778e-06
274.73999999987103,8.390783e-06,274.73999999987103,9.43695e-06,274.73999999987103,1.129963e-05,274.73999999987103,5.162558e-06
274.754999999871,7.928101e-06,274.754999999871,9.334893e-06,274.754999999871,1.094372e-05,274.754999999871,5.162558e-06
274.769999999871,7.553216e-06,274.769999999871,1.023192e-05,274.769999999871,1.138161e-05,274.769999999871,5.055022e-06
274.784999999871,7.940529e-06,274.784999999871,1.089728e-05,274.784999999871,1.211425e-05,274.784999999871,5.151632e-06
274.799999999871,8.021719e-06,274.799999999871,1.085454e-05,274.799999999871,1.164225e-05,274.799999999871,5.124215e-06
274.81499999987096,7.851327e-06,274.81499999987096,1.097585e-05,274.81499999987096,1.150716e-05,274.81499999987096,5.262549e-06
274.82999999987095,7.804539e-06,274.82999999987095,1.106278e-05,274.82999999987095,1.060244e-05,274.82999999987095,5.137942e-06
274.84499999987094,7.68449e-06,274.84499999987094,1.11174e-05,274.84499999987094,1.041207e-05,274.84499999987094,5.487926e-06
274.8599999998709,7.944076e-06,274.8599999998709,1.152307e-05,274.8599999998709,1.096686e-05,274.8599999998709,5.428567e-06
274.8749999998709,7.506446e-06,274.8749999998709,1.22173e-05,274.8749999998709,1.044179e-05,274.8749999998709,5.329048e-06
274.8899999998709,7.48201e-06,274.8899999998709,1.327389e-05,274.8899999998709,1.064222e-05,274.8899999998709,5.394728e-06
274.9049999998709,7.519571e-06,274.9049999998709,1.323351e-05,274.9049999998709,1.059048e-05,274.9049999998709,5.365928e-06
274.91999999987087,7.370092e-06,274.91999999987087,1.318017e-05,274.91999999987087,9.922999e-06,274.91999999987087,5.457037e-06
274.93499999987085,7.28164e-06,274.93499999987085,1.310622e-05,274.93499999987085,1.040259e-05,274.93499999987085,5.679657e-06
274.94999999987084,1.044988e-05,274.94999999987084,1.31652e-05,274.94999999987084,1.069899e-05,274.94999999987084,5.657291e-06
274.9649999998708,1.178536e-05,274.9649999998708,1.279293e-05,274.9649999998708,1.073448e-05,274.9649999998708,5.642331e-06
274.9799999998708,1.261999e-05,274.9799999998708,1.275323e-05,274.9799999998708,1.06581e-05,274.9799999998708,5.682137e-06
274.9949999998708,1.281823e-05,274.9949999998708,1.297877e-05,274.9949999998708,1.073711e-05,274.9949999998708,5.719203e-06
275.0099999998708,1.282812e-05,275.0099999998708,1.296574e-05,275.0099999998708,1.053714e-05,275.0099999998708,5.8867e-06
275.0249999998708,1.272226e-05,275.0249999998708,1.20933e-05,275.0249999998708,1.000359e-05,275.0249999998708,5.850696e-06
275.03999999987076,1.253262e-05,275.03999999987076,1.184973e-05,275.03999999987076,9.502402e-06,275.03999999987076,5.592176e-06
275.05499999987074,1.245708e-05,275.05499999987074,1.236401e-05,275.05499999987074,9.587998e-06,275.05499999987074,5.574516e-06
275.06999999987073,1.265231e-05,275.06999999987073,1.215024e-05,275.06999999987073,9.911636e-06,275.06999999987073,5.594695e-06
275.0849999998707,1.307286e-05,275.0849999998707,1.210262e-05,275.0849999998707,1.00961e-05,275.0849999998707,5.469929e-06
275.0999999998707,1.324415e-05,275.0999999998707,1.21282e-05,275.0999999998707,1.214329e-05,275.0999999998707,5.310512e-06
275.1149999998707,1.327708e-05,275.1149999998707,1.224264e-05,275.1149999998707,1.197743e-05,275.1149999998707,5.286585e-06
275.1299999998707,1.343318e-05,275.1299999998707,1.127717e-05,275.1299999998707,1.198096e-05,275.1299999998707,5.305204e-06
275.14499999987066,1.340379e-05,275.14499999987066,1.020021e-05,275.14499999987066,1.174105e-05,275.14499999987066,5.216845e-06
275.15999999987065,1.335008e-05,275.15999999987065,1.040124e-05,275.15999999987065,1.182831e-05,275.15999999987065,5.032679e-06
275.17499999987064,1.332368e-05,275.17499999987064,1.044583e-05,275.17499999987064,1.233778e-05,275.17499999987064,5.027078e-06
275.1899999998706,1.282043e-05,275.1899999998706,1.060377e-05,275.1899999998706,1.162651e-05,275.1899999998706,4.633369e-06
275.2049999998706,9.74827e-06,275.2049999998706,1.082335e-05,275.2049999998706,1.16797e-05,275.2049999998706,4.717728e-06
275.2199999998706,9.062304e-06,275.2199999998706,1.100661e-05,275.2199999998706,1.1896e-05,275.2199999998706,4.702775e-06
275.2349999998706,8.570179e-06,275.2349999998706,1.087269e-05,275.2349999998706,1.194681e-05,275.2349999998706,4.516361e-06
275.24999999987057,8.891258e-06,275.24999999987057,1.096943e-05,275.24999999987057,1.25135e-05,275.24999999987057,4.409039e-06
275.26499999987055,9.004607e-06,275.26499999987055,1.081684e-05,275.26499999987055,1.288837e-05,275.26499999987055,4.226336e-06
275.27999999987054,9.804465e-06,275.27999999987054,1.121328e-05,275.27999999987054,1.2884e-05,275.27999999987054,4.148967e-06
275.2949999998705,9.774246e-06,275.2949999998705,1.079337e-05,275.2949999998705,1.273554e-05,275.2949999998705,4.219664e-06
275.3099999998705,9.478654e-06,275.3099999998705,1.079468e-05,275.3099999998705,1.276206e-05,275.3099999998705,4.325173e-06
275.3249999998705,9.49202e-06,275.3249999998705,1.188415e-05,275.3249999998705,1.289274e-05,275.3249999998705,4.405843e-06
275.3399999998705,8.899176e-06,275.3399999998705,1.172905e-05,275.3399999998705,1.286869e-05,275.3399999998705,4.440873e-06
275.3549999998705,8.591521e-06,275.3549999998705,1.128342e-05,275.3549999998705,1.156577e-05,275.3549999998705,4.654602e-06
275.36999999987046,8.451005e-06,275.36999999987046,1.134194e-05,275.36999999987046,1.147897e-05,275.36999999987046,4.68176e-06
275.38499999987044,8.202317e-06,275.38499999987044,1.149982e-05,275.38499999987044,1.159618e-05,275.38499999987044,4.666692e-06
275.39999999987043,8.45767e-06,275.39999999987043,1.160954e-05,275.39999999987043,1.171944e-05,275.39999999987043,4.768218e-06
275.4149999998704,8.851561e-06,275.4149999998704,1.145809e-05,275.4149999998704,1.157186e-05,275.4149999998704,4.876302e-06
275.4299999998704,8.883333e-06,275.4299999998704,1.14421e-05,275.4299999998704,1.164104e-05,275.4299999998704,4.919443e-06
275.4449999998704,8.797286e-06,275.4449999998704,1.133697e-05,275.4449999998704,1.169417e-05,275.4449999998704,4.962209e-06
275.4599999998704,8.645458e-06,275.4599999998704,1.124966e-05,275.4599999998704,1.150716e-05,275.4599999998704,4.905105e-06
275.47499999987036,8.449338e-06,275.47499999987036,1.13878e-05,275.47499999987036,1.146055e-05,275.47499999987036,4.942298e-06
275.48999999987035,8.253678e-06,275.48999999987035,1.158646e-05,275.48999999987035,1.199623e-05,275.48999999987035,4.950841e-06
275.50499999987034,7.815361e-06,275.50499999987034,1.127967e-05,275.50499999987034,1.193501e-05,275.50499999987034,5.278585e-06
275.5199999998703,7.037669e-06,275.5199999998703,1.132951e-05,275.5199999998703,1.165676e-05,275.5199999998703,5.305204e-06
275.5349999998703,6.867475e-06,275.5349999998703,1.088435e-05,275.5349999998703,1.166764e-05,275.5349999998703,5.358047e-06
275.5499999998703,6.875675e-06,275.5499999998703,1.118183e-05,275.5499999998703,1.158403e-05,275.5499999998703,5.307859e-06
275.5649999998703,6.832516e-06,275.5649999998703,1.094501e-05,275.5649999998703,1.226908e-05,275.5649999998703,5.297233e-06
275.57999999987027,7.156758e-06,275.57999999987027,9.836022e-06,275.57999999987027,1.211774e-05,275.57999999987027,5.148897e-06
275.59499999987025,7.073606e-06,275.59499999987025,1.009052e-05,275.59499999987025,1.182593e-05,275.59499999987025,4.993339e-06
275.60999999987024,7.158726e-06,275.60999999987024,1.066866e-05,275.60999999987024,1.230691e-05,275.60999999987024,4.930884e-06
275.6249999998702,7.04567e-06,275.6249999998702,1.075677e-05,275.6249999998702,1.216299e-05,275.6249999998702,4.82986e-06
275.6399999998702,7.36818e-06,275.6399999998702,1.084155e-05,275.6399999998702,1.240723e-05,275.6399999998702,4.847328e-06
275.6549999998702,6.730734e-06,275.6549999998702,1.051439e-05,275.6549999998702,1.257526e-05,275.6549999998702,4.785911e-06
275.6699999998702,6.834577e-06,275.6699999998702,1.047546e-05,275.6699999998702,1.260882e-05,275.6699999998702,4.753424e-06
275.6849999998702,7.021637e-06,275.6849999998702,1.030326e-05,275.6849999998702,1.178297e-05,275.6849999998702,4.907976e-06
275.69999999987016,7.451826e-06,275.69999999987016,1.058249e-05,275.69999999987016,1.257414e-05,275.69999999987016,4.83569e-06
275.71499999987014,7.146909e-06,275.71499999987014,1.066999e-05,275.71499999987014,1.247064e-05,275.71499999987014,4.902232e-06
275.72999999987013,7.174451e-06,275.72999999987013,1.019606e-05,275.72999999987013,1.255171e-05,275.72999999987013,4.890725e-06
275.7449999998701,7.091506e-06,275.7449999998701,1.015592e-05,275.7449999998701,1.167488e-05,275.7449999998701,4.856038e-06
275.7599999998701,6.944984e-06,275.7599999998701,1.020435e-05,275.7599999998701,1.138409e-05,275.7599999998701,4.497608e-06
275.7749999998701,7.031661e-06,275.7749999998701,1.011562e-05,275.7749999998701,1.184973e-05,275.7749999998701,4.550541e-06
275.7899999998701,7.406318e-06,275.7899999998701,1.019606e-05,275.7899999998701,1.196919e-05,275.7899999998701,4.485062e-06
275.80499999987006,7.730182e-06,275.80499999987006,1.087917e-05,275.80499999987006,1.201618e-05,275.80499999987006,4.485062e-06
275.81999999987005,7.658783e-06,275.81999999987005,1.084675e-05,275.81999999987005,1.135807e-05,275.81999999987005,4.360851e-06
275.83499999987004,7.584854e-06,275.83499999987004,1.081554e-05,275.83499999987004,1.103984e-05,275.83499999987004,4.31539e-06
275.84999999987,7.69548e-06,275.84999999987,1.027177e-05,275.84999999987,1.058249e-05,275.84999999987,4.321914e-06
275.86499999987,7.605257e-06,275.86499999987,9.986677e-06,275.86499999987,1.046873e-05,275.86499999987,4.27604e-06
275.87999999987,7.512074e-06,275.87999999987,1.030326e-05,275.87999999987,1.051171e-05,275.87999999987,4.39624e-06
275.89499999987,7.372003e-06,275.89499999987,1.049695e-05,275.89499999987,1.052242e-05,275.89499999987,4.386617e-06
275.90999999986997,7.327922e-06,275.90999999986997,1.05545e-05,275.90999999986997,1.053847e-05,275.90999999986997,4.376973e-06
275.92499999986995,7.584854e-06,275.92499999986995,1.061837e-05,275.92499999986995,1.050098e-05,275.92499999986995,4.36408e-06
275.93999999986994,7.383459e-06,275.93999999986994,1.059447e-05,275.93999999986994,1.036461e-05,275.93999999986994,4.236323e-06
275.9549999998699,7.538281e-06,275.9549999998699,1.145686e-05,275.9549999998699,9.761266e-06,275.9549999998699,4.31539e-06
275.9699999998699,7.530803e-06,275.9699999998699,1.173865e-05,275.9699999998699,1.070426e-05,275.9699999998699,4.418613e-06
275.9849999998699,7.579281e-06,275.9849999998699,1.226334e-05,275.9849999998699,1.04983e-05,275.9849999998699,4.596741e-06
275.9999999998699,7.549485e-06,275.9999999998699,1.214097e-05,275.9999999998699,1.050232e-05,275.9999999998699,4.67875e-06
276.0149999998699,7.610811e-06,276.0149999998699,1.209563e-05,276.0149999998699,1.042153e-05,276.0149999998699,4.672725e-06
276.02999999986986,8.795684e-06,276.02999999986986,1.198096e-05,276.02999999986986,9.704822e-06,276.02999999986986,4.714741e-06
276.04499999986984,9.195013e-06,276.04499999986984,1.196684e-05,276.04499999986984,9.590935e-06,276.04499999986984,4.759348e-06
276.05999999986983,9.558568e-06,276.05999999986983,1.136055e-05,276.05999999986983,9.207261e-06,276.05999999986983,4.756387e-06
276.0749999998698,9.73815e-06,276.0749999998698,1.158281e-05,276.0749999998698,9.35449e-06,276.0749999998698,4.762306e-06
276.0899999998698,1.031283e-05,276.0899999998698,1.166884e-05,276.0899999998698,9.655344e-06,276.0899999998698,4.953686e-06
276.1049999998698,1.069899e-05,276.1049999998698,1.169778e-05,276.1049999998698,9.548246e-06,276.1049999998698,4.965048e-06
276.1199999998698,1.098611e-05,276.1199999998698,1.176023e-05,276.1199999998698,1.027451e-05,276.1199999998698,4.93374e-06
276.13499999986976,1.07777e-05,276.13499999986976,1.154627e-05,276.13499999986976,9.636359e-06,276.13499999986976,4.925167e-06
276.14999999986975,1.073711e-05,276.14999999986975,1.128716e-05,276.14999999986975,9.643665e-06,276.14999999986975,4.913713e-06
276.16499999986974,1.06051e-05,276.16499999986974,1.124339e-05,276.16499999986974,1.026903e-05,276.16499999986974,5.041069e-06
276.1799999998697,1.032239e-05,276.1799999998697,1.117553e-05,276.1799999998697,1.035917e-05,276.1799999998697,5.085583e-06
276.1949999998697,1.035373e-05,276.1949999998697,1.166643e-05,276.1949999998697,1.088305e-05,276.1949999998697,5.035477e-06
276.2099999998697,1.049964e-05,276.2099999998697,1.079076e-05,276.2099999998697,1.040124e-05,276.2099999998697,5.032679e-06
276.2249999998697,1.040936e-05,276.2249999998697,1.095915e-05,276.2249999998697,9.94002e-06,276.2249999998697,5.151632e-06
276.23999999986967,1.034011e-05,276.23999999986967,1.054515e-05,276.23999999986967,1.071346e-05,276.23999999986967,5.015856e-06
276.25499999986965,1.035373e-05,276.25499999986965,1.050232e-05,276.25499999986965,1.070031e-05,276.25499999986965,4.950841e-06
276.26999999986964,1.018777e-05,276.26999999986964,1.060244e-05,276.26999999986964,1.092955e-05,276.26999999986964,4.896482e-06
276.2849999998696,9.191949e-06,276.2849999998696,1.101684e-05,276.2849999998696,1.118561e-05,276.2849999998696,5.052234e-06
276.2999999998696,8.115992e-06,276.2999999998696,1.104366e-05,276.2999999998696,1.120574e-05,276.2999999998696,5.074491e-06
276.3149999998696,7.820766e-06,276.3149999998696,1.075153e-05,276.3149999998696,1.121705e-05,276.3149999998696,5.088352e-06
276.3299999998696,7.549485e-06,276.3299999998696,1.083895e-05,276.3299999998696,1.063031e-05,276.3299999998696,4.95937e-06
276.3449999998696,6.908378e-06,276.3449999998696,1.079337e-05,276.3449999998696,1.13407e-05,276.3449999998696,4.996159e-06
276.35999999986956,5.704405e-06,276.35999999986956,1.062633e-05,276.35999999986956,1.110853e-05,276.35999999986956,5.102175e-06
276.37499999986954,6.148874e-06,276.37499999986954,1.050366e-05,276.37499999986954,1.063031e-05,276.37499999986954,5.184341e-06
276.38999999986953,6.205884e-06,276.38999999986953,1.051037e-05,276.38999999986953,1.069372e-05,276.38999999986953,5.318464e-06
276.4049999998695,6.273611e-06,276.4049999998695,1.082855e-05,276.4049999998695,1.066338e-05,276.4049999998695,5.342249e-06
276.4199999998695,6.481242e-06,276.4199999998695,1.071215e-05,276.4199999998695,1.074235e-05,276.4199999998695,5.297233e-06
276.4349999998695,6.526725e-06,276.4349999998695,1.031829e-05,276.4349999998695,1.132578e-05,276.4349999998695,5.297233e-06
276.4499999998695,6.2781e-06,276.4499999998695,1.041342e-05,276.4499999998695,1.143717e-05,276.4499999998695,5.342249e-06
276.46499999986946,6.160319e-06,276.46499999986946,1.042694e-05,276.46499999986946,1.128966e-05,276.46499999986946,5.289249e-06
276.47999999986945,6.11211e-06,276.47999999986945,1.039582e-05,276.47999999986945,1.120574e-05,276.47999999986945,5.289249e-06
276.49499999986944,6.102884e-06,276.49499999986944,1.06197e-05,276.49499999986944,1.079207e-05,276.49499999986944,5.360675e-06
276.5099999998694,6.007502e-06,276.5099999998694,1.066999e-05,276.5099999998694,1.125216e-05,276.5099999998694,5.425972e-06
276.5249999998694,5.931993e-06,276.5249999998694,1.146915e-05,276.5249999998694,1.198448e-05,276.5249999998694,5.358047e-06
276.5399999998694,5.974584e-06,276.5399999998694,1.135311e-05,276.5399999998694,1.177819e-05,276.5399999998694,5.189773e-06
276.5549999998694,6.100575e-06,276.5549999998694,1.183307e-05,276.5549999998694,1.196095e-05,276.5549999998694,5.181623e-06
276.56999999986937,6.642251e-06,276.56999999986937,1.174825e-05,276.56999999986937,1.205714e-05,276.56999999986937,5.270573e-06
276.58499999986935,6.541815e-06,276.58499999986935,1.167488e-05,276.58499999986935,1.146178e-05,276.58499999986935,5.286585e-06
276.59999999986934,6.565459e-06,276.59999999986934,1.192675e-05,276.59999999986934,1.180208e-05,276.59999999986934,5.14616e-06
276.6149999998693,6.33617e-06,276.6149999998693,1.207115e-05,276.6149999998693,1.193973e-05,276.6149999998693,5.038274e-06
276.6299999998693,6.068162e-06,276.6299999998693,1.264452e-05,276.6299999998693,1.240836e-05,276.6299999998693,5.088352e-06
276.6449999998693,6.180865e-06,276.6449999998693,1.265788e-05,276.6449999998693,1.232178e-05,276.6449999998693,5.049445e-06
276.6599999998693,6.230803e-06,276.6599999998693,1.262668e-05,276.6599999998693,1.205831e-05,276.6599999998693,4.928026e-06
276.67499999986927,5.955692e-06,276.67499999986927,1.271119e-05,276.67499999986927,1.094372e-05,276.67499999986927,4.947995e-06
276.68999999986926,6.070483e-06,276.68999999986926,1.322712e-05,276.68999999986926,1.111233e-05,276.68999999986926,5.107694e-06
276.70499999986924,6.167175e-06,276.70499999986924,1.288072e-05,276.70499999986924,1.119568e-05,276.70499999986924,5.096651e-06
276.71999999986923,5.865124e-06,276.71999999986923,1.317697e-05,276.71999999986923,1.131458e-05,276.71999999986923,5.157098e-06
276.7349999998692,5.931993e-06,276.7349999998692,1.306208e-05,276.7349999998692,1.117805e-05,276.7349999998692,5.085583e-06
276.7499999998692,5.93674e-06,276.7499999998692,1.296466e-05,276.7499999998692,1.092568e-05,276.7499999998692,5.157098e-06
276.7649999998692,5.901041e-06,276.7649999998692,1.260658e-05,276.7649999998692,1.03333e-05,276.7649999998692,5.178904e-06
276.7799999998692,5.969867e-06,276.7799999998692,1.234576e-05,276.7799999998692,1.058116e-05,276.7799999998692,5.381656e-06
276.79499999986916,6.221753e-06,276.79499999986916,1.170741e-05,276.79499999986916,1.146424e-05,276.79499999986916,5.505864e-06
276.80999999986915,5.667242e-06,276.80999999986915,1.17746e-05,276.80999999986915,1.136923e-05,276.80999999986915,5.521194e-06
276.82499999986914,5.493057e-06,276.82499999986914,1.195388e-05,276.82499999986914,1.126592e-05,276.82499999986914,5.487926e-06
276.8399999998691,5.386888e-06,276.8399999998691,1.25461e-05,276.8399999998691,1.121956e-05,276.8399999998691,5.459618e-06
276.8549999998691,5.344885e-06,276.8549999998691,1.261105e-05,276.8549999998691,1.042288e-05,276.8549999998691,5.451871e-06
276.8699999998691,5.350154e-06,276.8699999998691,1.220346e-05,276.8699999998691,1.022779e-05,276.8699999998691,5.350154e-06
276.8849999998691,5.216845e-06,276.8849999998691,1.279513e-05,276.8849999998691,1.111993e-05,276.8849999998691,5.358047e-06
276.89999999986907,5.342249e-06,276.89999999986907,1.264452e-05,276.89999999986907,1.173265e-05,276.89999999986907,5.281253e-06
276.91499999986905,5.222243e-06,276.91499999986905,1.247855e-05,276.91499999986905,1.181878e-05,276.91499999986905,5.299891e-06
276.92999999986904,6.023894e-06,276.92999999986904,1.221615e-05,276.92999999986904,1.160711e-05,276.92999999986904,5.170737e-06
276.944999999869,6.100575e-06,276.944999999869,1.165556e-05,276.944999999869,1.095915e-05,276.944999999869,5.057808e-06
276.959999999869,6.105191e-06,276.959999999869,1.154383e-05,276.959999999869,1.157551e-05,276.959999999869,5.162558e-06
276.974999999869,6.089019e-06,276.974999999869,1.301779e-05,276.974999999869,1.166039e-05,276.974999999869,5.216845e-06
276.989999999869,6.169459e-06,276.989999999869,1.369078e-05,276.989999999869,1.174465e-05,276.989999999869,5.299891e-06
277.00499999986897,6.176305e-06,277.00499999986897,1.361339e-05,277.00499999986897,1.17734e-05,277.00499999986897,5.137942e-06
277.01999999986896,6.189974e-06,277.01999999986896,1.353972e-05,277.01999999986896,1.172424e-05,277.01999999986896,5.246463e-06
277.03499999986894,5.901041e-06,277.03499999986894,1.390517e-05,277.03499999986894,1.05785e-05,277.03499999986894,5.159829e-06
277.04999999986893,5.721665e-06,277.04999999986893,1.396078e-05,277.04999999986893,1.09347e-05,277.04999999986893,5.187057e-06
277.0649999998689,5.637336e-06,277.0649999998689,1.380656e-05,277.0649999998689,1.128841e-05,277.0649999998689,5.184341e-06
277.0799999998689,5.627332e-06,277.0799999998689,1.371648e-05,277.0799999998689,1.1332e-05,277.0799999998689,5.135199e-06
277.0949999998689,5.826569e-06,277.0949999998689,1.304373e-05,277.0949999998689,1.140511e-05,277.0949999998689,5.365928e-06
277.1099999998689,6.125922e-06,277.1099999998689,1.290148e-05,277.1099999998689,1.144087e-05,277.1099999998689,5.539025e-06
277.12499999986886,6.148874e-06,277.12499999986886,1.310944e-05,277.12499999986886,1.120951e-05,277.12499999986886,5.467352e-06
277.13999999986885,6.139704e-06,277.13999999986885,1.281054e-05,277.13999999986885,9.743934e-06,277.13999999986885,5.495621e-06
277.15499999986883,6.01219e-06,277.15499999986883,1.36475e-05,277.15499999986883,1.047143e-05,277.15499999986883,5.53139e-06
277.1699999998688,5.415577e-06,277.1699999998688,1.412629e-05,277.1699999998688,1.081032e-05,277.1699999998688,5.516089e-06
277.1849999998688,4.993339e-06,277.1849999998688,1.398095e-05,277.1849999998688,1.095144e-05,277.1849999998688,5.61731e-06
277.1999999998688,5.015856e-06,277.1999999998688,1.413227e-05,277.1999999998688,1.087658e-05,277.1999999998688,5.604757e-06
277.2149999998688,5.102175e-06,277.2149999998688,1.456425e-05,277.2149999998688,1.123211e-05,277.2149999998688,5.556798e-06
277.22999999986877,5.029879e-06,277.22999999986877,1.279403e-05,277.22999999986877,1.102962e-05,277.22999999986877,5.554263e-06
277.24499999986875,4.996159e-06,277.24499999986875,1.287416e-05,277.24499999986875,1.123086e-05,277.24499999986875,5.464775e-06
277.25999999986874,5.275916e-06,277.25999999986874,1.314164e-05,277.25999999986874,1.128716e-05,277.25999999986874,5.60727e-06
277.2749999998687,5.358047e-06,277.2749999998687,1.30232e-05,277.2749999998687,1.126967e-05,277.2749999998687,5.297233e-06
277.2899999998687,5.363302e-06,277.2899999998687,1.289711e-05,277.2899999998687,1.106787e-05,277.2899999998687,5.243778e-06
277.3049999998687,5.505864e-06,277.3049999998687,1.318124e-05,277.3049999998687,1.10933e-05,277.3049999998687,5.168013e-06
277.3199999998687,5.768253e-06,277.3199999998687,1.3497e-05,277.3199999998687,1.074891e-05,277.3199999998687,5.124215e-06
277.33499999986867,5.758477e-06,277.33499999986867,1.353348e-05,277.33499999986867,1.077378e-05,277.33499999986867,5.013047e-06
277.34999999986866,5.371176e-06,277.34999999986866,1.373392e-05,277.34999999986866,1.076855e-05,277.34999999986866,4.945147e-06
277.36499999986864,5.389503e-06,277.36499999986864,1.383204e-05,277.36499999986864,1.084025e-05,277.36499999986864,4.838602e-06
277.37999999986863,5.394728e-06,277.37999999986863,1.359372e-05,277.37999999986863,1.140881e-05,277.37999999986863,4.945147e-06
277.3949999998686,5.336972e-06,277.3949999998686,1.327283e-05,277.3949999998686,1.119442e-05,277.3949999998686,4.826943e-06
277.4099999998686,5.508422e-06,277.4099999998686,1.268678e-05,277.4099999998686,1.092052e-05,277.4099999998686,5.208738e-06
277.4249999998686,5.649817e-06,277.4249999998686,1.31962e-05,277.4249999998686,1.082725e-05,277.4249999998686,5.275916e-06
277.4399999998686,5.736418e-06,277.4399999998686,1.319513e-05,277.4399999998686,1.066338e-05,277.4399999998686,5.412975e-06
277.45499999986856,5.56946e-06,277.45499999986856,1.356052e-05,277.45499999986856,1.070031e-05,277.45499999986856,5.423375e-06
277.46999999986855,5.574516e-06,277.46999999986855,1.307394e-05,277.46999999986855,9.788648e-06,277.46999999986855,5.350154e-06
277.48499999986853,5.594695e-06,277.48499999986853,1.251912e-05,277.48499999986853,1.116671e-05,277.48499999986853,5.262549e-06
277.4999999998685,5.397339e-06,277.4999999998685,1.256517e-05,277.4999999998685,1.105514e-05,277.4999999998685,5.038274e-06
277.5149999998685,5.192486e-06,277.5149999998685,1.266678e-05,277.5149999998685,1.100917e-05,277.5149999998685,5.001795e-06
277.5299999998685,5.162558e-06,277.5299999998685,1.323563e-05,277.5299999998685,1.106023e-05,277.5299999998685,5.099414e-06
277.5449999998685,5.402556e-06,277.5449999998685,1.287306e-05,277.5449999998685,9.971149e-06,277.5449999998685,5.235713e-06
277.55999999986847,5.104936e-06,277.55999999986847,1.269122e-05,277.55999999986847,1.002328e-05,277.55999999986847,5.219545e-06
277.57499999986845,5.057808e-06,277.57499999986845,1.232178e-05,277.57499999986845,1.034556e-05,277.57499999986845,5.233022e-06
277.58999999986844,5.071714e-06,277.58999999986844,1.250561e-05,277.58999999986844,1.064222e-05,277.58999999986844,5.238403e-06
277.6049999998684,4.970719e-06,277.6049999998684,1.246047e-05,277.6049999998684,1.073186e-05,277.6049999998684,5.200618e-06
277.6199999998684,4.942298e-06,277.6199999998684,1.242084e-05,277.6199999998684,1.082335e-05,277.6199999998684,5.189773e-06
277.6349999998684,5.02147e-06,277.6349999998684,1.267234e-05,277.6349999998684,9.74827e-06,277.6349999998684,5.235713e-06
277.6499999998684,5.057808e-06,277.6499999998684,1.287416e-05,277.6499999998684,1.010447e-05,277.6499999998684,5.206033e-06
277.66499999986837,4.79767e-06,277.66499999986837,1.257862e-05,277.66499999986837,1.008074e-05,277.66499999986837,4.962209e-06
277.67999999986836,4.882076e-06,277.67999999986836,1.25562e-05,277.67999999986836,1.042829e-05,277.67999999986836,5.035477e-06
277.69499999986834,4.838602e-06,277.69499999986834,1.286212e-05,277.69499999986834,1.069109e-05,277.69499999986834,4.832776e-06
277.70999999986833,4.765263e-06,277.70999999986833,1.242878e-05,277.70999999986833,1.077116e-05,277.70999999986833,4.812329e-06
277.7249999998683,5.135199e-06,277.7249999998683,1.349804e-05,277.7249999998683,1.005275e-05,277.7249999998683,4.788854e-06
277.7399999998683,5.318464e-06,277.7399999998683,1.355844e-05,277.7399999998683,1.093986e-05,277.7399999998683,5.035477e-06
277.7549999998683,5.516089e-06,277.7549999998683,1.401416e-05,277.7549999998683,1.07777e-05,277.7549999998683,5.181623e-06
277.7699999998683,5.56946e-06,277.7699999998683,1.349074e-05,277.7699999998683,1.074104e-05,277.7699999998683,5.329048e-06
277.78499999986826,5.428567e-06,277.78499999986826,1.378307e-05,277.78499999986826,1.089082e-05,277.78499999986826,5.227635e-06
277.79999999986825,5.360675e-06,277.79999999986825,1.406332e-05,277.79999999986825,1.120323e-05,277.79999999986825,5.135199e-06
277.81499999986823,5.449287e-06,277.81499999986823,1.431253e-05,277.81499999986823,1.150472e-05,277.81499999986823,5.12971e-06
277.8299999998682,5.433755e-06,277.8299999998682,1.430269e-05,277.8299999998682,1.211076e-05,277.8299999998682,5.132455e-06
277.8449999998682,5.425972e-06,277.8449999998682,1.397994e-05,277.8449999998682,1.191966e-05,277.8449999998682,5.22494e-06
277.8599999998682,5.457037e-06,277.8599999998682,1.407334e-05,277.8599999998682,1.198566e-05,277.8599999998682,5.423375e-06
277.8749999998682,5.582091e-06,277.8749999998682,1.384934e-05,277.8749999998682,1.206064e-05,277.8749999998682,5.472503e-06
277.88999999986817,5.500745e-06,277.88999999986817,1.381472e-05,277.88999999986817,1.257302e-05,277.88999999986817,5.28392e-06
277.90499999986815,5.622323e-06,277.90499999986815,1.32792e-05,277.90499999986815,1.27742e-05,277.90499999986815,5.289249e-06
277.91999999986814,5.56693e-06,277.91999999986814,1.379941e-05,277.91999999986814,1.300263e-05,277.91999999986814,5.251831e-06
277.9349999998681,5.368553e-06,277.9349999998681,1.374315e-05,277.9349999998681,1.274107e-05,277.9349999998681,5.118714e-06
277.9499999998681,5.546649e-06,277.9499999998681,1.359268e-05,277.9499999998681,1.249885e-05,277.9499999998681,5.137942e-06
277.9649999998681,5.785323e-06,277.9649999998681,1.321007e-05,277.9649999998681,1.263337e-05,277.9649999998681,5.060592e-06
277.9799999998681,5.329048e-06,277.9799999998681,1.261775e-05,277.9799999998681,1.262222e-05,277.9799999998681,5.015856e-06
277.99499999986807,5.344885e-06,277.99499999986807,1.262891e-05,277.99499999986807,1.149124e-05,277.99499999986807,4.753424e-06
278.00999999986806,5.394728e-06,278.00999999986806,1.206765e-05,278.00999999986806,1.250674e-05,278.00999999986806,4.578317e-06
278.02499999986804,5.305204e-06,278.02499999986804,1.197155e-05,278.02499999986804,1.238791e-05,278.02499999986804,4.684768e-06
278.03999999986803,5.360675e-06,278.03999999986803,1.155968e-05,278.03999999986803,1.224954e-05,278.03999999986803,4.618143e-06
278.054999999868,5.399948e-06,278.054999999868,1.098355e-05,278.054999999868,1.168573e-05,278.054999999868,4.639445e-06
278.069999999868,5.275916e-06,278.069999999868,1.184973e-05,278.069999999868,1.167005e-05,278.069999999868,4.699779e-06
278.084999999868,5.281253e-06,278.084999999868,1.192675e-05,278.084999999868,1.15304e-05,278.084999999868,4.782967e-06
278.099999999868,5.329048e-06,278.099999999868,1.180566e-05,278.099999999868,1.185448e-05,278.099999999868,4.547444e-06
278.11499999986796,5.446701e-06,278.11499999986796,1.254834e-05,278.11499999986796,1.275323e-05,278.11499999986796,4.434525e-06
278.12999999986795,5.373798e-06,278.12999999986795,1.277199e-05,278.12999999986795,1.257414e-05,278.12999999986795,4.491339e-06
278.14499999986793,5.336972e-06,278.14499999986793,1.288509e-05,278.14499999986793,1.208515e-05,278.14499999986793,4.516361e-06
278.1599999998679,5.363302e-06,278.1599999998679,1.231835e-05,278.1599999998679,1.124966e-05,278.1599999998679,4.575239e-06
278.1749999998679,5.410373e-06,278.1749999998679,1.18295e-05,278.1749999998679,1.15194e-05,278.1749999998679,4.497608e-06
278.1899999998679,5.431162e-06,278.1899999998679,1.182474e-05,278.1899999998679,1.474305e-05,278.1899999998679,4.503868e-06
278.2049999998679,5.28392e-06,278.2049999998679,1.192911e-05,278.2049999998679,1.463661e-05,278.2049999998679,4.547444e-06
278.21999999986787,5.038274e-06,278.21999999986787,1.181282e-05,278.21999999986787,1.454198e-05,278.21999999986787,4.612038e-06
278.23499999986785,5.233022e-06,278.23499999986785,1.204545e-05,278.23499999986785,1.445356e-05,278.23499999986785,4.651575e-06
278.24999999986784,5.118714e-06,278.24999999986784,1.198096e-05,278.24999999986784,1.414821e-05,278.24999999986784,4.765263e-06
278.2649999998678,5.015856e-06,278.2649999998678,1.171222e-05,278.2649999998678,1.361339e-05,278.2649999998678,4.75046e-06
278.2799999998678,4.945147e-06,278.2799999998678,1.200093e-05,278.2799999998678,1.39325e-05,278.2799999998678,4.642481e-06
278.2949999998678,4.806471e-06,278.2949999998678,1.273444e-05,278.2949999998678,1.427212e-05,278.2949999998678,4.696781e-06
278.3099999998678,4.777073e-06,278.3099999998678,1.237426e-05,278.3099999998678,1.437538e-05,278.3099999998678,4.67875e-06
278.32499999986777,5.170737e-06,278.32499999986777,1.161803e-05,278.32499999986777,1.361132e-05,278.32499999986777,4.596741e-06
278.33999999986776,5.270573e-06,278.33999999986776,1.228858e-05,278.33999999986776,1.345833e-05,278.33999999986776,4.575239e-06
278.35499999986774,5.187057e-06,278.35499999986774,1.270675e-05,278.35499999986774,1.235033e-05,278.35499999986774,4.578317e-06
278.36999999986773,4.979213e-06,278.36999999986773,1.2397e-05,278.36999999986773,1.230462e-05,278.36999999986773,4.618143e-06
278.3849999998677,5.013047e-06,278.3849999998677,1.224379e-05,278.3849999998677,1.24503e-05,278.3849999998677,4.556728e-06
278.3999999998677,5.027078e-06,278.3999999998677,1.207115e-05,278.3999999998677,1.293311e-05,278.3999999998677,4.584466e-06
278.4149999998677,5.523745e-06,278.4149999998677,1.198213e-05,278.4149999998677,1.301671e-05,278.4149999998677,4.584466e-06
278.4299999998677,5.431162e-06,278.4299999998677,1.199858e-05,278.4299999998677,9.08404e-06,278.4299999998677,4.587538e-06
278.44499999986766,5.433755e-06,278.44499999986766,1.202204e-05,278.44499999986766,9.085591e-06,278.44499999986766,4.699779e-06
278.45999999986765,5.363302e-06,278.45999999986765,1.273665e-05,278.45999999986765,9.429483e-06,278.45999999986765,4.962209e-06
278.47499999986763,5.376418e-06,278.47499999986763,1.280614e-05,278.47499999986763,9.529049e-06,278.47499999986763,5.015856e-06
278.4899999998676,5.170737e-06,278.4899999998676,1.273554e-05,278.4899999998676,1.045392e-05,278.4899999998676,5.010237e-06
278.5049999998676,5.694519e-06,278.5049999998676,1.314164e-05,278.5049999998676,1.022641e-05,278.5049999998676,4.858938e-06
278.5199999998676,5.828986e-06,278.5199999998676,1.337749e-05,278.5199999998676,1.013231e-05,278.5199999998676,4.907976e-06
278.5349999998676,5.898653e-06,278.5349999998676,1.319726e-05,278.5349999998676,9.965496e-06,278.5349999998676,4.942298e-06
278.54999999986757,5.969867e-06,278.54999999986757,1.295922e-05,278.54999999986757,1.000781e-05,278.54999999986757,4.916579e-06
278.56499999986755,5.969867e-06,278.56499999986755,1.325371e-05,278.56499999986755,1.138161e-05,278.56499999986755,5.010237e-06
278.57999999986754,5.604757e-06,278.57999999986754,1.385849e-05,278.57999999986754,1.147161e-05,278.57999999986754,4.979213e-06
278.5949999998675,5.546649e-06,278.5949999998675,1.307286e-05,278.5949999998675,1.146547e-05,278.5949999998675,5.178904e-06
278.6099999998675,5.998116e-06,278.6099999998675,1.242765e-05,278.6099999998675,1.141622e-05,278.6099999998675,5.189773e-06
278.6249999998675,5.889093e-06,278.6249999998675,1.229546e-05,278.6249999998675,1.160833e-05,278.6249999998675,5.126963e-06
278.6399999998675,6.044903e-06,278.6399999998675,1.268012e-05,278.6399999998675,1.110853e-05,278.6399999998675,5.305204e-06
278.65499999986747,5.831403e-06,278.65499999986747,1.282812e-05,278.65499999986747,1.163136e-05,278.65499999986747,5.399948e-06
278.66999999986746,5.624828e-06,278.66999999986746,1.309009e-05,278.66999999986746,1.209447e-05,278.66999999986746,5.405162e-06
278.68499999986744,5.677176e-06,278.68499999986744,1.321646e-05,278.68499999986744,1.205246e-05,278.68499999986744,5.402556e-06
278.69999999986743,6.01219e-06,278.69999999986743,1.250561e-05,278.69999999986743,1.19739e-05,278.69999999986743,5.251831e-06
278.7149999998674,6.047233e-06,278.7149999998674,1.223689e-05,278.7149999998674,1.162773e-05,278.7149999998674,5.12971e-06
278.7299999998674,6.144291e-06,278.7299999998674,1.21572e-05,278.7299999998674,1.073711e-05,278.7299999998674,5.085583e-06
278.7449999998674,6.183143e-06,278.7449999998674,1.214329e-05,278.7449999998674,1.073579e-05,278.7449999998674,4.973552e-06
278.7599999998674,5.657291e-06,278.7599999998674,1.205831e-05,278.7599999998674,1.114903e-05,278.7599999998674,5.077266e-06
278.77499999986736,5.469929e-06,278.77499999986736,1.141128e-05,278.77499999986736,1.120449e-05,278.77499999986736,4.996159e-06
278.78999999986735,5.654801e-06,278.78999999986735,1.131707e-05,278.78999999986735,1.141498e-05,278.78999999986735,5.063375e-06
278.80499999986733,5.790191e-06,278.80499999986733,1.105004e-05,278.80499999986733,1.094114e-05,278.80499999986733,5.02147e-06
278.8199999998673,5.931993e-06,278.8199999998673,1.075153e-05,278.8199999998673,9.685934e-06,278.8199999998673,5.068936e-06
278.8349999998673,6.64861e-06,278.8349999998673,1.06356e-05,278.8349999998673,1.08714e-05,278.8349999998673,5.085583e-06
278.8499999998673,7.478244e-06,278.8499999998673,1.103856e-05,278.8499999998673,1.087658e-05,278.8499999998673,4.967884e-06
278.8649999998673,7.757469e-06,278.8649999998673,1.132205e-05,278.8649999998673,1.054515e-05,278.8649999998673,4.996159e-06
278.87999999986727,8.640569e-06,278.87999999986727,1.134939e-05,278.87999999986727,1.046066e-05,278.87999999986727,4.893604e-06
278.89499999986725,9.040516e-06,278.89499999986725,1.207582e-05,278.89499999986725,1.045258e-05,278.89499999986725,4.873412e-06
278.90999999986724,9.378553e-06,278.90999999986724,1.189718e-05,278.90999999986724,9.393561e-06,278.90999999986724,4.657627e-06
278.9249999998672,1.039853e-05,278.9249999998672,1.135683e-05,278.9249999998672,8.806888e-06,278.9249999998672,4.469331e-06
278.9399999998672,1.394058e-05,278.9399999998672,1.162045e-05,278.9399999998672,1.126467e-05,278.9399999998672,4.48192e-06
278.9549999998672,1.495366e-05,278.9549999998672,1.198683e-05,278.9549999998672,1.138904e-05,278.9549999998672,4.373753e-06
278.9699999998672,1.533595e-05,278.9699999998672,1.199153e-05,278.9699999998672,1.141868e-05,278.9699999998672,4.38019e-06
278.98499999986717,1.563432e-05,278.98499999986717,1.193737e-05,278.98499999986717,1.145932e-05,278.98499999986717,4.488202e-06
278.99999999986716,1.579121e-05,278.99999999986716,1.163499e-05,278.99999999986716,1.129215e-05,278.99999999986716,4.444044e-06
279.01499999986714,1.587219e-05,279.01499999986714,1.245143e-05,279.01499999986714,1.088305e-05,279.01499999986714,4.47563e-06
279.02999999986713,1.596245e-05,279.02999999986713,1.279734e-05,279.02999999986713,1.079729e-05,279.02999999986713,4.469331e-06
279.0449999998671,1.58642e-05,279.0449999998671,1.311589e-05,279.0449999998671,1.045258e-05,279.0449999998671,4.544346e-06
279.0599999998671,1.586508e-05,279.0599999998671,1.349387e-05,279.0599999998671,1.039582e-05,279.0599999998671,4.325173e-06
279.0749999998671,1.578497e-05,279.0749999998671,1.304589e-05,279.0749999998671,1.041071e-05,279.0749999998671,4.312125e-06
279.0899999998671,1.547767e-05,279.0899999998671,1.285773e-05,279.0899999998671,9.322813e-06,279.0899999998671,4.328428e-06
279.10499999986706,1.518363e-05,279.10499999986706,1.31395e-05,279.10499999986706,1.065149e-05,279.10499999986706,4.389827e-06
279.11999999986705,1.488758e-05,279.11999999986705,1.300371e-05,279.11999999986705,1.104621e-05,279.11999999986705,4.418613e-06
279.13499999986703,1.455747e-05,279.13499999986703,1.316841e-05,279.13499999986703,1.104876e-05,279.13499999986703,4.48192e-06
279.149999999867,1.462987e-05,279.149999999867,1.244351e-05,279.149999999867,1.102068e-05,279.149999999867,4.541245e-06
279.164999999867,1.490554e-05,279.164999999867,1.274218e-05,279.164999999867,1.103601e-05,279.164999999867,4.547444e-06
279.179999999867,1.41979e-05,279.179999999867,1.289056e-05,279.179999999867,1.090891e-05,279.179999999867,4.66971e-06
279.194999999867,1.064752e-05,279.194999999867,1.27134e-05,279.194999999867,8.479295e-06,279.194999999867,4.756387e-06
279.20999999986697,8.913411e-06,279.20999999986697,1.218844e-05,279.20999999986697,8.167896e-06,279.20999999986697,4.853136e-06
279.22499999986695,8.462665e-06,279.22499999986695,1.237198e-05,279.22499999986695,9.147398e-06,279.22499999986695,4.945147e-06
279.23999999986694,8.846786e-06,279.23999999986694,1.294726e-05,279.23999999986694,9.322813e-06,279.23999999986694,4.83569e-06
279.2549999998669,9.138154e-06,279.2549999998669,1.259429e-05,279.2549999998669,9.540868e-06,279.2549999998669,4.838602e-06
279.2699999998669,9.765595e-06,279.2699999998669,1.293529e-05,279.2699999998669,9.450374e-06,279.2699999998669,4.896482e-06
279.2849999998669,9.652426e-06,279.2849999998669,1.279844e-05,279.2849999998669,9.408545e-06,279.2849999998669,4.841512e-06
279.2999999998669,9.741042e-06,279.2999999998669,1.242311e-05,279.2999999998669,9.90595e-06,279.2999999998669,4.765263e-06
279.31499999986687,1.037955e-05,279.31499999986687,1.222768e-05,279.31499999986687,1.033603e-05,279.31499999986687,4.806471e-06
279.32999999986686,1.078162e-05,279.32999999986686,1.250336e-05,279.32999999986686,1.034828e-05,279.32999999986686,4.780021e-06
279.34499999986684,1.094501e-05,279.34499999986684,1.252925e-05,279.34499999986684,1.05184e-05,279.34499999986684,4.930884e-06
279.35999999986683,1.104494e-05,279.35999999986683,1.215604e-05,279.35999999986683,9.477167e-06,279.35999999986683,5.154366e-06
279.3749999998668,1.092181e-05,279.3749999998668,1.207465e-05,279.3749999998668,9.118093e-06,279.3749999998668,5.121465e-06
279.3899999998668,1.089599e-05,279.3899999998668,1.166522e-05,279.3899999998668,9.178147e-06,279.3899999998668,4.990517e-06
279.4049999998668,1.024568e-05,279.4049999998668,1.186042e-05,279.4049999998668,9.190417e-06,279.4049999998668,4.967884e-06
279.4199999998668,9.957012e-06,279.4199999998668,1.158403e-05,279.4199999998668,9.743934e-06,279.4199999998668,4.890725e-06
279.43499999986676,1.046873e-05,279.43499999986676,1.316627e-05,279.43499999986676,9.979622e-06,279.43499999986676,4.922306e-06
279.44999999986675,1.068318e-05,279.44999999986675,1.402722e-05,279.44999999986675,1.05251e-05,279.44999999986675,4.79767e-06
279.46499999986673,1.07082e-05,279.46499999986673,1.421377e-05,279.46499999986673,1.050098e-05,279.46499999986673,4.732634e-06
279.4799999998667,1.063428e-05,279.4799999998667,1.397389e-05,279.4799999998667,9.629048e-06,279.4799999998667,4.777073e-06
279.4949999998667,9.808774e-06,279.4949999998667,1.358646e-05,279.4949999998667,1.011144e-05,279.4949999998667,4.864733e-06
279.5099999998667,9.68157e-06,279.5099999998667,1.346984e-05,279.5099999998667,1.011562e-05,279.5099999998667,4.925167e-06
279.5249999998667,9.0374e-06,279.5249999998667,1.345937e-05,279.5249999998667,1.02333e-05,279.5249999998667,4.791795e-06
279.53999999986667,9.425e-06,279.53999999986667,1.321966e-05,279.53999999986667,1.032921e-05,279.53999999986667,4.762306e-06
279.55499999986665,9.173541e-06,279.55499999986665,1.320793e-05,279.55499999986665,9.739596e-06,279.55499999986665,4.861837e-06
279.56999999986664,8.51411e-06,279.56999999986664,1.387576e-05,279.56999999986664,9.772805e-06,279.56999999986664,4.882076e-06
279.5849999998666,8.41258e-06,279.5849999998666,1.36258e-05,279.5849999998666,1.035917e-05,279.5849999998666,5.018664e-06
279.5999999998666,8.117728e-06,279.5999999998666,1.396784e-05,279.5999999998666,9.850334e-06,279.5999999998666,5.071714e-06
279.6149999998666,8.837226e-06,279.6149999998666,1.514276e-05,279.6149999998666,1.00975e-05,279.6149999998666,4.812329e-06
279.6299999998666,8.750726e-06,279.6299999998666,1.520866e-05,279.6299999998666,1.014482e-05,279.6299999998666,4.821102e-06
279.64499999986657,8.818078e-06,279.64499999986657,1.547312e-05,279.64499999986657,1.01337e-05,279.64499999986657,4.753424e-06
279.65999999986656,9.336401e-06,279.65999999986656,1.546036e-05,279.65999999986656,1.031693e-05,279.65999999986656,4.765263e-06
279.67499999986654,9.153557e-06,279.67499999986654,1.526413e-05,279.67499999986654,9.908794e-06,279.67499999986654,4.81818e-06
279.68999999986653,8.571823e-06,279.68999999986653,1.361753e-05,279.68999999986653,1.03142e-05,279.68999999986653,4.847328e-06
279.7049999998665,8.771629e-06,279.7049999998665,1.343004e-05,279.7049999998665,1.025118e-05,279.7049999998665,4.858938e-06
279.7199999998665,9.331874e-06,279.7199999998665,1.321007e-05,279.7199999998665,1.047949e-05,279.7199999998665,4.893604e-06
279.7349999998665,1.137295e-05,279.7349999998665,1.353972e-05,279.7349999998665,1.040665e-05,279.7349999998665,5.010237e-06
279.7499999998665,1.341324e-05,279.7499999998665,1.39153e-05,279.7499999998665,9.90026e-06,279.7499999998665,5.015856e-06
279.76499999986646,1.399907e-05,279.76499999986646,1.360097e-05,279.76499999986646,1.045392e-05,279.76499999986646,4.882076e-06
279.77999999986645,1.420286e-05,279.77999999986645,1.342899e-05,279.77999999986645,1.047412e-05,279.77999999986645,4.962209e-06
279.79499999986643,1.465777e-05,279.79499999986643,1.346565e-05,279.79499999986643,1.078293e-05,279.79499999986643,5.055022e-06
279.8099999998664,1.495931e-05,279.8099999998664,1.372674e-05,279.8099999998664,1.073054e-05,279.8099999998664,5.02147e-06
279.8249999998664,1.55113e-05,279.8249999998664,1.313735e-05,279.8249999998664,1.092052e-05,279.8249999998664,4.867628e-06
279.8399999998664,1.56838e-05,279.8399999998664,1.313306e-05,279.8399999998664,1.028547e-05,279.8399999998664,4.785911e-06
279.8549999998664,1.583309e-05,279.8549999998664,1.224034e-05,279.8549999998664,1.013926e-05,279.8549999998664,4.753424e-06
279.86999999986637,1.550858e-05,279.86999999986637,1.14544e-05,279.86999999986637,1.087917e-05,279.86999999986637,4.81818e-06
279.88499999986635,1.549858e-05,279.88499999986635,1.122709e-05,279.88499999986635,1.108695e-05,279.88499999986635,4.800605e-06
279.89999999986634,1.505412e-05,279.89999999986634,1.101812e-05,279.89999999986634,1.157673e-05,279.89999999986634,4.856038e-06
279.9149999998663,1.505225e-05,279.9149999998663,1.049695e-05,279.9149999998663,1.143471e-05,279.9149999998663,4.910845e-06
279.9299999998663,1.507282e-05,279.9299999998663,1.074235e-05,279.9299999998663,1.128716e-05,279.9299999998663,4.899358e-06
279.9449999998663,1.505786e-05,279.9449999998663,1.072004e-05,279.9449999998663,1.071872e-05,279.9449999998663,4.887844e-06
279.9599999998663,1.494801e-05,279.9599999998663,1.073973e-05,279.9599999998663,1.017117e-05,279.9599999998663,4.832776e-06
279.97499999986627,1.428495e-05,279.97499999986627,1.074628e-05,279.97499999986627,1.006256e-05,279.97499999986627,4.747494e-06
279.98999999986626,1.270564e-05,279.98999999986626,1.035781e-05,279.98999999986626,1.009052e-05,279.98999999986626,4.870521e-06
280.00499999986624,1.117427e-05,280.00499999986624,1.043234e-05,280.00499999986624,1.058915e-05,280.00499999986624,4.965048e-06
280.01999999986623,1.231492e-05,280.01999999986623,1.047277e-05,280.01999999986623,1.021401e-05,280.01999999986623,4.993339e-06
280.0349999998662,1.214329e-05,280.0349999998662,1.055984e-05,280.0349999998662,1.007934e-05,280.0349999998662,4.95937e-06
280.0499999998662,1.10194e-05,280.0499999998662,1.160468e-05,280.0499999998662,9.564462e-06,280.0499999998662,4.93374e-06
280.0649999998662,1.074366e-05,280.0649999998662,1.141498e-05,280.0649999998662,9.97821e-06,280.0649999998662,4.979213e-06
280.0799999998662,9.742488e-06,280.0799999998662,1.156334e-05,280.0799999998662,9.979622e-06,280.0799999998662,4.922306e-06
280.09499999986616,9.593873e-06,280.09499999986616,1.149492e-05,280.09499999986616,1.08012e-05,280.09499999986616,4.942298e-06
280.10999999986615,9.193482e-06,280.10999999986615,1.174465e-05,280.10999999986615,1.051439e-05,280.10999999986615,4.861837e-06
280.12499999986613,9.30012e-06,280.12499999986613,1.18806e-05,280.12499999986613,9.719326e-06,280.12499999986613,4.75046e-06
280.1399999998661,9.540868e-06,280.1399999998661,1.206765e-05,280.1399999998661,9.661178e-06,280.1399999998661,4.806471e-06
280.1549999998661,1.121454e-05,280.1549999998661,1.218035e-05,280.1549999998661,9.487566e-06,280.1549999998661,4.864733e-06
280.1699999998661,1.294182e-05,280.1699999998661,1.235603e-05,280.1699999998661,1.054783e-05,280.1699999998661,5.018664e-06
280.1849999998661,1.663148e-05,280.1849999998661,1.204428e-05,280.1849999998661,1.057317e-05,280.1849999998661,4.936594e-06
280.19999999986607,1.939149e-05,280.19999999986607,1.27278e-05,280.19999999986607,1.058782e-05,280.19999999986607,4.950841e-06
280.21499999986605,2.359282e-05,280.21499999986605,1.285664e-05,280.21499999986605,1.058648e-05,280.21499999986605,5.007424e-06
280.22999999986604,2.527678e-05,280.22999999986604,1.292548e-05,280.22999999986604,1.054783e-05,280.22999999986604,5.137942e-06
280.244999999866,2.536746e-05,280.244999999866,1.285116e-05,280.244999999866,1.057184e-05,280.244999999866,4.861837e-06
280.259999999866,2.624091e-05,280.259999999866,1.280284e-05,280.259999999866,1.000781e-05,280.259999999866,4.759348e-06
280.274999999866,2.643719e-05,280.274999999866,1.270786e-05,280.274999999866,1.013648e-05,280.274999999866,4.861837e-06
280.289999999866,2.66912e-05,280.289999999866,1.242538e-05,280.289999999866,1.080902e-05,280.289999999866,4.850233e-06
280.30499999986597,2.830537e-05,280.30499999986597,1.151818e-05,280.30499999986597,1.073054e-05,280.30499999986597,4.87919e-06
280.31999999986596,2.843943e-05,280.31999999986596,1.214445e-05,280.31999999986596,1.068582e-05,280.31999999986596,4.788854e-06
280.33499999986594,2.855115e-05,280.33499999986594,1.226219e-05,280.33499999986594,1.058648e-05,280.33499999986594,4.970719e-06
280.34999999986593,2.894073e-05,280.34999999986593,1.241063e-05,280.34999999986593,1.150104e-05,280.34999999986593,4.905105e-06
280.3649999998659,2.917343e-05,280.3649999998659,1.201383e-05,280.3649999998659,1.162773e-05,280.3649999998659,5.041069e-06
280.3799999998659,2.919274e-05,280.3799999998659,1.217804e-05,280.3799999998659,1.164588e-05,280.3799999998659,5.088352e-06
280.3949999998659,2.921445e-05,280.3949999998659,1.216183e-05,280.3949999998659,1.149737e-05,280.3949999998659,4.976383e-06
280.4099999998659,2.878945e-05,280.4099999998659,1.209912e-05,280.4099999998659,1.110345e-05,280.4099999998659,4.841512e-06
280.42499999986586,2.753444e-05,280.42499999986586,1.22817e-05,280.42499999986586,1.048084e-05,280.42499999986586,4.780021e-06
280.43999999986585,2.476217e-05,280.43999999986585,1.246047e-05,280.43999999986585,1.091665e-05,280.43999999986585,4.876302e-06
280.45499999986583,2.3906e-05,280.45499999986583,1.208631e-05,280.45499999986583,1.124715e-05,280.45499999986583,4.82986e-06
280.4699999998658,2.013771e-05,280.4699999998658,1.218613e-05,280.4699999998658,1.133076e-05,280.4699999998658,4.79767e-06
280.4849999998658,1.891863e-05,280.4849999998658,1.183664e-05,280.4849999998658,1.130462e-05,280.4849999998658,4.785911e-06
280.4999999998658,1.896028e-05,280.4999999998658,1.172785e-05,280.4999999998658,1.117301e-05,280.4999999998658,4.75046e-06
280.5149999998658,1.815722e-05,280.5149999998658,1.16483e-05,280.5149999998658,1.127467e-05,280.5149999998658,4.642481e-06
280.52999999986577,1.70951e-05,280.52999999986577,1.18152e-05,280.52999999986577,1.134194e-05,280.52999999986577,4.572159e-06
280.54499999986575,1.578229e-05,280.54499999986575,1.182116e-05,280.54499999986575,1.128217e-05,280.54499999986575,4.565993e-06
280.55999999986574,1.411531e-05,280.55999999986574,1.178894e-05,280.55999999986574,1.098868e-05,280.55999999986574,4.608983e-06
280.5749999998657,1.589967e-05,280.5749999998657,1.104366e-05,280.5749999998657,1.065149e-05,280.5749999998657,4.608983e-06
280.5899999998657,1.557113e-05,280.5899999998657,1.093728e-05,280.5899999998657,1.040801e-05,280.5899999998657,4.434525e-06
280.6049999998657,1.505506e-05,280.6049999998657,1.065677e-05,280.6049999998657,9.39656e-06,280.6049999998657,4.334932e-06
280.6199999998657,1.457198e-05,280.6199999998657,1.021677e-05,280.6199999998657,9.260655e-06,280.6199999998657,4.299038e-06
280.63499999986567,1.446331e-05,280.63499999986567,1.040936e-05,280.63499999986567,9.37705e-06,280.63499999986567,4.456705e-06
280.64999999986566,1.446136e-05,280.64999999986566,1.063163e-05,280.64999999986566,9.932932e-06,280.64999999986566,4.544346e-06
280.66499999986564,1.37329e-05,280.66499999986564,1.052777e-05,280.66499999986564,1.001344e-05,280.66499999986564,4.538142e-06
280.67999999986563,1.341009e-05,280.67999999986563,1.034284e-05,280.67999999986563,9.886021e-06,280.67999999986563,4.699779e-06
280.6949999998656,1.320153e-05,280.6949999998656,1.020021e-05,280.6949999998656,8.907087e-06,280.6949999998656,4.602866e-06
280.7099999998656,1.289384e-05,280.7099999998656,9.911636e-06,280.7099999998656,8.903924e-06,280.7099999998656,4.666692e-06
280.7249999998656,1.811994e-05,280.7249999998656,9.985267e-06,280.7249999998656,8.897593e-06,280.7249999998656,4.648545e-06
280.7399999998656,2.17428e-05,280.7399999998656,1.140758e-05,280.7399999998656,9.10263e-06,280.7399999998656,4.602866e-06
280.75499999986556,2.345569e-05,280.75499999986556,1.153162e-05,280.75499999986556,9.558568e-06,280.75499999986556,4.590608e-06
280.76999999986555,2.48048e-05,280.76999999986555,1.173385e-05,280.76999999986555,9.462292e-06,280.76999999986555,4.651575e-06
280.78499999986553,2.529851e-05,280.78499999986553,1.154871e-05,280.78499999986553,9.284961e-06,280.78499999986553,4.593675e-06
280.7999999998655,2.533356e-05,280.7999999998655,1.189245e-05,280.7999999998655,8.733001e-06,280.7999999998655,4.562907e-06
280.8149999998655,2.542126e-05,280.8149999998655,1.182355e-05,280.8149999998655,8.723317e-06,280.8149999998655,4.602866e-06
280.8299999998655,2.464413e-05,280.8299999998655,1.233892e-05,280.8299999998655,9.642205e-06,280.8299999998655,4.702775e-06
280.8449999998655,2.519584e-05,280.8449999998655,1.223228e-05,280.8449999998655,9.441426e-06,280.8449999998655,4.987693e-06
280.85999999986547,2.578057e-05,280.85999999986547,1.2397e-05,280.85999999986547,9.433964e-06,280.85999999986547,5.071714e-06
280.87499999986545,2.594669e-05,280.87499999986545,1.242878e-05,280.87499999986545,9.487566e-06,280.87499999986545,4.953686e-06
280.88999999986544,2.599388e-05,280.88999999986544,1.214213e-05,280.88999999986544,9.216436e-06,280.88999999986544,4.853136e-06
280.9049999998654,2.655893e-05,280.9049999998654,1.200562e-05,280.9049999998654,1.010865e-05,280.9049999998654,4.747494e-06
280.9199999998654,2.670175e-05,280.9199999998654,1.276537e-05,280.9199999998654,9.914478e-06,280.9199999998654,4.910845e-06
280.9349999998654,2.741292e-05,280.9349999998654,1.28654e-05,280.9349999998654,1.050634e-05,280.9349999998654,4.867628e-06
280.9499999998654,2.75109e-05,280.9499999998654,1.276096e-05,280.9499999998654,1.063163e-05,280.9499999998654,5.104936e-06
280.96499999986537,2.720142e-05,280.96499999986537,1.271008e-05,280.96499999986537,1.067526e-05,280.96499999986537,5.121465e-06
280.97999999986536,2.337568e-05,280.97999999986536,1.236629e-05,280.97999999986536,1.049427e-05,280.97999999986536,5.173461e-06
280.99499999986534,1.961396e-05,280.99499999986534,1.138904e-05,280.99499999986534,1.001063e-05,280.99499999986534,5.355417e-06
281.00999999986533,1.880361e-05,281.00999999986533,1.141004e-05,281.00999999986533,1.147161e-05,281.00999999986533,5.381656e-06
281.0249999998653,1.673197e-05,281.0249999998653,1.13779e-05,281.0249999998653,1.15974e-05,281.0249999998653,5.376418e-06
281.0399999998653,1.810361e-05,281.0399999998653,1.168453e-05,281.0399999998653,1.153773e-05,281.0399999998653,5.433755e-06
281.0549999998653,1.802172e-05,281.0549999998653,1.193619e-05,281.0549999998653,1.146301e-05,281.0549999998653,5.773135e-06
281.0699999998653,1.778014e-05,281.0699999998653,1.164346e-05,281.0699999998653,1.125466e-05,281.0699999998653,5.682137e-06
281.08499999986526,1.751272e-05,281.08499999986526,1.168211e-05,281.08499999986526,1.047143e-05,281.08499999986526,5.632336e-06
281.09999999986525,1.70009e-05,281.09999999986525,1.23697e-05,281.09999999986525,1.132578e-05,281.09999999986525,5.418178e-06
281.11499999986523,1.646891e-05,281.11499999986523,1.241631e-05,281.11499999986523,1.158646e-05,281.11499999986523,5.446701e-06
281.1299999998652,1.729173e-05,281.1299999998652,1.264675e-05,281.1299999998652,1.160104e-05,281.1299999998652,5.358047e-06
281.1449999998652,1.725748e-05,281.1449999998652,1.279954e-05,281.1449999998652,1.16362e-05,281.1449999998652,5.503306e-06
281.1599999998652,1.634528e-05,281.1599999998652,1.248532e-05,281.1599999998652,1.056384e-05,281.1599999998652,5.516089e-06
281.1749999998652,1.584465e-05,281.1749999998652,1.186873e-05,281.1749999998652,1.02553e-05,281.1749999998652,5.305204e-06
281.18999999986517,1.518549e-05,281.18999999986517,1.192911e-05,281.18999999986517,9.864624e-06,281.18999999986517,5.035477e-06
281.20499999986515,1.582775e-05,281.20499999986515,1.177579e-05,281.20499999986515,1.156456e-05,281.20499999986515,4.864733e-06
281.21999999986514,1.555031e-05,281.21999999986514,1.22023e-05,281.21999999986514,1.183307e-05,281.21999999986514,4.945147e-06
281.2349999998651,1.570714e-05,281.2349999998651,1.278742e-05,281.2349999998651,1.179969e-05,281.2349999998651,5.066156e-06
281.2499999998651,1.551585e-05,281.2499999998651,1.268456e-05,281.2499999998651,1.106023e-05,281.2499999998651,4.953686e-06
281.2649999998651,1.52318e-05,281.2649999998651,1.285992e-05,281.2649999998651,1.010726e-05,281.2649999998651,4.936594e-06
281.2799999998651,1.52207e-05,281.2799999998651,1.278742e-05,281.2799999998651,1.011144e-05,281.2799999998651,4.850233e-06
281.29499999986507,1.451192e-05,281.29499999986507,1.234919e-05,281.29499999986507,1.301129e-05,281.29499999986507,4.919443e-06
281.30999999986506,1.521977e-05,281.30999999986506,1.182116e-05,281.30999999986506,1.312233e-05,281.30999999986506,4.559819e-06
281.32499999986504,1.692533e-05,281.32499999986504,1.176383e-05,281.32499999986504,1.325265e-05,281.32499999986504,4.593675e-06
281.33999999986503,1.693282e-05,281.33999999986503,1.140511e-05,281.33999999986503,1.3147e-05,281.33999999986503,4.660651e-06
281.354999999865,1.661792e-05,281.354999999865,1.086103e-05,281.354999999865,1.243105e-05,281.354999999865,4.645514e-06
281.369999999865,1.646634e-05,281.369999999865,1.065942e-05,281.369999999865,1.221615e-05,281.369999999865,4.599804e-06
281.384999999865,1.524104e-05,281.384999999865,1.010029e-05,281.384999999865,1.267123e-05,281.384999999865,4.636408e-06
281.399999999865,1.532768e-05,281.399999999865,1.015592e-05,281.399999999865,1.322818e-05,281.399999999865,4.627284e-06
281.41499999986496,1.559011e-05,281.41499999986496,1.109457e-05,281.41499999986496,1.326115e-05,281.41499999986496,4.747494e-06
281.42999999986495,1.805374e-05,281.42999999986495,1.102835e-05,281.42999999986495,1.322605e-05,281.42999999986495,4.890725e-06
281.44499999986493,2.028339e-05,281.44499999986493,1.173505e-05,281.44499999986493,1.275433e-05,281.44499999986493,4.979213e-06
281.4599999998649,2.061883e-05,281.4599999998649,1.206298e-05,281.4599999998649,1.184973e-05,281.4599999998649,4.919443e-06
281.4749999998649,2.109632e-05,281.4749999998649,1.137047e-05,281.4749999998649,1.252137e-05,281.4749999998649,4.696781e-06
281.4899999998649,2.105555e-05,281.4899999998649,1.099124e-05,281.4899999998649,1.319513e-05,281.4899999998649,4.559819e-06
281.5049999998649,2.10736e-05,281.5049999998649,1.117175e-05,281.5049999998649,1.32058e-05,281.5049999998649,4.663672e-06
281.51999999986487,2.156846e-05,281.51999999986487,1.15194e-05,281.51999999986487,1.318017e-05,281.51999999986487,4.624239e-06
281.53499999986485,2.117097e-05,281.53499999986485,1.208631e-05,281.53499999986485,1.286869e-05,281.53499999986485,4.627284e-06
281.54999999986484,2.290819e-05,281.54999999986484,1.216183e-05,281.54999999986484,1.026765e-05,281.54999999986484,4.684768e-06
281.5649999998648,2.238885e-05,281.5649999998648,1.212471e-05,281.5649999998648,9.968323e-06,281.5649999998648,4.654602e-06
281.5799999998648,2.135779e-05,281.5799999998648,1.190429e-05,281.5799999998648,1.090374e-05,281.5799999998648,4.599804e-06
281.5949999998648,2.129702e-05,281.5949999998648,1.200327e-05,281.5949999998648,1.10309e-05,281.5949999998648,4.602866e-06
281.6099999998648,2.13261e-05,281.6099999998648,1.231263e-05,281.6099999998648,1.101812e-05,281.6099999998648,4.569077e-06
281.62499999986477,2.143744e-05,281.62499999986477,1.266678e-05,281.62499999986477,1.100661e-05,281.62499999986477,4.753424e-06
281.63999999986476,2.181847e-05,281.63999999986476,1.28654e-05,281.63999999986476,1.006116e-05,281.63999999986476,4.893604e-06
281.65499999986474,2.177322e-05,281.65499999986474,1.249885e-05,281.65499999986474,9.677204e-06,281.65499999986474,4.844421e-06
281.66999999986473,2.174927e-05,281.66999999986473,1.2284e-05,281.66999999986473,1.038362e-05,281.66999999986473,4.605925e-06
281.6849999998647,1.969352e-05,281.6849999998647,1.211774e-05,281.6849999998647,1.052108e-05,281.6849999998647,4.522595e-06
281.6999999998647,1.762257e-05,281.6999999998647,1.131209e-05,281.6999999998647,1.063825e-05,281.6999999998647,4.553636e-06
281.7149999998647,1.676393e-05,281.7149999998647,1.122458e-05,281.7149999998647,1.044718e-05,281.7149999998647,4.612038e-06
281.7299999998647,1.585354e-05,281.7299999998647,1.136303e-05,281.7299999998647,8.826061e-06,281.7299999998647,4.687774e-06
281.74499999986466,1.586863e-05,281.74499999986466,1.147406e-05,281.74499999986466,8.284342e-06,281.74499999986466,4.702775e-06
281.75999999986465,1.538455e-05,281.75999999986465,1.182593e-05,281.75999999986465,8.21433e-06,281.75999999986465,4.850233e-06
281.77499999986463,1.5793e-05,281.77499999986463,1.159861e-05,281.77499999986463,8.226325e-06,281.77499999986463,4.998978e-06
281.7899999998646,1.51567e-05,281.7899999998646,1.158525e-05,281.7899999998646,9.309204e-06,281.7899999998646,5.063375e-06
281.8049999998646,1.260435e-05,281.8049999998646,1.182712e-05,281.8049999998646,1.001063e-05,281.8049999998646,5.091119e-06
281.8199999998646,1.321113e-05,281.8199999998646,1.187585e-05,281.8199999998646,1.015592e-05,281.8199999998646,5.107694e-06
281.8349999998646,1.318979e-05,281.8349999998646,1.188178e-05,281.8349999998646,9.181215e-06,281.8349999998646,5.096651e-06
281.84999999986456,1.324627e-05,281.84999999986456,1.25461e-05,281.84999999986456,9.073179e-06,281.84999999986456,5.071714e-06
281.86499999986455,1.295922e-05,281.86499999986455,1.21282e-05,281.86499999986455,9.09334e-06,281.86499999986455,5.176183e-06
281.87999999986454,1.256069e-05,281.87999999986454,1.205597e-05,281.87999999986454,9.701918e-06,281.87999999986454,5.173461e-06
281.8949999998645,1.261775e-05,281.8949999998645,1.305561e-05,281.8949999998645,9.818822e-06,281.8949999998645,5.038274e-06
281.9099999998645,1.387272e-05,281.9099999998645,1.319406e-05,281.9099999998645,1.056384e-05,281.9099999998645,5.013047e-06
281.9249999998645,1.349804e-05,281.9249999998645,1.32484e-05,281.9249999998645,1.052644e-05,281.9249999998645,5.074491e-06
281.9399999998645,1.296683e-05,281.9399999998645,1.341429e-05,281.9399999998645,1.037547e-05,281.9399999998645,5.137942e-06
281.95499999986447,1.289165e-05,281.95499999986447,1.3602e-05,281.95499999986447,1.100405e-05,281.95499999986447,5.118714e-06
281.96999999986446,1.337117e-05,281.96999999986446,1.388388e-05,281.96999999986446,1.100917e-05,281.96999999986446,5.168013e-06
281.98499999986444,1.333213e-05,281.98499999986444,1.367534e-05,281.98499999986444,1.118687e-05,281.98499999986444,5.063375e-06
281.99999999986443,1.358957e-05,281.99999999986443,1.350848e-05,281.99999999986443,1.125341e-05,281.99999999986443,4.987693e-06
282.0149999998644,1.330357e-05,282.0149999998644,1.314914e-05,282.0149999998644,1.160711e-05,282.0149999998644,4.803539e-06
282.0299999998644,1.285226e-05,282.0299999998644,1.285006e-05,282.0299999998644,1.148633e-05,282.0299999998644,4.605925e-06
282.0449999998644,1.315021e-05,282.0449999998644,1.291349e-05,282.0449999998644,1.174105e-05,282.0449999998644,4.642481e-06
282.0599999998644,1.218613e-05,282.0599999998644,1.289384e-05,282.0599999998644,1.119694e-05,282.0599999998644,4.510119e-06
282.07499999986436,1.207115e-05,282.07499999986436,1.297335e-05,282.07499999986436,1.144948e-05,282.07499999986436,4.535037e-06
282.08999999986435,1.201266e-05,282.08999999986435,1.345309e-05,282.08999999986435,1.165072e-05,282.08999999986435,4.434525e-06
282.10499999986433,1.213516e-05,282.10499999986433,1.276979e-05,282.10499999986433,1.172304e-05,282.10499999986433,4.690778e-06
282.1199999998643,1.223804e-05,282.1199999998643,1.273997e-05,282.1199999998643,1.173385e-05,282.1199999998643,4.500739e-06
282.1349999998643,1.259764e-05,282.1349999998643,1.257414e-05,282.1349999998643,1.175784e-05,282.1349999998643,4.4218e-06
282.1499999998643,1.164467e-05,282.1499999998643,1.165556e-05,282.1499999998643,1.172424e-05,282.1499999998643,4.559819e-06
282.1649999998643,1.09231e-05,282.1649999998643,1.181282e-05,282.1649999998643,1.083245e-05,282.1649999998643,4.522595e-06
282.17999999986426,1.059447e-05,282.17999999986426,1.213749e-05,282.17999999986426,1.095273e-05,282.17999999986426,4.596741e-06
282.19499999986425,1.070689e-05,282.19499999986425,1.215372e-05,282.19499999986425,1.098611e-05,282.19499999986425,4.605925e-06
282.20999999986424,1.035373e-05,282.20999999986424,1.241744e-05,282.20999999986424,1.125592e-05,282.20999999986424,4.645514e-06
282.2249999998642,9.999364e-06,282.2249999998642,1.225874e-05,282.2249999998642,1.173265e-05,282.2249999998642,4.684768e-06
282.2399999998642,1.015315e-05,282.2399999998642,1.248194e-05,282.2399999998642,1.199506e-05,282.2399999998642,4.785911e-06
282.2549999998642,9.752604e-06,282.2549999998642,1.255957e-05,282.2549999998642,1.253262e-05,282.2549999998642,4.882076e-06
282.2699999998642,9.856052e-06,282.2699999998642,1.224494e-05,282.2699999998642,1.274881e-05,282.2699999998642,5.049445e-06
282.28499999986417,1.260882e-05,282.28499999986417,1.199153e-05,282.28499999986417,1.240155e-05,282.28499999986417,5.126963e-06
282.29999999986416,1.286102e-05,282.29999999986416,1.15743e-05,282.29999999986416,1.188652e-05,282.29999999986416,5.148897e-06
282.31499999986414,1.27134e-05,282.31499999986414,1.164225e-05,282.31499999986414,1.188771e-05,282.31499999986414,5.219545e-06
282.3299999998641,1.231378e-05,282.3299999998641,1.128591e-05,282.3299999998641,1.184378e-05,282.3299999998641,5.187057e-06
282.3449999998641,1.221961e-05,282.3449999998641,1.120826e-05,282.3449999998641,1.235717e-05,282.3449999998641,5.071714e-06
282.3599999998641,1.213865e-05,282.3599999998641,1.148879e-05,282.3599999998641,1.247403e-05,282.3599999998641,4.919443e-06
282.3749999998641,1.178894e-05,282.3749999998641,1.149124e-05,282.3749999998641,1.252812e-05,282.3749999998641,4.925167e-06
282.3899999998641,1.151328e-05,282.3899999998641,1.121328e-05,282.3899999998641,1.190902e-05,282.3899999998641,4.967884e-06
282.40499999986406,1.150227e-05,282.40499999986406,1.116292e-05,282.40499999986406,1.192439e-05,282.40499999986406,4.922306e-06
282.41999999986405,1.155846e-05,282.41999999986405,1.088823e-05,282.41999999986405,1.260658e-05,282.41999999986405,5.007424e-06
282.43499999986403,1.158038e-05,282.43499999986403,1.051037e-05,282.43499999986403,1.258534e-05,282.43499999986403,5.035477e-06
282.449999999864,1.140387e-05,282.449999999864,1.025942e-05,282.449999999864,1.234234e-05,282.449999999864,5.057808e-06
282.464999999864,1.140634e-05,282.464999999864,9.958426e-06,282.464999999864,1.168935e-05,282.464999999864,5.001795e-06
282.479999999864,1.121203e-05,282.479999999864,1.084935e-05,282.479999999864,1.117805e-05,282.479999999864,4.922306e-06
282.494999999864,1.123838e-05,282.494999999864,1.253374e-05,282.494999999864,1.105514e-05,282.494999999864,4.928026e-06
282.50999999986396,1.1207e-05,282.50999999986396,1.25562e-05,282.50999999986396,1.116418e-05,282.50999999986396,4.967884e-06
282.52499999986395,1.270675e-05,282.52499999986395,1.273997e-05,282.52499999986395,1.084545e-05,282.52499999986395,4.950841e-06
282.53999999986394,1.292548e-05,282.53999999986394,1.269788e-05,282.53999999986394,1.085454e-05,282.53999999986394,4.916579e-06
282.5549999998639,1.376057e-05,282.5549999998639,1.269011e-05,282.5549999998639,1.099765e-05,282.5549999998639,4.882076e-06
282.5699999998639,1.394058e-05,282.5699999998639,1.259541e-05,282.5699999998639,1.163983e-05,282.5699999998639,4.950841e-06
282.5849999998639,1.476596e-05,282.5849999998639,1.260323e-05,282.5849999998639,1.162288e-05,282.5849999998639,4.987693e-06
282.5999999998639,1.52318e-05,282.5999999998639,1.232407e-05,282.5999999998639,1.140016e-05,282.5999999998639,4.976383e-06
282.61499999986387,1.560005e-05,282.61499999986387,1.243218e-05,282.61499999986387,1.232064e-05,282.61499999986387,4.896482e-06
282.62999999986386,1.606888e-05,282.62999999986386,1.261887e-05,282.62999999986386,1.252587e-05,282.62999999986386,4.947995e-06
282.64499999986384,1.730069e-05,282.64499999986384,1.286869e-05,282.64499999986384,1.2689e-05,282.64499999986384,4.945147e-06
282.6599999998638,1.785603e-05,282.6599999998638,1.301995e-05,282.6599999998638,1.171102e-05,282.6599999998638,4.922306e-06
282.6749999998638,1.787653e-05,282.6749999998638,1.284348e-05,282.6749999998638,1.194917e-05,282.6749999998638,4.720713e-06
282.6899999998638,1.804204e-05,282.6899999998638,1.285445e-05,282.6899999998638,1.180924e-05,282.6899999998638,4.69378e-06
282.7049999998638,1.831711e-05,282.7049999998638,1.273886e-05,282.7049999998638,1.17746e-05,282.7049999998638,4.759348e-06
282.7199999998638,1.837087e-05,282.7199999998638,1.253149e-05,282.7199999998638,1.165072e-05,282.7199999998638,4.696781e-06
282.73499999986376,1.843058e-05,282.73499999986376,1.134815e-05,282.73499999986376,1.282373e-05,282.73499999986376,4.642481e-06
282.74999999986375,1.863051e-05,282.74999999986375,1.039582e-05,282.74999999986375,1.217919e-05,282.74999999986375,4.753424e-06
282.76499999986373,1.891267e-05,282.76499999986373,1.06779e-05,282.76499999986373,1.233549e-05,282.76499999986373,4.596741e-06
282.7799999998637,1.689367e-05,282.7799999998637,1.043234e-05,282.7799999998637,1.232178e-05,282.7799999998637,4.765263e-06
282.7949999998637,1.606888e-05,282.7949999998637,1.076985e-05,282.7949999998637,1.214097e-05,282.7949999998637,4.856038e-06
282.8099999998637,1.595009e-05,282.8099999998637,1.107042e-05,282.8099999998637,1.215952e-05,282.8099999998637,4.800605e-06
282.8249999998637,1.585442e-05,282.8249999998637,1.084935e-05,282.8249999998637,1.214445e-05,282.8249999998637,4.777073e-06
282.83999999986366,1.507376e-05,282.83999999986366,1.102962e-05,282.83999999986366,1.181878e-05,282.83999999986366,4.788854e-06
282.85499999986365,1.484019e-05,282.85499999986365,1.096943e-05,282.85499999986365,1.176263e-05,282.85499999986365,4.774123e-06
282.86999999986364,1.43263e-05,282.86999999986364,1.101301e-05,282.86999999986364,1.095401e-05,282.86999999986364,4.858938e-06
282.8849999998636,1.365059e-05,282.8849999998636,1.073579e-05,282.8849999998636,1.186161e-05,282.8849999998636,4.826943e-06
282.8999999998636,1.20933e-05,282.8999999998636,1.064619e-05,282.8999999998636,1.183069e-05,282.8999999998636,4.861837e-06
282.9149999998636,1.165072e-05,282.9149999998636,1.07476e-05,282.9149999998636,1.210611e-05,282.9149999998636,4.832776e-06
282.9299999998636,1.168694e-05,282.9299999998636,1.083636e-05,282.9299999998636,1.203141e-05,282.9299999998636,4.890725e-06
282.94499999986357,1.143717e-05,282.94499999986357,1.201266e-05,282.94499999986357,1.233092e-05,282.94499999986357,4.768218e-06
282.95999999986356,1.206765e-05,282.95999999986356,1.201618e-05,282.95999999986356,1.345937e-05,282.95999999986356,4.780021e-06
282.97499999986354,1.278963e-05,282.97499999986354,1.206765e-05,282.97499999986354,1.3547e-05,282.97499999986354,4.762306e-06
282.9899999998635,1.310515e-05,282.9899999998635,1.203492e-05,282.9899999998635,1.266011e-05,282.9899999998635,4.67875e-06
283.0049999998635,1.325478e-05,283.0049999998635,1.181163e-05,283.0049999998635,1.269233e-05,283.0049999998635,4.660651e-06
283.0199999998635,1.335114e-05,283.0199999998635,1.150839e-05,283.0199999998635,1.3547e-05,283.0199999998635,4.599804e-06
283.0349999998635,1.259764e-05,283.0349999998635,1.196095e-05,283.0349999998635,1.36475e-05,283.0349999998635,4.38019e-06
283.0499999998635,1.282153e-05,283.0499999998635,1.196684e-05,283.0499999998635,1.398497e-05,283.0499999998635,4.229668e-06
283.06499999986346,1.3103e-05,283.06499999986346,1.184021e-05,283.06499999986346,1.391226e-05,283.06499999986346,4.299038e-06
283.07999999986345,1.368872e-05,283.07999999986345,1.189837e-05,283.07999999986345,1.317376e-05,283.07999999986345,4.259536e-06
283.09499999986343,1.454005e-05,283.09499999986343,1.151818e-05,283.09499999986343,1.295379e-05,283.09499999986343,4.29248e-06
283.1099999998634,1.485063e-05,283.1099999998634,1.238677e-05,283.1099999998634,1.268012e-05,283.1099999998634,4.285911e-06
283.1249999998634,1.492254e-05,283.1249999998634,1.222307e-05,283.1249999998634,1.242991e-05,283.1249999998634,4.256228e-06
283.1399999998634,1.477455e-05,283.1399999998634,1.206531e-05,283.1399999998634,1.142978e-05,283.1399999998634,4.179412e-06
283.1549999998634,1.47526e-05,283.1549999998634,1.207465e-05,283.1549999998634,1.215488e-05,283.1549999998634,4.059732e-06
283.16999999986336,1.481359e-05,283.16999999986336,1.233092e-05,283.16999999986336,1.186517e-05,283.16999999986336,4.077044e-06
283.18499999986335,1.468657e-05,283.18499999986335,1.294508e-05,283.18499999986335,1.198213e-05,283.18499999986335,4.104592e-06
283.19999999986334,1.440084e-05,283.19999999986334,1.207698e-05,283.19999999986334,1.080902e-05,283.19999999986334,4.11145e-06
283.2149999998633,1.379227e-05,283.2149999998633,1.290585e-05,283.2149999998633,1.054916e-05,283.2149999998633,4.138769e-06
283.2299999998633,1.305453e-05,283.2299999998633,1.271008e-05,283.2299999998633,1.120071e-05,283.2299999998633,4.135364e-06
283.2449999998633,1.260882e-05,283.2449999998633,1.292875e-05,283.2449999998633,1.154017e-05,283.2449999998633,4.272744e-06
283.2599999998633,1.242878e-05,283.2599999998633,1.311911e-05,283.2599999998633,1.133946e-05,283.2599999998633,4.272744e-06
283.27499999986327,1.151818e-05,283.27499999986327,1.319726e-05,283.27499999986327,1.016285e-05,283.27499999986327,4.428167e-06
283.28999999986326,1.167367e-05,283.28999999986326,1.276868e-05,283.28999999986326,9.951351e-06,283.28999999986326,4.466178e-06
283.30499999986324,1.116166e-05,283.30499999986324,1.275765e-05,283.30499999986324,1.035781e-05,283.30499999986324,4.618143e-06
283.3199999998632,1.039311e-05,283.3199999998632,1.28391e-05,283.3199999998632,1.149492e-05,283.3199999998632,4.541245e-06
283.3349999998632,9.178147e-06,283.3349999998632,1.262445e-05,283.3349999998632,1.156212e-05,283.3349999998632,4.621192e-06
283.3499999998632,7.97593e-06,283.3499999998632,1.301021e-05,283.3499999998632,1.164467e-05,283.3499999998632,4.621192e-06
283.3649999998632,8.851561e-06,283.3649999998632,1.249322e-05,283.3649999998632,1.172064e-05,283.3649999998632,4.66971e-06
283.3799999998632,9.429483e-06,283.3799999998632,1.293964e-05,283.3799999998632,1.287963e-05,283.3799999998632,4.771172e-06
283.39499999986316,1.024843e-05,283.39499999986316,1.292548e-05,283.39499999986316,1.299938e-05,283.39499999986316,4.788854e-06
283.40999999986315,1.108949e-05,283.40999999986315,1.293202e-05,283.40999999986315,1.222768e-05,283.40999999986315,4.82986e-06
283.42499999986313,1.120826e-05,283.42499999986313,1.22461e-05,283.42499999986313,1.20968e-05,283.42499999986313,4.777073e-06
283.4399999998631,1.134318e-05,283.4399999998631,1.17038e-05,283.4399999998631,1.194445e-05,283.4399999998631,4.672725e-06
283.4549999998631,1.183902e-05,283.4549999998631,1.164225e-05,283.4549999998631,1.180805e-05,283.4549999998631,4.756387e-06
283.4699999998631,1.223689e-05,283.4699999998631,1.092052e-05,283.4699999998631,1.12484e-05,283.4699999998631,4.771172e-06
283.4849999998631,1.224379e-05,283.4849999998631,1.090116e-05,283.4849999998631,1.048756e-05,283.4849999998631,4.765263e-06
283.49999999986306,1.226908e-05,283.49999999986306,1.060643e-05,283.49999999986306,1.021125e-05,283.49999999986306,4.809401e-06
283.51499999986305,1.189955e-05,283.51499999986305,1.077508e-05,283.51499999986305,1.007375e-05,283.51499999986305,4.973552e-06
283.52999999986304,1.188297e-05,283.52999999986304,1.069109e-05,283.52999999986304,9.981033e-06,283.52999999986304,4.95937e-06
283.544999999863,1.141375e-05,283.544999999863,1.087917e-05,283.544999999863,1.078423e-05,283.544999999863,4.902232e-06
283.559999999863,1.135311e-05,283.559999999863,1.049158e-05,283.559999999863,1.01337e-05,283.559999999863,5.165286e-06
283.574999999863,1.176383e-05,283.574999999863,1.051171e-05,283.574999999863,9.074732e-06,283.574999999863,5.259872e-06
283.589999999863,1.190784e-05,283.589999999863,1.069899e-05,283.589999999863,9.598277e-06,283.589999999863,5.315815e-06
283.60499999986297,1.182593e-05,283.60499999986297,1.059978e-05,283.60499999986297,1.006116e-05,283.60499999986297,5.323759e-06
283.61999999986296,1.082335e-05,283.61999999986296,1.045662e-05,283.61999999986296,9.961255e-06,283.61999999986296,5.495621e-06
283.63499999986294,1.059447e-05,283.63499999986294,9.993728e-06,283.63499999986294,8.540542e-06,283.63499999986294,5.352786e-06
283.6499999998629,9.624658e-06,283.6499999998629,1.002188e-05,283.6499999998629,8.527336e-06,283.6499999998629,5.273245e-06
283.6649999998629,8.984247e-06,283.6649999998629,9.805902e-06,283.6649999998629,8.656856e-06,283.6649999998629,5.397339e-06
283.6799999998629,8.891258e-06,283.6799999998629,1.013092e-05,283.6799999998629,8.876988e-06,283.6799999998629,5.549188e-06
283.6949999998629,8.571823e-06,283.6949999998629,1.097842e-05,283.6949999998629,1.013092e-05,283.6949999998629,5.503306e-06
283.7099999998629,7.719241e-06,283.7099999998629,1.108695e-05,283.7099999998629,1.033739e-05,283.7099999998629,5.554263e-06
283.72499999986286,7.586711e-06,283.72499999986286,1.137419e-05,283.72499999986286,1.032102e-05,283.72499999986286,5.544109e-06
283.73999999986285,7.669811e-06,283.73999999986285,1.130836e-05,283.73999999986285,1.063693e-05,283.73999999986285,5.571988e-06
283.75499999986283,7.99181e-06,283.75499999986283,1.153162e-05,283.75499999986283,1.092052e-05,283.75499999986283,5.273245e-06
283.7699999998628,8.068993e-06,283.7699999998628,1.181282e-05,283.7699999998628,1.163983e-05,283.7699999998628,5.376418e-06
283.7849999998628,8.274134e-06,283.7849999998628,1.179731e-05,283.7849999998628,1.21282e-05,283.7849999998628,5.310512e-06
283.7999999998628,8.188566e-06,283.7999999998628,1.214793e-05,283.7999999998628,1.12934e-05,283.7999999998628,5.22494e-06
283.8149999998628,8.2229e-06,283.8149999998628,1.192202e-05,283.8149999998628,1.108059e-05,283.8149999998628,4.962209e-06
283.82999999986276,7.50457e-06,283.82999999986276,1.182116e-05,283.82999999986276,1.108949e-05,283.82999999986276,4.800605e-06
283.84499999986275,7.425313e-06,283.84499999986275,1.164225e-05,283.84499999986275,1.083506e-05,283.84499999986275,4.69378e-06
283.85999999986274,7.48201e-06,283.85999999986274,1.135931e-05,283.85999999986274,1.116544e-05,283.85999999986274,4.338181e-06
283.8749999998627,8.154087e-06,283.8749999998627,1.186042e-05,283.8749999998627,1.124966e-05,283.8749999998627,4.463023e-06
283.8899999998627,8.892842e-06,283.8899999998627,1.197037e-05,283.8899999998627,1.122458e-05,283.8899999998627,4.624239e-06
283.9049999998627,1.035101e-05,283.9049999998627,1.214213e-05,283.9049999998627,1.122333e-05,283.9049999998627,4.639445e-06
283.9199999998627,1.103728e-05,283.9199999998627,1.238336e-05,283.9199999998627,1.128716e-05,283.9199999998627,4.553636e-06
283.93499999986267,1.199975e-05,283.93499999986267,1.131334e-05,283.93499999986267,1.209097e-05,283.93499999986267,4.459865e-06
283.94999999986265,1.233549e-05,283.94999999986265,1.193619e-05,283.94999999986265,1.157186e-05,283.94999999986265,4.424985e-06
283.96499999986264,1.301021e-05,283.96499999986264,1.204896e-05,283.96499999986264,1.139027e-05,283.96499999986264,4.440873e-06
283.9799999998626,1.366503e-05,283.9799999998626,1.24129e-05,283.9799999998626,1.141251e-05,283.9799999998626,4.415424e-06
283.9949999998626,1.373085e-05,283.9949999998626,1.242084e-05,283.9949999998626,1.109203e-05,283.9949999998626,4.399444e-06
284.0099999998626,1.350326e-05,284.0099999998626,1.236059e-05,284.0099999998626,1.056917e-05,284.0099999998626,4.553636e-06
284.0249999998626,1.342689e-05,284.0249999998626,1.215024e-05,284.0249999998626,9.554146e-06,284.0249999998626,4.308857e-06
284.0399999998626,1.338486e-05,284.0399999998626,1.206064e-05,284.0399999998626,9.40555e-06,284.0399999998626,4.39624e-06
284.05499999986256,1.341429e-05,284.05499999986256,1.218382e-05,284.05499999986256,9.75838e-06,284.05499999986256,4.513241e-06
284.06999999986255,1.343004e-05,284.06999999986255,1.227597e-05,284.06999999986255,1.089987e-05,284.06999999986255,4.547444e-06
284.08499999986253,1.337328e-05,284.08499999986253,1.23845e-05,284.08499999986253,1.065545e-05,284.08499999986253,4.648545e-06
284.0999999998625,1.324202e-05,284.0999999998625,1.23936e-05,284.0999999998625,1.078423e-05,284.0999999998625,4.717728e-06
284.1149999998625,1.269566e-05,284.1149999998625,1.227252e-05,284.1149999998625,1.042424e-05,284.1149999998625,4.708762e-06
284.1299999998625,1.211774e-05,284.1299999998625,1.228055e-05,284.1299999998625,1.016008e-05,284.1299999998625,4.910845e-06
284.1449999998625,1.180208e-05,284.1449999998625,1.243218e-05,284.1449999998625,1.082595e-05,284.1449999998625,4.870521e-06
284.15999999986246,1.040124e-05,284.15999999986246,1.253487e-05,284.15999999986246,1.084935e-05,284.15999999986246,4.922306e-06
284.17499999986245,9.857482e-06,284.17499999986245,1.246161e-05,284.17499999986245,1.079859e-05,284.17499999986245,4.965048e-06
284.18999999986244,8.814882e-06,284.18999999986244,1.24129e-05,284.18999999986244,9.52757e-06,284.18999999986244,5.027078e-06
284.2049999998624,8.253678e-06,284.2049999998624,1.164346e-05,284.2049999998624,9.958426e-06,284.2049999998624,5.052234e-06
284.2199999998624,6.235322e-06,284.2199999998624,1.132578e-05,284.2199999998624,9.972562e-06,284.2199999998624,5.132455e-06
284.2349999998624,6.293787e-06,284.2349999998624,1.126342e-05,284.2349999998624,1.075284e-05,284.2349999998624,5.12971e-06
284.2499999998624,6.021555e-06,284.2499999998624,1.107678e-05,284.2499999998624,1.094372e-05,284.2499999998624,5.093886e-06
284.26499999986237,5.948592e-06,284.26499999986237,1.128591e-05,284.26499999986237,1.119191e-05,284.26499999986237,5.038274e-06
284.27999999986235,5.953326e-06,284.27999999986235,1.109838e-05,284.27999999986235,1.116923e-05,284.27999999986235,5.159829e-06
284.29499999986234,6.262374e-06,284.29499999986234,1.123587e-05,284.29499999986234,1.123963e-05,284.29499999986234,5.085583e-06
284.3099999998623,6.597564e-06,284.3099999998623,1.117931e-05,284.3099999998623,1.140264e-05,284.3099999998623,5.066156e-06
284.3249999998623,6.404719e-06,284.3249999998623,1.131085e-05,284.3249999998623,1.098611e-05,284.3249999998623,5.22494e-06
284.3399999998623,6.505105e-06,284.3399999998623,1.201618e-05,284.3399999998623,1.13096e-05,284.3399999998623,5.329048e-06
284.3549999998623,6.782854e-06,284.3549999998623,1.1896e-05,284.3549999998623,1.123587e-05,284.3549999998623,5.407768e-06
284.3699999998623,7.095478e-06,284.3699999998623,1.209912e-05,284.3699999998623,1.121831e-05,284.3699999998623,5.423375e-06
284.38499999986226,7.170523e-06,284.38499999986226,1.186517e-05,284.38499999986226,1.132205e-05,284.38499999986226,5.189773e-06
284.39999999986225,7.00959e-06,284.39999999986225,1.169778e-05,284.39999999986225,1.06356e-05,284.39999999986225,5.140683e-06
284.41499999986223,6.999535e-06,284.41499999986223,1.171823e-05,284.41499999986223,1.097072e-05,284.41499999986223,5.099414e-06
284.4299999998622,7.137048e-06,284.4299999998622,1.204662e-05,284.4299999998622,1.118687e-05,284.4299999998622,5.195198e-06
284.4449999998622,7.123218e-06,284.4449999998622,1.253824e-05,284.4449999998622,1.074628e-05,284.4449999998622,5.219545e-06
284.4599999998622,7.065636e-06,284.4599999998622,1.24729e-05,284.4599999998622,1.093857e-05,284.4599999998622,5.102175e-06
284.4749999998622,7.345202e-06,284.4749999998622,1.224494e-05,284.4749999998622,1.099509e-05,284.4749999998622,5.118714e-06
284.48999999986216,7.219469e-06,284.48999999986216,1.252362e-05,284.48999999986216,1.042829e-05,284.48999999986216,5.068936e-06
284.50499999986215,7.215565e-06,284.50499999986215,1.242198e-05,284.50499999986215,1.125466e-05,284.50499999986215,5.043863e-06
284.51999999986214,7.229218e-06,284.51999999986214,1.249885e-05,284.51999999986214,1.133821e-05,284.51999999986214,4.925167e-06
284.5349999998621,7.19993e-06,284.5349999998621,1.270343e-05,284.5349999998621,1.142978e-05,284.5349999998621,5.018664e-06
284.5499999998621,6.776621e-06,284.5499999998621,1.256181e-05,284.5499999998621,1.125216e-05,284.5499999998621,5.124215e-06
284.5649999998621,6.892046e-06,284.5649999998621,1.225989e-05,284.5649999998621,1.075153e-05,284.5649999998621,5.038274e-06
284.5799999998621,7.335607e-06,284.5799999998621,1.199388e-05,284.5799999998621,1.032239e-05,284.5799999998621,4.882076e-06
284.59499999986207,7.577422e-06,284.59499999986207,1.171583e-05,284.59499999986207,1.051037e-05,284.59499999986207,4.756387e-06
284.60999999986205,8.150632e-06,284.60999999986205,1.225184e-05,284.60999999986205,1.072529e-05,284.60999999986205,4.657627e-06
284.62499999986204,7.808148e-06,284.62499999986204,1.188415e-05,284.62499999986204,1.084155e-05,284.62499999986204,4.756387e-06
284.639999999862,7.99181e-06,284.639999999862,1.186636e-05,284.639999999862,1.082725e-05,284.639999999862,4.660651e-06
284.654999999862,8.389105e-06,284.654999999862,1.192793e-05,284.654999999862,1.086232e-05,284.654999999862,4.708762e-06
284.669999999862,8.525684e-06,284.669999999862,1.180685e-05,284.669999999862,1.10666e-05,284.669999999862,4.70577e-06
284.684999999862,9.637821e-06,284.684999999862,1.190665e-05,284.684999999862,1.101812e-05,284.684999999862,4.654602e-06
284.699999999862,1.092568e-05,284.699999999862,1.21572e-05,284.699999999862,1.11212e-05,284.699999999862,4.636408e-06
284.71499999986196,1.156334e-05,284.71499999986196,1.221269e-05,284.71499999986196,1.117931e-05,284.71499999986196,4.696781e-06
284.72999999986195,1.183664e-05,284.72999999986195,1.251912e-05,284.72999999986195,1.10194e-05,284.72999999986195,4.666692e-06
284.74499999986193,1.184259e-05,284.74499999986193,1.19102e-05,284.74499999986193,1.0306e-05,284.74499999986193,4.618143e-06
284.7599999998619,1.185448e-05,284.7599999998619,1.180089e-05,284.7599999998619,9.67866e-06,284.7599999998619,4.657627e-06
284.7749999998619,1.182474e-05,284.7749999998619,1.155968e-05,284.7749999998619,9.42201e-06,284.7749999998619,4.553636e-06
284.7899999998619,1.183545e-05,284.7899999998619,1.170019e-05,284.7899999998619,9.435456e-06,284.7899999998619,4.478776e-06
284.8049999998619,1.178536e-05,284.8049999998619,1.18806e-05,284.8049999998619,9.704822e-06,284.8049999998619,4.456705e-06
284.81999999986186,1.17038e-05,284.81999999986186,1.184735e-05,284.81999999986186,1.029779e-05,284.81999999986186,4.559819e-06
284.83499999986185,1.132454e-05,284.83499999986185,1.211192e-05,284.83499999986185,9.667009e-06,284.83499999986185,4.590608e-06
284.84999999986184,1.087269e-05,284.84999999986184,1.209796e-05,284.84999999986184,9.665551e-06,284.84999999986184,4.720713e-06
284.8649999998618,1.0762e-05,284.8649999998618,1.151695e-05,284.8649999998618,1.013509e-05,284.8649999998618,4.812329e-06
284.8799999998618,1.079207e-05,284.8799999998618,1.21514e-05,284.8799999998618,1.009471e-05,284.8799999998618,4.838602e-06
284.8949999998618,1.080902e-05,284.8949999998618,1.225989e-05,284.8949999998618,1.026217e-05,284.8949999998618,4.841512e-06
284.9099999998618,1.066866e-05,284.9099999998618,1.231606e-05,284.9099999998618,9.945687e-06,284.9099999998618,4.947995e-06
284.92499999986177,1.000077e-05,284.92499999986177,1.244577e-05,284.92499999986177,9.142777e-06,284.92499999986177,4.907976e-06
284.93999999986175,9.254569e-06,284.93999999986175,1.208398e-05,284.93999999986175,8.959125e-06,284.93999999986175,4.873412e-06
284.95499999986174,7.345202e-06,284.95499999986174,1.159618e-05,284.95499999986174,9.217965e-06,284.95499999986174,5.02147e-06
284.9699999998617,6.128222e-06,284.9699999998617,1.199388e-05,284.9699999998617,9.661178e-06,284.9699999998617,4.965048e-06
284.9849999998617,5.95096e-06,284.9849999998617,1.192557e-05,284.9849999998617,9.722225e-06,284.9849999998617,5.024275e-06
284.9999999998617,6.082075e-06,284.9999999998617,1.195624e-05,284.9999999998617,9.756936e-06,284.9999999998617,4.936594e-06
285.0149999998617,6.068162e-06,285.0149999998617,1.193855e-05,285.0149999998617,1.005556e-05,285.0149999998617,4.95937e-06
285.0299999998617,6.086705e-06,285.0299999998617,1.186636e-05,285.0299999998617,1.005135e-05,285.0299999998617,4.930884e-06
285.04499999986166,6.06584e-06,285.04499999986166,1.147161e-05,285.04499999986166,1.039717e-05,285.04499999986166,4.919443e-06
285.05999999986165,6.114414e-06,285.05999999986165,1.156577e-05,285.05999999986165,9.837455e-06,285.05999999986165,4.821102e-06
285.07499999986163,5.995767e-06,285.07499999986163,1.14667e-05,285.07499999986163,1.006676e-05,285.07499999986163,4.759348e-06
285.0899999998616,6.105191e-06,285.0899999998616,1.136551e-05,285.0899999998616,1.007375e-05,285.0899999998616,4.708762e-06
285.1049999998616,6.051891e-06,285.1049999998616,1.136799e-05,285.1049999998616,9.989498e-06,285.1049999998616,4.794733e-06
285.1199999998616,5.8867e-06,285.1199999998616,1.129215e-05,285.1199999998616,9.336401e-06,285.1199999998616,4.765263e-06
285.1349999998616,5.903427e-06,285.1349999998616,1.04983e-05,285.1349999998616,9.833158e-06,285.1349999998616,4.621192e-06
285.14999999986156,5.246463e-06,285.14999999986156,1.079729e-05,285.14999999986156,1.074235e-05,285.14999999986156,4.608983e-06
285.16499999986155,5.12971e-06,285.16499999986155,1.081684e-05,285.16499999986155,1.091536e-05,285.16499999986155,4.630328e-06
285.17999999986154,5.159829e-06,285.17999999986154,1.048621e-05,285.17999999986154,1.097457e-05,285.17999999986154,4.648545e-06
285.1949999998615,5.178904e-06,285.1949999998615,1.121705e-05,285.1949999998615,1.091924e-05,285.1949999998615,4.453544e-06
285.2099999998615,5.454455e-06,285.2099999998615,1.084545e-05,285.2099999998615,1.038226e-05,285.2099999998615,4.550541e-06
285.2249999998615,5.582091e-06,285.2249999998615,1.024843e-05,285.2249999998615,1.115156e-05,285.2249999998615,4.503868e-06
285.2399999998615,5.855509e-06,285.2399999998615,1.013092e-05,285.2399999998615,1.187467e-05,285.2399999998615,4.608983e-06
285.25499999986147,5.721665e-06,285.25499999986147,1.001204e-05,285.25499999986147,1.193973e-05,285.25499999986147,4.67875e-06
285.26999999986145,5.726587e-06,285.26999999986145,1.136675e-05,285.26999999986145,1.173265e-05,285.26999999986145,4.717728e-06
285.28499999986144,6.571893e-06,285.28499999986144,1.211076e-05,285.28499999986144,1.185924e-05,285.28499999986144,4.887844e-06
285.2999999998614,6.94904e-06,285.2999999998614,1.243671e-05,285.2999999998614,1.209563e-05,285.2999999998614,4.884961e-06
285.3149999998614,8.462665e-06,285.3149999998614,1.242198e-05,285.3149999998614,1.209214e-05,285.3149999998614,4.844421e-06
285.3299999998614,8.502521e-06,285.3299999998614,1.2284e-05,285.3299999998614,1.213749e-05,285.3299999998614,4.83569e-06
285.3449999998614,8.598076e-06,285.3449999998614,1.241858e-05,285.3449999998614,1.215372e-05,285.3449999998614,4.741556e-06
285.3599999998614,8.616079e-06,285.3599999998614,1.254273e-05,285.3599999998614,1.219769e-05,285.3599999998614,4.774123e-06
285.37499999986136,8.826061e-06,285.37499999986136,1.255396e-05,285.37499999986136,1.180805e-05,285.37499999986136,4.771172e-06
285.38999999986135,9.318279e-06,285.38999999986135,1.289384e-05,285.38999999986135,1.224379e-05,285.38999999986135,4.744526e-06
285.40499999986133,1.032784e-05,285.40499999986133,1.259876e-05,285.40499999986133,1.162167e-05,285.40499999986133,4.522595e-06
285.4199999998613,1.093728e-05,285.4199999998613,1.285992e-05,285.4199999998613,1.169658e-05,285.4199999998613,4.593675e-06
285.4349999998613,1.254498e-05,285.4349999998613,1.253037e-05,285.4349999998613,1.164346e-05,285.4349999998613,4.821102e-06
285.4499999998613,1.264452e-05,285.4499999998613,1.228285e-05,285.4499999998613,1.156334e-05,285.4499999998613,4.853136e-06
285.4649999998613,1.249998e-05,285.4649999998613,1.245369e-05,285.4649999998613,1.059712e-05,285.4649999998613,4.870521e-06
285.47999999986126,1.252137e-05,285.47999999986126,1.302536e-05,285.47999999986126,1.001907e-05,285.47999999986126,4.905105e-06
285.49499999986125,1.238109e-05,285.49499999986125,1.302212e-05,285.49499999986125,9.595341e-06,285.49499999986125,4.962209e-06
285.50999999986124,1.230691e-05,285.50999999986124,1.310085e-05,285.50999999986124,1.002469e-05,285.50999999986124,4.973552e-06
285.5249999998612,1.221615e-05,285.5249999998612,1.125091e-05,285.5249999998612,1.22e-05,285.5249999998612,4.838602e-06
285.5399999998612,1.192675e-05,285.5399999998612,1.118561e-05,285.5399999998612,1.154505e-05,285.5399999998612,5.013047e-06
285.5549999998612,1.156699e-05,285.5549999998612,1.102835e-05,285.5549999998612,1.134939e-05,285.5549999998612,5.118714e-06
285.5699999998612,1.063958e-05,285.5699999998612,1.127467e-05,285.5699999998612,1.087269e-05,285.5699999998612,5.192486e-06
285.58499999986117,1.045258e-05,285.58499999986117,1.182593e-05,285.58499999986117,1.216647e-05,285.58499999986117,5.137942e-06
285.59999999986115,1.048218e-05,285.59999999986115,1.160833e-05,285.59999999986115,1.32898e-05,285.59999999986115,5.154366e-06
285.61499999986114,1.06051e-05,285.61499999986114,1.160954e-05,285.61499999986114,1.330781e-05,285.61499999986114,5.060592e-06
285.6299999998611,1.067131e-05,285.6299999998611,1.152184e-05,285.6299999998611,1.294399e-05,285.6299999998611,5.121465e-06
285.6449999998611,1.095273e-05,285.6449999998611,1.229775e-05,285.6449999998611,1.250674e-05,285.6449999998611,5.168013e-06
285.6599999998611,1.028274e-05,285.6599999998611,1.25831e-05,285.6599999998611,1.232978e-05,285.6599999998611,5.189773e-06
285.6749999998611,1.018777e-05,285.6749999998611,1.288947e-05,285.6749999998611,1.292548e-05,285.6749999998611,5.262549e-06
285.6899999998611,1.075415e-05,285.6899999998611,1.277089e-05,285.6899999998611,1.345833e-05,285.6899999998611,4.979213e-06
285.70499999986106,1.132205e-05,285.70499999986106,1.261329e-05,285.70499999986106,1.345309e-05,285.70499999986106,4.982041e-06
285.71999999986105,1.287963e-05,285.71999999986105,1.243784e-05,285.71999999986105,1.346147e-05,285.71999999986105,5.007424e-06
285.73499999986103,1.428692e-05,285.73499999986103,1.214329e-05,285.73499999986103,1.351265e-05,285.73499999986103,4.890725e-06
285.749999999861,1.581617e-05,285.749999999861,1.24729e-05,285.749999999861,1.343109e-05,285.749999999861,4.882076e-06
285.764999999861,1.629003e-05,285.764999999861,1.318445e-05,285.764999999861,1.202672e-05,285.764999999861,4.887844e-06
285.779999999861,1.630558e-05,285.779999999861,1.342059e-05,285.779999999861,1.100533e-05,285.779999999861,4.910845e-06
285.794999999861,1.630558e-05,285.794999999861,1.308471e-05,285.794999999861,1.081944e-05,285.794999999861,4.753424e-06
285.80999999986096,1.628397e-05,285.80999999986096,1.300371e-05,285.80999999986096,1.083895e-05,285.80999999986096,4.806471e-06
285.82499999986095,1.627618e-05,285.82499999986095,1.326221e-05,285.82499999986095,1.10309e-05,285.82499999986095,4.841512e-06
285.83999999986094,1.629781e-05,285.83999999986094,1.306855e-05,285.83999999986094,1.137542e-05,285.83999999986094,4.919443e-06
285.8549999998609,1.633752e-05,285.8549999998609,1.295052e-05,285.8549999998609,1.069372e-05,285.8549999998609,4.919443e-06
285.8699999998609,1.625713e-05,285.8699999998609,1.3451e-05,285.8699999998609,1.066074e-05,285.8699999998609,5.091119e-06
285.8849999998609,1.60829e-05,285.8849999998609,1.304049e-05,285.8849999998609,1.074235e-05,285.8849999998609,5.00461e-06
285.8999999998609,1.546947e-05,285.8999999998609,1.259652e-05,285.8999999998609,1.222422e-05,285.8999999998609,5.018664e-06
285.91499999986087,1.536898e-05,285.91499999986087,1.213749e-05,285.91499999986087,1.237426e-05,285.91499999986087,4.967884e-06
285.92999999986085,1.462794e-05,285.92999999986085,1.235831e-05,285.92999999986085,1.186755e-05,285.92999999986085,4.984868e-06
285.94499999986084,1.365162e-05,285.94499999986084,1.248532e-05,285.94499999986084,1.128841e-05,285.94499999986084,4.970719e-06
285.9599999998608,1.315236e-05,285.9599999998608,1.294835e-05,285.9599999998608,1.126467e-05,285.9599999998608,5.157098e-06
285.9749999998608,1.166764e-05,285.9749999998608,1.292112e-05,285.9749999998608,1.129589e-05,285.9749999998608,5.154366e-06
285.9899999998608,8.169621e-06,285.9899999998608,1.347402e-05,285.9899999998608,1.126717e-05,285.9899999998608,5.063375e-06
286.0049999998608,7.1921e-06,286.0049999998608,1.3547e-05,286.0049999998608,1.139769e-05,286.0049999998608,5.018664e-06
286.0199999998608,6.591156e-06,286.0199999998608,1.334164e-05,286.0199999998608,1.219076e-05,286.0199999998608,5.066156e-06
286.03499999986076,6.766219e-06,286.03499999986076,1.348551e-05,286.03499999986076,1.224954e-05,286.03499999986076,5.140683e-06
286.04999999986074,7.519571e-06,286.04999999986074,1.353764e-05,286.04999999986074,1.224149e-05,286.04999999986074,5.273245e-06
286.06499999986073,8.140256e-06,286.06499999986073,1.372058e-05,286.06499999986073,1.222768e-05,286.06499999986073,5.178904e-06
286.0799999998607,8.200599e-06,286.0799999998607,1.331945e-05,286.0799999998607,1.207698e-05,286.0799999998607,5.297233e-06
286.0949999998607,8.684475e-06,286.0949999998607,1.334586e-05,286.0949999998607,1.139893e-05,286.0949999998607,5.428567e-06
286.1099999998607,9.442919e-06,286.1099999998607,1.357194e-05,286.1099999998607,1.146547e-05,286.1099999998607,5.344885e-06
286.1249999998607,1.152429e-05,286.1249999998607,1.369695e-05,286.1249999998607,1.166039e-05,286.1249999998607,5.352786e-06
286.13999999986066,1.537906e-05,286.13999999986066,1.375237e-05,286.13999999986066,1.181401e-05,286.13999999986066,5.436346e-06
286.15499999986065,1.596687e-05,286.15499999986065,1.346565e-05,286.15499999986065,1.002047e-05,286.15499999986065,5.381656e-06
286.16999999986064,1.660351e-05,286.16999999986064,1.315129e-05,286.16999999986064,9.687388e-06,286.16999999986064,5.336972e-06
286.1849999998606,1.744583e-05,286.1849999998606,1.298745e-05,286.1849999998606,9.672836e-06,286.1849999998606,5.360675e-06
286.1999999998606,1.763136e-05,286.1999999998606,1.333847e-05,286.1999999998606,9.652426e-06,286.1999999998606,5.363302e-06
286.2149999998606,1.751352e-05,286.2149999998606,1.312126e-05,286.2149999998606,9.620266e-06,286.2149999998606,5.178904e-06
286.2299999998606,1.74426e-05,286.2299999998606,1.304157e-05,286.2299999998606,9.645126e-06,286.2299999998606,5.230329e-06
286.24499999986057,1.742967e-05,286.24499999986057,1.259205e-05,286.24499999986057,9.72657e-06,286.24499999986057,5.315815e-06
286.25999999986055,1.742159e-05,286.25999999986055,1.234006e-05,286.25999999986055,9.775687e-06,286.25999999986055,5.281253e-06
286.27499999986054,1.735921e-05,286.27499999986054,1.176263e-05,286.27499999986054,9.442919e-06,286.27499999986054,5.238403e-06
286.2899999998605,1.726727e-05,286.2899999998605,1.14544e-05,286.2899999998605,1.006676e-05,286.2899999998605,5.135199e-06
286.3049999998605,1.69245e-05,286.3049999998605,1.141375e-05,286.3049999998605,1.043369e-05,286.3049999998605,5.251831e-06
286.3199999998605,1.689784e-05,286.3199999998605,1.140264e-05,286.3199999998605,1.068582e-05,286.3199999998605,5.438937e-06
286.3349999998605,1.69561e-05,286.3349999998605,1.136303e-05,286.3349999998605,9.54382e-06,286.3349999998605,5.235713e-06
286.3499999998605,1.655082e-05,286.3499999998605,1.101301e-05,286.3499999998605,9.316767e-06,286.3499999998605,5.200618e-06
286.36499999986046,1.583576e-05,286.36499999986046,1.147529e-05,286.36499999986046,9.236285e-06,286.36499999986046,5.184341e-06
286.37999999986044,1.502696e-05,286.37999999986044,1.10933e-05,286.37999999986044,9.023361e-06,286.37999999986044,5.211442e-06
286.39499999986043,1.102707e-05,286.39499999986043,1.114271e-05,286.39499999986043,8.822869e-06,286.39499999986043,5.254512e-06
286.4099999998604,9.975386e-06,286.4099999998604,1.122584e-05,286.4099999998604,8.963841e-06,286.4099999998604,5.176183e-06
286.4249999998604,7.031661e-06,286.4249999998604,1.156456e-05,286.4249999998604,9.667009e-06,286.4249999998604,5.154366e-06
286.4399999998604,6.840758e-06,286.4399999998604,1.086881e-05,286.4399999998604,9.959841e-06,286.4399999998604,5.162558e-06
286.4549999998604,6.726546e-06,286.4549999998604,1.050768e-05,286.4549999998604,1.030326e-05,286.4549999998604,5.159829e-06
286.46999999986036,6.885912e-06,286.46999999986036,1.06581e-05,286.46999999986036,1.033466e-05,286.46999999986036,5.140683e-06
286.48499999986035,6.918566e-06,286.48499999986035,1.136179e-05,286.48499999986035,1.026628e-05,286.48499999986035,4.973552e-06
286.49999999986034,6.975343e-06,286.49999999986034,1.134567e-05,286.49999999986034,1.00975e-05,286.49999999986034,5.015856e-06
286.5149999998603,7.017624e-06,286.5149999998603,1.191848e-05,286.5149999998603,1.010865e-05,286.5149999998603,5.102175e-06
286.5299999998603,7.075597e-06,286.5299999998603,1.203141e-05,286.5299999998603,9.62173e-06,286.5299999998603,5.203327e-06
286.5449999998603,7.15282e-06,286.5449999998603,1.207348e-05,286.5449999998603,9.636359e-06,286.5449999998603,5.068936e-06
286.5599999998603,7.047669e-06,286.5599999998603,1.218613e-05,286.5599999998603,9.06075e-06,286.5599999998603,4.864733e-06
286.57499999986027,6.768301e-06,286.57499999986027,1.191493e-05,286.57499999986027,9.292544e-06,286.57499999986027,4.708762e-06
286.58999999986025,6.969281e-06,286.58999999986025,1.199858e-05,286.58999999986025,9.142777e-06,286.58999999986025,4.782967e-06
286.60499999986024,6.537507e-06,286.60499999986024,1.199036e-05,286.60499999986024,8.873813e-06,286.60499999986024,4.75046e-06
286.6199999998602,6.347276e-06,286.6199999998602,1.181759e-05,286.6199999998602,9.709175e-06,286.6199999998602,4.75046e-06
286.6349999998602,6.322817e-06,286.6349999998602,1.180208e-05,286.6349999998602,1.040665e-05,286.6349999998602,4.70577e-06
286.6499999998602,6.481242e-06,286.6499999998602,1.164346e-05,286.6499999998602,1.075153e-05,286.6499999998602,4.621192e-06
286.6649999998602,6.776621e-06,286.6649999998602,1.164225e-05,286.6649999998602,1.01684e-05,286.6649999998602,4.636408e-06
286.6799999998602,6.774542e-06,286.6799999998602,1.211774e-05,286.6799999998602,9.952766e-06,286.6799999998602,4.651575e-06
286.69499999986016,6.53104e-06,286.69499999986016,1.215372e-05,286.69499999986016,9.580649e-06,286.69499999986016,4.615091e-06
286.70999999986014,7.027653e-06,286.70999999986014,1.219191e-05,286.70999999986014,9.76848e-06,286.70999999986014,4.639445e-06
286.72499999986013,6.983416e-06,286.72499999986013,1.230462e-05,286.72499999986013,1.000781e-05,286.72499999986013,4.720713e-06
286.7399999998601,6.973323e-06,286.7399999998601,1.135683e-05,286.7399999998601,1.011283e-05,286.7399999998601,4.800605e-06
286.7549999998601,7.043671e-06,286.7549999998601,1.13407e-05,286.7549999998601,1.01337e-05,286.7549999998601,4.850233e-06
286.7699999998601,6.834577e-06,286.7699999998601,1.064222e-05,286.7699999998601,9.39656e-06,286.7699999998601,4.67875e-06
286.7849999998601,6.749543e-06,286.7849999998601,1.061837e-05,286.7849999998601,9.25609e-06,286.7849999998601,4.856038e-06
286.79999999986006,6.869526e-06,286.79999999986006,1.104876e-05,286.79999999986006,1.003733e-05,286.79999999986006,4.962209e-06
286.81499999986005,6.993494e-06,286.81499999986005,1.152429e-05,286.81499999986005,1.037547e-05,286.81499999986005,5.091119e-06
286.82999999986004,6.776621e-06,286.82999999986004,1.174465e-05,286.82999999986004,1.045527e-05,286.82999999986004,5.018664e-06
286.84499999986,6.676097e-06,286.84499999986,1.149369e-05,286.84499999986,1.061704e-05,286.84499999986,5.074491e-06
286.85999999986,6.755802e-06,286.85999999986,1.12296e-05,286.85999999986,1.061439e-05,286.85999999986,5.192486e-06
286.87499999986,6.877724e-06,286.87499999986,1.161924e-05,286.87499999986,9.590935e-06,286.87499999986,5.219545e-06
286.88999999986,6.846933e-06,286.88999999986,1.158525e-05,286.88999999986,8.899176e-06,286.88999999986,5.216845e-06
286.90499999985997,6.908378e-06,286.90499999985997,1.180327e-05,286.90499999985997,9.393561e-06,286.90499999985997,5.227635e-06
286.91999999985995,6.975343e-06,286.91999999985995,1.151328e-05,286.91999999985995,1.02388e-05,286.91999999985995,5.331691e-06
286.93499999985994,6.971302e-06,286.93499999985994,1.180327e-05,286.93499999985994,1.027725e-05,286.93499999985994,5.286585e-06
286.9499999998599,6.652846e-06,286.9499999998599,1.210262e-05,286.9499999998599,1.036732e-05,286.9499999998599,5.278585e-06
286.9649999998599,6.345057e-06,286.9649999998599,1.208981e-05,286.9649999998599,1.010447e-05,286.9649999998599,5.371176e-06
286.9799999998599,6.329497e-06,286.9799999998599,1.208398e-05,286.9799999998599,1.007095e-05,286.9799999998599,5.433755e-06
286.9949999998599,6.457289e-06,286.9949999998599,1.205831e-05,286.9949999998599,1.079076e-05,286.9949999998599,5.326404e-06
287.0099999998599,6.720261e-06,287.0099999998599,1.270564e-05,287.0099999998599,1.088823e-05,287.0099999998599,5.313164e-06
287.02499999985986,7.00758e-06,287.02499999985986,1.286869e-05,287.02499999985986,1.140634e-05,287.02499999985986,5.235713e-06
287.03999999985984,6.774542e-06,287.03999999985984,1.294291e-05,287.03999999985984,1.141498e-05,287.03999999985984,5.074491e-06
287.05499999985983,6.699267e-06,287.05499999985983,1.220461e-05,287.05499999985983,1.056784e-05,287.05499999985983,5.038274e-06
287.0699999998598,6.621009e-06,287.0699999998598,1.203492e-05,287.0699999998598,1.027999e-05,287.0699999998598,4.996159e-06
287.0849999998598,6.548272e-06,287.0849999998598,1.196331e-05,287.0849999998598,1.002188e-05,287.0849999998598,5.049445e-06
287.0999999998598,6.513761e-06,287.0999999998598,1.223228e-05,287.0999999998598,1.002047e-05,287.0999999998598,4.873412e-06
287.1149999998598,6.569749e-06,287.1149999998598,1.231721e-05,287.1149999998598,1.025255e-05,287.1149999998598,4.68176e-06
287.12999999985976,6.606099e-06,287.12999999985976,1.206181e-05,287.12999999985976,1.044044e-05,287.12999999985976,4.612038e-06
287.14499999985975,6.601833e-06,287.14499999985975,1.231721e-05,287.14499999985975,1.036596e-05,287.14499999985975,4.841512e-06
287.15999999985974,6.141998e-06,287.15999999985974,1.229431e-05,287.15999999985974,9.685934e-06,287.15999999985974,4.79767e-06
287.1749999998597,5.853103e-06,287.1749999998597,1.268012e-05,287.1749999998597,9.841749e-06,287.1749999998597,4.714741e-06
287.1899999998597,5.860319e-06,287.1899999998597,1.231149e-05,287.1899999998597,9.972562e-06,287.1899999998597,4.744526e-06
287.2049999998597,5.824151e-06,287.2049999998597,1.200914e-05,287.2049999998597,9.982445e-06,287.2049999998597,4.726678e-06
287.2199999998597,5.821732e-06,287.2199999998597,1.214097e-05,287.2199999998597,9.884596e-06,287.2199999998597,4.660651e-06
287.23499999985967,5.778013e-06,287.23499999985967,1.219076e-05,287.23499999985967,9.517214e-06,287.23499999985967,4.553636e-06
287.24999999985965,5.647323e-06,287.24999999985965,1.221961e-05,287.24999999985965,8.954407e-06,287.24999999985965,4.559819e-06
287.26499999985964,5.884307e-06,287.26499999985964,1.16483e-05,287.26499999985964,1.055317e-05,287.26499999985964,4.519479e-06
287.2799999998596,7.168558e-06,287.2799999998596,1.183902e-05,287.2799999998596,1.057184e-05,287.2799999998596,4.453544e-06
287.2949999998596,8.442667e-06,287.2949999998596,1.226678e-05,287.2949999998596,1.041071e-05,287.2949999998596,4.531929e-06
287.3099999998596,8.515764e-06,287.3099999998596,1.222422e-05,287.3099999998596,1.040124e-05,287.3099999998596,4.605925e-06
287.3249999998596,9.162785e-06,287.3249999998596,1.237881e-05,287.3249999998596,1.15974e-05,287.3249999998596,4.605925e-06
287.3399999998596,1.233778e-05,287.3399999998596,1.200914e-05,287.3399999998596,1.326434e-05,287.3399999998596,4.590608e-06
287.35499999985956,1.529179e-05,287.35499999985956,1.196684e-05,287.35499999985956,1.330675e-05,287.35499999985956,4.803539e-06
287.36999999985954,1.610478e-05,287.36999999985954,1.249547e-05,287.36999999985954,1.313092e-05,287.36999999985954,4.785911e-06
287.38499999985953,1.609428e-05,287.38499999985953,1.26278e-05,287.38499999985953,1.300588e-05,287.38499999985953,4.838602e-06
287.3999999998595,1.858964e-05,287.3999999998595,1.31791e-05,287.3999999998595,1.302644e-05,287.3999999998595,4.660651e-06
287.4149999998595,1.882907e-05,287.4149999998595,1.276537e-05,287.4149999998595,1.296357e-05,287.4149999998595,4.82986e-06
287.4299999998595,1.93012e-05,287.4299999998595,1.239018e-05,287.4299999998595,1.220923e-05,287.4299999998595,4.803539e-06
287.4449999998595,1.973496e-05,287.4449999998595,1.238791e-05,287.4449999998595,1.212006e-05,287.4449999998595,4.768218e-06
287.45999999985946,1.975708e-05,287.45999999985946,1.232407e-05,287.45999999985946,1.202204e-05,287.45999999985946,4.747494e-06
287.47499999985945,1.973567e-05,287.47499999985945,1.272891e-05,287.47499999985945,1.206415e-05,287.47499999985945,4.853136e-06
287.48999999985944,1.972782e-05,287.48999999985944,1.313843e-05,287.48999999985944,1.199858e-05,287.48999999985944,4.803539e-06
287.5049999998594,1.966202e-05,287.5049999998594,1.315021e-05,287.5049999998594,1.171703e-05,287.5049999998594,4.765263e-06
287.5199999998594,1.962329e-05,287.5199999998594,1.311804e-05,287.5199999998594,1.155115e-05,287.5199999998594,4.821102e-06
287.5349999998594,1.860251e-05,287.5349999998594,1.285006e-05,287.5349999998594,1.256853e-05,287.5349999998594,4.856038e-06
287.5499999998594,1.860478e-05,287.5499999998594,1.26512e-05,287.5499999998594,1.257302e-05,287.5499999998594,4.651575e-06
287.56499999985937,1.861765e-05,287.56499999985937,1.361443e-05,287.56499999985937,1.356986e-05,287.56499999985937,4.765263e-06
287.57999999985935,1.749823e-05,287.57999999985935,1.399303e-05,287.57999999985935,1.091665e-05,287.57999999985935,4.660651e-06
287.59499999985934,1.528719e-05,287.59499999985934,1.388591e-05,287.59499999985934,1.068186e-05,287.59499999985934,4.547444e-06
287.6099999998593,1.373598e-05,287.6099999998593,1.368563e-05,287.6099999998593,1.055984e-05,287.6099999998593,4.553636e-06
287.6249999998593,1.293529e-05,287.6249999998593,1.299613e-05,287.6249999998593,1.097585e-05,287.6249999998593,4.624239e-06
287.6399999998593,1.291785e-05,287.6399999998593,1.233892e-05,287.6399999998593,1.114018e-05,287.6399999998593,4.711753e-06
287.6549999998593,8.89601e-06,287.6549999998593,1.239018e-05,287.6549999998593,1.109203e-05,287.6549999998593,4.771172e-06
287.6699999998593,8.424293e-06,287.6699999998593,1.24729e-05,287.6699999998593,1.217457e-05,287.6699999998593,4.785911e-06
287.68499999985926,6.875675e-06,287.68499999985926,1.237198e-05,287.68499999985926,1.237312e-05,287.68499999985926,4.873412e-06
287.69999999985924,6.642251e-06,287.69999999985924,1.232407e-05,287.69999999985924,1.26512e-05,287.69999999985924,4.910845e-06
287.71499999985923,6.574036e-06,287.71499999985923,1.232292e-05,287.71499999985923,1.281603e-05,287.71499999985923,4.876302e-06
287.7299999998592,6.688745e-06,287.7299999998592,1.236401e-05,287.7299999998592,1.346356e-05,287.7299999998592,4.809401e-06
287.7449999998592,6.791156e-06,287.7449999998592,1.178536e-05,287.7449999998592,1.349596e-05,287.7449999998592,4.953686e-06
287.7599999998592,6.716067e-06,287.7599999998592,1.151451e-05,287.7599999998592,1.363614e-05,287.7599999998592,4.990517e-06
287.7749999998592,6.99148e-06,287.7749999998592,1.125842e-05,287.7749999998592,1.265788e-05,287.7749999998592,5.018664e-06
287.78999999985916,6.896133e-06,287.78999999985916,1.126467e-05,287.78999999985916,1.266678e-05,287.78999999985916,5.184341e-06
287.80499999985915,6.910417e-06,287.80499999985915,1.077639e-05,287.80499999985915,1.261999e-05,287.80499999985915,5.270573e-06
287.81999999985914,6.879772e-06,287.81999999985914,9.833158e-06,287.81999999985914,1.188534e-05,287.81999999985914,5.278585e-06
287.8349999998591,7.170523e-06,287.8349999998591,9.743934e-06,287.8349999998591,1.193619e-05,287.8349999998591,5.326404e-06
287.8499999998591,6.789081e-06,287.8499999998591,9.996546e-06,287.8499999998591,1.199153e-05,287.8499999998591,5.365928e-06
287.8649999998591,6.699267e-06,287.8649999998591,1.051305e-05,287.8649999998591,1.22484e-05,287.8649999998591,5.34752e-06
287.8799999998591,7.329844e-06,287.8799999998591,1.043504e-05,287.8799999998591,1.239587e-05,287.8799999998591,5.249148e-06
287.89499999985907,7.262268e-06,287.89499999985907,1.042288e-05,287.89499999985907,1.246047e-05,287.89499999985907,5.254512e-06
287.90999999985905,7.463159e-06,287.90999999985905,1.062765e-05,287.90999999985905,1.254722e-05,287.90999999985905,5.187057e-06
287.92499999985904,7.133099e-06,287.92499999985904,1.048218e-05,287.92499999985904,1.165797e-05,287.92499999985904,5.118714e-06
287.939999999859,7.04567e-06,287.939999999859,1.062633e-05,287.939999999859,1.133448e-05,287.939999999859,4.987693e-06
287.954999999859,7.392992e-06,287.954999999859,1.05705e-05,287.954999999859,1.194327e-05,287.954999999859,5.113207e-06
287.969999999859,7.638524e-06,287.969999999859,1.09553e-05,287.969999999859,1.198683e-05,287.969999999859,5.355417e-06
287.984999999859,7.502692e-06,287.984999999859,1.090633e-05,287.984999999859,1.143471e-05,287.984999999859,5.428567e-06
287.99999999985897,7.392992e-06,287.99999999985897,1.114271e-05,287.99999999985897,1.143471e-05,287.99999999985897,5.28392e-06
288.01499999985896,7.320229e-06,288.01499999985896,1.126342e-05,288.01499999985896,9.843181e-06,288.01499999985896,5.227635e-06
288.02999999985894,7.27777e-06,288.02999999985894,1.123963e-05,288.02999999985894,9.935768e-06,288.02999999985894,5.278585e-06
288.04499999985893,7.19993e-06,288.04499999985893,1.143471e-05,288.04499999985893,1.015592e-05,288.04499999985893,5.08004e-06
288.0599999998589,7.293238e-06,288.0599999998589,1.128092e-05,288.0599999998589,1.115156e-05,288.0599999998589,5.132455e-06
288.0749999998589,7.146909e-06,288.0749999998589,1.143717e-05,288.0749999998589,1.084415e-05,288.0749999998589,5.230329e-06
288.0899999998589,6.75163e-06,288.0899999998589,1.115282e-05,288.0899999998589,1.101557e-05,288.0899999998589,5.068936e-06
288.1049999998589,6.795303e-06,288.1049999998589,1.090891e-05,288.1049999998589,1.087269e-05,288.1049999998589,5.077266e-06
288.11999999985886,6.826328e-06,288.11999999985886,1.05745e-05,288.11999999985886,1.035781e-05,288.11999999985886,5.096651e-06
288.13499999985885,6.244353e-06,288.13499999985885,1.059048e-05,288.13499999985885,1.016285e-05,288.13499999985885,5.173461e-06
288.14999999985884,6.139704e-06,288.14999999985884,1.078162e-05,288.14999999985884,1.042288e-05,288.14999999985884,5.137942e-06
288.1649999998588,6.086705e-06,288.1649999998588,1.088694e-05,288.1649999998588,1.032921e-05,288.1649999998588,5.14616e-06
288.1799999998588,6.369431e-06,288.1799999998588,1.142362e-05,288.1799999998588,1.044853e-05,288.1799999998588,5.206033e-06
288.1949999998588,6.466009e-06,288.1949999998588,1.152307e-05,288.1949999998588,1.01767e-05,288.1949999998588,5.118714e-06
288.2099999998588,6.282586e-06,288.2099999998588,1.155115e-05,288.2099999998588,9.445902e-06,288.2099999998588,4.913713e-06
288.22499999985877,6.766219e-06,288.22499999985877,1.134691e-05,288.22499999985877,9.369536e-06,288.22499999985877,4.782967e-06
288.23999999985875,6.782854e-06,288.23999999985875,1.104749e-05,288.23999999985875,9.604145e-06,288.23999999985875,4.747494e-06
288.25499999985874,7.474476e-06,288.25499999985874,1.097714e-05,288.25499999985874,1.028547e-05,288.25499999985874,4.893604e-06
288.2699999998587,7.528932e-06,288.2699999998587,1.087917e-05,288.2699999998587,1.061041e-05,288.2699999998587,5.187057e-06
288.2849999998587,7.568121e-06,288.2849999998587,1.155603e-05,288.2849999998587,1.059048e-05,288.2849999998587,5.140683e-06
288.2999999998587,7.582997e-06,288.2999999998587,1.247742e-05,288.2999999998587,1.002188e-05,288.2999999998587,5.208738e-06
288.3149999998587,7.394897e-06,288.3149999998587,1.220692e-05,288.3149999998587,9.287995e-06,288.3149999998587,5.336972e-06
288.32999999985867,7.421518e-06,288.32999999985867,1.201618e-05,288.32999999985867,9.216436e-06,288.32999999985867,5.143422e-06
288.34499999985866,7.728359e-06,288.34499999985866,1.218844e-05,288.34499999985866,9.540868e-06,288.34499999985866,5.344885e-06
288.35999999985864,7.867457e-06,288.35999999985864,1.227482e-05,288.35999999985864,9.640744e-06,288.35999999985864,5.34752e-06
