X[s],a: EMG RMS 1-1,X[s].1,a: EMG RMS 1-2,X[s].2,a: EMG RMS 1-3,X[s].3,a: EMG RMS 1-4
654.0149999995261,3.776944e-05,654.0149999995261,8.190286e-06,654.0149999995261,0.0003953698,654.0149999995261,2.809207e-05
654.0299999995261,3.540585e-05,654.0299999995261,8.147174e-06,654.0299999995261,0.0003313662,654.0299999995261,2.797045e-05
654.0449999995261,2.821865e-05,654.0449999995261,8.086432e-06,654.0449999995261,0.0002488596,654.0449999995261,2.756461e-05
654.0599999995261,2.646541e-05,654.0599999995261,6.840758e-06,654.0599999995261,0.0002041463,654.0599999995261,2.66389e-05
654.0749999995261,2.262979e-05,654.0749999995261,5.399948e-06,654.0749999995261,0.0002046498,654.0749999995261,2.648191e-05
654.0899999995261,2.069384e-05,654.0899999995261,5.368553e-06,654.0899999995261,0.0001873269,654.0899999995261,2.091458e-05
654.1049999995261,2.041146e-05,654.1049999995261,5.208738e-06,654.1049999995261,0.0001819875,654.1049999995261,2.036724e-05
654.119999999526,1.956146e-05,654.119999999526,5.233022e-06,654.119999999526,0.0001819206,654.119999999526,1.996418e-05
654.134999999526,1.840993e-05,654.134999999526,5.154366e-06,654.134999999526,0.0001714899,654.134999999526,1.660181e-05
654.149999999526,2.195876e-05,654.149999999526,5.102175e-06,654.149999999526,0.0001771825,654.149999999526,1.594656e-05
654.164999999526,2.199274e-05,654.164999999526,5.02147e-06,654.164999999526,0.0001914473,654.164999999526,1.529824e-05
654.179999999526,2.122414e-05,654.179999999526,4.732634e-06,654.179999999526,0.0001845014,654.179999999526,1.337117e-05
654.194999999526,2.116565e-05,654.194999999526,4.732634e-06,654.194999999526,0.0001792808,654.194999999526,1.216762e-05
654.209999999526,2.197608e-05,654.209999999526,4.83569e-06,654.209999999526,0.0001836647,654.209999999526,1.037547e-05
654.224999999526,2.271243e-05,654.224999999526,4.910845e-06,654.224999999526,0.0001787498,654.224999999526,9.239335e-06
654.2399999995259,2.376179e-05,654.2399999995259,4.803539e-06,654.2399999995259,0.0001858716,654.2399999995259,9.324323e-06
654.2549999995259,2.406925e-05,654.2549999995259,4.672725e-06,654.2549999995259,0.0001977627,654.2549999995259,9.315255e-06
654.2699999995259,2.521037e-05,654.2699999995259,4.853136e-06,654.2699999995259,0.0002011235,654.2699999995259,7.569982e-06
654.2849999995259,2.619255e-05,654.2849999995259,4.791795e-06,654.2849999995259,0.0002222815,654.2849999995259,6.934835e-06
654.2999999995259,2.672284e-05,654.2999999995259,4.947995e-06,654.2999999995259,0.0002692857,654.2999999995259,6.327271e-06
654.3149999995259,2.795383e-05,654.3149999995259,4.925167e-06,654.3149999995259,0.000276548,654.3149999995259,6.03324e-06
654.3299999995259,2.819667e-05,654.3299999995259,4.896482e-06,654.3299999995259,0.0002794669,654.3299999995259,6.05887e-06
654.3449999995258,2.782807e-05,654.3449999995258,4.753424e-06,654.3449999995258,0.0002898777,654.3449999995258,6.021555e-06
654.3599999995258,2.827251e-05,654.3599999995258,4.847328e-06,654.3599999995258,0.0002896695,654.3599999995258,5.741327e-06
654.3749999995258,2.980825e-05,654.3749999995258,4.777073e-06,654.3749999995258,0.0002820505,654.3749999995258,5.706874e-06
654.3899999995258,3.169508e-05,654.3899999995258,4.785911e-06,654.3899999995258,0.0002867898,654.3899999995258,5.469929e-06
654.4049999995258,2.969793e-05,654.4049999995258,4.75046e-06,654.4049999995258,0.0002780121,654.4049999995258,5.195198e-06
654.4199999995258,2.980872e-05,654.4199999995258,5.110451e-06,654.4199999995258,0.0002724914,654.4199999995258,5.289249e-06
654.4349999995258,3.00164e-05,654.4349999995258,5.159829e-06,654.4349999995258,0.0002724384,654.4349999995258,5.189773e-06
654.4499999995257,3.033478e-05,654.4499999995257,5.305204e-06,654.4499999995257,0.0002697916,654.4499999995257,5.126963e-06
654.4649999995257,2.948371e-05,654.4649999995257,5.373798e-06,654.4649999995257,0.000267816,654.4649999995257,5.219545e-06
654.4799999995257,2.881292e-05,654.4799999995257,5.487926e-06,654.4799999995257,0.0002693753,654.4799999995257,5.178904e-06
654.4949999995257,2.781237e-05,654.4949999995257,5.549188e-06,654.4949999995257,0.0002552049,654.4949999995257,4.887844e-06
654.5099999995257,2.73975e-05,654.5099999995257,5.467352e-06,654.5099999995257,0.0002522368,654.5099999995257,4.756387e-06
654.5249999995257,2.613386e-05,654.5249999995257,5.321112e-06,654.5249999995257,0.000250164,654.5249999995257,4.890725e-06
654.5399999995257,2.53469e-05,654.5399999995257,5.657291e-06,654.5399999995257,0.0002380908,654.5399999995257,4.962209e-06
654.5549999995256,2.469723e-05,654.5549999995256,5.826569e-06,654.5549999995256,0.0001897521,654.5549999995256,5.12971e-06
654.5699999995256,2.320694e-05,654.5699999995256,5.955692e-06,654.5699999995256,0.0002034317,654.5699999995256,4.950841e-06
654.5849999995256,2.277746e-05,654.5849999995256,6.365006e-06,654.5849999995256,0.000198995,654.5849999995256,4.925167e-06
654.5999999995256,2.291926e-05,654.5999999995256,6.42229e-06,654.5999999995256,0.0001957704,654.5999999995256,5.038274e-06
654.6149999995256,2.215801e-05,654.6149999995256,6.550423e-06,654.6149999995256,0.000193496,654.6149999995256,4.990517e-06
654.6299999995256,1.786708e-05,654.6299999995256,6.584741e-06,654.6299999995256,0.0001921341,654.6299999995256,4.993339e-06
654.6449999995256,1.517714e-05,654.6449999995256,6.673986e-06,654.6449999995256,0.0001812357,654.6449999995256,5.02147e-06
654.6599999995256,1.477645e-05,654.6599999995256,6.791156e-06,654.6599999995256,0.000185996,654.6599999995256,4.882076e-06
654.6749999995255,1.469424e-05,654.6749999995255,6.597564e-06,654.6749999995255,0.0001773657,654.6749999995255,4.910845e-06
654.6899999995255,1.448083e-05,654.6899999995255,6.654963e-06,654.6899999995255,0.0001757896,654.6899999995255,4.902232e-06
654.7049999995255,1.346356e-05,654.7049999995255,6.548272e-06,654.7049999995255,0.0001809618,654.7049999995255,4.896482e-06
654.7199999995255,1.334269e-05,654.7199999995255,6.448557e-06,654.7199999995255,0.0001798418,654.7199999995255,4.939447e-06
654.7349999995255,1.36258e-05,654.7349999995255,6.417902e-06,654.7349999995255,0.0001789049,654.7349999995255,4.936594e-06
654.7499999995255,1.414124e-05,654.7499999995255,6.57832e-06,654.7499999995255,0.0001801614,654.7499999995255,5.060592e-06
654.7649999995255,1.373392e-05,654.7649999995255,7.644054e-06,654.7649999995255,0.0001769738,654.7649999995255,4.993339e-06
654.7799999995254,1.365678e-05,654.7799999995254,7.719241e-06,654.7799999995254,0.0001705722,654.7799999995254,4.687774e-06
654.7949999995254,1.40543e-05,654.7949999995254,7.564397e-06,654.7949999995254,0.0001574873,654.7949999995254,4.627284e-06
654.8099999995254,1.546583e-05,654.8099999995254,7.605257e-06,654.8099999995254,0.0001395123,654.8099999995254,4.472482e-06
654.8249999995254,1.527613e-05,654.8249999995254,7.34712e-06,654.8249999995254,0.0001192654,654.8249999995254,4.550541e-06
654.8399999995254,1.567751e-05,654.8399999995254,7.101431e-06,654.8399999995254,0.0001189534,654.8399999995254,4.612038e-06
654.8549999995254,1.841529e-05,654.8549999995254,7.436688e-06,654.8549999995254,0.0001184858,654.8549999995254,5.197909e-06
654.8699999995254,1.903887e-05,654.8699999995254,7.584854e-06,654.8699999995254,0.0001150045,654.8699999995254,5.379038e-06
654.8849999995253,1.932746e-05,654.8849999995253,7.594135e-06,654.8849999995253,0.0001147854,654.8849999995253,5.307859e-06
654.8999999995253,1.964553e-05,654.8999999995253,7.72289e-06,654.8999999995253,0.0001133993,654.8999999995253,5.399948e-06
654.9149999995253,2.114367e-05,654.9149999995253,8.25709e-06,654.9149999995253,0.0001159059,654.9149999995253,5.305204e-06
654.9299999995253,2.163758e-05,654.9299999995253,8.591521e-06,654.9299999995253,0.0001171504,654.9299999995253,5.262549e-06
654.9449999995253,2.208988e-05,654.9449999995253,8.773234e-06,654.9449999995253,0.0001155903,654.9449999995253,5.291911e-06
654.9599999995253,2.302228e-05,654.9599999995253,9.007736e-06,654.9599999995253,0.0001107574,654.9599999995253,5.305204e-06
654.9749999995253,2.325787e-05,654.9749999995253,9.257612e-06,654.9749999995253,0.0001147787,654.9749999995253,5.093886e-06
654.9899999995253,2.297328e-05,654.9899999995253,9.188883e-06,654.9899999995253,0.0001162729,654.9899999995253,5.310512e-06
655.0049999995252,2.340218e-05,655.0049999995252,9.145859e-06,655.0049999995252,0.0001126676,655.0049999995252,5.192486e-06
655.0199999995252,2.422036e-05,655.0199999995252,9.059196e-06,655.0199999995252,0.0001196032,655.0199999995252,5.195198e-06
655.0349999995252,2.59825e-05,655.0349999995252,9.20267e-06,655.0349999995252,0.0001213513,655.0349999995252,5.157098e-06
655.0499999995252,2.604477e-05,655.0499999995252,9.31979e-06,655.0499999995252,0.0001192786,655.0499999995252,5.216845e-06
655.0649999995252,2.635019e-05,655.0649999995252,9.29406e-06,655.0649999995252,0.0001129366,655.0649999995252,5.469929e-06
655.0799999995252,2.712311e-05,655.0799999995252,9.342435e-06,655.0799999995252,0.0001087811,655.0799999995252,5.334332e-06
655.0949999995252,2.492321e-05,655.0949999995252,9.29406e-06,655.0949999995252,0.0001069713,655.0949999995252,5.323759e-06
655.1099999995251,2.460466e-05,655.1099999995251,8.848378e-06,655.1099999995251,0.0001048526,655.1099999995251,4.20629e-06
655.1249999995251,2.512642e-05,655.1249999995251,8.822869e-06,655.1249999995251,0.0001042857,655.1249999995251,4.196231e-06
655.1399999995251,2.568642e-05,655.1399999995251,8.745896e-06,655.1399999995251,0.0001012181,655.1399999995251,4.289197e-06
655.1549999995251,2.691561e-05,655.1549999995251,8.757163e-06,655.1549999995251,9.745408e-05,655.1549999995251,4.331681e-06
655.1699999995251,2.706592e-05,655.1699999995251,8.133331e-06,655.1699999995251,9.526224e-05,655.1699999995251,4.581393e-06
655.1849999995251,2.677498e-05,655.1849999995251,7.584854e-06,655.1849999995251,9.467843e-05,655.1849999995251,4.636408e-06
655.1999999995251,2.620868e-05,655.1999999995251,7.264208e-06,655.1999999995251,9.521195e-05,655.1999999995251,4.896482e-06
655.214999999525,2.720815e-05,655.214999999525,7.095478e-06,655.214999999525,9.477033e-05,655.214999999525,4.777073e-06
655.229999999525,2.74309e-05,655.229999999525,6.926705e-06,655.229999999525,9.029228e-05,655.229999999525,4.841512e-06
655.244999999525,2.815818e-05,655.244999999525,6.327271e-06,655.244999999525,8.79466e-05,655.244999999525,4.794733e-06
655.259999999525,2.89456e-05,655.259999999525,5.943854e-06,655.259999999525,8.186605e-05,655.259999999525,4.780021e-06
655.274999999525,2.729912e-05,655.274999999525,5.235713e-06,655.274999999525,7.540411e-05,655.274999999525,4.753424e-06
655.289999999525,2.760138e-05,655.289999999525,4.967884e-06,655.289999999525,7.49296e-05,655.289999999525,4.771172e-06
655.304999999525,2.747606e-05,655.304999999525,4.627284e-06,655.304999999525,7.479016e-05,655.304999999525,4.756387e-06
655.319999999525,2.745759e-05,655.319999999525,4.519479e-06,655.319999999525,7.123336e-05,655.319999999525,4.639445e-06
655.3349999995249,2.859306e-05,655.3349999995249,4.812329e-06,655.3349999995249,7.352448e-05,655.3349999995249,4.587538e-06
655.3499999995249,2.922072e-05,655.3499999995249,4.87919e-06,655.3499999995249,7.720791e-05,655.3499999995249,4.618143e-06
655.3649999995249,2.959006e-05,655.3649999995249,4.953686e-06,655.3649999995249,9.189926e-05,655.3649999995249,4.684768e-06
655.3799999995249,2.919757e-05,655.3799999995249,5.013047e-06,655.3799999995249,9.107952e-05,655.3799999995249,4.777073e-06
655.3949999995249,2.936402e-05,655.3949999995249,5.055022e-06,655.3949999995249,9.5648e-05,655.3949999995249,4.956529e-06
655.4099999995249,2.926455e-05,655.4099999995249,4.973552e-06,655.4099999995249,9.504447e-05,655.4099999995249,4.738583e-06
655.4249999995249,2.93765e-05,655.4249999995249,5.238403e-06,655.4249999995249,9.262176e-05,655.4249999995249,4.702775e-06
655.4399999995248,3.12736e-05,655.4399999995248,5.644828e-06,655.4399999995248,9.131261e-05,655.4399999995248,4.575239e-06
655.4549999995248,3.194961e-05,655.4549999995248,5.867525e-06,655.4549999995248,9.23212e-05,655.4549999995248,4.383405e-06
655.4699999995248,3.167729e-05,655.4699999995248,6.123622e-06,655.4699999995248,9.187673e-05,655.4699999995248,4.491339e-06
655.4849999995248,3.165372e-05,655.4849999995248,6.187698e-06,655.4849999995248,8.761618e-05,655.4849999995248,4.302314e-06
655.4999999995248,3.335262e-05,655.4999999995248,6.260124e-06,655.4999999995248,8.801992e-05,655.4999999995248,4.34467e-06
655.5149999995248,3.351525e-05,655.5149999995248,6.420096e-06,655.5149999995248,8.767083e-05,655.5149999995248,4.544346e-06
655.5299999995248,3.367961e-05,655.5299999995248,6.450741e-06,655.5299999995248,0.0001019327,655.5299999995248,4.575239e-06
655.5449999995247,3.334079e-05,655.5449999995247,6.466009e-06,655.5449999995247,0.0001035453,655.5449999995247,4.547444e-06
655.5599999995247,3.470017e-05,655.5599999995247,6.474718e-06,655.5599999995247,0.0001107936,655.5599999995247,4.531929e-06
655.5749999995247,3.462824e-05,655.5749999995247,6.446372e-06,655.5749999995247,0.0001102371,655.5749999995247,4.522595e-06
655.5899999995247,3.548811e-05,655.5899999995247,6.33617e-06,655.5899999995247,0.000109533,655.5899999995247,4.547444e-06
655.6049999995247,3.586636e-05,655.6049999995247,6.406918e-06,655.6049999995247,0.0001031043,655.6049999995247,4.544346e-06
655.6199999995247,3.587422e-05,655.6199999995247,6.393712e-06,655.6199999995247,9.616736e-05,655.6199999995247,4.424985e-06
655.6349999995247,3.619244e-05,655.6349999995247,6.593293e-06,655.6349999995247,9.571057e-05,655.6349999995247,4.155752e-06
655.6499999995247,3.69501e-05,655.6499999995247,6.805661e-06,655.6499999995247,9.569542e-05,655.6499999995247,3.939991e-06
655.6649999995246,3.615934e-05,655.6649999995246,6.774542e-06,655.6649999995246,9.589922e-05,655.6649999995246,3.975583e-06
655.6799999995246,3.688447e-05,655.6799999995246,6.627389e-06,655.6799999995246,9.698869e-05,655.6799999995246,4.003829e-06
655.6949999995246,3.629194e-05,655.6949999995246,6.417902e-06,655.6949999995246,9.544602e-05,655.6949999995246,3.982663e-06
655.7099999995246,3.64229e-05,655.7099999995246,6.248863e-06,655.7099999995246,9.610758e-05,655.7099999995246,4.035369e-06
655.7249999995246,3.615856e-05,655.7249999995246,6.06584e-06,655.7249999995246,9.626121e-05,655.7249999995246,3.943564e-06
655.7399999995246,3.517553e-05,655.7399999995246,6.072803e-06,655.7399999995246,9.466281e-05,655.7399999995246,3.964939e-06
655.7549999995246,3.400594e-05,655.7549999995246,5.979298e-06,655.7549999995246,9.405266e-05,655.7549999995246,3.871464e-06
655.7699999995245,3.411347e-05,655.7699999995245,5.848288e-06,655.7699999995245,8.434938e-05,655.7699999995245,3.78313e-06
655.7849999995245,3.461033e-05,655.7849999995245,5.741327e-06,655.7849999995245,7.596972e-05,655.7849999995245,3.867824e-06
655.7999999995245,3.411471e-05,655.7999999995245,5.682137e-06,655.7999999995245,6.789911e-05,655.7999999995245,3.914884e-06
655.8149999995245,3.329005e-05,655.8149999995245,5.692045e-06,655.8149999995245,6.164228e-05,655.8149999995245,4.070128e-06
655.8299999995245,3.403286e-05,655.8299999995245,5.696992e-06,655.8299999995245,6.022561e-05,655.8299999995245,3.979125e-06
655.8449999995245,3.304499e-05,655.8449999995245,5.785323e-06,655.8449999995245,5.823837e-05,655.8449999995245,4.010859e-06
655.8599999995245,3.231523e-05,655.8599999995245,5.679657e-06,655.8599999995245,5.877983e-05,655.8599999995245,4.042345e-06
655.8749999995244,3.236706e-05,655.8749999995244,5.711809e-06,655.8749999995244,5.583958e-05,655.8749999995244,3.996786e-06
655.8899999995244,3.256362e-05,655.8899999995244,5.446701e-06,655.8899999995244,5.361831e-05,655.8899999995244,4.059732e-06
655.9049999995244,3.265002e-05,655.9049999995244,5.118714e-06,655.9049999995244,5.137996e-05,655.9049999995244,4.090841e-06
655.9199999995244,3.290701e-05,655.9199999995244,5.066156e-06,655.9199999995244,5.138216e-05,655.9199999995244,4.27604e-06
655.9349999995244,3.077277e-05,655.9349999995244,4.936594e-06,655.9349999995244,5.170084e-05,655.9349999995244,4.312125e-06
655.9499999995244,3.156414e-05,655.9499999995244,5.043863e-06,655.9499999995244,5.224643e-05,655.9499999995244,4.4218e-06
655.9649999995244,3.157797e-05,655.9649999995244,4.965048e-06,655.9649999995244,4.89792e-05,655.9649999995244,4.624239e-06
655.9799999995244,3.147162e-05,655.9799999995244,4.785911e-06,655.9799999995244,4.890754e-05,655.9799999995244,4.630328e-06
655.9949999995243,3.158466e-05,655.9949999995243,4.762306e-06,655.9949999995243,4.950158e-05,655.9949999995243,4.66971e-06
656.0099999995243,3.104576e-05,656.0099999995243,4.762306e-06,656.0099999995243,4.952321e-05,656.0099999995243,4.608983e-06
656.0249999995243,3.150517e-05,656.0249999995243,4.756387e-06,656.0249999995243,4.875089e-05,656.0249999995243,4.581393e-06
656.0399999995243,3.081622e-05,656.0399999995243,4.864733e-06,656.0399999995243,4.630449e-05,656.0399999995243,4.538142e-06
656.0549999995243,3.137658e-05,656.0549999995243,4.965048e-06,656.0549999995243,4.563462e-05,656.0549999995243,4.510119e-06
656.0699999995243,3.166617e-05,656.0699999995243,5.104936e-06,656.0699999995243,4.612496e-05,656.0699999995243,4.52882e-06
656.0849999995243,3.050703e-05,656.0849999995243,5.074491e-06,656.0849999995243,4.982692e-05,656.0849999995243,4.488202e-06
656.0999999995242,3.093895e-05,656.0999999995242,4.950841e-06,656.0999999995242,5.076406e-05,656.0999999995242,4.402644e-06
656.1149999995242,3.138422e-05,656.1149999995242,4.925167e-06,656.1149999995242,5.08417e-05,656.1149999995242,4.562907e-06
656.1299999995242,3.083724e-05,656.1299999995242,4.956529e-06,656.1299999995242,5.22378e-05,656.1299999995242,4.618143e-06
656.1449999995242,2.897138e-05,656.1449999995242,5.043863e-06,656.1449999995242,5.322647e-05,656.1449999995242,4.565993e-06
656.1599999995242,2.916571e-05,656.1599999995242,5.015856e-06,656.1599999995242,5.280293e-05,656.1599999995242,4.657627e-06
656.1749999995242,2.970363e-05,656.1749999995242,4.998978e-06,656.1749999995242,5.211145e-05,656.1749999995242,4.456705e-06
656.1899999995242,3.012181e-05,656.1899999995242,4.984868e-06,656.1899999995242,4.984981e-05,656.1899999995242,4.463023e-06
656.2049999995241,2.835063e-05,656.2049999995241,4.771172e-06,656.2049999995241,4.975619e-05,656.2049999995241,4.383405e-06
656.2199999995241,2.898888e-05,656.2199999995241,4.861837e-06,656.2199999995241,4.964083e-05,656.2199999995241,4.192873e-06
656.2349999995241,3.131412e-05,656.2349999995241,4.896482e-06,656.2349999995241,4.965615e-05,656.2349999995241,4.0632e-06
656.2499999995241,3.160517e-05,656.2499999995241,4.979213e-06,656.2499999995241,5.092392e-05,656.2499999995241,4.01437e-06
656.2649999995241,3.180865e-05,656.2649999995241,4.956529e-06,656.2649999995241,5.120337e-05,656.2649999995241,4.000309e-06
656.2799999995241,3.173461e-05,656.2799999995241,5.041069e-06,656.2799999995241,5.24751e-05,656.2799999995241,3.961384e-06
656.2949999995241,3.308887e-05,656.2949999995241,4.841512e-06,656.2949999995241,5.488388e-05,656.2949999995241,3.842245e-06
656.309999999524,3.358621e-05,656.309999999524,4.645514e-06,656.309999999524,5.430746e-05,656.309999999524,4.128545e-06
656.324999999524,3.292242e-05,656.324999999524,4.615091e-06,656.324999999524,5.28424e-05,656.324999999524,4.070128e-06
656.339999999524,3.192226e-05,656.339999999524,4.630328e-06,656.339999999524,5.202406e-05,656.339999999524,4.186148e-06
656.354999999524,3.138197e-05,656.354999999524,4.562907e-06,656.354999999524,5.217358e-05,656.354999999524,4.246287e-06
656.369999999524,3.251643e-05,656.369999999524,4.538142e-06,656.369999999524,5.297844e-05,656.369999999524,4.101159e-06
656.384999999524,3.208117e-05,656.384999999524,4.478776e-06,656.384999999524,6.211874e-05,656.384999999524,4.097722e-06
656.399999999524,3.229256e-05,656.399999999524,4.341427e-06,656.399999999524,6.297591e-05,656.399999999524,4.148967e-06
656.414999999524,3.149891e-05,656.414999999524,4.256228e-06,656.414999999524,7.060071e-05,656.414999999524,4.042345e-06
656.429999999524,3.048578e-05,656.429999999524,4.305587e-06,656.429999999524,7.426338e-05,656.429999999524,3.932833e-06
656.4449999995239,3.211452e-05,656.4449999995239,4.4218e-06,656.4449999995239,7.40316e-05,656.4449999995239,3.842245e-06
656.4599999995239,3.239664e-05,656.4599999995239,4.459865e-06,656.4599999995239,7.441781e-05,656.4599999995239,3.775675e-06
656.4749999995239,3.031341e-05,656.4749999995239,4.370531e-06,656.4749999995239,8.386585e-05,656.4749999995239,4.262842e-06
656.4899999995239,2.955672e-05,656.4899999995239,4.516361e-06,656.4899999995239,8.331496e-05,656.4899999995239,4.383405e-06
656.5049999995239,2.955958e-05,656.5049999995239,4.531929e-06,656.5049999995239,8.369115e-05,656.5049999995239,4.48192e-06
656.5199999995239,2.949422e-05,656.5199999995239,4.559819e-06,656.5199999995239,8.31169e-05,656.5199999995239,4.575239e-06
656.5349999995238,2.876693e-05,656.5349999995238,4.503868e-06,656.5349999995238,8.109534e-05,656.5349999995238,5.181623e-06
656.5499999995238,2.700652e-05,656.5499999995238,4.516361e-06,656.5499999995238,8.165102e-05,656.5499999995238,5.748683e-06
656.5649999995238,2.747964e-05,656.5649999995238,4.519479e-06,656.5649999995238,8.365951e-05,656.5649999995238,5.778013e-06
656.5799999995238,2.740778e-05,656.5799999995238,4.47563e-06,656.5799999995238,8.47843e-05,656.5799999995238,5.872325e-06
656.5949999995238,2.744784e-05,656.5949999995238,4.434525e-06,656.5949999995238,8.435055e-05,656.5949999995238,5.819312e-06
656.6099999995238,2.720556e-05,656.6099999995238,4.553636e-06,656.6099999995238,8.780601e-05,656.6099999995238,5.865124e-06
656.6249999995238,2.568258e-05,656.6249999995238,4.52882e-06,656.6249999995238,8.82887e-05,656.6249999995238,6.028569e-06
656.6399999995238,2.741087e-05,656.6399999995238,4.547444e-06,656.6399999995238,8.024528e-05,656.6399999995238,6.093644e-06
656.6549999995237,2.709453e-05,656.6549999995237,4.584466e-06,656.6549999995237,8.074944e-05,656.6549999995237,6.08439e-06
656.6699999995237,2.740367e-05,656.6699999995237,4.612038e-06,656.6699999995237,8.00713e-05,656.6699999995237,6.2781e-06
656.6849999995237,2.71418e-05,656.6849999995237,4.639445e-06,656.6849999995237,7.910455e-05,656.6849999995237,6.378271e-06
656.6999999995237,2.528291e-05,656.6999999995237,4.720713e-06,656.6999999995237,8.178082e-05,656.6999999995237,6.54612e-06
656.7149999995237,2.488022e-05,656.7149999995237,4.747494e-06,656.7149999995237,8.320719e-05,656.7149999995237,6.351713e-06
656.7299999995237,2.547717e-05,656.7299999995237,4.79767e-06,656.7299999995237,8.307554e-05,656.7299999995237,6.360578e-06
656.7449999995237,2.613656e-05,656.7449999995237,4.720713e-06,656.7449999995237,9.217644e-05,656.7449999995237,6.561167e-06
656.7599999995236,2.617157e-05,656.7599999995236,4.602866e-06,656.7599999995236,9.662899e-05,656.7599999995236,6.912455e-06
656.7749999995236,2.569245e-05,656.7749999995236,4.67875e-06,656.7749999995236,9.774304e-05,656.7749999995236,6.844875e-06
656.7899999995236,2.585968e-05,656.7899999995236,4.753424e-06,656.7899999995236,0.000104239,656.7899999995236,6.877724e-06
656.8049999995236,2.705447e-05,656.8049999995236,4.803539e-06,656.8049999995236,0.0001068977,656.8049999995236,6.669763e-06
656.8199999995236,2.605505e-05,656.8199999995236,5.077266e-06,656.8199999995236,0.0001071603,656.8199999995236,6.498606e-06
656.8349999995236,2.571985e-05,656.8349999995236,5.270573e-06,656.8349999995236,0.0001073808,656.8349999995236,6.576178e-06
656.8499999995236,2.606261e-05,656.8499999995236,5.321112e-06,656.8499999995236,0.0001079398,656.8499999995236,6.593293e-06
656.8649999995235,2.648776e-05,656.8649999995235,5.331691e-06,656.8649999995235,0.0001074433,656.8649999995235,6.595429e-06
656.8799999995235,2.671863e-05,656.8799999995235,5.711809e-06,656.8799999995235,0.0001081991,656.8799999995235,6.569749e-06
656.8949999995235,2.711532e-05,656.8949999995235,5.95096e-06,656.8949999995235,0.0001143674,656.8949999995235,6.559019e-06
656.9099999995235,2.728105e-05,656.9099999995235,5.953326e-06,656.9099999995235,0.0001143978,656.9099999995235,6.612493e-06
656.9249999995235,2.847705e-05,656.9249999995235,6.098266e-06,656.9249999995235,0.0001107305,656.9249999995235,6.601833e-06
656.9399999995235,3.24149e-05,656.9399999995235,6.203613e-06,656.9399999995235,0.0001133622,656.9399999995235,6.584741e-06
656.9549999995235,3.26103e-05,656.9549999995235,6.171741e-06,656.9549999995235,0.0001175,656.9549999995235,6.920602e-06
656.9699999995235,3.344499e-05,656.9699999995235,6.178585e-06,656.9699999995235,0.0001140764,656.9699999995235,7.037669e-06
656.9849999995234,3.300277e-05,656.9849999995234,6.380479e-06,656.9849999995234,0.0001179906,656.9849999995234,6.859265e-06
656.9999999995234,3.24414e-05,656.9999999995234,6.472542e-06,656.9999999995234,0.0001222648,656.9999999995234,6.879772e-06
657.0149999995234,3.181308e-05,657.0149999995234,6.472542e-06,657.0149999995234,0.0001236337,657.0149999995234,6.671875e-06
657.0299999995234,3.223973e-05,657.0299999995234,6.53104e-06,657.0299999995234,0.0001199287,657.0299999995234,6.871577e-06
657.0449999995234,3.200159e-05,657.0449999995234,6.415707e-06,657.0449999995234,0.0001213463,657.0449999995234,6.593293e-06
657.0599999995234,3.098626e-05,657.0599999995234,6.409116e-06,657.0599999995234,0.0001225754,657.0599999995234,6.448557e-06
657.0749999995234,3.133885e-05,657.0749999995234,6.382687e-06,657.0749999995234,0.0001250653,657.0749999995234,6.580461e-06
657.0899999995233,3.230738e-05,657.0899999995233,6.431058e-06,657.0899999995233,0.0001279322,657.0899999995233,6.513761e-06
657.1049999995233,3.260728e-05,657.1049999995233,6.479067e-06,657.1049999995233,0.000127637,657.1049999995233,6.474718e-06
657.1199999995233,3.228426e-05,657.1199999995233,6.320588e-06,657.1199999995233,0.0001952798,657.1199999995233,6.509435e-06
657.1349999995233,3.126144e-05,657.1349999995233,6.289309e-06,657.1349999995233,0.0002136664,657.1349999995233,6.53104e-06
657.1499999995233,3.499928e-05,657.1499999995233,6.291548e-06,657.1499999995233,0.0002478073,657.1499999995233,6.638008e-06
657.1649999995233,3.433984e-05,657.1649999995233,6.365006e-06,657.1649999995233,0.0002580849,657.1649999995233,6.524566e-06
657.1799999995233,3.398149e-05,657.1799999995233,6.356147e-06,657.1799999995233,0.0002585392,657.1799999995233,6.444187e-06
657.1949999995232,3.118249e-05,657.1949999995232,6.349495e-06,657.1949999995232,0.0002600137,657.1949999995232,6.446372e-06
657.2099999995232,3.186705e-05,657.2099999995232,6.413511e-06,657.2099999995232,0.000258425,657.2099999995232,5.981653e-06
657.2249999995232,3.151009e-05,657.2249999995232,6.378271e-06,657.2249999995232,0.0002580303,657.2249999995232,6.05887e-06
657.2399999995232,3.209039e-05,657.2399999995232,6.205884e-06,657.2399999995232,0.0002543684,657.2399999995232,6.411314e-06
657.2549999995232,3.296305e-05,657.2549999995232,6.561167e-06,657.2549999995232,0.0002497741,657.2549999995232,6.221753e-06
657.2699999995232,3.307354e-05,657.2699999995232,6.563313e-06,657.2699999995232,0.0002515354,657.2699999995232,6.505105e-06
657.2849999995232,3.357656e-05,657.2849999995232,6.842817e-06,657.2849999995232,0.0002522676,657.2849999995232,6.11902e-06
657.2999999995232,3.505117e-05,657.2999999995232,7.10738e-06,657.2999999995232,0.000253132,657.2999999995232,6.214957e-06
657.3149999995231,3.712695e-05,657.3149999995231,7.097463e-06,657.3149999995231,0.0002511535,657.3149999995231,6.284828e-06
657.3299999995231,3.703501e-05,657.3299999995231,7.091506e-06,657.3299999995231,0.0002500102,657.3299999995231,6.371642e-06
657.3449999995231,3.634779e-05,657.3449999995231,7.178377e-06,657.3449999995231,0.0002512481,657.3449999995231,6.616753e-06
657.3599999995231,3.775638e-05,657.3599999995231,7.190141e-06,657.3599999995231,0.0002500408,657.3599999995231,6.625263e-06
657.3749999995231,3.806701e-05,657.3749999995231,7.402513e-06,657.3749999995231,0.0001807781,657.3749999995231,6.58688e-06
657.3899999995231,3.770374e-05,657.3899999995231,7.335607e-06,657.3899999995231,0.0001668902,657.3899999995231,7.233115e-06
657.404999999523,3.622395e-05,657.404999999523,7.316379e-06,657.404999999523,0.000125966,657.404999999523,7.2409e-06
657.419999999523,3.769888e-05,657.419999999523,7.304818e-06,657.419999999523,0.0001163009,657.419999999523,7.258388e-06
657.434999999523,3.786442e-05,657.434999999523,7.56626e-06,657.434999999523,0.000114986,657.434999999523,7.22142e-06
657.449999999523,3.731353e-05,657.449999999523,7.761099e-06,657.449999999523,0.0002174977,657.449999999523,7.22532e-06
657.464999999523,4.216459e-05,657.464999999523,7.990047e-06,657.464999999523,0.0002362858,657.464999999523,7.283574e-06
657.479999999523,4.264494e-05,657.479999999523,8.291141e-06,657.479999999523,0.0002900157,657.479999999523,7.295169e-06
657.494999999523,4.293792e-05,657.494999999523,8.367247e-06,657.494999999523,0.0002944431,657.494999999523,7.203842e-06
657.509999999523,4.349498e-05,657.509999999523,8.395818e-06,657.509999999523,0.0002976535,657.509999999523,7.186222e-06
657.524999999523,4.357167e-05,657.524999999523,8.45767e-06,657.524999999523,0.0002996153,657.524999999523,7.14888e-06
657.5399999995229,4.264857e-05,657.5399999995229,8.594799e-06,657.5399999995229,0.0002991087,657.5399999995229,7.137048e-06
657.5549999995229,4.202269e-05,657.5549999995229,9.018676e-06,657.5549999995229,0.000299302,657.5549999995229,7.205797e-06
657.5699999995229,4.245391e-05,657.5699999995229,8.976404e-06,657.5699999995229,0.0003027345,657.5699999995229,7.063642e-06
657.5849999995229,4.34467e-05,657.5849999995229,8.8754e-06,657.5849999995229,0.0003115617,657.5849999995229,6.951067e-06
657.5999999995229,4.49529e-05,657.5999999995229,8.937085e-06,657.5999999995229,0.0003125841,657.5999999995229,6.930771e-06
657.6149999995229,4.507401e-05,657.6149999995229,9.286478e-06,657.6149999995229,0.0003135528,657.6149999995229,6.900217e-06
657.6299999995229,4.498829e-05,657.6299999995229,9.291028e-06,657.6299999995229,0.0003134917,657.6299999995229,6.80773e-06
657.6449999995228,4.527887e-05,657.6449999995228,9.652426e-06,657.6449999995228,0.0003116102,657.6449999995228,6.148874e-06
657.6599999995228,4.440207e-05,657.6599999995228,9.561515e-06,657.6599999995228,0.0003143787,657.6599999995228,6.264623e-06
657.6749999995228,4.716295e-05,657.6749999995228,9.631973e-06,657.6749999995228,0.0003146361,657.6749999995228,6.369431e-06
657.6899999995228,4.740961e-05,657.6899999995228,9.561515e-06,657.6899999995228,0.0003181974,657.6899999995228,6.713969e-06
657.7049999995228,4.67158e-05,657.7049999995228,9.43695e-06,657.7049999995228,0.0002495286,657.7049999995228,6.840758e-06
657.7199999995228,4.235392e-05,657.7199999995228,9.150478e-06,657.7199999995228,0.0002090709,657.7199999995228,6.797376e-06
657.7349999995228,4.525802e-05,657.7349999995228,9.224075e-06,657.7349999995228,0.0001819464,657.7349999995228,6.520246e-06
657.7499999995227,4.6211e-05,657.7499999995227,9.045189e-06,657.7499999995227,0.0001785287,657.7499999995227,6.479067e-06
657.7649999995227,4.505369e-05,657.7649999995227,9.09334e-06,657.7649999995227,0.0001752898,657.7649999995227,6.369431e-06
657.7799999995227,4.721012e-05,657.7799999995227,9.115002e-06,657.7799999995227,0.0001757094,657.7799999995227,6.53104e-06
657.7949999995227,4.846107e-05,657.7949999995227,8.676361e-06,657.7949999995227,0.0002055637,657.7949999995227,1.032239e-05
657.8099999995227,4.714293e-05,657.8099999995227,8.358825e-06,657.8099999995227,0.0002191776,657.8099999995227,1.084155e-05
657.8249999995227,4.718624e-05,657.8249999995227,8.59316e-06,657.8249999995227,0.0002169809,657.8249999995227,1.280944e-05
657.8399999995227,4.474403e-05,657.8399999995227,8.697441e-06,657.8399999995227,0.0002044997,657.8399999995227,1.671006e-05
657.8549999995226,4.4525e-05,657.8549999995226,8.611173e-06,657.8549999995226,0.0002011569,657.8549999995226,1.888733e-05
657.8699999995226,4.494914e-05,657.8699999995226,8.542191e-06,657.8699999995226,0.00020452,657.8699999995226,2.502024e-05
657.8849999995226,4.517203e-05,657.8849999995226,8.41258e-06,657.8849999995226,0.0002177513,657.8849999995226,3.112642e-05
657.8999999995226,4.526455e-05,657.8999999995226,8.729774e-06,657.8999999995226,0.0002385177,657.8999999995226,3.582156e-05
657.9149999995226,4.393548e-05,657.9149999995226,8.913411e-06,657.9149999995226,0.0002570525,657.9149999995226,4.20947e-05
657.9299999995226,4.640144e-05,657.9299999995226,9.759823e-06,657.9299999995226,0.0002891303,657.9299999995226,5.286105e-05
657.9449999995226,4.611732e-05,657.9449999995226,1.020021e-05,657.9449999995226,0.0002891902,657.9449999995226,5.808481e-05
657.9599999995226,4.784557e-05,657.9599999995226,1.049158e-05,657.9599999995226,0.000293937,657.9599999995226,6.361641e-05
657.9749999995225,4.683295e-05,657.9749999995225,1.068186e-05,657.9749999995225,0.0002985543,657.9749999995225,6.479546e-05
657.9899999995225,4.654753e-05,657.9899999995225,1.076593e-05,657.9899999995225,0.0002975199,657.9899999995225,6.488301e-05
658.0049999995225,5.042885e-05,658.0049999995225,1.161197e-05,658.0049999995225,0.0002982141,658.0049999995225,6.510236e-05
658.0199999995225,5.3771e-05,658.0199999995225,1.17722e-05,658.0199999995225,0.0002998153,658.0199999995225,6.590343e-05
658.0349999995225,5.647123e-05,658.0349999995225,1.17038e-05,658.0349999995225,0.0002942577,658.0349999995225,6.61358e-05
658.0499999995225,5.921368e-05,658.0499999995225,1.180208e-05,658.0499999995225,0.0002834591,658.0499999995225,6.58427e-05
658.0649999995225,6.367064e-05,658.0649999995225,1.176861e-05,658.0649999995225,0.0002766245,658.0649999995225,6.558139e-05
658.0799999995224,6.60354e-05,658.0799999995224,1.147038e-05,658.0799999995224,0.0002765702,658.0799999995224,6.559427e-05
658.0949999995224,7.671169e-05,658.0949999995224,1.167608e-05,658.0949999995224,0.0002818439,658.0949999995224,6.458315e-05
658.1099999995224,8.051656e-05,658.1099999995224,1.173265e-05,658.1099999995224,0.0002833306,658.1099999995224,6.313698e-05
658.1249999995224,8.210557e-05,658.1249999995224,1.154383e-05,658.1249999995224,0.0002789951,658.1249999995224,6.292332e-05
658.1399999995224,9.47577e-05,658.1399999995224,1.137914e-05,658.1399999995224,0.0002634843,658.1399999995224,6.005556e-05
658.1549999995224,9.840218e-05,658.1549999995224,1.100149e-05,658.1549999995224,0.0002461069,658.1549999995224,5.78469e-05
658.1699999995224,0.0001100859,658.1699999995224,1.065545e-05,658.1699999995224,0.0002270208,658.1699999995224,5.141916e-05
658.1849999995223,0.0001121194,658.1849999995223,9.710626e-06,658.1849999995223,0.0002372748,658.1849999995223,4.252453e-05
658.1999999995223,0.0001123689,658.1999999995223,9.696108e-06,658.1999999995223,0.000237057,658.1999999995223,3.396656e-05
658.2149999995223,0.0001146552,658.2149999995223,9.29709e-06,658.2149999995223,0.0002517095,658.2149999995223,2.501461e-05
658.2299999995223,0.0001149273,658.2299999995223,9.145859e-06,658.2299999995223,0.0002637273,658.2299999995223,2.384405e-05
658.2449999995223,0.0001158526,658.2449999995223,8.695822e-06,658.2449999995223,0.0002658399,658.2449999995223,2.344428e-05
658.2599999995223,0.0001186248,658.2599999995223,8.122932e-06,658.2599999995223,0.0002671449,658.2599999995223,2.25974e-05
658.2749999995223,0.0001189164,658.2749999995223,7.85312e-06,658.2749999995223,0.0003026955,658.2749999995223,2.153644e-05
658.2899999995223,0.0001173815,658.2899999995223,7.831566e-06,658.2899999995223,0.0003208476,658.2899999995223,2.054011e-05
658.3049999995222,0.0001176109,658.3049999995222,7.658783e-06,658.3049999995222,0.0003227308,658.3049999995222,2.046109e-05
658.3199999995222,0.0001156951,658.3199999995222,7.538281e-06,658.3199999995222,0.0003350823,658.3199999995222,2.01929e-05
658.3349999995222,0.0001151699,658.3349999995222,7.160693e-06,658.3349999995222,0.0003338681,658.3349999995222,1.984245e-05
658.3499999995222,0.0001074227,658.3499999995222,6.640129e-06,658.3499999995222,0.0003344649,658.3499999995222,1.946617e-05
658.3649999995222,0.0001097373,658.3649999995222,6.612493e-06,658.3649999995222,0.0003335668,658.3649999995222,1.814636e-05
658.3799999995222,0.0001071465,658.3799999995222,6.589018e-06,658.3799999995222,0.0003329343,658.3799999995222,1.667124e-05
658.3949999995222,9.484878e-05,658.3949999995222,6.466009e-06,658.3949999995222,0.0003261909,658.3949999995222,1.558469e-05
658.4099999995221,9.372242e-05,658.4099999995221,6.169459e-06,658.4099999995221,0.000329364,658.4099999995221,1.455457e-05
658.4249999995221,7.617841e-05,658.4249999995221,5.773135e-06,658.4249999995221,0.0003387558,658.4249999995221,1.321966e-05
658.4399999995221,7.537346e-05,658.4399999995221,5.704405e-06,658.4399999995221,0.0003261576,658.4399999995221,1.181163e-05
658.4549999995221,7.32771e-05,658.4549999995221,5.451871e-06,658.4549999995221,0.0003195427,658.4549999995221,1.113006e-05
658.4699999995221,7.027513e-05,658.4699999995221,5.281253e-06,658.4699999995221,0.0003248374,658.4699999995221,1.086103e-05
658.4849999995221,6.831712e-05,658.4849999995221,5.032679e-06,658.4849999995221,0.0003518085,658.4849999995221,1.078423e-05
658.4999999995221,6.668771e-05,658.4999999995221,4.077044e-06,658.4999999995221,0.0003518998,658.4999999995221,1.046335e-05
658.514999999522,5.448046e-05,658.514999999522,4.087396e-06,658.514999999522,0.0003515125,658.514999999522,8.389105e-06
658.529999999522,5.483432e-05,658.529999999522,3.996786e-06,658.529999999522,0.0003195562,658.529999999522,8.31828e-06
658.544999999522,5.231568e-05,658.544999999522,3.827552e-06,658.544999999522,0.0003199076,658.544999999522,8.121197e-06
658.559999999522,4.634189e-05,658.559999999522,3.922073e-06,658.559999999522,0.000311761,658.559999999522,8.068993e-06
658.574999999522,4.537086e-05,658.574999999522,3.82387e-06,658.574999999522,0.0003085149,658.574999999522,8.129866e-06
658.589999999522,4.01107e-05,658.589999999522,3.745709e-06,658.589999999522,0.0003145012,658.589999999522,7.031661e-06
658.604999999522,3.79291e-05,658.604999999522,3.719291e-06,658.604999999522,0.0003296754,658.604999999522,6.755802e-06
658.619999999522,3.052365e-05,658.619999999522,3.692683e-06,658.619999999522,0.0003278425,658.619999999522,5.953326e-06
658.6349999995219,2.67181e-05,658.6349999995219,3.79057e-06,658.6349999995219,0.0003323387,658.6349999995219,5.614802e-06
658.6499999995219,2.606045e-05,658.6499999995219,3.986198e-06,658.6499999995219,0.0003369377,658.6499999995219,5.731505e-06
658.6649999995219,2.617103e-05,658.6649999995219,4.131956e-06,658.6649999995219,0.0003261326,658.6649999995219,5.719203e-06
658.6799999995219,2.650424e-05,658.6799999995219,4.209638e-06,658.6799999995219,0.000303423,658.6799999995219,5.765811e-06
658.6949999995219,2.652124e-05,658.6949999995219,4.279333e-06,658.6949999995219,0.0003072064,658.6949999995219,5.246463e-06
658.7099999995219,2.605667e-05,658.7099999995219,4.182782e-06,658.7099999995219,0.0003059731,658.7099999995219,5.273245e-06
658.7249999995219,2.672337e-05,658.7249999995219,4.569077e-06,658.7249999995219,0.0002781692,658.7249999995219,5.233022e-06
658.7399999995218,2.714751e-05,658.7399999995218,4.663672e-06,658.7399999995218,0.0002420486,658.7399999995218,5.438937e-06
658.7549999995218,2.749092e-05,658.7549999995218,4.699779e-06,658.7549999995218,0.0002376461,658.7549999995218,5.438937e-06
658.7699999995218,2.731511e-05,658.7699999995218,4.624239e-06,658.7699999995218,0.0002339949,658.7699999995218,5.508422e-06
658.7849999995218,2.672021e-05,658.7849999995218,4.654602e-06,658.7849999995218,0.0002315372,658.7849999995218,5.425972e-06
658.7999999995218,2.669911e-05,658.7999999995218,4.642481e-06,658.7999999995218,0.0002284395,658.7999999995218,5.614802e-06
658.8149999995218,2.581279e-05,658.8149999995218,4.503868e-06,658.8149999995218,0.0002264942,658.8149999995218,5.599728e-06
658.8299999995218,2.524834e-05,658.8299999995218,4.450379e-06,658.8299999995218,0.0002315559,658.8299999995218,5.431162e-06
658.8449999995217,2.441327e-05,658.8449999995217,4.472482e-06,658.8449999995217,0.0002267201,658.8449999995217,5.394728e-06
658.8599999995217,2.43254e-05,658.8599999995217,4.463023e-06,658.8599999995217,0.0002248865,658.8599999995217,5.318464e-06
658.8749999995217,2.406867e-05,658.8749999995217,4.354386e-06,658.8749999995217,0.0003284713,658.8749999995217,5.154366e-06
658.8899999995217,2.272049e-05,658.8899999995217,4.285911e-06,658.8899999995217,0.0003799049,658.8899999995217,5.093886e-06
658.9049999995217,2.256808e-05,658.9049999995217,4.073587e-06,658.9049999995217,0.0004408975,658.9049999995217,4.965048e-06
658.9199999995217,2.129636e-05,658.9199999995217,4.090841e-06,658.9199999995217,0.0004426922,658.9199999995217,4.809401e-06
658.9349999995217,2.130496e-05,658.9349999995217,3.996786e-06,658.9349999995217,0.0004422815,658.9349999995217,5.189773e-06
658.9499999995217,1.985664e-05,658.9499999995217,3.882364e-06,658.9499999995217,0.0004395067,658.9499999995217,5.200618e-06
658.9649999995216,1.984458e-05,658.9649999995216,3.638885e-06,658.9649999995216,0.000440351,658.9649999995216,5.334332e-06
658.9799999995216,1.818823e-05,658.9799999995216,3.297714e-06,658.9799999995216,0.0004396944,658.9799999995216,5.467352e-06
658.9949999995216,1.813937e-05,658.9949999995216,3.162522e-06,658.9949999995216,0.0004399949,658.9949999995216,5.602244e-06
659.0099999995216,1.716992e-05,659.0099999995216,3.099535e-06,659.0099999995216,0.0004392389,659.0099999995216,5.790191e-06
659.0249999995216,1.63625e-05,659.0249999995216,3.280583e-06,659.0249999995216,0.0004392921,659.0249999995216,5.733962e-06
659.0399999995216,1.682851e-05,659.0399999995216,3.202359e-06,659.0399999995216,0.0004335208,659.0399999995216,5.729046e-06
659.0549999995216,1.796693e-05,659.0549999995216,3.439886e-06,659.0549999995216,0.000432429,659.0549999995216,5.627332e-06
659.0699999995215,1.800296e-05,659.0699999995215,3.452149e-06,659.0699999995215,0.0004322101,659.0699999995215,5.508422e-06
659.0849999995215,1.831711e-05,659.0849999995215,3.472492e-06,659.0849999995215,0.0004247919,659.0849999995215,5.500745e-06
659.0999999995215,1.897884e-05,659.0999999995215,3.665883e-06,659.0999999995215,0.0004212328,659.0999999995215,5.449287e-06
659.1149999995215,1.953552e-05,659.1149999995215,3.768206e-06,659.1149999995215,0.0003686151,659.1149999995215,5.457037e-06
659.1299999995215,1.948353e-05,659.1299999995215,3.741947e-06,659.1299999995215,0.0003299213,659.1299999995215,5.394728e-06
659.1449999995215,2.281762e-05,659.1449999995215,3.715501e-06,659.1449999995215,0.0002262162,659.1449999995215,5.446701e-06
659.1599999995215,2.339315e-05,659.1599999995215,3.756974e-06,659.1599999995215,0.000158388,659.1599999995215,5.516089e-06
659.1749999995214,2.350009e-05,659.1749999995214,3.885991e-06,659.1749999995214,0.0001615835,659.1749999995214,5.459618e-06
659.1899999995214,2.421163e-05,659.1899999995214,3.947135e-06,659.1899999995214,0.0001617175,659.1899999995214,5.222243e-06
659.2049999995214,2.407979e-05,659.2049999995214,4.003829e-06,659.2049999995214,0.0001573242,659.2049999995214,5.28392e-06
659.2199999995214,2.435492e-05,659.2199999995214,4.11145e-06,659.2199999995214,0.0001516528,659.2199999995214,5.178904e-06
659.2349999995214,2.375645e-05,659.2349999995214,4.077044e-06,659.2349999995214,0.0001485071,659.2349999995214,4.956529e-06
659.2499999995214,2.393132e-05,659.2499999995214,4.186148e-06,659.2499999995214,0.0001490557,659.2499999995214,4.660651e-06
659.2649999995214,2.414988e-05,659.2649999995214,4.38019e-06,659.2649999995214,0.0001498315,659.2649999995214,4.657627e-06
659.2799999995214,2.444383e-05,659.2799999995214,4.463023e-06,659.2799999995214,0.0001433929,659.2799999995214,4.608983e-06
659.2949999995213,2.383045e-05,659.2949999995213,4.488202e-06,659.2949999995213,0.0001415142,659.2949999995213,4.896482e-06
659.3099999995213,2.356833e-05,659.3099999995213,4.321914e-06,659.3099999995213,0.0001358179,659.3099999995213,4.939447e-06
659.3249999995213,2.34749e-05,659.3249999995213,4.485062e-06,659.3249999995213,0.000132185,659.3249999995213,5.063375e-06
659.3399999995213,2.34941e-05,659.3399999995213,4.602866e-06,659.3399999995213,0.0001230463,659.3399999995213,5.275916e-06
659.3549999995213,2.369054e-05,659.3549999995213,4.503868e-06,659.3549999995213,0.0001173594,659.3549999995213,5.307859e-06
659.3699999995213,2.377423e-05,659.3699999995213,4.525708e-06,659.3699999995213,0.0001068911,659.3699999995213,5.467352e-06
659.3849999995213,2.440057e-05,659.3849999995213,4.660651e-06,659.3849999995213,0.0001057492,659.3849999995213,5.574516e-06
659.3999999995212,2.126922e-05,659.3999999995212,4.702775e-06,659.3999999995212,0.0001022377,659.3999999995212,5.371176e-06
659.4149999995212,2.049067e-05,659.4149999995212,4.663672e-06,659.4149999995212,9.826064e-05,659.4149999995212,5.464775e-06
659.4299999995212,2.120554e-05,659.4299999995212,4.675739e-06,659.4299999995212,9.593696e-05,659.4299999995212,5.365928e-06
659.4449999995212,2.047279e-05,659.4449999995212,4.624239e-06,659.4449999995212,9.141715e-05,659.4449999995212,5.365928e-06
659.4599999995212,2.057232e-05,659.4599999995212,4.633369e-06,659.4599999995212,9.448302e-05,659.4599999995212,5.216845e-06
659.4749999995212,2.086333e-05,659.4749999995212,4.812329e-06,659.4749999995212,9.643812e-05,659.4749999995212,5.321112e-06
659.4899999995212,2.279168e-05,659.4899999995212,4.821102e-06,659.4899999995212,9.724021e-05,659.4899999995212,5.824151e-06
659.5049999995211,2.291926e-05,659.5049999995211,5.001795e-06,659.5049999995211,9.73132e-05,659.5049999995211,5.853103e-06
659.5199999995211,2.349769e-05,659.5199999995211,4.982041e-06,659.5199999995211,0.000100645,659.5199999995211,5.838645e-06
659.5349999995211,2.411194e-05,659.5349999995211,4.93374e-06,659.5349999995211,0.0001428619,659.5349999995211,5.773135e-06
659.5499999995211,2.589398e-05,659.5499999995211,5.113207e-06,659.5499999995211,0.0001550771,659.5499999995211,5.495621e-06
659.5649999995211,2.579478e-05,659.5649999995211,5.024275e-06,659.5649999995211,0.0001587753,659.5649999995211,5.498184e-06
659.5799999995211,2.587547e-05,659.5799999995211,4.922306e-06,659.5799999995211,0.0001711809,659.5799999995211,5.318464e-06
659.5949999995211,2.560127e-05,659.5949999995211,4.942298e-06,659.5949999995211,0.0001750712,659.5949999995211,5.091119e-06
659.609999999521,2.571985e-05,659.609999999521,4.945147e-06,659.609999999521,0.0001803609,659.609999999521,5.187057e-06
659.624999999521,2.644092e-05,659.624999999521,4.987693e-06,659.624999999521,0.0001936107,659.624999999521,4.947995e-06
659.639999999521,2.718121e-05,659.639999999521,5.082812e-06,659.639999999521,0.0001972186,659.639999999521,5.140683e-06
659.654999999521,2.735325e-05,659.654999999521,5.189773e-06,659.654999999521,0.000575282,659.654999999521,5.151632e-06
659.669999999521,2.73795e-05,659.669999999521,5.124215e-06,659.669999999521,0.0006688017,659.669999999521,5.12971e-06
659.684999999521,2.838142e-05,659.684999999521,5.055022e-06,659.684999999521,0.0007410347,659.684999999521,5.305204e-06
659.699999999521,2.789986e-05,659.699999999521,5.104936e-06,659.699999999521,0.0007816423,659.699999999521,5.574516e-06
659.714999999521,2.966329e-05,659.714999999521,5.057808e-06,659.714999999521,0.0007896486,659.714999999521,5.533936e-06
659.7299999995209,2.89777e-05,659.7299999995209,5.046655e-06,659.7299999995209,0.0008038061,659.7299999995209,5.262549e-06
659.7449999995209,2.895485e-05,659.7449999995209,5.148897e-06,659.7449999995209,0.0008412619,659.7449999995209,5.02147e-06
659.7599999995209,2.827948e-05,659.7599999995209,4.984868e-06,659.7599999995209,0.0009295457,659.7599999995209,4.747494e-06
659.7749999995209,2.846468e-05,659.7749999995209,5.115961e-06,659.7749999995209,0.000932587,659.7749999995209,4.788854e-06
659.7899999995209,2.722316e-05,659.7899999995209,5.027078e-06,659.7899999995209,0.0009289862,659.7899999995209,4.747494e-06
659.8049999995209,2.678392e-05,659.8049999995209,4.919443e-06,659.8049999995209,0.0009299139,659.8049999995209,4.815255e-06
659.8199999995209,2.679549e-05,659.8199999995209,5.386888e-06,659.8199999995209,0.0009299439,659.8199999995209,4.83569e-06
659.8349999995208,2.695953e-05,659.8349999995208,5.477649e-06,659.8349999995208,0.0009286668,659.8349999995208,4.87919e-06
659.8499999995208,2.712882e-05,659.8499999995208,5.446701e-06,659.8499999995208,0.0009289104,659.8499999995208,4.738583e-06
659.8649999995208,2.674339e-05,659.8649999995208,5.544109e-06,659.8649999995208,0.0009287135,659.8649999995208,4.861837e-06
659.8799999995208,2.457946e-05,659.8799999995208,5.407768e-06,659.8799999995208,0.0009281537,659.8799999995208,4.905105e-06
659.8949999995208,2.51578e-05,659.8949999995208,6.042573e-06,659.8949999995208,0.0009282354,659.8949999995208,4.942298e-06
659.9099999995208,2.494355e-05,659.9099999995208,6.105191e-06,659.9099999995208,0.0007060535,659.9099999995208,5.104936e-06
659.9249999995208,2.277437e-05,659.9249999995208,6.05887e-06,659.9249999995208,0.000635473,659.9249999995208,5.027078e-06
659.9399999995208,2.308034e-05,659.9399999995208,6.040241e-06,659.9399999995208,0.0005595537,659.9399999995208,4.87919e-06
659.9549999995207,2.254122e-05,659.9549999995207,6.056544e-06,659.9549999995207,0.0005323875,659.9549999995207,4.788854e-06
659.9699999995207,2.133535e-05,659.9699999995207,6.05887e-06,659.9699999995207,0.0005244844,659.9699999995207,4.771172e-06
659.9849999995207,2.064068e-05,659.9849999995207,6.030905e-06,659.9849999995207,0.000473387,659.9849999995207,4.850233e-06
659.9999999995207,2.125133e-05,659.9999999995207,6.091332e-06,659.9999999995207,0.0003303208,659.9999999995207,4.870521e-06
660.0149999995207,2.095495e-05,660.0149999995207,6.063518e-06,660.0149999995207,0.0001836013,660.0149999995207,4.81818e-06
660.0299999995207,2.01929e-05,660.0299999995207,6.153455e-06,660.0299999995207,0.0001696425,660.0299999995207,4.95937e-06
660.0449999995207,1.969495e-05,660.0449999995207,6.376062e-06,660.0449999995207,0.0001592896,660.0449999995207,4.939447e-06
660.0599999995206,1.985026e-05,660.0599999995206,6.289309e-06,660.0599999995206,0.000156635,660.0599999995206,5.02147e-06
660.0749999995206,2.070405e-05,660.0749999995206,6.093644e-06,660.0749999995206,0.0001558079,660.0749999995206,4.942298e-06
660.0899999995206,2.067273e-05,660.0899999995206,6.128222e-06,660.0899999995206,0.0001520318,660.0899999995206,5.027078e-06
660.1049999995206,1.967849e-05,660.1049999995206,6.148874e-06,660.1049999995206,0.0001494387,660.1049999995206,4.982041e-06
660.1199999995206,1.987295e-05,660.1199999995206,6.349495e-06,660.1199999995206,0.0001373727,660.1199999995206,5.159829e-06
660.1349999995206,1.97528e-05,660.1349999995206,6.269119e-06,660.1349999995206,0.0001318271,660.1349999995206,5.425972e-06
660.1499999995206,1.969781e-05,660.1499999995206,5.939112e-06,660.1499999995206,0.0001252226,660.1499999995206,5.243778e-06
660.1649999995205,2.072241e-05,660.1649999995205,5.903427e-06,660.1649999995205,0.000124697,660.1649999995205,5.121465e-06
660.1799999995205,2.10609e-05,660.1799999995205,5.998116e-06,660.1799999995205,0.0001271237,660.1799999995205,5.373798e-06
660.1949999995205,2.10716e-05,660.1949999995205,6.362793e-06,660.1949999995205,0.0001146295,660.1949999995205,5.584614e-06
660.2099999995205,2.061063e-05,660.2099999995205,6.446372e-06,660.2099999995205,0.0001187157,660.2099999995205,5.444114e-06
660.2249999995205,2.061678e-05,660.2249999995205,6.448557e-06,660.2249999995205,0.0001121583,660.2249999995205,5.368553e-06
660.2399999995205,1.960103e-05,660.2399999995205,6.539662e-06,660.2399999995205,0.000114191,660.2399999995205,5.407768e-06
660.2549999995205,2.024376e-05,660.2549999995205,6.612493e-06,660.2549999995205,0.0001160312,660.2549999995205,5.464775e-06
660.2699999995205,2.068159e-05,660.2699999995205,6.776621e-06,660.2699999995205,0.0001157461,660.2699999995205,5.428567e-06
660.2849999995204,2.092333e-05,660.2849999995204,6.565459e-06,660.2849999995204,0.0001163328,660.2849999995204,5.368553e-06
660.2999999995204,2.057027e-05,660.2999999995204,6.511599e-06,660.2999999995204,0.0001167022,660.2999999995204,5.355417e-06
660.3149999995204,2.109632e-05,660.3149999995204,6.690851e-06,660.3149999995204,0.0001188103,660.3149999995204,5.475077e-06
660.3299999995204,2.093411e-05,660.3299999995204,6.776621e-06,660.3299999995204,0.0001175389,660.3299999995204,5.528843e-06
660.3449999995204,2.07652e-05,660.3449999995204,7.085544e-06,660.3449999995204,0.0001156554,660.3449999995204,5.53139e-06
660.3599999995204,2.137361e-05,660.3599999995204,7.127172e-06,660.3599999995204,0.0001175196,660.3599999995204,5.528843e-06
660.3749999995204,2.136438e-05,660.3749999995204,6.961192e-06,660.3749999995204,0.0001245435,660.3749999995204,5.528843e-06
660.3899999995203,2.150567e-05,660.3899999995203,7.047669e-06,660.3899999995203,0.0001236557,660.3899999995203,5.360675e-06
660.4049999995203,2.151026e-05,660.4049999995203,7.00758e-06,660.4049999995203,0.0001299133,660.4049999995203,5.2679e-06
660.4199999995203,2.023471e-05,660.4199999995203,7.331766e-06,660.4199999995203,0.0001268793,660.4199999995203,5.286585e-06
660.4349999995203,2.092805e-05,660.4349999995203,7.429107e-06,660.4349999995203,0.0001205646,660.4349999995203,4.965048e-06
660.4499999995203,2.16011e-05,660.4499999995203,7.205797e-06,660.4499999995203,0.0001158734,660.4499999995203,4.884961e-06
660.4649999995203,2.202218e-05,660.4649999995203,7.370092e-06,660.4649999995203,0.0001958342,660.4649999995203,5.318464e-06
660.4799999995203,2.223797e-05,660.4799999995203,7.446153e-06,660.4799999995203,0.0002215753,660.4799999995203,5.402556e-06
660.4949999995202,2.137756e-05,660.4949999995202,7.381551e-06,660.4949999995202,0.0002367039,660.4949999995202,5.379038e-06
660.5099999995202,2.167401e-05,660.5099999995202,7.470705e-06,660.5099999995202,0.0002361284,660.5099999995202,5.315815e-06
660.5249999995202,2.237752e-05,660.5249999995202,7.512074e-06,660.5249999995202,0.0002370668,660.5249999995202,5.302549e-06
660.5399999995202,2.712622e-05,660.5399999995202,7.558809e-06,660.5399999995202,0.0002391593,660.5399999995202,5.654801e-06
660.5549999995202,2.736509e-05,660.5549999995202,7.634834e-06,660.5549999995202,0.0002420893,660.5549999995202,5.664756e-06
660.5699999995202,2.773731e-05,660.5699999995202,7.517698e-06,660.5699999995202,0.0002469735,660.5699999995202,5.493057e-06
660.5849999995202,2.728054e-05,660.5849999995202,7.523317e-06,660.5849999995202,0.0002481722,660.5849999995202,5.493057e-06
660.5999999995202,2.803183e-05,660.5999999995202,7.644054e-06,660.5999999995202,0.0002479109,660.5999999995202,5.360675e-06
660.6149999995201,2.815568e-05,660.6149999995201,7.618211e-06,660.6149999995201,0.0002493196,660.6149999995201,5.049445e-06
660.6299999995201,2.909075e-05,660.6299999995201,7.831566e-06,660.6299999995201,0.0002453579,660.6299999995201,5.173461e-06
660.6449999995201,2.898742e-05,660.6449999995201,8.091657e-06,660.6449999995201,0.000245855,660.6449999995201,5.449287e-06
660.6599999995201,2.934771e-05,660.6599999995201,8.258797e-06,660.6599999995201,0.0002440027,660.6599999995201,5.498184e-06
660.6749999995201,3.005252e-05,660.6749999995201,8.088174e-06,660.6749999995201,0.0002435467,660.6749999995201,5.599728e-06
660.6899999995201,2.917971e-05,660.6899999995201,8.350395e-06,660.6899999995201,0.0002455498,660.6899999995201,5.652309e-06
660.70499999952,2.915315e-05,660.70499999952,8.561957e-06,660.70499999952,0.0002435256,660.70499999952,5.674694e-06
660.71999999952,3.044232e-05,660.71999999952,8.601352e-06,660.71999999952,0.0001844404,660.71999999952,5.428567e-06
660.73499999952,3.091981e-05,660.73499999952,8.736227e-06,660.73499999952,0.0001505457,660.73499999952,5.604757e-06
660.74999999952,3.146849e-05,660.74999999952,9.164322e-06,660.74999999952,0.0001369466,660.74999999952,5.706874e-06
660.76499999952,3.175901e-05,660.76499999952,9.141237e-06,660.76499999952,0.0001352726,660.76499999952,5.893875e-06
660.77999999952,3.277275e-05,660.77999999952,9.359006e-06,660.77999999952,0.0001420886,660.77999999952,6.137409e-06
660.79499999952,3.05158e-05,660.79499999952,9.674292e-06,660.79499999952,0.0001418208,660.79499999952,5.93674e-06
660.80999999952,3.116034e-05,660.80999999952,9.741042e-06,660.80999999952,0.0001335727,660.80999999952,5.934367e-06
660.82499999952,3.081851e-05,660.82499999952,9.739596e-06,660.82499999952,0.0001565383,660.82499999952,6.201342e-06
660.8399999995199,3.169685e-05,660.8399999995199,9.874615e-06,660.8399999995199,0.0001703791,660.8399999995199,6.809799e-06
660.8549999995199,3.204294e-05,660.8549999995199,9.887446e-06,660.8549999995199,0.0001855164,660.8549999995199,7.22532e-06
660.8699999995199,3.2006e-05,660.8699999995199,9.982445e-06,660.8699999995199,0.0002124256,660.8699999995199,7.22532e-06
660.8849999995199,3.215178e-05,660.8849999995199,9.871762e-06,660.8849999995199,0.000226656,660.8849999995199,7.325999e-06
660.8999999995199,3.277748e-05,660.8999999995199,1.014759e-05,660.8999999995199,0.0002387196,660.8999999995199,7.235062e-06
660.9149999995199,3.416052e-05,660.9149999995199,1.012814e-05,660.9149999995199,0.000262215,660.9149999995199,7.341366e-06
660.9299999995199,3.474317e-05,660.9299999995199,1.03333e-05,660.9299999995199,0.0002619199,660.9299999995199,7.47636e-06
660.9449999995198,3.676358e-05,660.9449999995198,1.050366e-05,660.9449999995198,0.0002629,660.9449999995198,7.440475e-06
660.9599999995198,3.693141e-05,660.9599999995198,1.058249e-05,660.9599999995198,0.0002664799,660.9599999995198,7.547619e-06
660.9749999995198,3.835823e-05,660.9749999995198,1.071741e-05,660.9749999995198,0.0002701454,660.9749999995198,7.584854e-06
660.9899999995198,4.103116e-05,660.9899999995198,1.204662e-05,660.9899999995198,0.0002728334,660.9899999995198,7.702799e-06
661.0049999995198,4.099544e-05,661.0049999995198,1.182116e-05,661.0049999995198,0.0002732492,661.0049999995198,7.688155e-06
661.0199999995198,4.099578e-05,661.0199999995198,1.194327e-05,661.0199999995198,0.0002748258,661.0199999995198,8.143716e-06
661.0349999995198,4.019069e-05,661.0349999995198,1.228973e-05,661.0349999995198,0.0002757717,661.0349999995198,8.067247e-06
661.0499999995197,4.058899e-05,661.0499999995197,1.320367e-05,661.0499999995197,0.0002751666,661.0499999995197,8.1264e-06
661.0649999995197,4.158056e-05,661.0649999995197,1.328768e-05,661.0649999995197,0.0002736451,661.0649999995197,8.114256e-06
661.0799999995197,4.195862e-05,661.0799999995197,1.333425e-05,661.0799999995197,0.0002595822,661.0799999995197,8.044515e-06
661.0949999995197,4.191932e-05,661.0949999995197,1.343318e-05,661.0949999995197,0.0002498296,661.0949999995197,7.556945e-06
661.1099999995197,4.308792e-05,661.1099999995197,1.366194e-05,661.1099999995197,0.0002270173,661.1099999995197,7.318304e-06
661.1249999995197,4.332852e-05,661.1249999995197,1.362063e-05,661.1249999995197,0.0002138401,661.1249999995197,7.289374e-06
661.1399999995197,4.490838e-05,661.1399999995197,1.358542e-05,661.1399999995197,0.000197606,661.1399999995197,7.22337e-06
661.1549999995196,4.381508e-05,661.1549999995196,1.438126e-05,661.1549999995196,0.0001738942,661.1549999995196,7.466933e-06
661.1699999995196,4.769046e-05,661.1699999995196,1.463661e-05,661.1699999995196,0.0001667435,661.1699999995196,7.483893e-06
661.1849999995196,4.772412e-05,661.1849999995196,1.455167e-05,661.1849999995196,0.0001663018,661.1849999995196,7.372003e-06
661.1999999995196,4.90789e-05,661.1999999995196,1.449541e-05,661.1999999995196,0.0001672848,661.1999999995196,8.233172e-06
661.2149999995196,4.808551e-05,661.2149999995196,1.447402e-05,661.2149999995196,0.0001638325,661.2149999995196,9.700467e-06
661.2299999995196,4.472702e-05,661.2299999995196,1.378409e-05,661.2299999995196,0.000154791,661.2299999995196,1.251124e-05
661.2449999995196,4.563956e-05,661.2449999995196,1.394463e-05,661.2449999995196,0.0001534772,661.2449999995196,1.688367e-05
661.2599999995196,4.750697e-05,661.2599999995196,1.407734e-05,661.2599999995196,0.000156001,661.2599999995196,2.594398e-05
661.2749999995195,4.737662e-05,661.2749999995195,1.352411e-05,661.2749999995195,0.0001575956,661.2749999995195,3.226375e-05
661.2899999995195,4.704482e-05,661.2899999995195,1.345414e-05,661.2899999995195,0.0001744888,661.2899999995195,4.522252e-05
661.3049999995195,4.665967e-05,661.3049999995195,1.244351e-05,661.3049999995195,0.000200323,661.3049999995195,6.641127e-05
661.3199999995195,4.907086e-05,661.3199999995195,1.314807e-05,661.3199999995195,0.0002454483,661.3199999995195,0.0001297103
661.3349999995195,4.924137e-05,661.3349999995195,1.295705e-05,661.3349999995195,0.0002998629,661.3349999995195,0.0001444051
661.3499999995195,5.170111e-05,661.3499999995195,1.281164e-05,661.3499999995195,0.0003149984,661.3499999995195,0.0001463424
661.3649999995195,5.686796e-05,661.3649999995195,1.278081e-05,661.3649999995195,0.000322494,661.3649999995195,0.0001535276
661.3799999995194,5.735043e-05,661.3799999995194,1.309332e-05,661.3799999995194,0.0003333033,661.3799999995194,0.0001554891
661.3949999995194,6.194979e-05,661.3949999995194,1.40543e-05,661.3949999995194,0.0003491879,661.3949999995194,0.0001568733
661.4099999995194,6.27626e-05,661.4099999995194,1.645864e-05,661.4099999995194,0.0003529719,661.4099999995194,0.0001619681
661.4249999995194,6.159861e-05,661.4249999995194,1.799278e-05,661.4249999995194,0.000358354,661.4249999995194,0.0001655149
661.4399999995194,6.097157e-05,661.4399999995194,1.797163e-05,661.4399999995194,0.0003674956,661.4399999995194,0.0001698134
661.4549999995194,6.418077e-05,661.4549999995194,1.840457e-05,661.4549999995194,0.0004557544,661.4549999995194,0.00017628
661.4699999995194,6.72045e-05,661.4699999995194,1.969924e-05,661.4699999995194,0.0004620502,661.4699999995194,0.0001772757
661.4849999995193,7.266418e-05,661.4849999995193,1.983961e-05,661.4849999995193,0.0004826538,661.4849999995193,0.0001771345
661.4999999995193,7.838398e-05,661.4999999995193,1.959024e-05,661.4999999995193,0.000535869,661.4999999995193,0.0001786344
661.5149999995193,8.205785e-05,661.5149999995193,1.957298e-05,661.5149999995193,0.0005872918,661.5149999995193,0.0001778166
661.5299999995193,8.614101e-05,661.5299999995193,1.953696e-05,661.5299999995193,0.0006087224,661.5299999995193,0.0001767744
661.5449999995193,8.723333e-05,661.5449999995193,1.950376e-05,661.5449999995193,0.0006018687,661.5449999995193,0.0001742502
661.5599999995193,0.000106979,661.5599999995193,1.941472e-05,661.5599999995193,0.000619011,661.5599999995193,0.0001618403
661.5749999995193,0.0001099949,661.5749999995193,1.888434e-05,661.5749999995193,0.0006192065,661.5749999995193,0.0001127496
661.5899999995193,0.0001148779,661.5899999995193,1.884701e-05,661.5899999995193,0.0006252846,661.5899999995193,0.0001098782
661.6049999995192,0.0001162444,661.6049999995192,1.870295e-05,661.6049999995192,0.0006248272,661.6049999995192,0.0001055854
661.6199999995192,0.000114461,661.6199999995192,1.861614e-05,661.6199999995192,0.000622828,661.6199999995192,9.765696e-05
661.6349999995192,0.0001131528,661.6349999995192,1.811606e-05,661.6349999995192,0.0006341869,661.6349999995192,9.593124e-05
661.6499999995192,0.0001121124,661.6499999995192,1.683186e-05,661.6499999995192,0.0006305662,661.6499999995192,9.420949e-05
661.6649999995192,0.0001127991,661.6649999995192,1.370415e-05,661.6649999995192,0.000643515,661.6649999995192,8.096669e-05
661.6799999995192,0.0001132446,661.6799999995192,1.184616e-05,661.6799999995192,0.0006352072,661.6799999995192,7.167437e-05
661.6949999995192,0.0001138692,661.6949999995192,1.169055e-05,661.6949999995192,0.0006019303,661.6949999995192,6.754196e-05
661.7099999995191,0.0001134621,661.7099999995191,8.499207e-06,661.7099999995191,0.0005705861,661.7099999995191,4.784969e-05
661.7249999995191,0.0001132353,661.7249999995191,7.669811e-06,661.7249999995191,0.000572556,661.7249999995191,4.670162e-05
661.7399999995191,0.0001097377,661.7399999995191,6.203613e-06,661.7399999995191,0.0005478527,661.7399999995191,4.512586e-05
661.7549999995191,0.0001075192,661.7549999995191,5.614802e-06,661.7549999995191,0.0005062362,661.7549999995191,3.958254e-05
661.7699999995191,0.0001041572,661.7699999995191,5.321112e-06,661.7699999995191,0.0004511132,661.7699999995191,3.710531e-05
661.7849999995191,0.0001025449,661.7849999995191,5.254512e-06,661.7849999995191,0.0004241416,661.7849999995191,3.548215e-05
661.7999999995191,0.0001011883,661.7999999995191,4.832776e-06,661.7999999995191,0.0004307081,661.7999999995191,3.447208e-05
661.814999999519,7.515243e-05,661.814999999519,4.812329e-06,661.814999999519,0.0003995493,661.814999999519,3.361388e-05
661.829999999519,7.425219e-05,661.829999999519,4.741556e-06,661.829999999519,0.0003613124,661.829999999519,3.011386e-05
661.844999999519,6.81102e-05,661.844999999519,4.639445e-06,661.844999999519,0.0003546265,661.844999999519,2.795836e-05
661.859999999519,6.080546e-05,661.859999999519,4.612038e-06,661.859999999519,0.0003588212,661.859999999519,2.541794e-05
661.874999999519,6.080198e-05,661.874999999519,4.199587e-06,661.874999999519,0.0003543808,661.874999999519,2.359461e-05
661.889999999519,6.014275e-05,661.889999999519,4.125132e-06,661.889999999519,0.0003247519,661.889999999519,2.447205e-05
661.904999999519,5.936527e-05,661.904999999519,3.972038e-06,661.904999999519,0.0003047817,661.904999999519,2.388478e-05
661.919999999519,5.784251e-05,661.919999999519,3.936414e-06,661.919999999519,0.000298268,661.919999999519,2.310474e-05
661.9349999995189,5.448227e-05,661.9349999995189,3.922073e-06,661.9349999995189,0.0002971198,661.9349999995189,2.266897e-05
661.9499999995189,5.116704e-05,661.9499999995189,3.914884e-06,661.9499999995189,0.0002953505,661.9499999995189,2.173048e-05
661.9649999995189,4.530655e-05,661.9649999995189,3.86418e-06,661.9649999995189,0.0002883377,661.9649999995189,2.029311e-05
661.9799999995189,4.33857e-05,661.9799999995189,3.607783e-06,661.9799999995189,0.000276326,661.9799999995189,1.998252e-05
661.9949999995189,3.998055e-05,661.9949999995189,3.99326e-06,661.9949999995189,0.0003035293,661.9949999995189,1.981261e-05
662.0099999995189,3.783874e-05,662.0099999995189,4.077044e-06,662.0099999995189,0.000316317,662.0099999995189,1.543209e-05
662.0249999995189,3.488075e-05,662.0249999995189,3.986198e-06,662.0249999995189,0.000301147,662.0249999995189,1.459323e-05
662.0399999995188,3.375898e-05,662.0399999995188,3.99326e-06,662.0399999995188,0.0003048706,662.0399999995188,1.427706e-05
662.0549999995188,3.377484e-05,662.0549999995188,4.104592e-06,662.0549999995188,0.0002840746,662.0549999995188,1.369592e-05
662.0699999995188,3.397237e-05,662.0699999995188,4.155752e-06,662.0699999995188,0.0002932474,662.0699999995188,1.357194e-05
662.0849999995188,3.385232e-05,662.0849999995188,4.325173e-06,662.0849999995188,0.0003083448,662.0849999995188,1.329616e-05
662.0999999995188,3.224104e-05,662.0999999995188,4.38019e-06,662.0999999995188,0.0003173762,662.0999999995188,1.211425e-05
662.1149999995188,3.536206e-05,662.1149999995188,4.538142e-06,662.1149999995188,0.0003745195,662.1149999995188,1.128342e-05
662.1299999995188,3.432014e-05,662.1299999995188,4.596741e-06,662.1299999995188,0.0004053936,662.1299999995188,1.069109e-05
662.1449999995187,3.381444e-05,662.1449999995187,4.690778e-06,662.1449999995187,0.0004332606,662.1449999995187,6.224016e-06
662.1599999995187,3.554086e-05,662.1599999995187,4.803539e-06,662.1599999995187,0.0004893687,662.1599999995187,6.391509e-06
662.1749999995187,3.491829e-05,662.1749999995187,4.965048e-06,662.1749999995187,0.0005088585,662.1749999995187,6.457289e-06
662.1899999995187,3.654144e-05,662.1899999995187,4.905105e-06,662.1899999995187,0.0005690394,662.1899999995187,6.513761e-06
662.2049999995187,3.669032e-05,662.2049999995187,5.041069e-06,662.2049999995187,0.0006873768,662.2049999995187,6.692956e-06
662.2199999995187,3.761621e-05,662.2199999995187,5.024275e-06,662.2199999995187,0.0006921564,662.2199999995187,6.865424e-06
662.2349999995187,3.880078e-05,662.2349999995187,4.970719e-06,662.2349999995187,0.000717932,662.2349999995187,6.977362e-06
662.2499999995186,3.877463e-05,662.2499999995186,4.853136e-06,662.2499999995186,0.0007054689,662.2499999995186,6.830453e-06
662.2649999995186,4.009876e-05,662.2649999995186,4.785911e-06,662.2649999995186,0.000711013,662.2649999995186,6.610363e-06
662.2799999995186,4.056608e-05,662.2799999995186,4.947995e-06,662.2799999995186,0.0007328911,662.2799999995186,6.260124e-06
662.2949999995186,4.099681e-05,662.2949999995186,4.861837e-06,662.2949999995186,0.0007360541,662.2949999995186,6.107498e-06
662.3099999995186,4.074728e-05,662.3099999995186,4.942298e-06,662.3099999995186,0.0007373804,662.3099999995186,6.235322e-06
662.3249999995186,4.085672e-05,662.3249999995186,5.02147e-06,662.3249999995186,0.0007389946,662.3249999995186,6.376062e-06
662.3399999995186,4.06767e-05,662.3399999995186,4.930884e-06,662.3399999995186,0.0007319558,662.3399999995186,6.25337e-06
662.3549999995186,3.965223e-05,662.3549999995186,4.850233e-06,662.3549999995186,0.000723337,662.3549999995186,6.244353e-06
662.3699999995185,3.887151e-05,662.3699999995185,5.068936e-06,662.3699999995185,0.0006819964,662.3699999995185,6.072803e-06
662.3849999995185,3.873755e-05,662.3849999995185,5.063375e-06,662.3849999995185,0.0006753765,662.3849999995185,6.257873e-06
662.3999999995185,3.761284e-05,662.3999999995185,5.151632e-06,662.3999999995185,0.0006385314,662.3999999995185,6.16489e-06
662.4149999995185,3.581566e-05,662.4149999995185,4.905105e-06,662.4149999995185,0.0006055348,662.4149999995185,6.239839e-06
662.4299999995185,3.561293e-05,662.4299999995185,5.254512e-06,662.4299999995185,0.0005897455,662.4299999995185,6.061194e-06
662.4449999995185,3.309568e-05,662.4449999995185,5.187057e-06,662.4449999995185,0.0004726431,662.4449999995185,5.903427e-06
662.4599999995185,3.278607e-05,662.4599999995185,5.230329e-06,662.4599999995185,0.0003674145,662.4599999995185,5.736418e-06
662.4749999995184,3.152663e-05,662.4749999995184,6.237581e-06,662.4749999995184,0.000353912,662.4749999995184,5.48279e-06
662.4899999995184,2.99995e-05,662.4899999995184,6.255622e-06,662.4899999995184,0.0003047246,662.4899999995184,5.510979e-06
662.5049999995184,2.965236e-05,662.5049999995184,6.537507e-06,662.5049999995184,0.0002930977,662.5049999995184,5.642331e-06
662.5199999995184,2.70529e-05,662.5199999995184,7.316379e-06,662.5199999995184,0.0002825755,662.5199999995184,6.19225e-06
662.5349999995184,2.678655e-05,662.5349999995184,7.766543e-06,662.5349999995184,0.0002293803,662.5349999995184,6.19907e-06
662.5499999995184,2.583734e-05,662.5499999995184,8.565246e-06,662.5499999995184,0.0002185735,662.5499999995184,6.13052e-06
662.5649999995184,2.271739e-05,662.5649999995184,8.763595e-06,662.5649999995184,0.0002213422,662.5649999995184,5.960421e-06
662.5799999995183,2.094352e-05,662.5799999995183,8.976404e-06,662.5799999995183,0.0002558533,662.5799999995183,5.95096e-06
662.5949999995183,2.008939e-05,662.5949999995183,9.253046e-06,662.5949999995183,0.0002782192,662.5949999995183,6.019215e-06
662.6099999995183,1.931871e-05,662.6099999995183,9.398059e-06,662.6099999995183,0.0002771942,662.6099999995183,5.920107e-06
662.6249999995183,1.765452e-05,662.6249999995183,9.469733e-06,662.6249999995183,0.0002752724,662.6249999995183,5.804769e-06
662.6399999995183,1.835783e-05,662.6399999995183,9.496471e-06,662.6399999995183,0.0002765601,662.6399999995183,5.860319e-06
662.6549999995183,1.785525e-05,662.6549999995183,9.515735e-06,662.6549999995183,0.0002807696,662.6549999995183,5.922486e-06
662.6699999995183,1.781338e-05,662.6699999995183,9.451865e-06,662.6699999995183,0.0002844663,662.6699999995183,5.974584e-06
662.6849999995183,1.792925e-05,662.6849999995183,9.333384e-06,662.6849999995183,0.0002833895,662.6849999995183,6.125922e-06
662.6999999995182,1.891565e-05,662.6999999995182,9.39656e-06,662.6999999995182,0.0002830359,662.6999999995182,6.19225e-06
662.7149999995182,1.853119e-05,662.7149999995182,9.487566e-06,662.7149999995182,0.0002817563,662.7149999995182,6.135114e-06
662.7299999995182,1.917379e-05,662.7299999995182,9.051417e-06,662.7299999995182,0.000281742,662.7299999995182,6.239839e-06
662.7449999995182,2.205797e-05,662.7449999995182,8.995216e-06,662.7449999995182,0.0002795606,662.7449999995182,6.185421e-06
662.7599999995182,2.351028e-05,662.7599999995182,8.547137e-06,662.7599999995182,0.0002755261,662.7599999995182,5.917727e-06
662.7749999995182,2.376594e-05,662.7749999995182,8.447671e-06,662.7749999995182,0.0002532385,662.7749999995182,5.726587e-06
662.7899999995182,2.719935e-05,662.7899999995182,8.294538e-06,662.7899999995182,0.0002426618,662.7899999995182,5.905813e-06
662.8049999995181,2.976758e-05,662.8049999995181,7.498936e-06,662.8049999995181,0.0002416658,662.8049999995181,6.365006e-06
662.8199999995181,2.992804e-05,662.8199999995181,7.350954e-06,662.8199999995181,0.0002298315,662.8199999995181,6.659195e-06
662.8349999995181,2.986773e-05,662.8349999995181,7.127172e-06,662.8349999995181,0.0001589984,662.8349999995181,6.7391e-06
662.8499999995181,3.249477e-05,662.8499999995181,7.025649e-06,662.8499999995181,0.0001229771,662.8499999995181,6.934835e-06
662.8649999995181,3.284917e-05,662.8649999995181,6.826328e-06,662.8649999995181,0.000120968,662.8649999995181,7.219469e-06
662.8799999995181,3.239838e-05,662.8799999995181,6.928738e-06,662.8799999995181,0.0001206582,662.8799999995181,7.073606e-06
662.8949999995181,3.36725e-05,662.8949999995181,6.869526e-06,662.8949999995181,0.0001204655,662.8949999995181,6.789081e-06
662.909999999518,3.424001e-05,662.909999999518,6.875675e-06,662.909999999518,0.0001104045,662.909999999518,6.97938e-06
662.924999999518,3.516672e-05,662.924999999518,7.174451e-06,662.924999999518,9.72644e-05,662.924999999518,6.947012e-06
662.939999999518,3.524315e-05,662.939999999518,7.60896e-06,662.939999999518,0.0001019884,662.939999999518,6.859265e-06
662.954999999518,3.608641e-05,662.954999999518,7.525189e-06,662.954999999518,0.0001035895,662.954999999518,6.942956e-06
662.969999999518,3.583178e-05,662.969999999518,7.52706e-06,662.969999999518,0.0001145281,662.969999999518,6.940926e-06
662.984999999518,3.631251e-05,662.984999999518,7.666136e-06,662.984999999518,0.0001175048,662.984999999518,7.129148e-06
662.999999999518,3.419926e-05,662.999999999518,7.967094e-06,662.999999999518,0.0001272504,662.999999999518,7.463159e-06
663.014999999518,3.38336e-05,663.014999999518,8.164447e-06,663.014999999518,0.0001303318,663.014999999518,7.653262e-06
663.0299999995179,3.524794e-05,663.0299999995179,8.204034e-06,663.0299999995179,0.0001453474,663.0299999995179,7.621908e-06
663.0449999995179,3.147341e-05,663.0449999995179,8.026986e-06,663.0449999995179,0.0002785111,663.0449999995179,7.737468e-06
663.0599999995179,3.216317e-05,663.0599999995179,8.301328e-06,663.0599999995179,0.0003785754,663.0599999995179,7.429107e-06
663.0749999995179,3.255799e-05,663.0749999995179,8.263912e-06,663.0749999995179,0.0004003796,663.0749999995179,7.15282e-06
663.0899999995179,3.481689e-05,663.0899999995179,9.623194e-06,663.0899999995179,0.0005398071,663.0899999995179,7.205797e-06
663.1049999995179,3.253289e-05,663.1049999995179,9.629048e-06,663.1049999995179,0.0006093366,663.1049999995179,7.24479e-06
663.1199999995179,3.377442e-05,663.1199999995179,9.634898e-06,663.1199999995179,0.000615699,663.1199999995179,7.194059e-06
663.1349999995178,3.625855e-05,663.1349999995178,9.457824e-06,663.1349999995178,0.0006194125,663.1349999995178,7.41962e-06
663.1499999995178,3.492353e-05,663.1499999995178,9.469733e-06,663.1499999995178,0.0006763156,663.1499999995178,7.845942e-06
663.1649999995178,3.430331e-05,663.1649999995178,9.537914e-06,663.1649999995178,0.0008477781,663.1649999995178,7.896054e-06
663.1799999995178,3.457491e-05,663.1799999995178,9.687388e-06,663.1799999995178,0.000859572,663.1799999995178,8.023475e-06
663.1949999995178,3.469367e-05,663.1949999995178,9.699014e-06,663.1949999995178,0.00085827,663.1949999995178,8.150632e-06
663.2099999995178,3.393545e-05,663.2099999995178,9.640744e-06,663.2099999995178,0.0008637332,663.2099999995178,8.907087e-06
663.2249999995178,3.412421e-05,663.2249999995178,9.685934e-06,663.2249999995178,0.0008705114,663.2249999995178,8.913411e-06
663.2399999995177,3.413535e-05,663.2399999995177,9.108818e-06,663.2399999995177,0.0009453346,663.2399999995177,8.81648e-06
663.2549999995177,3.438452e-05,663.2549999995177,8.867461e-06,663.2549999995177,0.001004642,663.2549999995177,8.682853e-06
663.2699999995177,3.386813e-05,663.2699999995177,9.139696e-06,663.2699999995177,0.001007246,663.2699999995177,8.679607e-06
663.2849999995177,3.300703e-05,663.2849999995177,9.274335e-06,663.2849999995177,0.0009965483,663.2849999995177,8.642199e-06
663.2999999995177,3.299636e-05,663.2999999995177,9.190417e-06,663.2999999995177,0.000962675,663.2999999995177,8.527336e-06
663.3149999995177,3.331247e-05,663.3149999995177,8.840414e-06,663.3149999995177,0.0009234453,663.3149999995177,8.737838e-06
663.3299999995177,3.402416e-05,663.3299999995177,7.981227e-06,663.3299999995177,0.0009180297,663.3299999995177,8.686096e-06
663.3449999995177,3.361346e-05,663.3449999995177,7.2409e-06,663.3449999995177,0.0008514247,663.3449999995177,8.726546e-06
663.3599999995176,3.355432e-05,663.3599999995176,7.075597e-06,663.3599999995176,0.0008243927,663.3599999995176,8.944963e-06
663.3749999995176,2.940477e-05,663.3749999995176,7.117283e-06,663.3749999995176,0.0008268665,663.3749999995176,8.718472e-06
663.3899999995176,2.982195e-05,663.3899999995176,7.188182e-06,663.3899999995176,0.0008282092,663.3899999995176,8.713623e-06
663.4049999995176,3.058865e-05,663.4049999995176,7.174451e-06,663.4049999995176,0.0006946517,663.4049999995176,8.484277e-06
663.4199999995176,3.084638e-05,663.4199999995176,7.246734e-06,663.4199999995176,0.0005256321,663.4199999995176,8.500864e-06
663.4349999995176,3.041408e-05,663.4349999995176,6.520246e-06,663.4349999995176,0.0005131209,663.4349999995176,9.529049e-06
663.4499999995176,3.277748e-05,663.4499999995176,6.287069e-06,663.4499999995176,0.0005150728,663.4499999995176,9.445902e-06
663.4649999995175,3.21658e-05,663.4649999995175,6.239839e-06,663.4649999995175,0.0005270998,663.4649999995175,8.99365e-06
663.4799999995175,3.29053e-05,663.4799999995175,6.347276e-06,663.4799999995175,0.0005202718,663.4799999995175,8.944963e-06
663.4949999995175,3.245876e-05,663.4949999995175,6.877724e-06,663.4949999995175,0.0003715453,663.4949999995175,8.981111e-06
663.5099999995175,3.206799e-05,663.5099999995175,7.176414e-06,663.5099999995175,0.0003018241,663.5099999995175,9.094889e-06
663.5249999995175,3.11409e-05,663.5249999995175,6.633762e-06,663.5249999995175,0.000309357,663.5249999995175,8.996782e-06
663.5399999995175,3.072696e-05,663.5399999995175,7.283574e-06,663.5399999995175,0.0003110391,663.5399999995175,9.352983e-06
663.5549999995175,3.045758e-05,663.5549999995175,8.43766e-06,663.5549999995175,0.0003015741,663.5549999995175,9.278891e-06
663.5699999995174,2.581388e-05,663.5699999995174,1.11982e-05,663.5699999995174,0.0002896007,663.5699999995174,9.136613e-06
663.5849999995174,2.578931e-05,663.5849999995174,1.173145e-05,663.5849999995174,0.0002799052,663.5849999995174,9.683024e-06
663.5999999995174,2.547219e-05,663.5999999995174,1.22484e-05,663.5999999995174,0.0003154427,663.5999999995174,9.648047e-06
663.6149999995174,2.553571e-05,663.6149999995174,1.370106e-05,663.6149999995174,0.000318149,663.6149999995174,9.608544e-06
663.6299999995174,2.52896e-05,663.6299999995174,1.386865e-05,663.6299999995174,0.0003073649,663.6299999995174,9.445902e-06
663.6449999995174,2.407042e-05,663.6449999995174,1.64672e-05,663.6449999995174,0.0003309434,663.6449999995174,9.733809e-06
663.6599999995174,2.430918e-05,663.6599999995174,2.021312e-05,663.6599999995174,0.0003429174,663.6599999995174,9.917319e-06
663.6749999995174,2.396955e-05,663.6749999995174,2.04893e-05,663.6749999995174,0.0003518695,663.6749999995174,9.854623e-06
663.6899999995173,2.240772e-05,663.6899999995173,2.053051e-05,663.6899999995173,0.0003839493,663.6899999995173,9.028043e-06
663.7049999995173,1.879837e-05,663.7049999995173,2.185008e-05,663.7049999995173,0.0003787701,663.7049999995173,9.06075e-06
663.7199999995173,1.950015e-05,663.7199999995173,2.211282e-05,663.7199999995173,0.0003737127,663.7199999995173,9.010862e-06
663.7349999995173,1.844815e-05,663.7349999995173,2.606045e-05,663.7349999995173,0.0003653879,663.7349999995173,9.336401e-06
663.7499999995173,1.982398e-05,663.7499999995173,2.840424e-05,663.7499999995173,0.0003661628,663.7499999995173,9.21338e-06
663.7649999995173,1.995642e-05,663.7649999995173,2.890421e-05,663.7649999995173,0.0003442559,663.7649999995173,9.42201e-06
663.7799999995173,2.010621e-05,663.7799999995173,2.912656e-05,663.7799999995173,0.0003460618,663.7799999995173,9.25609e-06
663.7949999995172,2.167856e-05,663.7949999995172,3.001828e-05,663.7949999995172,0.000346659,663.7949999995172,8.985815e-06
663.8099999995172,2.170454e-05,663.8099999995172,2.96799e-05,663.8099999995172,0.0003476582,663.8099999995172,8.992083e-06
663.8249999995172,2.234035e-05,663.8249999995172,3.168485e-05,663.8249999995172,0.0003383908,663.8249999995172,9.048304e-06
663.8399999995172,2.250307e-05,663.8399999995172,3.178517e-05,663.8399999995172,0.0003242009,663.8399999995172,8.289442e-06
663.8549999995172,2.261983e-05,663.8549999995172,3.301301e-05,663.8549999995172,0.0003011255,663.8549999995172,8.095138e-06
663.8699999995172,2.372738e-05,663.8699999995172,3.53218e-05,663.8699999995172,0.0002947176,663.8699999995172,7.967094e-06
663.8849999995172,2.390541e-05,663.8849999995172,3.534014e-05,663.8849999995172,0.0002924661,663.8849999995172,7.924546e-06
663.8999999995171,2.621459e-05,663.8999999995171,3.435501e-05,663.8999999995171,0.0002558162,663.8999999995171,7.314453e-06
663.9149999995171,2.617749e-05,663.9149999995171,3.295749e-05,663.9149999995171,0.0002407252,663.9149999995171,7.097463e-06
663.9299999995171,2.744681e-05,663.9299999995171,3.293355e-05,663.9299999995171,0.0002030126,663.9299999995171,6.686639e-06
663.9449999995171,2.76763e-05,663.9449999995171,3.315692e-05,663.9449999995171,0.0001412882,663.9449999995171,6.398117e-06
663.9599999995171,2.772512e-05,663.9599999995171,3.223536e-05,663.9599999995171,0.0001426334,663.9599999995171,6.002811e-06
663.9749999995171,2.710492e-05,663.9749999995171,3.194432e-05,663.9749999995171,0.0001540809,663.9749999995171,6.089019e-06
663.9899999995171,2.659709e-05,663.9899999995171,2.811863e-05,663.9899999995171,0.0001498865,663.9899999995171,5.836232e-06
664.004999999517,2.700495e-05,664.004999999517,2.752113e-05,664.004999999517,0.0001868229,664.004999999517,6.526725e-06
664.019999999517,2.753393e-05,664.019999999517,2.702112e-05,664.019999999517,0.0002495961,664.019999999517,6.910417e-06
664.034999999517,2.7362e-05,664.034999999517,2.656317e-05,664.034999999517,0.0002622554,664.034999999517,7.131124e-06
664.049999999517,2.779869e-05,664.049999999517,2.51841e-05,664.049999999517,0.0003426871,664.049999999517,7.320229e-06
664.064999999517,2.784477e-05,664.064999999517,2.492943e-05,664.064999999517,0.0003587851,664.064999999517,7.372003e-06
664.079999999517,2.722885e-05,664.079999999517,2.160566e-05,664.079999999517,0.000417851,664.079999999517,7.686323e-06
664.094999999517,2.808805e-05,664.094999999517,2.154363e-05,664.094999999517,0.0004286013,664.094999999517,8.645458e-06
664.109999999517,2.879825e-05,664.109999999517,1.366709e-05,664.109999999517,0.0005105343,664.109999999517,8.938661e-06
664.124999999517,2.92318e-05,664.124999999517,1.318017e-05,664.124999999517,0.0005275722,664.124999999517,9.080939e-06
664.1399999995169,2.90122e-05,664.1399999995169,1.077639e-05,664.1399999995169,0.0005309915,664.1399999995169,9.150478e-06
664.1549999995169,2.825606e-05,664.1549999995169,1.059181e-05,664.1549999995169,0.0005358496,664.1549999995169,9.153557e-06
664.1699999995169,3.385149e-05,664.1699999995169,1.051305e-05,664.1699999995169,0.0005439305,664.1699999995169,9.253046e-06
664.1849999995169,3.682828e-05,664.1849999995169,1.018777e-05,664.1849999995169,0.0005655718,664.1849999995169,9.408545e-06
664.1999999995169,3.873537e-05,664.1999999995169,9.269777e-06,664.1999999995169,0.0005688067,664.1999999995169,9.451865e-06
664.2149999995169,3.95006e-05,664.2149999995169,9.164322e-06,664.2149999995169,0.0006002361,664.2149999995169,9.435456e-06
664.2299999995168,4.152938e-05,664.2299999995168,5.736418e-06,664.2299999995168,0.0006162828,664.2299999995168,1.077901e-05
664.2449999995168,4.486036e-05,664.2449999995168,5.446701e-06,664.2449999995168,0.0006151839,664.2449999995168,1.171703e-05
664.2599999995168,4.451456e-05,664.2599999995168,5.402556e-06,664.2599999995168,0.000586156,664.2599999995168,1.419393e-05
664.2749999995168,4.612221e-05,664.2749999995168,5.243778e-06,664.2749999995168,0.0006399237,664.2749999995168,1.897662e-05
664.2899999995168,4.955591e-05,664.2899999995168,5.211442e-06,664.2899999995168,0.0007240066,664.2899999995168,2.750219e-05
664.3049999995168,4.941243e-05,664.3049999995168,5.060592e-06,664.3049999995168,0.0006950801,664.3049999995168,2.934291e-05
664.3199999995168,5.05229e-05,664.3199999995168,5.043863e-06,664.3199999995168,0.0007244584,664.3199999995168,3.024548e-05
664.3349999995168,5.111719e-05,664.3349999995168,8.91025e-06,664.3349999995168,0.0007291253,664.3349999995168,3.045018e-05
664.3499999995167,5.247215e-05,664.3499999995167,1.754727e-05,664.3499999995167,0.0007462622,664.3499999995167,3.024409e-05
664.3649999995167,5.447451e-05,664.3649999995167,2.17551e-05,664.3649999995167,0.0007561435,664.3649999995167,3.021519e-05
664.3799999995167,5.925506e-05,664.3799999995167,2.290696e-05,664.3799999995167,0.0007825974,664.3799999995167,3.137838e-05
664.3949999995167,6.965177e-05,664.3949999995167,2.882368e-05,664.3949999995167,0.0007811816,664.3949999995167,3.416588e-05
664.4099999995167,8.674753e-05,664.4099999995167,2.976143e-05,664.4099999995167,0.0008040814,664.4099999995167,3.441155e-05
664.4249999995167,0.0001015151,664.4249999995167,2.988989e-05,664.4249999995167,0.0007975663,664.4249999995167,3.45692e-05
664.4399999995167,0.0001208647,664.4399999995167,2.988188e-05,664.4399999995167,0.0008003314,664.4399999995167,3.485853e-05
664.4549999995166,0.0001216812,664.4549999995166,2.999058e-05,664.4549999995166,0.0007991844,664.4549999995166,3.5111e-05
664.4699999995166,0.0001370676,664.4699999995166,2.997178e-05,664.4699999995166,0.0007910465,664.4699999995166,3.579048e-05
664.4849999995166,0.0001493035,664.4849999995166,2.998259e-05,664.4849999995166,0.0007923252,664.4849999995166,3.679882e-05
664.4999999995166,0.0001515456,664.4999999995166,3.000232e-05,664.4999999995166,0.0007953036,664.4999999995166,3.700001e-05
664.5149999995166,0.0001615351,664.5149999995166,2.99699e-05,664.5149999995166,0.0007986346,664.5149999995166,3.564772e-05
664.5299999995166,0.0001662627,664.5299999995166,3.003845e-05,664.5299999995166,0.0007160711,664.5299999995166,3.329344e-05
664.5449999995166,0.0001666217,664.5449999995166,3.005392e-05,664.5449999995166,0.0006575797,664.5449999995166,2.998823e-05
664.5599999995165,0.0001677377,664.5599999995165,3.006985e-05,664.5599999995165,0.000625651,664.5599999995165,2.790087e-05
664.5749999995165,0.0001719161,664.5749999995165,3.002062e-05,664.5749999995165,0.0006130005,664.5749999995165,2.838241e-05
664.5899999995165,0.0001730572,664.5899999995165,2.691561e-05,664.5899999995165,0.0005679802,664.5899999995165,2.85245e-05
664.6049999995165,0.0001725435,664.6049999995165,2.473941e-05,664.6049999995165,0.0005509637,664.6049999995165,2.850523e-05
664.6199999995165,0.0001719161,664.6199999995165,2.08221e-05,664.6199999995165,0.0004470609,664.6199999995165,2.875273e-05
664.6349999995165,0.0001704238,664.6349999995165,1.600828e-05,664.6349999995165,0.0004260878,664.6349999995165,2.803836e-05
664.6499999995165,0.0001666297,664.6499999995165,8.475971e-06,664.6499999995165,0.0004230701,664.6499999995165,2.527232e-05
664.6649999995165,0.000152961,664.6649999995165,5.706874e-06,664.6649999995165,0.0003877244,664.6649999995165,2.500221e-05
664.6799999995164,0.0001441098,664.6799999995164,5.528843e-06,664.6799999995164,0.0003534643,664.6799999995164,2.627578e-05
664.6949999995164,0.0001327765,664.6949999995164,5.420777e-06,664.6949999995164,0.000348269,664.6949999995164,2.754007e-05
664.7099999995164,0.0001307645,664.7099999995164,4.956529e-06,664.7099999995164,0.0003479484,664.7099999995164,2.703311e-05
664.7249999995164,0.000107956,664.7249999995164,5.115961e-06,664.7249999995164,0.0002917709,664.7249999995164,2.635821e-05
664.7399999995164,9.470937e-05,664.7399999995164,5.010237e-06,664.7399999995164,0.0002691234,664.7399999995164,2.396603e-05
664.7549999995164,9.01452e-05,664.7549999995164,5.157098e-06,664.7549999995164,0.0002637706,664.7549999995164,2.299473e-05
664.7699999995164,7.261823e-05,664.7699999995164,5.187057e-06,664.7699999995164,0.0002408011,664.7699999995164,2.34899e-05
664.7849999995163,6.467709e-05,664.7849999995163,4.79767e-06,664.7849999995163,0.0002358312,664.7849999995163,2.190674e-05
664.7999999995163,5.887299e-05,664.7999999995163,4.711753e-06,664.7999999995163,0.000221821,664.7999999995163,2.17415e-05
664.8149999995163,5.454351e-05,664.8149999995163,4.562907e-06,664.8149999995163,0.0001851929,664.8149999995163,2.188937e-05
664.8299999995163,4.254506e-05,664.8299999995163,4.519479e-06,664.8299999995163,0.0001689026,664.8299999995163,2.094756e-05
664.8449999995163,3.761434e-05,664.8449999995163,4.478776e-06,664.8449999995163,0.0001670525,664.8449999995163,2.099189e-05
664.8599999995163,3.450067e-05,664.8599999995163,4.531929e-06,664.8599999995163,0.000159109,664.8599999995163,2.093881e-05
664.8749999995163,3.40018e-05,664.8749999995163,4.608983e-06,664.8749999995163,0.0001403708,664.8749999995163,2.074619e-05
664.8899999995162,3.225851e-05,664.8899999995162,4.559819e-06,664.8899999995162,0.0001275172,664.8899999995162,1.963693e-05
664.9049999995162,2.61441e-05,664.9049999995162,4.531929e-06,664.9049999995162,0.0001136101,664.9049999995162,1.950087e-05
664.9199999995162,2.138086e-05,664.9199999995162,4.547444e-06,664.9199999995162,0.0001032222,664.9199999995162,1.908616e-05
664.9349999995162,2.108897e-05,664.9349999995162,4.562907e-06,664.9349999995162,9.306177e-05,664.9349999995162,1.505131e-05
664.9499999995162,1.947558e-05,664.9499999995162,4.642481e-06,664.9499999995162,9.138647e-05,664.9499999995162,1.461349e-05
664.9649999995162,1.949076e-05,664.9649999995162,4.463023e-06,664.9649999995162,9.31102e-05,664.9649999995162,1.415617e-05
664.9799999995162,1.848858e-05,664.9799999995162,4.331681e-06,664.9799999995162,9.65158e-05,664.9799999995162,1.431647e-05
664.9949999995162,1.887166e-05,664.9949999995162,4.239647e-06,664.9949999995162,9.963306e-05,664.9949999995162,1.404829e-05
665.0099999995161,1.99218e-05,665.0099999995161,3.979125e-06,665.0099999995161,9.778237e-05,665.0099999995161,1.3061e-05
665.0249999995161,2.196518e-05,665.0249999995161,4.145571e-06,665.0249999995161,9.229282e-05,665.0249999995161,1.22966e-05
665.0399999995161,2.23271e-05,665.0399999995161,4.192873e-06,665.0399999995161,9.094719e-05,665.0399999995161,1.206298e-05
665.0549999995161,2.243787e-05,665.0549999995161,4.305587e-06,665.0549999995161,8.854537e-05,665.0549999995161,9.327345e-06
665.0699999995161,2.251058e-05,665.0699999995161,4.47563e-06,665.0699999995161,8.965994e-05,665.0699999995161,9.39656e-06
665.0849999995161,2.258555e-05,665.0849999995161,4.494475e-06,665.0849999995161,9.207858e-05,665.0849999995161,8.456004e-06
665.0999999995161,2.276075e-05,665.0999999995161,4.48192e-06,665.0999999995161,9.284446e-05,665.0999999995161,8.350395e-06
665.114999999516,2.216246e-05,665.114999999516,4.488202e-06,665.114999999516,0.0001024774,665.114999999516,7.364355e-06
665.129999999516,2.231448e-05,665.129999999516,4.456705e-06,665.129999999516,0.000107554,665.129999999516,6.944984e-06
665.144999999516,2.254622e-05,665.144999999516,4.402644e-06,665.144999999516,0.0001189091,665.144999999516,6.79323e-06
665.159999999516,2.278426e-05,665.159999999516,4.418613e-06,665.159999999516,0.0001317796,665.159999999516,6.74119e-06
665.174999999516,2.308522e-05,665.174999999516,4.434525e-06,665.174999999516,0.0001486655,665.174999999516,7.035667e-06
665.189999999516,2.303391e-05,665.189999999516,4.615091e-06,665.189999999516,0.0001517624,665.189999999516,6.848989e-06
665.204999999516,2.500785e-05,665.204999999516,4.702775e-06,665.204999999516,0.000158543,665.204999999516,6.690851e-06
665.219999999516,2.495032e-05,665.219999999516,4.660651e-06,665.219999999516,0.0002240647,665.219999999516,6.402519e-06
665.2349999995159,2.484736e-05,665.2349999995159,4.702775e-06,665.2349999995159,0.000230763,665.2349999995159,6.266871e-06
665.2499999995159,2.395603e-05,665.2499999995159,4.690778e-06,665.2499999995159,0.0002662487,665.2499999995159,6.271365e-06
665.2649999995159,2.330869e-05,665.2649999995159,4.431347e-06,665.2649999995159,0.0002731308,665.2649999995159,6.11902e-06
665.2799999995159,2.16493e-05,665.2799999995159,4.412233e-06,665.2799999995159,0.0002731527,665.2799999995159,6.01219e-06
665.2949999995159,2.202282e-05,665.2949999995159,4.334932e-06,665.2949999995159,0.0002733022,665.2949999995159,6.075122e-06
665.3099999995159,2.276694e-05,665.3099999995159,4.223002e-06,665.3099999995159,0.0002798479,665.3099999995159,6.086705e-06
665.3249999995159,2.300943e-05,665.3249999995159,4.259536e-06,665.3249999995159,0.0002789192,665.3249999995159,5.721665e-06
665.3399999995158,2.307851e-05,665.3399999995158,4.252917e-06,665.3399999995158,0.0002772015,665.3399999995158,5.763367e-06
665.3549999995158,2.570834e-05,665.3549999995158,4.4218e-06,665.3549999995158,0.0002785407,665.3549999995158,5.736418e-06
665.3699999995158,2.612955e-05,665.3699999995158,4.553636e-06,665.3699999995158,0.0002768555,665.3699999995158,5.795054e-06
665.3849999995158,2.732491e-05,665.3849999995158,4.832776e-06,665.3849999995158,0.0002804158,665.3849999995158,5.962784e-06
665.3999999995158,2.854523e-05,665.3999999995158,5.206033e-06,665.3999999995158,0.0002703717,665.3999999995158,5.664756e-06
665.4149999995158,2.956387e-05,665.4149999995158,5.420777e-06,665.4149999995158,0.0002663063,665.4149999995158,5.701935e-06
665.4299999995158,2.929871e-05,665.4299999995158,5.809621e-06,665.4299999995158,0.0002628748,665.4299999995158,5.637336e-06
665.4449999995157,3.0162e-05,665.4449999995157,5.753582e-06,665.4449999995157,0.0002674307,665.4449999995157,6.404719e-06
665.4599999995157,2.919708e-05,665.4599999995157,5.704405e-06,665.4599999995157,0.0002498257,665.4599999995157,6.898175e-06
665.4749999995157,2.966376e-05,665.4749999995157,5.857914e-06,665.4749999995157,0.0002063824,665.4749999995157,7.349037e-06
665.4899999995157,3.107614e-05,665.4899999995157,6.137409e-06,665.4899999995157,0.000192315,665.4899999995157,7.417721e-06
665.5049999995157,3.2817e-05,665.5049999995157,6.820134e-06,665.5049999995157,0.0001561852,665.5049999995157,7.599698e-06
665.5199999995157,3.365451e-05,665.5199999995157,6.953093e-06,665.5199999995157,0.0001533179,665.5199999995157,7.590424e-06
665.5349999995157,3.413989e-05,665.5349999995157,7.15282e-06,665.5349999995157,0.000179754,665.5349999995157,7.571843e-06
665.5499999995156,3.434189e-05,665.5499999995156,7.917432e-06,665.5499999995156,0.0002103902,665.5499999995156,7.470705e-06
665.5649999995156,3.749581e-05,665.5649999995156,8.881747e-06,665.5649999995156,0.000211712,665.5649999995156,8.026986e-06
665.5799999995156,3.748416e-05,665.5799999995156,8.973265e-06,665.5799999995156,0.000216644,665.5799999995156,8.81648e-06
665.5949999995156,3.797364e-05,665.5949999995156,8.985815e-06,665.5949999995156,0.0002507173,665.5949999995156,9.604145e-06
665.6099999995156,3.719556e-05,665.6099999995156,8.987383e-06,665.6099999995156,0.0002525105,665.6099999995156,9.675749e-06
665.6249999995156,3.83101e-05,665.6249999995156,8.892842e-06,665.6249999995156,0.0002478825,665.6249999995156,9.593873e-06
665.6399999995156,3.748491e-05,665.6399999995156,8.889673e-06,665.6399999995156,0.0002462281,665.6399999995156,9.560042e-06
665.6549999995156,3.821953e-05,665.6549999995156,8.89601e-06,665.6549999995156,0.0002480194,665.6549999995156,9.93435e-06
665.6699999995155,3.907788e-05,665.6699999995155,9.045189e-06,665.6699999995155,0.0002477064,665.6699999995155,9.983855e-06
665.6849999995155,3.937666e-05,665.6849999995155,8.843601e-06,665.6849999995155,0.0002476077,665.6849999995155,9.65972e-06
665.6999999995155,3.945279e-05,665.6999999995155,8.907087e-06,665.6999999995155,0.0002400366,665.6999999995155,9.674292e-06
665.7149999995155,4.017141e-05,665.7149999995155,8.984247e-06,665.7149999995155,0.0002368029,665.7149999995155,9.176611e-06
665.7299999995155,3.933442e-05,665.7299999995155,8.985815e-06,665.7299999995155,0.0002383206,665.7299999995155,9.062304e-06
665.7449999995155,3.98581e-05,665.7449999995155,8.68934e-06,665.7449999995155,0.000236416,665.7449999995155,9.125813e-06
665.7599999995155,4.034392e-05,665.7599999995155,8.370614e-06,665.7599999995155,0.000237503,665.7599999995155,9.52757e-06
665.7749999995154,4.004709e-05,665.7749999995154,8.790878e-06,665.7749999995154,0.0002262601,665.7749999995154,9.813081e-06
665.7899999995154,4.031003e-05,665.7899999995154,8.072484e-06,665.7899999995154,0.0002037308,665.7899999995154,1.019883e-05
665.8049999995154,4.023168e-05,665.8049999995154,7.842351e-06,665.8049999995154,0.0001839355,665.8049999995154,9.96691e-06
665.8199999995154,3.742925e-05,665.8199999995154,6.900217e-06,665.8199999995154,0.0001934382,665.8199999995154,9.928676e-06
665.8349999995154,3.882183e-05,665.8349999995154,7.166593e-06,665.8349999995154,0.000188817,665.8349999995154,8.805288e-06
665.8499999995154,4.227236e-05,665.8499999995154,7.188182e-06,665.8499999995154,0.0001596584,665.8499999995154,9.858911e-06
665.8649999995154,4.247647e-05,665.8649999995154,7.392992e-06,665.8649999995154,0.0001560642,665.8649999995154,1.003031e-05
665.8799999995153,4.315227e-05,665.8799999995153,7.653262e-06,665.8799999995153,0.0001527884,665.8799999995153,1.005416e-05
665.8949999995153,4.427149e-05,665.8949999995153,7.551351e-06,665.8949999995153,0.0001553677,665.8949999995153,9.68448e-06
665.9099999995153,4.344767e-05,665.9099999995153,7.105398e-06,665.9099999995153,0.0001515165,665.9099999995153,9.746825e-06
665.9249999995153,4.445978e-05,665.9249999995153,6.955118e-06,665.9249999995153,0.000157036,665.9249999995153,9.97821e-06
665.9399999995153,4.365049e-05,665.9399999995153,6.932803e-06,665.9399999995153,0.0001573672,665.9399999995153,9.893143e-06
665.9549999995153,4.350178e-05,665.9549999995153,6.772462e-06,665.9549999995153,0.0001577435,665.9549999995153,9.917319e-06
665.9699999995153,4.381765e-05,665.9699999995153,6.623136e-06,665.9699999995153,0.0001595287,665.9699999995153,1.026079e-05
665.9849999995153,4.366404e-05,665.9849999995153,6.784931e-06,665.9849999995153,0.000159957,665.9849999995153,1.053312e-05
665.9999999995152,4.384176e-05,665.9999999995152,6.667651e-06,665.9999999995152,0.0001580289,665.9999999995152,1.029916e-05
666.0149999995152,4.25646e-05,666.0149999995152,6.688745e-06,666.0149999995152,0.0001602594,666.0149999995152,9.976799e-06
666.0299999995152,4.20927e-05,666.0299999995152,6.047233e-06,666.0299999995152,0.0001573324,666.0299999995152,9.700467e-06
666.0449999995152,4.131206e-05,666.0449999995152,6.226279e-06,666.0449999995152,0.0001569911,666.0449999995152,9.49202e-06
666.0599999995152,4.143701e-05,666.0599999995152,6.481242e-06,666.0599999995152,0.00015301,666.0599999995152,9.493503e-06
666.0749999995152,4.215523e-05,666.0749999995152,6.472542e-06,666.0749999995152,0.0001476755,666.0749999995152,1.029779e-05
666.0899999995152,4.191092e-05,666.0899999995152,6.196798e-06,666.0899999995152,0.0001447234,666.0899999995152,9.649507e-06
666.1049999995151,3.914416e-05,666.1049999995151,6.194524e-06,666.1049999995151,0.0001441077,666.1049999995151,8.91973e-06
666.1199999995151,3.859657e-05,666.1199999995151,5.785323e-06,666.1199999995151,0.0001450062,666.1199999995151,8.8754e-06
666.1349999995151,3.725005e-05,666.1349999995151,5.682137e-06,666.1349999995151,0.0001467705,666.1349999995151,8.998348e-06
666.1499999995151,3.748529e-05,666.1499999995151,5.763367e-06,666.1499999995151,0.0002751774,666.1499999995151,9.148938e-06
666.1649999995151,3.591503e-05,666.1649999995151,5.901041e-06,666.1649999995151,0.0003069768,666.1649999995151,8.524032e-06
666.1799999995151,3.562044e-05,666.1799999995151,5.939112e-06,666.1799999995151,0.0003364665,666.1799999995151,8.565246e-06
666.1949999995151,3.586754e-05,666.1949999995151,6.040241e-06,666.1949999995151,0.0003407302,666.1949999995151,9.0374e-06
666.209999999515,3.728219e-05,666.209999999515,6.162605e-06,666.209999999515,0.0003444796,666.209999999515,8.661737e-06
666.224999999515,3.780224e-05,666.224999999515,6.116717e-06,666.224999999515,0.0003475744,666.224999999515,8.497549e-06
666.239999999515,4.061813e-05,666.239999999515,6.153455e-06,666.239999999515,0.0003522209,666.239999999515,8.561957e-06
666.254999999515,4.060009e-05,666.254999999515,6.095956e-06,666.254999999515,0.0003519923,666.254999999515,8.459336e-06
666.269999999515,4.103974e-05,666.269999999515,6.158032e-06,666.269999999515,0.0003548741,666.269999999515,8.573465e-06
666.284999999515,4.227535e-05,666.284999999515,6.298262e-06,666.284999999515,0.0003555251,666.284999999515,8.558665e-06
666.299999999515,4.312386e-05,666.299999999515,6.095956e-06,666.299999999515,0.0003592772,666.299999999515,8.822869e-06
666.314999999515,4.331226e-05,666.314999999515,6.01219e-06,666.314999999515,0.0003618018,666.314999999515,8.50749e-06
666.3299999995149,4.247349e-05,666.3299999995149,5.946224e-06,666.3299999995149,0.0003605931,666.3299999995149,8.091657e-06
666.3449999995149,4.157514e-05,666.3449999995149,6.005157e-06,666.3449999995149,0.0003599374,666.3449999995149,8.37566e-06
666.3599999995149,4.118947e-05,666.3599999995149,6.042573e-06,666.3599999995149,0.0003763163,666.3599999995149,9.291028e-06
666.3749999995149,4.067427e-05,666.3749999995149,6.049562e-06,666.3749999995149,0.0004053482,666.3749999995149,9.643665e-06
666.3899999995149,3.983512e-05,666.3899999995149,6.201342e-06,666.3899999995149,0.0004158129,666.3899999995149,9.462292e-06
666.4049999995149,3.941385e-05,666.4049999995149,6.030905e-06,666.4049999995149,0.0003616044,666.4049999995149,9.54382e-06
666.4199999995149,3.900861e-05,666.4199999995149,6.224016e-06,666.4199999995149,0.0003552829,666.4199999995149,9.925839e-06
666.4349999995148,3.917761e-05,666.4349999995148,6.196798e-06,666.4349999995148,0.0003333273,666.4349999995148,9.837455e-06
666.4499999995148,3.838173e-05,666.4499999995148,6.196798e-06,666.4499999995148,0.0003307821,666.4499999995148,9.713527e-06
666.4649999995148,3.832921e-05,666.4649999995148,6.541815e-06,666.4649999995148,0.0003505861,666.4649999995148,1.015037e-05
666.4799999995148,3.705174e-05,666.4799999995148,6.826328e-06,666.4799999995148,0.0003951766,666.4799999995148,1.126967e-05
666.4949999995148,3.601295e-05,666.4949999995148,6.780777e-06,666.4949999995148,0.000403312,666.4949999995148,1.148388e-05
666.5099999995148,3.506322e-05,666.5099999995148,6.975343e-06,666.5099999995148,0.0004171078,666.5099999995148,1.185448e-05
666.5249999995148,3.431152e-05,666.5249999995148,7.069622e-06,666.5249999995148,0.000431159,666.5249999995148,1.188534e-05
666.5399999995147,3.290873e-05,666.5399999995147,6.875675e-06,666.5399999995147,0.0004788216,666.5399999995147,1.170861e-05
666.5549999995147,3.245312e-05,666.5549999995147,7.753835e-06,666.5549999995147,0.0004923778,666.5549999995147,1.178297e-05
666.5699999995147,3.097671e-05,666.5699999995147,8.148903e-06,666.5699999995147,0.0005055163,666.5699999995147,1.173745e-05
666.5849999995147,3.258092e-05,666.5849999995147,8.251971e-06,666.5849999995147,0.0005827199,666.5849999995147,1.166643e-05
666.5999999995147,3.503428e-05,666.5999999995147,8.089915e-06,666.5999999995147,0.0008371857,666.5999999995147,1.115156e-05
666.6149999995147,3.466768e-05,666.6149999995147,8.100356e-06,666.6149999995147,0.000964407,666.6149999995147,1.094758e-05
666.6299999995147,3.673445e-05,666.6299999995147,7.871038e-06,666.6299999995147,0.00112075,666.6299999995147,1.06779e-05
666.6449999995147,3.775564e-05,666.6449999995147,7.809951e-06,666.6449999995147,0.001172276,666.6449999995147,1.079076e-05
666.6599999995146,3.917114e-05,666.6599999995146,7.784659e-06,666.6599999995146,0.001173294,666.6599999995146,1.08701e-05
666.6749999995146,4.232365e-05,666.6749999995146,7.71011e-06,666.6749999995146,0.001175492,666.6749999995146,1.083766e-05
666.6899999995146,4.368952e-05,666.6899999995146,7.66246e-06,666.6899999995146,0.00121664,666.6899999995146,1.086751e-05
666.7049999995146,5.113923e-05,666.7049999995146,7.235062e-06,666.7049999995146,0.001244221,666.7049999995146,1.12158e-05
666.7199999995146,5.239989e-05,666.7199999995146,7.874616e-06,666.7199999995146,0.001248403,666.7199999995146,1.104749e-05
666.7349999995146,5.304089e-05,666.7349999995146,1.132329e-05,666.7349999995146,0.001253002,666.7349999995146,1.04053e-05
666.7499999995146,5.450631e-05,666.7499999995146,1.50082e-05,666.7499999995146,0.001253953,666.7499999995146,1.110218e-05
666.7649999995145,5.829107e-05,666.7649999995145,1.501571e-05,666.7649999995145,0.001251339,666.7649999995145,1.205246e-05
666.7799999995145,5.979534e-05,666.7799999995145,1.546856e-05,666.7799999995145,0.001249428,666.7799999995145,1.266678e-05
666.7949999995145,6.011276e-05,666.7949999995145,1.851751e-05,666.7949999995145,0.001225564,666.7949999995145,1.294399e-05
666.8099999995145,6.787276e-05,666.8099999995145,1.863807e-05,666.8099999995145,0.00122893,666.8099999995145,1.370312e-05
666.8249999995145,7.153017e-05,666.8249999995145,1.856309e-05,666.8249999995145,0.001221627,666.8249999995145,1.366091e-05
666.8399999995145,8.306096e-05,666.8399999995145,1.852435e-05,666.8399999995145,0.001178171,666.8399999995145,1.435479e-05
666.8549999995145,8.450038e-05,666.8549999995145,1.855702e-05,666.8549999995145,0.0009234517,666.8549999995145,1.855778e-05
666.8699999995144,8.794836e-05,666.8699999995144,1.856613e-05,666.8699999995144,0.0008434023,666.8699999995144,1.917747e-05
666.8849999995144,8.857559e-05,666.8849999995144,1.868412e-05,666.8849999995144,0.0006237993,666.8849999995144,1.954561e-05
666.8999999995144,8.806185e-05,666.8999999995144,1.872403e-05,666.8999999995144,0.0005431546,666.8999999995144,2.185137e-05
666.9149999995144,9.472469e-05,666.9149999995144,1.872629e-05,666.9149999995144,0.00049513,666.9149999995144,2.239891e-05
666.9299999995144,9.496411e-05,666.9299999995144,1.881035e-05,666.9299999995144,0.000484121,666.9299999995144,2.394133e-05
666.9449999995144,9.70681e-05,666.9449999995144,1.958161e-05,666.9449999995144,0.0004250168,666.9449999995144,2.431614e-05
666.9599999995144,0.000105235,666.9599999995144,1.969638e-05,666.9599999995144,0.0003677584,666.9599999995144,2.683909e-05
666.9749999995144,0.0001054211,666.9749999995144,1.937696e-05,666.9749999995144,0.0003238377,666.9749999995144,2.787106e-05
666.9899999995143,0.0001091733,666.9899999995143,1.520403e-05,666.9899999995143,0.0003177946,666.9899999995143,2.8276e-05
667.0049999995143,0.0001104301,667.0049999995143,1.493858e-05,667.0049999995143,0.0003245932,667.0049999995143,3.350853e-05
667.0199999995143,0.0001102706,667.0199999995143,1.524104e-05,667.0199999995143,0.0003251974,667.0199999995143,4.01963e-05
667.0349999995143,0.0001112691,667.0349999995143,1.792847e-05,667.0349999995143,0.0003610494,667.0349999995143,4.253347e-05
667.0499999995143,0.0001136968,667.0499999995143,1.614235e-05,667.0499999995143,0.0003939092,667.0499999995143,4.959597e-05
667.0649999995143,0.0001086551,667.0649999995143,1.621028e-05,667.0649999995143,0.0003950274,667.0649999995143,5.374348e-05
667.0799999995143,0.0001051921,667.0799999995143,1.629348e-05,667.0799999995143,0.0004421154,667.0799999995143,6.408698e-05
667.0949999995142,9.92344e-05,667.0949999995142,1.702326e-05,667.0949999995142,0.0004417126,667.0949999995142,6.467426e-05
667.1099999995142,9.8326e-05,667.1099999995142,1.730395e-05,667.1099999995142,0.000440958,667.1099999995142,6.441322e-05
667.1249999995142,9.597968e-05,667.1249999995142,1.821222e-05,667.1249999995142,0.0004334797,667.1249999995142,6.639324e-05
667.1399999995142,9.545311e-05,667.1399999995142,1.985239e-05,667.1399999995142,0.0004395861,667.1399999995142,7.051945e-05
667.1549999995142,9.445708e-05,667.1549999995142,1.99938e-05,667.1549999995142,0.0004647909,667.1549999995142,7.270953e-05
667.1699999995142,8.521999e-05,667.1699999995142,2.005149e-05,667.1699999995142,0.0004691397,667.1699999995142,7.28017e-05
667.1849999995142,8.501974e-05,667.1849999995142,1.989845e-05,667.1849999995142,0.0004768105,667.1849999995142,7.262811e-05
667.1999999995141,7.78721e-05,667.1999999995141,1.911345e-05,667.1999999995141,0.0004810387,667.1999999995141,7.257728e-05
667.2149999995141,6.734751e-05,667.2149999995141,1.900925e-05,667.2149999995141,0.0004941394,667.2149999995141,7.412212e-05
667.2299999995141,6.624497e-05,667.2299999995141,1.908616e-05,667.2299999995141,0.0004863589,667.2299999995141,7.391658e-05
667.2449999995141,5.792064e-05,667.2449999995141,1.92581e-05,667.2449999995141,0.0004771779,667.2449999995141,7.380578e-05
667.2599999995141,5.494801e-05,667.2599999995141,1.910756e-05,667.2599999995141,0.0004724902,667.2599999995141,7.124918e-05
667.2749999995141,5.461759e-05,667.2749999995141,1.846265e-05,667.2749999995141,0.0004633965,667.2749999995141,6.926298e-05
667.2899999995141,4.683806e-05,667.2899999995141,1.522717e-05,667.2899999995141,0.0004057912,667.2899999995141,6.774625e-05
667.304999999514,4.196365e-05,667.304999999514,1.420385e-05,667.304999999514,0.0003839947,667.304999999514,6.210853e-05
667.319999999514,4.035055e-05,667.319999999514,1.406232e-05,667.319999999514,0.000347248,667.319999999514,5.933204e-05
667.334999999514,3.881457e-05,667.334999999514,1.3892e-05,667.334999999514,0.0003211682,667.334999999514,4.869711e-05
667.349999999514,3.637181e-05,667.349999999514,1.300263e-05,667.349999999514,0.0003195341,667.349999999514,4.7613e-05
667.364999999514,3.405065e-05,667.364999999514,1.23754e-05,667.364999999514,0.0003099267,667.364999999514,4.586218e-05
667.379999999514,3.265606e-05,667.379999999514,8.207468e-06,667.379999999514,0.0003088442,667.379999999514,4.048891e-05
667.394999999514,3.257486e-05,667.394999999514,7.645896e-06,667.394999999514,0.0002816021,667.394999999514,3.715122e-05
667.409999999514,3.101216e-05,667.409999999514,7.370092e-06,667.409999999514,0.0002634994,667.409999999514,3.091663e-05
667.424999999514,2.934291e-05,667.424999999514,7.396802e-06,667.424999999514,0.000238266,667.424999999514,3.210048e-05
667.4399999995139,2.944451e-05,667.4399999995139,7.235062e-06,667.4399999995139,0.0002296428,667.4399999995139,3.108611e-05
667.4549999995139,2.870615e-05,667.4549999995139,7.254505e-06,667.4549999995139,0.0002148068,667.4549999995139,2.836205e-05
667.4699999995139,2.817968e-05,667.4699999995139,7.035667e-06,667.4699999995139,0.0001812217,667.4699999995139,2.413121e-05
667.4849999995139,2.487625e-05,667.4849999995139,6.930771e-06,667.4849999995139,0.0001607048,667.4849999995139,2.398894e-05
667.4999999995139,2.484736e-05,667.4999999995139,5.701935e-06,667.4999999995139,0.0001518744,667.4999999995139,2.132346e-05
667.5149999995139,2.381508e-05,667.5149999995139,5.436346e-06,667.5149999995139,0.0001576244,667.5149999995139,2.074076e-05
667.5299999995138,2.100397e-05,667.5299999995138,5.187057e-06,667.5299999995138,0.000163121,667.5299999995138,1.875936e-05
667.5449999995138,2.249055e-05,667.5449999995138,5.085583e-06,667.5449999995138,0.0001634497,667.5449999995138,1.622851e-05
667.5599999995138,2.242657e-05,667.5599999995138,5.178904e-06,667.5599999995138,0.0001551878,667.5599999995138,1.531205e-05
667.5749999995138,2.311998e-05,667.5749999995138,5.200618e-06,667.5749999995138,0.0001463641,667.5749999995138,1.349178e-05
667.5899999995138,2.359521e-05,667.5899999995138,5.137942e-06,667.5899999995138,0.0001492352,667.5899999995138,1.355324e-05
667.6049999995138,2.306447e-05,667.6049999995138,5.043863e-06,667.6049999995138,0.0001492272,667.6049999995138,1.353036e-05
667.6199999995138,2.35749e-05,667.6199999995138,5.241091e-06,667.6199999995138,0.0001498525,667.6199999995138,1.288837e-05
667.6349999995138,2.454562e-05,667.6349999995138,5.278585e-06,667.6349999995138,0.0001478356,667.6349999995138,1.277089e-05
667.6499999995137,2.455136e-05,667.6499999995137,5.273245e-06,667.6499999995137,0.0001485162,667.6499999995137,1.242198e-05
667.6649999995137,2.455882e-05,667.6649999995137,6.766219e-06,667.6649999995137,0.0001440442,667.6649999995137,1.209097e-05
667.6799999995137,2.417961e-05,667.6799999995137,6.778699e-06,667.6799999995137,0.0001441049,667.6799999995137,7.742928e-06
667.6949999995137,2.227531e-05,667.6949999995137,6.743279e-06,667.6949999995137,0.0002259215,667.6949999995137,7.768356e-06
667.7099999995137,2.185008e-05,667.7099999995137,6.726546e-06,667.7099999995137,0.0002361066,667.7099999995137,7.478244e-06
667.7249999995137,2.351088e-05,667.7249999995137,7.308674e-06,667.7249999995137,0.0002400396,667.7249999995137,7.406318e-06
667.7399999995137,2.373747e-05,667.7399999995137,7.532673e-06,667.7399999995137,0.0002448307,667.7399999995137,7.42721e-06
667.7549999995136,2.488531e-05,667.7549999995136,8.034001e-06,667.7549999995136,0.0002373493,667.7549999995136,7.05566e-06
667.7699999995136,2.458118e-05,667.7699999995136,8.446003e-06,667.7699999995136,0.0002334854,667.7699999995136,6.774542e-06
667.7849999995136,2.354501e-05,667.7849999995136,8.573465e-06,667.7849999995136,0.0002465281,667.7849999995136,6.842817e-06
667.7999999995136,2.456857e-05,667.7999999995136,8.583318e-06,667.7999999995136,0.0002512193,667.7999999995136,6.780777e-06
667.8149999995136,2.51309e-05,667.8149999995136,8.485937e-06,667.8149999995136,0.0002651161,667.8149999995136,6.906339e-06
667.8299999995136,2.53191e-05,667.8299999995136,8.474309e-06,667.8299999995136,0.0003779257,667.8299999995136,6.805661e-06
667.8449999995136,2.618394e-05,667.8449999995136,8.50749e-06,667.8449999995136,0.0003963504,667.8449999995136,6.762054e-06
667.8599999995135,2.720556e-05,667.8599999995135,9.340927e-06,667.8599999995135,0.0004273806,667.8599999995135,6.676097e-06
667.8749999995135,2.723402e-05,667.8749999995135,9.704822e-06,667.8749999995135,0.0004409593,667.8749999995135,7.495178e-06
667.8899999995135,3.009561e-05,667.8899999995135,9.780009e-06,667.8899999995135,0.0004457585,667.8899999995135,7.379642e-06
667.9049999995135,3.148505e-05,667.9049999995135,9.499437e-06,667.9049999995135,0.0004495307,667.9049999995135,7.279705e-06
667.9199999995135,3.328074e-05,667.9199999995135,8.916571e-06,667.9199999995135,0.0004576291,667.9199999995135,6.999535e-06
667.9349999995135,3.553413e-05,667.9349999995135,9.066966e-06,667.9349999995135,0.0004567134,667.9349999995135,7.146909e-06
667.9499999995135,3.878952e-05,667.9499999995135,9.253046e-06,667.9499999995135,0.0004298971,667.9499999995135,7.19993e-06
667.9649999995135,3.932869e-05,667.9649999995135,9.29709e-06,667.9649999995135,0.0004282848,667.9649999995135,7.459384e-06
667.9799999995134,4.318164e-05,667.9799999995134,9.286478e-06,667.9799999995134,0.0004294461,667.9799999995134,7.478244e-06
667.9949999995134,4.441635e-05,667.9949999995134,9.307691e-06,667.9949999995134,0.0004305977,667.9949999995134,7.517698e-06
668.0099999995134,4.671398e-05,668.0099999995134,9.374045e-06,668.0099999995134,0.000432167,668.0099999995134,7.761099e-06
668.0249999995134,4.957864e-05,668.0249999995134,1.038362e-05,668.0249999995134,0.0004318749,668.0249999995134,7.721065e-06
668.0399999995134,5.027218e-05,668.0399999995134,1.080772e-05,668.0399999995134,0.0004233342,668.0399999995134,7.48201e-06
668.0549999995134,5.103252e-05,668.0549999995134,1.073711e-05,668.0549999995134,0.0004202834,668.0549999995134,7.3567e-06
668.0699999995134,5.196879e-05,668.0699999995134,1.088694e-05,668.0699999995134,0.0004034917,668.0699999995134,7.333686e-06
668.0849999995133,5.30555e-05,668.0849999995133,1.117553e-05,668.0849999995133,0.0002999296,668.0849999995133,7.15085e-06
668.0999999995133,5.315894e-05,668.0999999995133,1.135311e-05,668.0999999995133,0.0003743152,668.0999999995133,7.394897e-06
668.1149999995133,5.237354e-05,668.1149999995133,1.060775e-05,668.1149999995133,0.0006385935,668.1149999995133,7.391086e-06
668.1299999995133,5.176401e-05,668.1299999995133,1.074628e-05,668.1299999995133,0.0007238296,668.1299999995133,6.822199e-06
668.1449999995133,5.242542e-05,668.1449999995133,1.068845e-05,668.1449999995133,0.0007644382,668.1449999995133,6.816002e-06
668.1599999995133,5.227662e-05,668.1599999995133,1.064619e-05,668.1599999995133,0.0007647493,668.1599999995133,6.682424e-06
668.1749999995133,5.145366e-05,668.1749999995133,1.074628e-05,668.1749999995133,0.0007687429,668.1749999995133,6.726546e-06
668.1899999995132,4.838835e-05,668.1899999995132,1.085843e-05,668.1899999995132,0.0007713563,668.1899999995132,6.669763e-06
668.2049999995132,4.87818e-05,668.2049999995132,1.068318e-05,668.2049999995132,0.0007751095,668.2049999995132,6.121322e-06
668.2199999995132,4.786029e-05,668.2199999995132,1.075546e-05,668.2199999995132,0.0007763904,668.2199999995132,6.070483e-06
668.2349999995132,4.56846e-05,668.2349999995132,1.063163e-05,668.2349999995132,0.0007748841,668.2349999995132,6.176305e-06
668.2499999995132,4.528634e-05,668.2499999995132,1.069109e-05,668.2499999995132,0.0007748466,668.2499999995132,5.729046e-06
668.2649999995132,4.23456e-05,668.2649999995132,9.642205e-06,668.2649999995132,0.0007740403,668.2649999995132,5.619817e-06
668.2799999995132,3.996786e-05,668.2799999995132,9.526091e-06,668.2799999995132,0.0007742758,668.2799999995132,6.369431e-06
668.2949999995132,4.073968e-05,668.2949999995132,9.246955e-06,668.2949999995132,0.000774692,668.2949999995132,6.311667e-06
668.3099999995131,3.904976e-05,668.3099999995131,9.181215e-06,668.3099999995131,0.000774131,668.3099999995131,6.711871e-06
668.3249999995131,3.808772e-05,668.3249999995131,8.774839e-06,668.3249999995131,0.0007748193,668.3249999995131,6.616753e-06
668.3399999995131,4.522813e-05,668.3399999995131,8.873813e-06,668.3399999995131,0.0007778128,668.3399999995131,6.64861e-06
668.3549999995131,4.890725e-05,668.3549999995131,8.634045e-06,668.3549999995131,0.0005056463,668.3549999995131,6.189974e-06
668.3699999995131,4.945518e-05,668.3699999995131,8.566891e-06,668.3699999995131,0.0004510036,668.3699999995131,5.948592e-06
668.3849999995131,4.900795e-05,668.3849999995131,8.570179e-06,668.3849999995131,0.0002937812,668.3849999995131,6.141998e-06
668.399999999513,4.807672e-05,668.399999999513,8.517419e-06,668.399999999513,0.0002032692,668.399999999513,6.671875e-06
668.414999999513,4.776719e-05,668.414999999513,8.647087e-06,668.414999999513,0.0002512684,668.414999999513,6.764137e-06
668.429999999513,4.816922e-05,668.429999999513,8.370614e-06,668.429999999513,0.0004186926,668.429999999513,6.650728e-06
668.444999999513,4.864212e-05,668.444999999513,8.159269e-06,668.444999999513,0.0005011356,668.444999999513,6.638008e-06
668.459999999513,4.965445e-05,668.459999999513,8.150632e-06,668.459999999513,0.0005520719,668.459999999513,6.971302e-06
668.474999999513,4.773769e-05,668.474999999513,7.779228e-06,668.474999999513,0.0005520055,668.474999999513,6.791156e-06
668.489999999513,4.853746e-05,668.489999999513,7.530803e-06,668.489999999513,0.0005558928,668.489999999513,6.80773e-06
668.504999999513,4.833941e-05,668.504999999513,7.16266e-06,668.504999999513,0.0005902345,668.504999999513,6.863372e-06
668.519999999513,4.812417e-05,668.519999999513,7.003558e-06,668.519999999513,0.0006131053,668.519999999513,7.057657e-06
668.5349999995129,4.763134e-05,668.5349999995129,6.711871e-06,668.5349999995129,0.0006243013,668.5349999995129,6.494269e-06
668.5499999995129,4.723875e-05,668.5499999995129,6.513761e-06,668.5499999995129,0.0006239301,668.5499999995129,6.593293e-06
668.5649999995129,4.726886e-05,668.5649999995129,6.776621e-06,668.5649999995129,0.0006235173,668.5649999995129,6.2781e-06
668.5799999995129,4.623721e-05,668.5799999995129,6.784931e-06,668.5799999995129,0.0006221991,668.5799999995129,6.284828e-06
668.5949999995129,3.871864e-05,668.5949999995129,6.444187e-06,668.5949999995129,0.000619708,668.5949999995129,6.316129e-06
668.6099999995129,3.535249e-05,668.6099999995129,6.411314e-06,668.6099999995129,0.0006198258,668.6099999995129,6.367219e-06
