X[s],a: EMG RMS 1-1,X[s].1,a: EMG RMS 1-2,X[s].2,a: EMG RMS 1-3,X[s].3,a: EMG RMS 1-4
669.0149999995125,5.850575e-05,669.0149999995125,8.977973e-06,669.0149999995125,0.0002588788,669.0149999995125,6.282586e-06
669.0299999995125,5.929926e-05,669.0299999995125,8.490915e-06,669.0299999995125,0.0002736356,669.0299999995125,6.768301e-06
669.0449999995125,5.852357e-05,669.0449999995125,8.520726e-06,669.0449999995125,0.0002886204,669.0449999995125,6.99148e-06
669.0599999995125,4.946543e-05,669.0599999995125,8.358825e-06,669.0599999995125,0.0002949978,669.0599999995125,7.322153e-06
669.0749999995124,4.573853e-05,669.0749999995124,8.440998e-06,669.0749999995124,0.0002958887,669.0749999995124,7.534543e-06
669.0899999995124,4.304474e-05,669.0899999995124,8.729774e-06,669.0899999995124,0.0003587035,669.0899999995124,7.581139e-06
669.1049999995124,4.24904e-05,669.1049999995124,8.532291e-06,669.1049999995124,0.0005048575,669.1049999995124,7.892485e-06
669.1199999995124,4.191596e-05,669.1199999995124,8.29284e-06,669.1199999995124,0.0005936339,669.1199999995124,7.867457e-06
669.1349999995124,4.071477e-05,669.1349999995124,8.205751e-06,669.1349999995124,0.0006556108,669.1349999995124,7.993573e-06
669.1499999995124,3.983618e-05,669.1499999995124,9.179681e-06,669.1499999995124,0.000650629,669.1499999995124,8.202317e-06
669.1649999995124,4.026563e-05,669.1649999995124,1.471723e-05,669.1649999995124,0.0006770911,669.1649999995124,8.913411e-06
669.1799999995123,4.12421e-05,669.1799999995123,1.599243e-05,669.1799999995123,0.0007661677,669.1799999995123,8.884918e-06
669.1949999995123,4.727005e-05,669.1949999995123,1.597569e-05,669.1949999995123,0.000947212,669.1949999995123,8.811686e-06
669.2099999995123,4.959171e-05,669.2099999995123,1.608728e-05,669.2099999995123,0.000968896,669.2099999995123,8.731387e-06
669.2249999995123,5.278051e-05,669.2249999995123,1.642694e-05,669.2249999995123,0.0009842099,669.2249999995123,8.703918e-06
669.2399999995123,5.822482e-05,669.2399999995123,1.673281e-05,669.2399999995123,0.0009995322,669.2399999995123,8.671489e-06
669.2549999995123,5.974443e-05,669.2549999995123,1.726564e-05,669.2549999995123,0.001007806,669.2549999995123,8.830848e-06
669.2699999995123,6.005227e-05,669.2699999995123,2.037416e-05,669.2699999995123,0.001007631,669.2699999995123,8.761987e-06
669.2849999995123,6.268871e-05,669.2849999995123,2.049411e-05,669.2849999995123,0.001017746,669.2849999995123,8.265616e-06
669.2999999995122,6.218333e-05,669.2999999995122,2.062088e-05,669.2999999995122,0.001033338,669.2999999995122,8.174792e-06
669.3149999995122,6.430992e-05,669.3149999995122,2.063931e-05,669.3149999995122,0.001035349,669.3149999995122,8.062008e-06
669.3299999995122,6.597372e-05,669.3299999995122,2.070133e-05,669.3299999995122,0.001042189,669.3299999995122,8.103833e-06
669.3449999995122,7.123376e-05,669.3449999995122,2.066864e-05,669.3449999995122,0.001002158,669.3449999995122,8.414254e-06
669.3599999995122,7.188378e-05,669.3599999995122,2.141838e-05,669.3599999995122,0.0009456106,669.3599999995122,9.423506e-06
669.3749999995122,7.120864e-05,669.3749999995122,2.172594e-05,669.3749999995122,0.0009143065,669.3749999995122,9.637821e-06
669.3899999995122,7.224618e-05,669.3899999995122,2.144533e-05,669.3899999995122,0.0009355043,669.3899999995122,9.733809e-06
669.4049999995121,7.279454e-05,669.4049999995121,2.121484e-05,669.4049999995121,0.0009395831,669.4049999995121,1.066734e-05
669.4199999995121,7.573926e-05,669.4199999995121,1.75569e-05,669.4199999995121,0.0008842913,669.4199999995121,1.039988e-05
669.4349999995121,8.04462e-05,669.4349999995121,1.762337e-05,669.4349999995121,0.0007841837,669.4349999995121,1.092052e-05
669.4499999995121,8.93223e-05,669.4499999995121,1.768641e-05,669.4499999995121,0.0005799817,669.4499999995121,1.100149e-05
669.4649999995121,8.726578e-05,669.4649999995121,1.771426e-05,669.4649999995121,0.0005739432,669.4649999995121,1.172665e-05
669.4799999995121,8.536797e-05,669.4799999995121,1.743614e-05,669.4799999995121,0.0005703382,669.4799999995121,1.207232e-05
669.4949999995121,8.422922e-05,669.4949999995121,1.71198e-05,669.4949999995121,0.0005709899,669.4949999995121,1.385544e-05
669.509999999512,8.361049e-05,669.509999999512,1.530376e-05,669.509999999512,0.0005711091,669.509999999512,1.50999e-05
669.524999999512,8.199998e-05,669.524999999512,1.263114e-05,669.524999999512,0.0005569317,669.524999999512,1.553852e-05
669.539999999512,8.166499e-05,669.539999999512,1.230119e-05,669.539999999512,0.0005585404,669.539999999512,1.70009e-05
669.554999999512,8.299258e-05,669.554999999512,1.207815e-05,669.554999999512,0.0005571536,669.554999999512,1.951893e-05
669.569999999512,8.252603e-05,669.569999999512,1.196566e-05,669.569999999512,0.0005588481,669.569999999512,2.040939e-05
669.584999999512,8.196922e-05,669.584999999512,1.180327e-05,669.584999999512,0.0005414997,669.584999999512,2.059422e-05
669.599999999512,7.773305e-05,669.599999999512,1.158038e-05,669.599999999512,0.0005214761,669.599999999512,2.227594e-05
669.614999999512,7.742436e-05,669.614999999512,1.029779e-05,669.614999999512,0.0005221407,669.614999999512,2.322757e-05
669.6299999995119,7.800621e-05,669.6299999995119,9.761266e-06,669.6299999995119,0.0004764564,669.6299999995119,2.493395e-05
669.6449999995119,7.708868e-05,669.6449999995119,9.759823e-06,669.6449999995119,0.0004090148,669.6449999995119,2.541739e-05
669.6599999995119,7.489707e-05,669.6599999995119,9.292544e-06,669.6599999995119,0.0003888187,669.6599999995119,2.682596e-05
669.6749999995119,7.354192e-05,669.6749999995119,7.62745e-06,669.6749999995119,0.0003862644,669.6749999995119,2.831383e-05
669.6899999995119,7.04789e-05,669.6899999995119,6.951067e-06,669.6899999995119,0.0003789364,669.6899999995119,2.853338e-05
669.7049999995119,5.355469e-05,669.7049999995119,6.612493e-06,669.7049999995119,0.0003625496,669.7049999995119,2.844091e-05
669.7199999995119,5.296275e-05,669.7199999995119,6.409116e-06,669.7199999995119,0.0003498899,669.7199999995119,2.97671e-05
669.7349999995118,5.229171e-05,669.7349999995118,6.389304e-06,669.7349999995118,0.0003422049,669.7349999995118,2.999058e-05
669.7499999995118,5.082008e-05,669.7499999995118,6.316129e-06,669.7499999995118,0.0003272166,669.7499999995118,3.036123e-05
669.7649999995118,4.902319e-05,669.7649999995118,5.765811e-06,669.7649999995118,0.0003131384,669.7649999995118,3.037747e-05
669.7799999995118,4.83633e-05,669.7799999995118,5.592176e-06,669.7799999995118,0.0003075864,669.7799999995118,3.011666e-05
669.7949999995118,4.567875e-05,669.7949999995118,5.451871e-06,669.7949999995118,0.0002271787,669.7949999995118,3.041223e-05
669.8099999995118,4.427086e-05,669.8099999995118,5.273245e-06,669.8099999995118,0.0001780738,669.8099999995118,2.909365e-05
669.8249999995118,4.205922e-05,669.8249999995118,5.170737e-06,669.8249999995118,0.0001692374,669.8249999995118,2.88525e-05
669.8399999995117,3.936664e-05,669.8399999995117,4.654602e-06,669.8399999995117,0.0001622758,669.8399999995117,2.896992e-05
669.8549999995117,3.928103e-05,669.8549999995117,4.405843e-06,669.8549999995117,0.0001451931,669.8549999995117,2.899617e-05
669.8699999995117,3.857174e-05,669.8699999995117,4.38019e-06,669.8699999995117,0.0001390792,669.8699999995117,2.768495e-05
669.8849999995117,3.589385e-05,669.8849999995117,4.38019e-06,669.8849999995117,0.0001294063,669.8849999995117,2.705811e-05
669.8999999995117,3.499727e-05,669.8999999995117,4.182782e-06,669.8999999995117,0.0001261205,669.8999999995117,2.646861e-05
669.9149999995117,3.374062e-05,669.9149999995117,4.087396e-06,669.9149999995117,0.0001224442,669.9149999995117,2.491982e-05
669.9299999995117,2.980589e-05,669.9299999995117,3.867824e-06,669.9299999995117,0.00011379,669.9299999995117,2.285217e-05
669.9449999995117,2.34725e-05,669.9449999995117,3.760722e-06,669.9449999995117,0.0001126561,669.9449999995117,2.272483e-05
669.9599999995116,2.33805e-05,669.9599999995116,3.856882e-06,669.9599999995116,0.0001117726,669.9599999995116,2.261983e-05
669.9749999995116,2.323485e-05,669.9749999995116,3.90768e-06,669.9749999995116,0.0001060916,669.9749999995116,2.044387e-05
669.9899999995116,2.25974e-05,669.9899999995116,4.073587e-06,669.9899999995116,0.0001030093,669.9899999995116,1.989704e-05
670.0049999995116,2.051472e-05,670.0049999995116,4.162526e-06,670.0049999995116,0.0001023582,670.0049999995116,1.793318e-05
670.0199999995116,1.876161e-05,670.0199999995116,4.289197e-06,670.0199999995116,0.0001386452,670.0199999995116,1.706623e-05
670.0349999995116,1.764654e-05,670.0349999995116,4.39624e-06,670.0349999995116,0.0001841533,670.0349999995116,1.587041e-05
670.0499999995116,1.686446e-05,670.0499999995116,4.386617e-06,670.0499999995116,0.0002172048,670.0499999995116,1.501008e-05
670.0649999995115,1.729499e-05,670.0649999995115,4.747494e-06,670.0649999995115,0.0002369587,670.0649999995115,1.395472e-05
670.0799999995115,1.774525e-05,670.0799999995115,4.856038e-06,670.0799999995115,0.0002381071,670.0799999995115,1.398095e-05
670.0949999995115,1.774207e-05,670.0949999995115,4.882076e-06,670.0949999995115,0.0002380229,670.0949999995115,1.203726e-05
670.1099999995115,1.869768e-05,670.1099999995115,4.899358e-06,670.1099999995115,0.0002391005,670.1099999995115,8.937085e-06
670.1249999995115,1.849696e-05,670.1249999995115,5.035477e-06,670.1249999995115,0.0002419467,670.1249999995115,7.502692e-06
670.1399999995115,1.828479e-05,670.1399999995115,5.018664e-06,670.1399999995115,0.0002423463,670.1399999995115,7.717415e-06
670.1549999995115,1.941545e-05,670.1549999995115,5.049445e-06,670.1549999995115,0.000250961,670.1549999995115,7.436688e-06
670.1699999995114,1.971568e-05,670.1699999995114,5.082812e-06,670.1699999995114,0.0002585411,670.1699999995114,7.12124e-06
670.1849999995114,2.00964e-05,670.1849999995114,5.336972e-06,670.1849999995114,0.0003815747,670.1849999995114,6.942956e-06
670.1999999995114,2.037969e-05,670.1999999995114,5.363302e-06,670.1999999995114,0.0003902791,670.1999999995114,6.867475e-06
670.2149999995114,2.368102e-05,670.2149999995114,5.405162e-06,670.2149999995114,0.0004214748,670.2149999995114,6.610363e-06
670.2299999995114,2.392544e-05,670.2299999995114,5.265225e-06,670.2299999995114,0.0004351299,670.2299999995114,6.652846e-06
670.2449999995114,2.39954e-05,670.2449999995114,5.241091e-06,670.2449999995114,0.0004365488,670.2449999995114,6.892046e-06
670.2599999995114,2.548988e-05,670.2599999995114,5.289249e-06,670.2599999995114,0.0004397346,670.2599999995114,6.995509e-06
670.2749999995114,2.793568e-05,670.2749999995114,5.233022e-06,670.2749999995114,0.0004161299,670.2749999995114,6.926705e-06
670.2899999995113,2.81066e-05,670.2899999995113,5.197909e-06,670.2899999995113,0.0004058735,670.2899999995113,6.784931e-06
670.3049999995113,2.786095e-05,670.3049999995113,5.091119e-06,670.3049999995113,0.000388556,670.3049999995113,6.644371e-06
670.3199999995113,2.919274e-05,670.3199999995113,4.821102e-06,670.3199999995113,0.0003838899,670.3199999995113,6.654963e-06
670.3349999995113,3.09435e-05,670.3349999995113,5.297233e-06,670.3349999995113,0.0003837291,670.3349999995113,6.437625e-06
670.3499999995113,3.248566e-05,670.3499999995113,5.331691e-06,670.3499999995113,0.0003872383,670.3499999995113,6.713969e-06
670.3649999995113,3.377067e-05,670.3649999995113,5.898653e-06,670.3649999995113,0.0003849353,670.3649999995113,6.597564e-06
670.3799999995113,3.414113e-05,670.3799999995113,6.64861e-06,670.3799999995113,0.0003840914,670.3799999995113,6.450741e-06
670.3949999995112,3.49437e-05,670.3949999995112,6.784931e-06,670.3949999995112,0.0003865098,670.3949999995112,6.246608e-06
670.4099999995112,3.500854e-05,670.4099999995112,7.252564e-06,670.4099999995112,0.000376281,670.4099999995112,6.194524e-06
670.4249999995112,3.57243e-05,670.4249999995112,7.207752e-06,670.4249999995112,0.0003626617,670.4249999995112,6.183143e-06
670.4399999995112,3.751384e-05,670.4399999995112,7.485775e-06,670.4399999995112,0.0002255435,670.4399999995112,6.210422e-06
670.4549999995112,3.842611e-05,670.4549999995112,7.588568e-06,670.4549999995112,0.0002067621,670.4549999995112,6.079758e-06
670.4699999995112,4.005342e-05,670.4699999995112,7.597844e-06,670.4699999995112,0.0001580879,670.4699999995112,6.160319e-06
670.4849999995112,4.039905e-05,670.4849999995112,7.545752e-06,670.4849999995112,0.000125311,670.4849999995112,5.943854e-06
670.4999999995111,4.095865e-05,670.4999999995111,7.497057e-06,670.4999999995111,0.0001247066,670.4999999995111,5.689569e-06
670.5149999995111,4.185273e-05,670.5149999995111,7.545752e-06,670.5149999995111,0.0001106782,670.5149999995111,5.609782e-06
670.5299999995111,4.101021e-05,670.5299999995111,7.438582e-06,670.5299999995111,0.0001104179,670.5299999995111,5.602244e-06
670.5449999995111,4.194485e-05,670.5449999995111,7.532673e-06,670.5449999995111,0.0001142484,670.5449999995111,5.551726e-06
670.5599999995111,4.129023e-05,670.5599999995111,7.50457e-06,670.5599999995111,0.0001133608,670.5599999995111,5.454455e-06
670.5749999995111,4.019315e-05,670.5749999995111,7.446153e-06,670.5749999995111,0.0003679389,670.5749999995111,5.425972e-06
670.5899999995111,3.97962e-05,670.5899999995111,7.140994e-06,670.5899999995111,0.0004325488,670.5899999995111,5.208738e-06
670.604999999511,3.861481e-05,670.604999999511,7.033664e-06,670.604999999511,0.000484666,670.604999999511,5.257193e-06
670.619999999511,3.860204e-05,670.619999999511,6.086705e-06,670.619999999511,0.0005070326,670.619999999511,5.503306e-06
670.634999999511,3.799663e-05,670.634999999511,6.061194e-06,670.634999999511,0.0005302773,670.634999999511,5.379038e-06
670.649999999511,3.856955e-05,670.649999999511,6.515924e-06,670.649999999511,0.0005468685,670.649999999511,5.704405e-06
670.664999999511,3.775638e-05,670.664999999511,6.044903e-06,670.664999999511,0.0005553581,670.664999999511,5.898653e-06
670.679999999511,3.769141e-05,670.679999999511,6.125922e-06,670.679999999511,0.0005684572,670.679999999511,5.853103e-06
670.694999999511,3.626165e-05,670.694999999511,6.455107e-06,670.694999999511,0.0005709387,670.694999999511,6.03324e-06
670.709999999511,3.452843e-05,670.709999999511,6.533196e-06,670.709999999511,0.0005718559,670.709999999511,6.275856e-06
670.7249999995109,3.225327e-05,670.7249999995109,6.565459e-06,670.7249999995109,0.0005744474,670.7249999995109,6.593293e-06
670.7399999995109,3.285946e-05,670.7399999995109,6.563313e-06,670.7399999995109,0.0005747727,670.7399999995109,6.753716e-06
670.7549999995109,3.154494e-05,670.7549999995109,6.616753e-06,670.7549999995109,0.0005743416,670.7549999995109,6.671875e-06
670.7699999995109,2.93856e-05,670.7699999995109,6.559019e-06,670.7699999995109,0.000574433,670.7699999995109,6.621009e-06
670.7849999995109,2.906895e-05,670.7849999995109,6.618881e-06,670.7849999995109,0.0005742224,670.7849999995109,6.66131e-06
670.7999999995109,2.874979e-05,670.7999999995109,6.842817e-06,670.7999999995109,0.0005735906,670.7999999995109,6.737009e-06
670.8149999995109,2.869388e-05,670.8149999995109,6.896133e-06,670.8149999995109,0.0004985373,670.8149999995109,6.936866e-06
670.8299999995108,2.856398e-05,670.8299999995108,6.898175e-06,670.8299999995108,0.0004425769,670.8299999995108,6.803591e-06
670.8449999995108,2.74658e-05,670.8449999995108,6.928738e-06,670.8449999995108,0.0003669527,670.8449999995108,6.999535e-06
670.8599999995108,2.676235e-05,670.8599999995108,6.848989e-06,670.8599999995108,0.000278107,670.8599999995108,6.722357e-06
670.8749999995108,2.631221e-05,670.8749999995108,6.684531e-06,670.8749999995108,0.0002646321,670.8749999995108,6.720261e-06
670.8899999995108,2.593963e-05,670.8899999995108,6.180865e-06,670.8899999995108,0.0002235966,670.8899999995108,6.563313e-06
670.9049999995108,2.763147e-05,670.9049999995108,6.072803e-06,670.9049999995108,0.0001916945,670.9049999995108,6.293787e-06
670.9199999995108,2.780882e-05,670.9199999995108,6.068162e-06,670.9199999995108,0.0001570868,670.9199999995108,6.298262e-06
670.9349999995108,2.778146e-05,670.9349999995108,4.899358e-06,670.9349999995108,0.000112309,670.9349999995108,6.061194e-06
670.9499999995107,2.715114e-05,670.9499999995107,5.206033e-06,670.9499999995107,0.000102233,670.9499999995107,6.11902e-06
670.9649999995107,2.723247e-05,670.9649999995107,5.137942e-06,670.9649999995107,9.800714e-05,670.9649999995107,5.719203e-06
670.9799999995107,2.752625e-05,670.9799999995107,5.132455e-06,670.9799999995107,8.477633e-05,670.9799999995107,5.60727e-06
670.9949999995107,2.73584e-05,670.9949999995107,5.249148e-06,670.9949999995107,9.022205e-05,670.9949999995107,5.60727e-06
671.0099999995107,2.831881e-05,671.0099999995107,5.230329e-06,671.0099999995107,9.145366e-05,671.0099999995107,5.677176e-06
671.0249999995107,3.10267e-05,671.0249999995107,5.407768e-06,671.0249999995107,9.486007e-05,671.0249999995107,5.619817e-06
671.0399999995107,3.105755e-05,671.0399999995107,5.157098e-06,671.0399999995107,9.602077e-05,671.0399999995107,5.75603e-06
671.0549999995106,3.135683e-05,671.0549999995106,4.925167e-06,671.0549999995106,9.8008e-05,671.0549999995106,5.624828e-06
671.0699999995106,3.56149e-05,671.0699999995106,4.953686e-06,671.0699999995106,0.0001108038,671.0699999995106,5.500745e-06
671.0849999995106,3.612114e-05,671.0849999995106,5.018664e-06,671.0849999995106,0.0001071025,671.0849999995106,5.536481e-06
671.0999999995106,3.664999e-05,671.0999999995106,5.118714e-06,671.0999999995106,0.0001105804,671.0999999995106,5.273245e-06
671.1149999995106,3.676856e-05,671.1149999995106,5.063375e-06,671.1149999995106,0.0001099275,671.1149999995106,5.692045e-06
671.1299999995106,3.682599e-05,671.1299999995106,5.096651e-06,671.1299999995106,0.0001094659,671.1299999995106,5.787757e-06
671.1449999995106,3.662076e-05,671.1449999995106,5.074491e-06,671.1449999995106,0.0001138843,671.1449999995106,5.624828e-06
671.1599999995105,3.534253e-05,671.1599999995105,5.214144e-06,671.1599999995105,0.0001269018,671.1599999995105,5.639834e-06
671.1749999995105,3.525833e-05,671.1749999995105,5.08004e-06,671.1749999995105,0.0001526876,671.1749999995105,5.775575e-06
671.1899999995105,3.597147e-05,671.1899999995105,5.107694e-06,671.1899999995105,0.0001579964,671.1899999995105,5.869926e-06
671.2049999995105,3.576449e-05,671.2049999995105,4.794733e-06,671.2049999995105,0.0001622157,671.2049999995105,5.924864e-06
671.2199999995105,3.570694e-05,671.2199999995105,4.785911e-06,671.2199999995105,0.0001654822,671.2199999995105,6.189974e-06
671.2349999995105,3.483064e-05,671.2349999995105,4.513241e-06,671.2349999995105,0.0001609589,671.2349999995105,5.682137e-06
671.2499999995105,3.438698e-05,671.2499999995105,4.497608e-06,671.2499999995105,0.0001633586,671.2499999995105,5.652309e-06
671.2649999995105,3.361514e-05,671.2649999995105,4.272744e-06,671.2649999995105,0.0001767292,671.2649999995105,5.56946e-06
671.2799999995104,3.107025e-05,671.2799999995104,4.229668e-06,671.2799999995104,0.000215637,671.2799999995104,5.539025e-06
671.2949999995104,3.020727e-05,671.2949999995104,4.252917e-06,671.2949999995104,0.000292556,671.2949999995104,5.2679e-06
671.3099999995104,3.192094e-05,671.3099999995104,4.29248e-06,671.3099999995104,0.0004494345,671.3099999995104,5.249148e-06
671.3249999995104,3.012882e-05,671.3249999995104,4.312125e-06,671.3249999995104,0.0004631306,671.3249999995104,5.418178e-06
671.3399999995104,3.012461e-05,671.3399999995104,4.29576e-06,671.3399999995104,0.0004892093,671.3399999995104,5.405162e-06
671.3549999995104,2.997836e-05,671.3549999995104,4.272744e-06,671.3549999995104,0.0005243374,671.3549999995104,5.08004e-06
671.3699999995104,3.047053e-05,671.3699999995104,4.488202e-06,671.3699999995104,0.0005407911,671.3699999995104,4.856038e-06
671.3849999995103,3.104213e-05,671.3849999995103,4.699779e-06,671.3849999995103,0.0005397801,671.3849999995103,4.928026e-06
671.3999999995103,3.175679e-05,671.3999999995103,5.057808e-06,671.3999999995103,0.0005449915,671.3999999995103,4.987693e-06
671.4149999995103,3.39873e-05,671.4149999995103,5.716739e-06,671.4149999995103,0.0005459794,671.4149999995103,5.192486e-06
671.4299999995103,3.551073e-05,671.4299999995103,6.728641e-06,671.4299999995103,0.0005447441,671.4299999995103,5.043863e-06
671.4449999995103,3.642599e-05,671.4449999995103,7.00959e-06,671.4449999995103,0.0005454491,671.4449999995103,4.738583e-06
671.4599999995103,3.798217e-05,671.4599999995103,7.497057e-06,671.4599999995103,0.0005454309,671.4599999995103,4.459865e-06
671.4749999995103,4.014826e-05,671.4749999995103,7.62745e-06,671.4749999995103,0.0005450693,671.4749999995103,4.459865e-06
671.4899999995102,4.192302e-05,671.4899999995102,8.009417e-06,671.4899999995102,0.0005463846,671.4899999995102,4.794733e-06
671.5049999995102,4.282031e-05,671.5049999995102,8.240013e-06,671.5049999995102,0.0005459465,671.5049999995102,5.168013e-06
671.5199999995102,4.360754e-05,671.5199999995102,8.494233e-06,671.5199999995102,0.0005432748,671.5199999995102,5.736418e-06
671.5349999995102,4.389025e-05,671.5349999995102,9.20114e-06,671.5349999995102,0.001064517,671.5349999995102,5.872325e-06
671.5499999995102,4.491653e-05,671.5499999995102,9.652426e-06,671.5499999995102,0.001242322,671.5499999995102,6.244353e-06
671.5649999995102,4.369016e-05,671.5649999995102,1.060775e-05,671.5649999995102,0.001397052,671.5649999995102,6.376062e-06
671.5799999995102,4.686392e-05,671.5799999995102,1.094372e-05,671.5799999995102,0.001408261,671.5799999995102,6.48993e-06
671.5949999995102,4.715488e-05,671.5949999995102,1.108314e-05,671.5949999995102,0.001408343,671.5949999995102,7.067629e-06
671.6099999995101,4.86427e-05,671.6099999995101,1.116418e-05,671.6099999995101,0.001412109,671.6099999995101,7.392992e-06
671.6249999995101,4.917038e-05,671.6249999995101,1.12158e-05,671.6249999995101,0.001413051,671.6249999995101,7.947621e-06
671.6399999995101,5.034666e-05,671.6399999995101,1.113386e-05,671.6399999995101,0.001419903,671.6399999995101,8.117728e-06
671.6549999995101,4.981957e-05,671.6549999995101,1.088435e-05,671.6549999995101,0.001417584,671.6549999995101,8.540542e-06
671.6699999995101,4.801456e-05,671.6699999995101,1.039446e-05,671.6699999995101,0.001418634,671.6699999995101,8.632413e-06
671.6849999995101,4.683475e-05,671.6849999995101,9.989498e-06,671.6849999995101,0.001418895,671.6849999995101,8.679607e-06
671.69999999951,4.467944e-05,671.69999999951,9.903105e-06,671.69999999951,0.001418494,671.69999999951,8.873813e-06
671.71499999951,4.42196e-05,671.71499999951,9.671379e-06,671.71499999951,0.001418717,671.71499999951,8.990517e-06
671.72999999951,4.217093e-05,671.72999999951,9.557095e-06,671.72999999951,0.001419308,671.72999999951,9.023361e-06
671.74499999951,4.094765e-05,671.74499999951,9.483111e-06,671.74499999951,0.001421393,671.74499999951,1.021401e-05
671.75999999951,3.989131e-05,671.75999999951,9.292544e-06,671.75999999951,0.001420854,671.75999999951,1.0306e-05
671.77499999951,3.883307e-05,671.77499999951,8.963841e-06,671.77499999951,0.001419737,671.77499999951,1.035101e-05
671.78999999951,3.859839e-05,671.78999999951,8.229749e-06,671.78999999951,0.001007196,671.78999999951,1.033466e-05
671.80499999951,3.842282e-05,671.80499999951,1.192793e-05,671.80499999951,0.0006338248,671.80499999951,1.017809e-05
671.81999999951,3.963197e-05,671.81999999951,1.199388e-05,671.81999999951,0.0003385854,671.81999999951,1.010447e-05
671.8349999995099,3.616985e-05,671.8349999995099,1.18295e-05,671.8349999995099,0.0003225692,671.8349999995099,1.083636e-05
671.8499999995099,3.94067e-05,671.8499999995099,1.226793e-05,671.8499999995099,0.0003176244,671.8499999995099,1.079729e-05
671.8649999995099,3.956795e-05,671.8649999995099,1.236401e-05,671.8649999995099,0.0002898864,671.8649999995099,1.07476e-05
671.8799999995099,3.965436e-05,671.8799999995099,1.360511e-05,671.8799999995099,0.000289571,671.8799999995099,1.05958e-05
671.8949999995099,4.006431e-05,671.8949999995099,1.467505e-05,671.8949999995099,0.000311552,671.8949999995099,1.041477e-05
671.9099999995099,4.350599e-05,671.9099999995099,1.525767e-05,671.9099999995099,0.00031553,671.9099999995099,1.009191e-05
671.9249999995099,4.612801e-05,671.9249999995099,1.634269e-05,671.9249999995099,0.0003373665,671.9249999995099,9.973975e-06
671.9399999995098,4.637654e-05,671.9399999995098,1.657888e-05,671.9399999995098,0.0003516804,671.9399999995098,1.032648e-05
671.9549999995098,4.709869e-05,671.9549999995098,1.670838e-05,671.9549999995098,0.0003527305,671.9549999995098,1.11288e-05
671.9699999995098,4.714353e-05,671.9699999995098,1.685611e-05,671.9699999995098,0.0003500516,671.9699999995098,1.118057e-05
671.9849999995098,4.799226e-05,671.9849999995098,1.697685e-05,671.9849999995098,0.0003482482,671.9849999995098,1.104239e-05
671.9999999995098,4.969755e-05,671.9999999995098,1.722807e-05,671.9999999995098,0.0003452817,671.9999999995098,9.962669e-06
672.0149999995098,5.574263e-05,672.0149999995098,1.724442e-05,672.0149999995098,0.0003662934,672.0149999995098,1.063428e-05
672.0299999995098,6.20032e-05,672.0299999995098,1.73129e-05,672.0299999995098,0.0003701818,672.0299999995098,1.191848e-05
672.0449999995097,6.921273e-05,672.0449999995097,1.770949e-05,672.0449999995097,0.0003780643,672.0449999995097,1.347297e-05
672.0599999995097,7.971567e-05,672.0599999995097,1.460867e-05,672.0599999995097,0.000389396,672.0599999995097,1.51027e-05
672.0749999995097,8.083766e-05,672.0749999995097,1.473158e-05,672.0749999995097,0.0003843654,672.0749999995097,1.682013e-05
672.0899999995097,8.113909e-05,672.0899999995097,1.472776e-05,672.0899999995097,0.0003736676,672.0899999995097,1.675721e-05
672.1049999995097,8.060662e-05,672.1049999995097,1.453811e-05,672.1049999995097,0.0003753114,672.1049999995097,1.705385e-05
672.1199999995097,7.988972e-05,672.1199999995097,1.448764e-05,672.1199999995097,0.000380193,672.1199999995097,1.779044e-05
672.1349999995097,7.975877e-05,672.1349999995097,1.324627e-05,672.1349999995097,0.0003450622,672.1349999995097,1.861614e-05
672.1499999995096,7.913909e-05,672.1499999995096,1.183664e-05,672.1499999995096,0.0003357731,672.1499999995096,1.994442e-05
672.1649999995096,7.739543e-05,672.1649999995096,1.135187e-05,672.1649999995096,0.0003225991,672.1649999995096,2.085928e-05
672.1799999995096,7.677062e-05,672.1799999995096,9.099535e-06,672.1799999995096,0.0002903285,672.1799999995096,2.234791e-05
672.1949999995096,7.718948e-05,672.1949999995096,9.066966e-06,672.1949999995096,0.0002801763,672.1949999995096,2.839977e-05
672.2099999995096,7.687898e-05,672.2099999995096,8.757163e-06,672.2099999995096,0.0002853528,672.2099999995096,3.322567e-05
672.2249999995096,7.708155e-05,672.2249999995096,8.620983e-06,672.2249999995096,0.0002887246,672.2249999995096,3.375606e-05
672.2399999995096,7.701976e-05,672.2399999995096,8.34702e-06,672.2399999995096,0.0002897371,672.2399999995096,3.583729e-05
672.2549999995096,7.261008e-05,672.2549999995096,7.704628e-06,672.2549999995096,0.0002863936,672.2549999995096,3.785177e-05
672.2699999995095,7.155478e-05,672.2699999995095,7.737468e-06,672.2699999995095,0.0002633017,672.2699999995095,3.911572e-05
672.2849999995095,6.550401e-05,672.2849999995095,6.94904e-06,672.2849999995095,0.0002602956,672.2849999995095,4.158531e-05
672.2999999995095,5.905789e-05,672.2999999995095,6.671875e-06,672.2999999995095,0.0002602382,672.2999999995095,4.225736e-05
672.3149999995095,4.390597e-05,672.3149999995095,6.282586e-06,672.3149999995095,0.0002414838,672.3149999995095,4.215556e-05
672.3299999995095,4.205084e-05,672.3299999995095,6.146583e-06,672.3299999995095,0.0002553941,672.3299999995095,4.473237e-05
672.3449999995095,4.170302e-05,672.3449999995095,5.56693e-06,672.3449999995095,0.0002742583,672.3449999995095,4.502429e-05
672.3599999995095,4.013458e-05,672.3599999995095,5.469929e-06,672.3599999995095,0.0002701379,672.3599999995095,4.823527e-05
672.3749999995094,4.03701e-05,672.3749999995094,5.329048e-06,672.3749999995094,0.0002660684,672.3749999995094,4.866152e-05
672.3899999995094,4.030235e-05,672.3899999995094,5.310512e-06,672.3899999995094,0.0002694318,672.3899999995094,4.89792e-05
672.4049999995094,3.945207e-05,672.4049999995094,5.2679e-06,672.4049999995094,0.0002714308,672.4049999995094,4.905162e-05
672.4199999995094,3.839641e-05,672.4199999995094,5.289249e-06,672.4199999995094,0.0002713751,672.4199999995094,5.089874e-05
672.4349999995094,3.774071e-05,672.4349999995094,5.214144e-06,672.4349999995094,0.0002738016,672.4349999995094,5.099883e-05
672.4499999995094,3.778435e-05,672.4499999995094,5.010237e-06,672.4499999995094,0.0002667418,672.4499999995094,4.581577e-05
672.4649999995094,3.887477e-05,672.4649999995094,4.984868e-06,672.4649999995094,0.0002620728,672.4649999995094,4.642723e-05
672.4799999995093,3.776944e-05,672.4799999995093,5.066156e-06,672.4799999995093,0.0002546916,672.4799999995093,4.635253e-05
672.4949999995093,3.750407e-05,672.4949999995093,5.137942e-06,672.4949999995093,0.0002464341,672.4949999995093,4.581946e-05
672.5099999995093,3.712163e-05,672.5099999995093,5.467352e-06,672.5099999995093,0.0002435822,672.5099999995093,4.425781e-05
672.5249999995093,3.676588e-05,672.5249999995093,5.243778e-06,672.5249999995093,0.0002349845,672.5249999995093,4.30539e-05
672.5399999995093,3.169863e-05,672.5399999995093,5.010237e-06,672.5399999995093,0.0002267461,672.5399999995093,4.127487e-05
672.5549999995093,3.00497e-05,672.5549999995093,5.057808e-06,672.5549999995093,0.0002154999,672.5549999995093,4.033693e-05
672.5699999995093,2.718432e-05,672.5699999995093,5.013047e-06,672.5699999995093,0.0002004061,672.5699999995093,3.980186e-05
672.5849999995093,2.631007e-05,672.5849999995093,5.093886e-06,672.5849999995093,0.0001945085,672.5849999995093,3.669071e-05
672.5999999995092,2.554785e-05,672.5999999995092,4.896482e-06,672.5999999995092,0.0001470024,672.5999999995092,3.525913e-05
672.6149999995092,2.57078e-05,672.6149999995092,4.856038e-06,672.6149999995092,0.000145354,672.6149999995092,3.2694e-05
672.6299999995092,2.442596e-05,672.6299999995092,4.541245e-06,672.6299999995092,0.0001351404,672.6299999995092,3.067603e-05
672.6449999995092,2.366079e-05,672.6449999995092,4.584466e-06,672.6449999995092,0.0001302411,672.6449999995092,3.050565e-05
672.6599999995092,2.223733e-05,672.6599999995092,4.666692e-06,672.6599999995092,0.0001176982,672.6599999995092,2.658384e-05
672.6749999995092,2.145386e-05,672.6749999995092,4.636408e-06,672.6749999995092,0.0001221331,672.6749999995092,2.487852e-05
672.6899999995092,2.196389e-05,672.6899999995092,4.596741e-06,672.6899999995092,0.0001179609,672.6899999995092,2.222783e-05
672.7049999995091,1.858054e-05,672.7049999995091,4.672725e-06,672.7049999995091,0.0001177634,672.7049999995091,2.154755e-05
672.7199999995091,1.732998e-05,672.7199999995091,4.660651e-06,672.7199999995091,0.0001188997,672.7199999995091,2.014121e-05
672.7349999995091,1.680422e-05,672.7349999995091,4.531929e-06,672.7349999995091,0.0001136582,672.7349999995091,1.738921e-05
672.7499999995091,1.711239e-05,672.7499999995091,4.434525e-06,672.7499999995091,0.0001239516,672.7499999995091,1.716335e-05
672.7649999995091,1.667378e-05,672.7649999995091,4.269446e-06,672.7649999995091,0.0001244746,672.7649999995091,1.546947e-05
672.7799999995091,1.684357e-05,672.7799999995091,4.249604e-06,672.7799999995091,0.0001254859,672.7799999995091,1.339222e-05
672.7949999995091,1.702739e-05,672.7949999995091,4.135364e-06,672.7949999995091,0.0001351318,672.7949999995091,1.318765e-05
672.809999999509,1.776111e-05,672.809999999509,4.29576e-06,672.809999999509,0.0004435923,672.809999999509,1.299938e-05
672.824999999509,1.853879e-05,672.824999999509,4.229668e-06,672.824999999509,0.0004701047,672.824999999509,1.127592e-05
672.839999999509,1.903443e-05,672.839999999509,4.723696e-06,672.839999999509,0.0005195053,672.839999999509,1.02498e-05
672.854999999509,1.963764e-05,672.854999999509,4.633369e-06,672.854999999509,0.0005251715,672.854999999509,7.666136e-06
672.869999999509,1.957082e-05,672.869999999509,4.633369e-06,672.869999999509,0.0005272463,672.869999999509,7.658783e-06
672.884999999509,1.991261e-05,672.884999999509,4.572159e-06,672.884999999509,0.0005310925,672.884999999509,7.564397e-06
672.899999999509,2.035687e-05,672.899999999509,4.556728e-06,672.899999999509,0.0005394328,672.899999999509,7.887128e-06
672.914999999509,2.013491e-05,672.914999999509,4.531929e-06,672.914999999509,0.0005414302,672.914999999509,7.856707e-06
672.9299999995089,2.053874e-05,672.9299999995089,4.615091e-06,672.9299999995089,0.0005416646,672.9299999995089,6.898175e-06
672.9449999995089,2.000155e-05,672.9449999995089,4.675739e-06,672.9449999995089,0.0005405439,672.9449999995089,6.709772e-06
672.9599999995089,1.982185e-05,672.9599999995089,4.624239e-06,672.9599999995089,0.000540269,672.9599999995089,6.676097e-06
672.9749999995089,1.876612e-05,672.9749999995089,4.485062e-06,672.9749999995089,0.0005398991,672.9749999995089,6.692956e-06
672.9899999995089,1.94198e-05,672.9899999995089,4.516361e-06,672.9899999995089,0.0005401875,672.9899999995089,6.623136e-06
673.0049999995089,1.926102e-05,673.0049999995089,4.485062e-06,673.0049999995089,0.0005367328,673.0049999995089,6.178585e-06
673.0199999995089,1.897365e-05,673.0199999995089,4.771172e-06,673.0199999995089,0.0005365773,673.0199999995089,6.230803e-06
673.0349999995088,1.921929e-05,673.0349999995088,4.815255e-06,673.0349999995088,0.0005360001,673.0349999995088,6.180865e-06
673.0499999995088,1.840917e-05,673.0499999995088,4.699779e-06,673.0499999995088,0.0005277268,673.0499999995088,6.026232e-06
673.0649999995088,1.946545e-05,673.0649999995088,4.950841e-06,673.0649999995088,0.0002986299,673.0649999995088,5.912964e-06
673.0799999995088,2.006132e-05,673.0799999995088,4.69378e-06,673.0799999995088,0.0002498091,673.0799999995088,5.833818e-06
673.0949999995088,2.14164e-05,673.0949999995088,4.48192e-06,673.0949999995088,0.0001667435,673.0949999995088,5.696992e-06
673.1099999995088,2.120554e-05,673.1099999995088,4.562907e-06,673.1099999995088,0.0001617467,673.1099999995088,5.741327e-06
673.1249999995088,2.280836e-05,673.1249999995088,4.648545e-06,673.1249999995088,0.0001428922,673.1249999995088,5.753582e-06
673.1399999995087,2.49136e-05,673.1399999995087,4.69378e-06,673.1399999995087,0.0001299355,673.1399999995087,5.307859e-06
673.1549999995087,2.482978e-05,673.1549999995087,4.800605e-06,673.1549999995087,0.0001134331,673.1549999995087,5.208738e-06
673.1699999995087,2.553957e-05,673.1699999995087,4.844421e-06,673.1699999995087,0.0001146238,673.1699999995087,5.302549e-06
673.1849999995087,2.585423e-05,673.1849999995087,4.824024e-06,673.1849999995087,0.0001169291,673.1849999995087,5.074491e-06
673.1999999995087,2.758657e-05,673.1999999995087,4.93374e-06,673.1999999995087,0.0001185752,673.1999999995087,5.200618e-06
673.2149999995087,2.877134e-05,673.2149999995087,4.990517e-06,673.2149999995087,0.0001189369,673.2149999995087,5.315815e-06
673.2299999995087,2.860192e-05,673.2299999995087,5.159829e-06,673.2299999995087,0.0001176153,673.2299999995087,5.024275e-06
673.2449999995087,2.906362e-05,673.2449999995087,5.241091e-06,673.2449999995087,0.0001155825,673.2449999995087,4.916579e-06
673.2599999995086,3.396449e-05,673.2599999995086,5.941484e-06,673.2599999995086,0.000142214,673.2599999995086,4.782967e-06
673.2749999995086,3.688103e-05,673.2749999995086,6.448557e-06,673.2749999995086,0.0004111468,673.2749999995086,4.73561e-06
673.2899999995086,3.775414e-05,673.2899999995086,6.524566e-06,673.2899999995086,0.0004598642,673.2899999995086,4.738583e-06
673.3049999995086,3.988883e-05,673.3049999995086,6.446372e-06,673.3049999995086,0.0004795595,673.3049999995086,4.890725e-06
673.3199999995086,4.041543e-05,673.3199999995086,6.233063e-06,673.3199999995086,0.0005206222,673.3199999995086,4.893604e-06
673.3349999995086,3.895766e-05,673.3349999995086,6.255622e-06,673.3349999995086,0.0005297759,673.3349999995086,4.794733e-06
673.3499999995086,3.893994e-05,673.3499999995086,6.208153e-06,673.3499999995086,0.0005295354,673.3499999995086,4.856038e-06
673.3649999995085,3.942314e-05,673.3649999995085,6.296025e-06,673.3649999995085,0.000533141,673.3649999995085,5.118714e-06
673.3799999995085,3.887549e-05,673.3799999995085,6.307202e-06,673.3799999995085,0.0005429421,673.3799999995085,5.729046e-06
673.3949999995085,3.866366e-05,673.3949999995085,6.426676e-06,673.3949999995085,0.0005443343,673.3949999995085,6.19907e-06
673.4099999995085,3.910203e-05,673.4099999995085,6.415707e-06,673.4099999995085,0.0005464935,673.4099999995085,6.093644e-06
673.4249999995085,3.959855e-05,673.4249999995085,6.389304e-06,673.4249999995085,0.0005463017,673.4249999995085,6.091332e-06
673.4399999995085,3.950096e-05,673.4399999995085,6.304968e-06,673.4399999995085,0.0005462881,673.4399999995085,6.226279e-06
673.4549999995085,3.831708e-05,673.4549999995085,6.832516e-06,673.4549999995085,0.0005486707,673.4549999995085,6.16489e-06
673.4699999995084,3.860897e-05,673.4699999995084,7.035667e-06,673.4699999995084,0.0005519438,673.4699999995084,8.117728e-06
673.4849999995084,3.85458e-05,673.4849999995084,7.03967e-06,673.4849999995084,0.0005569005,673.4849999995084,8.15236e-06
673.4999999995084,3.672486e-05,673.4999999995084,6.977362e-06,673.4999999995084,0.0005582247,673.4999999995084,8.365563e-06
673.5149999995084,3.335515e-05,673.5149999995084,6.380479e-06,673.5149999995084,0.0004042107,673.5149999995084,8.407555e-06
673.5299999995084,3.051026e-05,673.5299999995084,6.333946e-06,673.5299999995084,0.0003677585,673.5299999995084,8.694202e-06
673.5449999995084,2.749092e-05,673.5449999995084,6.356147e-06,673.5449999995084,0.0003309698,673.5449999995084,8.822869e-06
673.5599999995084,2.58046e-05,673.5599999995084,6.509435e-06,673.5599999995084,0.0002844546,673.5599999995084,8.851561e-06
673.5749999995083,2.487455e-05,673.5749999995083,6.574036e-06,673.5749999995083,0.0002161897,673.5749999995083,8.941813e-06
673.5899999995083,2.499207e-05,673.5899999995083,7.318304e-06,673.5899999995083,0.0001981192,673.5899999995083,8.948112e-06
673.6049999995083,2.417379e-05,673.6049999995083,7.750201e-06,673.6049999995083,0.0001965477,673.6049999995083,8.773234e-06
673.6199999995083,2.324394e-05,673.6199999995083,7.69548e-06,673.6199999995083,0.0001888061,673.6199999995083,8.617714e-06
673.6349999995083,2.167596e-05,673.6349999995083,7.542018e-06,673.6349999995083,0.0001678719,673.6349999995083,8.053266e-06
673.6499999995083,2.067614e-05,673.6499999995083,7.497057e-06,673.6499999995083,0.000165349,673.6499999995083,8.065501e-06
673.6649999995083,1.858206e-05,673.6649999995083,7.500814e-06,673.6649999995083,0.0001605453,673.6649999995083,8.089915e-06
673.6799999995083,1.759377e-05,673.6799999995083,7.423416e-06,673.6799999995083,0.000163544,673.6799999995083,8.128133e-06
673.6949999995082,1.702326e-05,673.6949999995082,7.573703e-06,673.6949999995082,0.0001495344,673.6949999995082,8.081204e-06
673.7099999995082,1.784183e-05,673.7099999995082,7.29903e-06,673.7099999995082,0.0001510255,673.7099999995082,7.638524e-06
673.7249999995082,1.534054e-05,673.7249999995082,7.215565e-06,673.7249999995082,0.0001344015,673.7249999995082,5.948592e-06
673.7399999995082,1.553309e-05,673.7399999995082,7.184261e-06,673.7399999995082,0.0001142156,673.7399999995082,5.908198e-06
673.7549999995082,1.590942e-05,673.7549999995082,7.049668e-06,673.7549999995082,0.0001150855,673.7549999995082,5.884307e-06
673.7699999995082,1.623893e-05,673.7699999995082,6.69506e-06,673.7699999995082,0.0001157111,673.7699999995082,5.946224e-06
673.7849999995082,1.659162e-05,673.7849999995082,6.764137e-06,673.7849999995082,0.0001120141,673.7849999995082,5.462197e-06
673.7999999995081,1.695277e-05,673.7999999995081,6.932803e-06,673.7999999995081,0.000106981,673.7999999995081,5.060592e-06
673.8149999995081,1.647917e-05,673.8149999995081,7.033664e-06,673.8149999995081,0.0001047557,673.8149999995081,5.013047e-06
673.8299999995081,1.696523e-05,673.8299999995081,7.127172e-06,673.8299999995081,0.0001023638,673.8299999995081,4.930884e-06
673.8449999995081,1.66611e-05,673.8449999995081,6.485587e-06,673.8449999995081,0.0001018654,673.8449999995081,4.987693e-06
673.8599999995081,1.677149e-05,673.8599999995081,6.257873e-06,673.8599999995081,9.98727e-05,673.8599999995081,5.121465e-06
673.8749999995081,1.677989e-05,673.8749999995081,6.369431e-06,673.8749999995081,9.889141e-05,673.8749999995081,5.12971e-06
673.8899999995081,1.684524e-05,673.8899999995081,6.498606e-06,673.8899999995081,0.0001051957,673.8899999995081,5.397339e-06
673.904999999508,1.664164e-05,673.904999999508,6.48993e-06,673.904999999508,0.0001033548,673.904999999508,5.420777e-06
673.919999999508,1.676477e-05,673.919999999508,6.565459e-06,673.919999999508,9.722253e-05,673.919999999508,5.536481e-06
673.934999999508,1.644494e-05,673.934999999508,6.618881e-06,673.934999999508,9.246071e-05,673.934999999508,5.490492e-06
673.949999999508,1.587751e-05,673.949999999508,6.404719e-06,673.949999999508,9.079372e-05,673.949999999508,5.462197e-06
673.964999999508,1.493292e-05,673.964999999508,6.345057e-06,673.964999999508,8.370176e-05,673.964999999508,5.518642e-06
673.979999999508,1.545854e-05,673.979999999508,6.233063e-06,673.979999999508,8.364485e-05,673.979999999508,5.368553e-06
673.994999999508,1.468753e-05,673.994999999508,6.257873e-06,673.994999999508,7.913535e-05,673.994999999508,5.536481e-06
674.009999999508,1.441355e-05,674.009999999508,6.304968e-06,674.009999999508,7.878103e-05,674.009999999508,5.273245e-06
674.0249999995079,1.423852e-05,674.0249999995079,6.289309e-06,674.0249999995079,7.505208e-05,674.0249999995079,5.342249e-06
674.0399999995079,1.37452e-05,674.0399999995079,6.169459e-06,674.0399999995079,7.501133e-05,674.0399999995079,5.441526e-06
674.0549999995079,1.345414e-05,674.0549999995079,5.853103e-06,674.0549999995079,7.404891e-05,674.0549999995079,5.449287e-06
674.0699999995079,1.317269e-05,674.0699999995079,5.763367e-06,674.0699999995079,7.354613e-05,674.0699999995079,5.257193e-06
674.0849999995079,1.28993e-05,674.0849999995079,5.444114e-06,674.0849999995079,7.430434e-05,674.0849999995079,5.355417e-06
674.0999999995079,1.379533e-05,674.0999999995079,5.246463e-06,674.0999999995079,7.539608e-05,674.0999999995079,5.958057e-06
674.1149999995079,1.397389e-05,674.1149999995079,5.173461e-06,674.1149999995079,8.03756e-05,674.1149999995079,8.606265e-06
674.1299999995078,1.450221e-05,674.1299999995078,5.049445e-06,674.1299999995078,8.280754e-05,674.1299999995078,1.077901e-05
674.1449999995078,1.479551e-05,674.1449999995078,4.867628e-06,674.1449999995078,8.029985e-05,674.1449999995078,1.477169e-05
674.1599999995078,1.493009e-05,674.1599999995078,4.876302e-06,674.1599999995078,8.00852e-05,674.1599999995078,1.521607e-05
674.1749999995078,1.498566e-05,674.1749999995078,4.771172e-06,674.1749999995078,8.193743e-05,674.1749999995078,1.841299e-05
674.1899999995078,1.59748e-05,674.1899999995078,4.780021e-06,674.1899999995078,9.514698e-05,674.1899999995078,2.529572e-05
674.2049999995078,1.669151e-05,674.2049999995078,4.841512e-06,674.2049999995078,0.0001193202,674.2049999995078,2.779058e-05
674.2199999995078,1.661792e-05,674.2199999995078,4.666692e-06,674.2199999995078,0.0001353086,674.2199999995078,4.112649e-05
674.2349999995077,1.751433e-05,674.2349999995077,4.485062e-06,674.2349999995077,0.000142009,674.2349999995077,4.187796e-05
674.2499999995077,1.810439e-05,674.2499999995077,4.35115e-06,674.2499999995077,0.0001441922,674.2499999995077,4.215456e-05
674.2649999995077,2.172011e-05,674.2649999995077,4.219664e-06,674.2649999995077,0.000144042,674.2649999995077,4.319534e-05
674.2799999995077,2.255809e-05,674.2799999995077,4.256228e-06,674.2799999995077,0.0001598791,674.2799999995077,4.408208e-05
674.2949999995077,2.312424e-05,674.2949999995077,4.182782e-06,674.2949999995077,0.000163165,674.2949999995077,4.492218e-05
674.3099999995077,2.449622e-05,674.3099999995077,4.080498e-06,674.3099999995077,0.0001642959,674.3099999995077,4.647394e-05
674.3249999995077,2.577729e-05,674.3249999995077,4.142171e-06,674.3249999995077,0.0001761195,674.3249999995077,4.667839e-05
674.3399999995077,2.570944e-05,674.3399999995077,4.094283e-06,674.3399999995077,0.0001867432,674.3399999995077,4.718325e-05
674.3549999995076,2.982715e-05,674.3549999995076,4.087396e-06,674.3549999995076,0.0001891885,674.3549999995076,4.717161e-05
674.3699999995076,3.131457e-05,674.3699999995076,4.104592e-06,674.3699999995076,0.0001884293,674.3699999995076,4.747671e-05
674.3849999995076,3.323966e-05,674.3849999995076,4.101159e-06,674.3849999995076,0.0001890768,674.3849999995076,4.714054e-05
674.3999999995076,3.38236e-05,674.3999999995076,4.148967e-06,674.3999999995076,0.0001900405,674.3999999995076,4.653422e-05
674.4149999995076,3.710418e-05,674.4149999995076,4.269446e-06,674.4149999995076,0.0001893704,674.4149999995076,4.689036e-05
674.4299999995076,3.984219e-05,674.4299999995076,4.279333e-06,674.4299999995076,0.0001853438,674.4299999995076,4.512586e-05
674.4449999995076,4.061362e-05,674.4449999995076,4.094283e-06,674.4449999995076,0.0001740213,674.4449999995076,4.213384e-05
674.4599999995075,4.092838e-05,674.4599999995075,4.097722e-06,674.4599999995075,0.0001600732,674.4599999995075,3.413164e-05
674.4749999995075,4.111827e-05,674.4749999995075,5.035477e-06,674.4749999995075,0.0001544642,674.4749999995075,2.962194e-05
674.4899999995075,4.172936e-05,674.4899999995075,5.344885e-06,674.4899999995075,0.0001522938,674.4899999995075,2.966709e-05
674.5049999995075,4.460434e-05,674.5049999995075,5.451871e-06,674.5049999995075,0.000153455,674.5049999995075,2.894852e-05
674.5199999995075,4.50343e-05,674.5199999995075,5.56693e-06,674.5199999995075,0.0001567267,674.5199999995075,2.711999e-05
674.5349999995075,4.629354e-05,674.5349999995075,5.934367e-06,674.5349999995075,0.0001477202,674.5349999995075,2.947272e-05
674.5499999995075,4.89228e-05,674.5499999995075,6.580461e-06,674.5499999995075,0.0001591794,674.5499999995075,2.798505e-05
674.5649999995074,4.966636e-05,674.5649999995074,6.701369e-06,674.5649999995074,0.000176276,674.5649999995074,2.634592e-05
674.5799999995074,5.138134e-05,674.5799999995074,6.782854e-06,674.5799999995074,0.0001698951,674.5799999995074,2.598304e-05
674.5949999995074,5.152725e-05,674.5949999995074,6.936866e-06,674.5949999995074,0.000166367,674.5949999995074,2.673128e-05
674.6099999995074,4.952178e-05,674.6099999995074,6.912455e-06,674.6099999995074,0.0001808591,674.6099999995074,2.732027e-05
674.6249999995074,4.827497e-05,674.6249999995074,6.908378e-06,674.6249999995074,0.0001823221,674.6249999995074,2.648404e-05
674.6399999995074,4.789795e-05,674.6399999995074,6.914493e-06,674.6399999995074,0.0001823669,674.6399999995074,2.626345e-05
674.6549999995074,4.769725e-05,674.6549999995074,6.906339e-06,674.6549999995074,0.0001968809,674.6549999995074,2.66912e-05
674.6699999995074,4.533763e-05,674.6699999995074,6.934835e-06,674.6699999995074,0.0002170148,674.6699999995074,2.67028e-05
674.6849999995073,4.650969e-05,674.6849999995073,6.963215e-06,674.6849999995073,0.0002196684,674.6849999995073,2.637103e-05
674.6999999995073,4.606934e-05,674.6999999995073,7.033664e-06,674.6999999995073,0.0002227388,674.6999999995073,2.651221e-05
674.7149999995073,4.598303e-05,674.7149999995073,6.730734e-06,674.7149999995073,0.0002461776,674.7149999995073,2.596352e-05
674.7299999995073,4.586371e-05,674.7299999995073,6.167175e-06,674.7299999995073,0.0002528947,674.7299999995073,2.517067e-05
674.7449999995073,4.402036e-05,674.7449999995073,6.005157e-06,674.7449999995073,0.0002546557,674.7449999995073,2.426452e-05
674.7599999995073,4.222568e-05,674.7599999995073,5.939112e-06,674.7599999995073,0.0002558406,674.7599999995073,2.437226e-05
674.7749999995073,4.131308e-05,674.7749999995073,5.877121e-06,674.7749999995073,0.0002583144,674.7749999995073,2.409031e-05
674.7899999995072,4.108914e-05,674.7899999995072,5.071714e-06,674.7899999995072,0.0002482507,674.7899999995072,2.06161e-05
674.8049999995072,3.624028e-05,674.8049999995072,4.702775e-06,674.8049999995072,0.0002433054,674.8049999995072,2.03257e-05
674.8199999995072,3.603798e-05,674.8199999995072,4.550541e-06,674.8199999995072,0.0003767505,674.8199999995072,2.019499e-05
674.8349999995072,3.461074e-05,674.8349999995072,4.373753e-06,674.8349999995072,0.0004121166,674.8349999995072,1.914732e-05
674.8499999995072,3.409406e-05,674.8499999995072,4.20294e-06,674.8499999995072,0.0004779918,674.8499999995072,1.850305e-05
674.8649999995072,3.364404e-05,674.8649999995072,4.232997e-06,674.8649999995072,0.0004964761,674.8649999995072,1.683353e-05
674.8799999995072,3.280927e-05,674.8799999995072,4.223002e-06,674.8799999995072,0.0004975132,674.8799999995072,1.677233e-05
674.8949999995071,3.252076e-05,674.8949999995071,4.27604e-06,674.8949999995071,0.0004978668,674.8949999995071,1.453617e-05
674.9099999995071,3.199147e-05,674.9099999995071,4.242968e-06,674.9099999995071,0.0004918117,674.9099999995071,1.429678e-05
674.9249999995071,2.835311e-05,674.9249999995071,3.954266e-06,674.9249999995071,0.0004838845,674.9249999995071,1.354388e-05
674.9399999995071,2.588745e-05,674.9399999995071,3.827552e-06,674.9399999995071,0.0004855342,674.9399999995071,1.271229e-05
674.9549999995071,2.543733e-05,674.9549999995071,3.794284e-06,674.9549999995071,0.0004845067,674.9549999995071,1.155115e-05
674.9699999995071,2.4819e-05,674.9699999995071,3.70411e-06,674.9699999995071,0.0004738273,674.9699999995071,1.098483e-05
674.9849999995071,2.312546e-05,674.9849999995071,3.631134e-06,674.9849999995071,0.0004713707,674.9849999995071,1.085194e-05
674.999999999507,2.188679e-05,674.999999999507,3.764466e-06,674.999999999507,0.0004701963,674.999999999507,9.841749e-06
675.014999999507,2.113035e-05,675.014999999507,3.669723e-06,675.014999999507,0.000469003,675.014999999507,9.457824e-06
675.029999999507,1.692533e-05,675.029999999507,3.56062e-06,675.029999999507,0.0004677708,675.029999999507,9.023361e-06
675.044999999507,1.656613e-05,675.044999999507,3.540784e-06,675.044999999507,0.0004678784,675.044999999507,8.924467e-06
675.059999999507,1.505973e-05,675.059999999507,3.556662e-06,675.059999999507,0.0004664067,675.059999999507,8.186846e-06
675.074999999507,1.372264e-05,675.074999999507,3.512824e-06,675.074999999507,0.0003962759,675.074999999507,6.851046e-06
675.089999999507,1.190665e-05,675.089999999507,3.456227e-06,675.089999999507,0.000351617,675.089999999507,6.358363e-06
675.104999999507,1.170982e-05,675.104999999507,3.627253e-06,675.104999999507,0.0003162371,675.104999999507,6.358363e-06
675.119999999507,1.171102e-05,675.119999999507,3.56062e-06,675.119999999507,0.0003075855,675.119999999507,6.251117e-06
675.1349999995069,1.162045e-05,675.1349999995069,3.56062e-06,675.1349999995069,0.0003079814,675.1349999995069,5.845879e-06
675.1499999995069,1.324415e-05,675.1499999995069,3.423466e-06,675.1499999995069,0.000308652,675.1499999995069,5.75603e-06
675.1649999995069,1.321859e-05,675.1649999995069,3.327482e-06,675.1649999995069,0.0003379564,675.1649999995069,5.589657e-06
675.1799999995069,1.347925e-05,675.1799999995069,3.419349e-06,675.1799999995069,0.000375477,675.1799999995069,4.791795e-06
675.1949999995069,1.369592e-05,675.1949999995069,3.460301e-06,675.1949999995069,0.0004025461,675.1949999995069,4.925167e-06
675.2099999995069,1.399605e-05,675.2099999995069,3.492716e-06,675.2099999995069,0.0004021061,675.2099999995069,4.979213e-06
675.2249999995068,1.403224e-05,675.2249999995068,3.500774e-06,675.2249999995068,0.0004201793,675.2249999995068,4.893604e-06
675.2399999995068,1.449541e-05,675.2399999995068,3.377901e-06,675.2399999995068,0.0004293497,675.2399999995068,4.714741e-06
675.2549999995068,1.459323e-05,675.2549999995068,3.348582e-06,675.2549999995068,0.0004296665,675.2549999995068,4.887844e-06
675.2699999995068,1.50999e-05,675.2699999995068,3.688867e-06,675.2699999995068,0.0004300463,675.2699999995068,5.208738e-06
675.2849999995068,1.498566e-05,675.2849999995068,3.715501e-06,675.2849999995068,0.0004311416,675.2849999995068,5.637336e-06
675.2999999995068,1.528074e-05,675.2999999995068,3.775675e-06,675.2999999995068,0.00043255,675.2999999995068,5.669728e-06
675.3149999995068,1.750306e-05,675.3149999995068,3.812802e-06,675.3149999995068,0.0004252353,675.3149999995068,5.672212e-06
675.3299999995068,1.827554e-05,675.3299999995068,3.845909e-06,675.3299999995068,0.0003961755,675.3299999995068,5.457037e-06
675.3449999995067,1.902333e-05,675.3449999995067,3.756974e-06,675.3449999995067,0.0003996534,675.3449999995067,5.457037e-06
675.3599999995067,1.940747e-05,675.3599999995067,3.797995e-06,675.3599999995067,0.0003825843,675.3599999995067,5.459618e-06
675.3749999995067,2.024863e-05,675.3749999995067,3.845909e-06,675.3749999995067,0.0004020942,675.3749999995067,5.571988e-06
675.3899999995067,1.96276e-05,675.3899999995067,3.834905e-06,675.3899999995067,0.0004699151,675.3899999995067,5.599728e-06
675.4049999995067,1.914291e-05,675.4049999995067,3.936414e-06,675.4049999995067,0.0004697246,675.4049999995067,5.549188e-06
675.4199999995067,1.904183e-05,675.4199999995067,3.975583e-06,675.4199999995067,0.0004979016,675.4199999995067,5.503306e-06
675.4349999995067,1.916203e-05,675.4349999995067,3.885991e-06,675.4349999995067,0.0006211153,675.4349999995067,5.389503e-06
675.4499999995066,1.891937e-05,675.4499999995066,4.145571e-06,675.4499999995066,0.0006293678,675.4499999995066,5.386888e-06
675.4649999995066,1.88096e-05,675.4649999995066,4.256228e-06,675.4649999995066,0.0006322265,675.4649999995066,5.291911e-06
675.4799999995066,1.889106e-05,675.4799999995066,4.308857e-06,675.4799999995066,0.0006363977,675.4799999995066,5.329048e-06
675.4949999995066,1.897884e-05,675.4949999995066,4.29576e-06,675.4949999995066,0.0006931238,675.4949999995066,5.405162e-06
675.5099999995066,1.903443e-05,675.5099999995066,5.355417e-06,675.5099999995066,0.001307412,675.5099999995066,5.200618e-06
675.5249999995066,1.895879e-05,675.5249999995066,5.157098e-06,675.5249999995066,0.00157437,675.5249999995066,4.890725e-06
675.5399999995066,1.886643e-05,675.5399999995066,5.143422e-06,675.5399999995066,0.002103746,675.5399999995066,4.945147e-06
675.5549999995065,1.815645e-05,675.5549999995065,5.157098e-06,675.5549999995065,0.002522257,675.5549999995065,5.068936e-06
675.5699999995065,1.507656e-05,675.5699999995065,5.137942e-06,675.5699999995065,0.002797908,675.5699999995065,5.148897e-06
675.5849999995065,1.517157e-05,675.5849999995065,5.313164e-06,675.5849999995065,0.002845891,675.5849999995065,5.099414e-06
675.5999999995065,1.405932e-05,675.5999999995065,5.297233e-06,675.5999999995065,0.002991962,675.5999999995065,4.982041e-06
675.6149999995065,1.333953e-05,675.6149999995065,5.178904e-06,675.6149999995065,0.00299824,675.6149999995065,4.81818e-06
675.6299999995065,1.218035e-05,675.6299999995065,5.748683e-06,675.6299999995065,0.003072329,675.6299999995065,5.029879e-06
675.6449999995065,1.191257e-05,675.6449999995065,5.790191e-06,675.6449999995065,0.003155555,675.6449999995065,5.018664e-06
675.6599999995065,1.162045e-05,675.6599999995065,5.780451e-06,675.6599999995065,0.003157708,675.6599999995065,5.068936e-06
675.6749999995064,1.135931e-05,675.6749999995064,5.785323e-06,675.6749999995064,0.003195406,675.6749999995064,5.22494e-06
675.6899999995064,1.101301e-05,675.6899999995064,5.597212e-06,675.6899999995064,0.003216135,675.6899999995064,5.157098e-06
675.7049999995064,1.06581e-05,675.7049999995064,5.706874e-06,675.7049999995064,0.00321974,675.7049999995064,5.206033e-06
675.7199999995064,1.085584e-05,675.7199999995064,5.587136e-06,675.7199999995064,0.003303719,675.7199999995064,5.386888e-06
675.7349999995064,1.049561e-05,675.7349999995064,5.60727e-06,675.7349999995064,0.003494306,675.7349999995064,5.262549e-06
675.7499999995064,9.930095e-06,675.7499999995064,4.66971e-06,675.7499999995064,0.003460842,675.7499999995064,5.176183e-06
675.7649999995064,9.475681e-06,675.7649999995064,4.578317e-06,675.7649999995064,0.003383889,675.7649999995064,5.178904e-06
675.7799999995063,9.08404e-06,675.7799999995063,4.621192e-06,675.7799999995063,0.00348858,675.7799999995063,5.035477e-06
675.7949999995063,8.933933e-06,675.7949999995063,4.621192e-06,675.7949999995063,0.003254937,675.7949999995063,5.294573e-06
675.8099999995063,9.248478e-06,675.8099999995063,4.633369e-06,675.8099999995063,0.003004013,675.8099999995063,5.249148e-06
675.8249999995063,9.932932e-06,675.8249999995063,4.556728e-06,675.8249999995063,0.00275726,675.8249999995063,5.384273e-06
675.8399999995063,1.025805e-05,675.8399999995063,4.488202e-06,675.8399999995063,0.002731908,675.8399999995063,5.436346e-06
675.8549999995063,1.029095e-05,675.8549999995063,4.544346e-06,675.8549999995063,0.002660871,675.8549999995063,5.371176e-06
675.8699999995063,1.218035e-05,675.8699999995063,4.20294e-06,675.8699999995063,0.002725048,675.8699999995063,5.399948e-06
675.8849999995062,1.226219e-05,675.8849999995062,3.779404e-06,675.8849999995062,0.002695935,675.8849999995062,5.315815e-06
675.8999999995062,1.239473e-05,675.8999999995062,3.775675e-06,675.8999999995062,0.002663607,675.8999999995062,5.368553e-06
675.9149999995062,1.245482e-05,675.9149999995062,3.726858e-06,675.9149999995062,0.002691874,675.9149999995062,5.415577e-06
675.9299999995062,1.242765e-05,675.9299999995062,3.685046e-06,675.9299999995062,0.002589144,675.9299999995062,5.28392e-06
675.9449999995062,1.287087e-05,675.9449999995062,3.67356e-06,675.9449999995062,0.002558161,675.9449999995062,5.203327e-06
675.9599999995062,1.312126e-05,675.9599999995062,3.56062e-06,675.9599999995062,0.002598986,675.9599999995062,5.270573e-06
675.9749999995062,1.343109e-05,675.9749999995062,3.532818e-06,675.9749999995062,0.002773713,675.9749999995062,5.297233e-06
675.9899999995062,1.344367e-05,675.9899999995062,3.584279e-06,675.9899999995062,0.002931103,675.9899999995062,5.418178e-06
676.0049999995061,1.371134e-05,676.0049999995061,3.719291e-06,676.0049999995061,0.003175045,676.0049999995061,5.334332e-06
676.0199999995061,1.401918e-05,676.0199999995061,3.741947e-06,676.0199999995061,0.003208792,676.0199999995061,5.342249e-06
676.0349999995061,1.383e-05,676.0349999995061,3.685046e-06,676.0349999995061,0.003117372,676.0349999995061,5.425972e-06
676.0499999995061,1.362684e-05,676.0499999995061,3.73441e-06,676.0499999995061,0.003239052,676.0499999995061,5.336972e-06
676.0649999995061,1.346774e-05,676.0649999995061,3.741947e-06,676.0649999995061,0.003485921,676.0649999995061,5.270573e-06
676.0799999995061,1.352515e-05,676.0799999995061,3.79057e-06,676.0799999995061,0.003692604,676.0799999995061,5.195198e-06
676.0949999995061,1.383611e-05,676.0949999995061,3.79057e-06,676.0949999995061,0.003679941,676.0949999995061,5.208738e-06
676.109999999506,1.372058e-05,676.109999999506,3.871464e-06,676.109999999506,0.003675416,676.109999999506,5.257193e-06
676.124999999506,1.306747e-05,676.124999999506,4.097722e-06,676.124999999506,0.003678158,676.124999999506,5.214144e-06
676.139999999506,1.280394e-05,676.139999999506,4.242968e-06,676.139999999506,0.00366541,676.139999999506,5.251831e-06
676.154999999506,1.300046e-05,676.154999999506,4.259536e-06,676.154999999506,0.003662332,676.154999999506,5.587136e-06
676.169999999506,1.288509e-05,676.169999999506,4.367307e-06,676.169999999506,0.003633991,676.169999999506,5.559333e-06
676.184999999506,1.307717e-05,676.184999999506,4.354386e-06,676.184999999506,0.003640467,676.184999999506,5.584614e-06
676.199999999506,1.263114e-05,676.199999999506,4.402644e-06,676.199999999506,0.003651918,676.199999999506,5.503306e-06
676.214999999506,1.279734e-05,676.214999999506,4.500739e-06,676.214999999506,0.003529724,676.214999999506,5.579567e-06
676.2299999995059,1.453617e-05,676.2299999995059,4.559819e-06,676.2299999995059,0.00327713,676.2299999995059,5.467352e-06
676.2449999995059,1.559282e-05,676.2449999995059,4.562907e-06,676.2449999995059,0.003027587,676.2449999995059,5.551726e-06
676.2599999995059,1.54631e-05,676.2599999995059,4.35115e-06,676.2599999995059,0.002720156,676.2599999995059,5.599728e-06
676.2749999995059,1.546128e-05,676.2749999995059,4.373753e-06,676.2749999995059,0.002423197,676.2749999995059,5.410373e-06
676.2899999995059,1.564783e-05,676.2899999995059,4.383405e-06,676.2899999995059,0.002296259,676.2899999995059,5.126963e-06
676.3049999995059,1.567931e-05,676.3049999995059,4.354386e-06,676.3049999995059,0.001953694,676.3049999995059,4.910845e-06
676.3199999995059,1.555846e-05,676.3199999995059,4.29576e-06,676.3199999995059,0.001412145,676.3199999995059,4.867628e-06
676.3349999995058,1.537631e-05,676.3349999995058,4.256228e-06,676.3349999995058,0.0006807052,676.3349999995058,4.824024e-06
676.3499999995058,1.495178e-05,676.3499999995058,4.087396e-06,676.3499999995058,0.0004709332,676.3499999995058,4.864733e-06
676.3649999995058,1.450416e-05,676.3649999995058,3.90768e-06,676.3649999995058,0.0004706717,676.3649999995058,4.747494e-06
676.3799999995058,1.432237e-05,676.3799999995058,3.611685e-06,676.3799999995058,0.0004743146,676.3799999995058,4.82986e-06
676.3949999995058,1.433515e-05,676.3949999995058,3.59605e-06,676.3949999995058,0.0004827575,676.3949999995058,4.633369e-06
676.4099999995058,1.508777e-05,676.4099999995058,3.627253e-06,676.4099999995058,0.0004790678,676.4099999995058,4.262842e-06
676.4249999995058,1.497719e-05,676.4249999995058,3.524834e-06,676.4249999995058,0.0004821599,676.4249999995058,4.189512e-06
676.4399999995057,1.47917e-05,676.4399999995057,3.611685e-06,676.4399999995057,0.0004383693,676.4399999995057,4.35115e-06
676.4549999995057,1.403123e-05,676.4549999995057,3.488681e-06,676.4549999995057,0.000348137,676.4549999995057,4.553636e-06
676.4699999995057,1.358231e-05,676.4699999995057,3.480596e-06,676.4699999995057,0.0002056375,676.4699999995057,4.738583e-06
676.4849999995057,1.183188e-05,676.4849999995057,3.439886e-06,676.4849999995057,0.0001319574,676.4849999995057,4.75046e-06
676.4999999995057,1.059845e-05,676.4999999995057,3.415227e-06,676.4999999995057,8.664078e-05,676.4999999995057,4.608983e-06
676.5149999995057,1.064884e-05,676.5149999995057,3.435788e-06,676.5149999995057,7.334512e-05,676.5149999995057,4.602866e-06
676.5299999995057,1.008493e-05,676.5299999995057,3.480596e-06,676.5299999995057,6.661627e-05,676.5299999995057,4.621192e-06
676.5449999995056,1.017394e-05,676.5449999995056,3.382069e-06,676.5449999995056,6.29381e-05,676.5449999995056,4.627284e-06
676.5599999995056,1.01767e-05,676.5599999995056,3.423466e-06,676.5599999995056,5.899966e-05,676.5599999995056,4.630328e-06
676.5749999995056,1.009889e-05,676.5749999995056,3.520835e-06,676.5749999995056,5.716936e-05,676.5749999995056,4.777073e-06
676.5899999995056,9.78289e-06,676.5899999995056,3.548731e-06,676.5899999995056,5.841925e-05,676.5899999995056,5.049445e-06
676.6049999995056,9.729466e-06,676.6049999995056,3.584279e-06,676.6049999995056,6.414697e-05,676.6049999995056,5.035477e-06
676.6199999995056,9.803028e-06,676.6199999995056,3.92925e-06,676.6199999995056,6.80684e-05,676.6199999995056,5.013047e-06
676.6349999995056,9.749715e-06,676.6349999995056,3.939991e-06,676.6349999995056,7.600828e-05,676.6349999995056,4.902232e-06
676.6499999995056,9.426494e-06,676.6499999995056,3.947135e-06,676.6499999995056,8.831391e-05,676.6499999995056,5.159829e-06
676.6649999995055,8.687718e-06,676.6649999995055,4.038859e-06,676.6649999995055,0.0001510976,676.6649999995055,5.176183e-06
676.6799999995055,9.059196e-06,676.6799999995055,4.165909e-06,676.6799999995055,0.0002430313,676.6799999995055,5.173461e-06
676.6949999995055,8.992083e-06,676.6949999995055,4.223002e-06,676.6949999995055,0.0002487974,676.6949999995055,5.392116e-06
676.7099999995055,8.598076e-06,676.7099999995055,4.155752e-06,676.7099999995055,0.0002922382,676.7099999995055,4.95937e-06
676.7249999995055,8.682853e-06,676.7249999995055,4.138769e-06,676.7249999995055,0.0003344173,676.7249999995055,4.744526e-06
676.7399999995055,8.415928e-06,676.7399999995055,4.172666e-06,676.7399999995055,0.0004489882,676.7399999995055,4.919443e-06
676.7549999995055,8.5108e-06,676.7549999995055,4.259536e-06,676.7549999995055,0.0005499931,676.7549999995055,4.876302e-06
676.7699999995054,8.338578e-06,676.7699999995054,4.29248e-06,676.7699999995054,0.0005541978,676.7699999995054,4.939447e-06
676.7849999995054,8.650345e-06,676.7849999995054,4.386617e-06,676.7849999995054,0.0005955922,676.7849999995054,5.035477e-06
676.7999999995054,8.702299e-06,676.7999999995054,4.409039e-06,676.7999999995054,0.0007157031,676.7999999995054,5.148897e-06
676.8149999995054,8.697441e-06,676.8149999995054,4.412233e-06,676.8149999995054,0.0009136158,676.8149999995054,5.148897e-06
676.8299999995054,8.472646e-06,676.8299999995054,4.35115e-06,676.8299999995054,0.001030653,676.8299999995054,4.899358e-06
676.8449999995054,8.55208e-06,676.8449999995054,4.35762e-06,676.8449999995054,0.001047546,676.8449999995054,4.83569e-06
676.8599999995054,8.336888e-06,676.8599999995054,4.189512e-06,676.8599999995054,0.001247352,676.8599999995054,4.753424e-06
676.8749999995053,8.527336e-06,676.8749999995053,3.964939e-06,676.8749999995053,0.001434493,676.8749999995053,4.699779e-06
676.8899999995053,8.661737e-06,676.8899999995053,4.0632e-06,676.8899999995053,0.002050231,676.8899999995053,4.393035e-06
676.9049999995053,8.731387e-06,676.9049999995053,4.077044e-06,676.9049999995053,0.00247626,676.9049999995053,4.393035e-06
676.9199999995053,8.34702e-06,676.9199999995053,4.038859e-06,676.9199999995053,0.002642513,676.9199999995053,4.444044e-06
676.9349999995053,8.171345e-06,676.9349999995053,3.914884e-06,676.9349999995053,0.002640466,676.9349999995053,4.48192e-06
676.9499999995053,8.274134e-06,676.9499999995053,3.954266e-06,676.9499999995053,0.002660893,676.9499999995053,4.256228e-06
676.9649999995053,8.229749e-06,676.9649999995053,4.059732e-06,676.9649999995053,0.002689996,676.9649999995053,4.269446e-06
676.9799999995053,8.29284e-06,676.9799999995053,4.049309e-06,676.9799999995053,0.002743626,676.9799999995053,4.318654e-06
676.9949999995052,8.397496e-06,676.9949999995052,4.042345e-06,676.9949999995052,0.002845387,676.9949999995052,4.15914e-06
677.0099999995052,8.494233e-06,677.0099999995052,3.92925e-06,677.0099999995052,0.002852327,677.0099999995052,4.169289e-06
677.0249999995052,8.805288e-06,677.0249999995052,3.845909e-06,677.0249999995052,0.002851316,677.0249999995052,4.627284e-06
677.0399999995052,8.676361e-06,677.0399999995052,3.805405e-06,677.0399999995052,0.002858861,677.0399999995052,4.550541e-06
677.0549999995052,8.499207e-06,677.0549999995052,3.996786e-06,677.0549999995052,0.00283594,677.0549999995052,4.618143e-06
677.0699999995052,8.916571e-06,677.0699999995052,3.92925e-06,677.0699999995052,0.002792827,677.0699999995052,4.714741e-06
677.0849999995052,9.595341e-06,677.0849999995052,3.904074e-06,677.0849999995052,0.002764303,677.0849999995052,4.648545e-06
677.0999999995051,9.968323e-06,677.0999999995051,3.893234e-06,677.0999999995051,0.002750471,677.0999999995051,4.633369e-06
677.1149999995051,1.106915e-05,677.1149999995051,3.954266e-06,677.1149999995051,0.002579374,677.1149999995051,4.702775e-06
677.1299999995051,1.105641e-05,677.1299999995051,3.96849e-06,677.1299999995051,0.002412337,677.1299999995051,4.720713e-06
677.1449999995051,1.062633e-05,677.1449999995051,3.856882e-06,677.1449999995051,0.001994885,677.1449999995051,4.747494e-06
677.1599999995051,1.070426e-05,677.1599999995051,3.79057e-06,677.1599999995051,0.001380111,677.1599999995051,4.605925e-06
677.1749999995051,1.108695e-05,677.1749999995051,3.749468e-06,677.1749999995051,0.00115875,677.1749999995051,4.642481e-06
677.1899999995051,1.120197e-05,677.1899999995051,3.688867e-06,677.1899999995051,0.00116668,677.1899999995051,4.485062e-06
677.204999999505,1.169898e-05,677.204999999505,3.516832e-06,677.204999999505,0.001170944,677.204999999505,4.624239e-06
677.219999999505,1.199153e-05,677.219999999505,3.480596e-06,677.219999999505,0.001132839,677.219999999505,4.657627e-06
677.234999999505,1.358335e-05,677.234999999505,3.508812e-06,677.234999999505,0.001053576,677.234999999505,4.702775e-06
677.249999999505,1.441453e-05,677.249999999505,3.556662e-06,677.249999999505,0.0006123122,677.249999999505,4.562907e-06
677.264999999505,1.472584e-05,677.264999999505,3.536803e-06,677.264999999505,0.000618768,677.264999999505,4.666692e-06
677.279999999505,1.462216e-05,677.279999999505,3.54476e-06,677.279999999505,0.0006066269,677.279999999505,4.325173e-06
677.294999999505,1.498754e-05,677.294999999505,3.520835e-06,677.294999999505,0.0005113413,677.294999999505,4.232997e-06
677.309999999505,1.526875e-05,677.309999999505,3.390388e-06,677.309999999505,0.0005265267,677.309999999505,4.070128e-06
677.3249999995049,1.512321e-05,677.3249999995049,3.427579e-06,677.3249999995049,0.0005214113,677.3249999995049,3.989731e-06
677.3399999995049,1.479075e-05,677.3399999995049,3.460301e-06,677.3399999995049,0.0005006978,677.3399999995049,4.138769e-06
677.3549999995049,1.472967e-05,677.3549999995049,3.443979e-06,677.3549999995049,0.0005056439,677.3549999995049,4.389827e-06
677.3699999995049,1.413825e-05,677.3699999995049,3.472492e-06,677.3699999995049,0.0005379055,677.3699999995049,4.386617e-06
677.3849999995049,1.443601e-05,677.3849999995049,3.548731e-06,677.3849999995049,0.0005335137,677.3849999995049,4.497608e-06
677.3999999995049,1.500632e-05,677.3999999995049,3.520835e-06,677.3999999995049,0.0005782004,677.3999999995049,4.67875e-06
677.4149999995049,1.565504e-05,677.4149999995049,3.631134e-06,677.4149999995049,0.0008761259,677.4149999995049,4.687774e-06
677.4299999995048,1.550222e-05,677.4299999995048,3.638885e-06,677.4299999995048,0.000973506,677.4299999995048,4.910845e-06
677.4449999995048,1.55004e-05,677.4449999995048,3.67356e-06,677.4449999995048,0.0009772837,677.4449999995048,5.151632e-06
677.4599999995048,1.494235e-05,677.4599999995048,3.677393e-06,677.4599999995048,0.001046456,677.4599999995048,5.096651e-06
677.4749999995048,1.454101e-05,677.4749999995048,3.67356e-06,677.4749999995048,0.001107989,677.4749999995048,4.905105e-06
677.4899999995048,1.32367e-05,677.4899999995048,3.688867e-06,677.4899999995048,0.001131506,677.4899999995048,4.967884e-06
677.5049999995048,1.233321e-05,677.5049999995048,3.73441e-06,677.5049999995048,0.001226599,677.5049999995048,5.281253e-06
677.5199999995048,1.206298e-05,677.5199999995048,5.187057e-06,677.5199999995048,0.001228134,677.5199999995048,5.203327e-06
677.5349999995047,1.181878e-05,677.5349999995047,5.612292e-06,677.5349999995047,0.001237181,677.5349999995047,5.313164e-06
677.5499999995047,1.154627e-05,677.5499999995047,6.002811e-06,677.5499999995047,0.00127436,677.5499999995047,5.627332e-06
677.5649999995047,1.153284e-05,677.5649999995047,7.732004e-06,677.5649999995047,0.001335924,677.5649999995047,5.753582e-06
677.5799999995047,1.19232e-05,677.5799999995047,7.71559e-06,677.5799999995047,0.001351262,677.5799999995047,5.869926e-06
677.5949999995047,1.186161e-05,677.5949999995047,7.865667e-06,677.5949999995047,0.001378842,677.5949999995047,6.139704e-06
677.6099999995047,1.182355e-05,677.6099999995047,8.176516e-06,677.6099999995047,0.001406287,677.6099999995047,6.028569e-06
677.6249999995047,1.168814e-05,677.6249999995047,8.348708e-06,677.6249999995047,0.001426699,677.6249999995047,5.901041e-06
677.6399999995047,1.114777e-05,677.6399999995047,8.573465e-06,677.6399999995047,0.001444763,677.6399999995047,5.908198e-06
677.6549999995046,1.094758e-05,677.6549999995046,8.594799e-06,677.6549999995046,0.001386921,677.6549999995046,5.787757e-06
677.6699999995046,1.068977e-05,677.6699999995046,9.65972e-06,677.6699999995046,0.001191843,677.6699999995046,5.836232e-06
677.6849999995046,1.096301e-05,677.6849999995046,1.029232e-05,677.6849999995046,0.001254617,677.6849999995046,5.579567e-06
677.6999999995046,1.114271e-05,677.6999999995046,1.134691e-05,677.6999999995046,0.001333253,677.6999999995046,5.464775e-06
677.7149999995046,1.145071e-05,677.7149999995046,1.164951e-05,677.7149999995046,0.0012955,677.7149999995046,5.619817e-06
677.7299999995046,1.194681e-05,677.7299999995046,1.280064e-05,677.7299999995046,0.001261623,677.7299999995046,5.609782e-06
677.7449999995046,1.199036e-05,677.7449999995046,1.300371e-05,677.7449999995046,0.001238241,677.7449999995046,5.599728e-06
677.7599999995045,1.256741e-05,677.7599999995045,1.277751e-05,677.7599999995045,0.001133838,677.7599999995045,5.318464e-06
677.7749999995045,1.281054e-05,677.7749999995045,1.278412e-05,677.7749999995045,0.001124436,677.7749999995045,5.294573e-06
677.7899999995045,1.345519e-05,677.7899999995045,1.484019e-05,677.7899999995045,0.001112389,677.7899999995045,5.278585e-06
677.8049999995045,1.785525e-05,677.8049999995045,1.559824e-05,677.8049999995045,0.001048364,677.8049999995045,4.950841e-06
677.8199999995045,2.481445e-05,677.8199999995045,1.776191e-05,677.8199999995045,0.0009384234,677.8199999995045,5.00461e-06
677.8349999995045,3.251903e-05,677.8349999995045,1.98254e-05,677.8349999995045,0.0009229901,677.8349999995045,4.738583e-06
677.8499999995045,3.808292e-05,677.8499999995045,2.099189e-05,677.8499999995045,0.000880877,677.8499999995045,4.572159e-06
677.8649999995044,3.901331e-05,677.8649999995044,2.096571e-05,677.8649999995044,0.0008204554,677.8649999995044,4.584466e-06
677.8799999995044,4.07338e-05,677.8799999995044,2.089369e-05,677.8799999995044,0.000767944,677.8799999995044,4.642481e-06
677.8949999995044,4.412999e-05,677.8949999995044,2.096839e-05,677.8949999995044,0.0007263987,677.8949999995044,4.791795e-06
677.9099999995044,4.489081e-05,677.9099999995044,2.273908e-05,677.9099999995044,0.0007266909,677.9099999995044,4.973552e-06
677.9249999995044,4.555708e-05,677.9249999995044,2.30229e-05,677.9249999995044,0.0006663339,677.9249999995044,4.973552e-06
677.9399999995044,4.612863e-05,677.9399999995044,2.267208e-05,677.9399999995044,0.0004725482,677.9399999995044,4.922306e-06
677.9549999995044,4.612893e-05,677.9549999995044,2.236241e-05,677.9549999995044,0.0003014026,677.9549999995044,4.919443e-06
677.9699999995044,4.624666e-05,677.9699999995044,2.221769e-05,677.9699999995044,0.0002633336,677.9699999995044,4.838602e-06
677.9849999995043,4.686001e-05,677.9849999995043,2.164409e-05,677.9849999995043,0.0002741932,677.9849999995043,4.791795e-06
677.9999999995043,4.725306e-05,677.9999999995043,2.646594e-05,677.9999999995043,0.000246941,677.9999999995043,4.965048e-06
678.0149999995043,4.706638e-05,678.0149999995043,2.807752e-05,678.0149999995043,0.0002236454,678.0149999995043,4.936594e-06
678.0299999995043,4.755439e-05,678.0299999995043,2.839878e-05,678.0299999995043,0.0001892368,678.0299999995043,5.043863e-06
678.0449999995043,4.757216e-05,678.0449999995043,2.773883e-05,678.0449999995043,0.0001766359,678.0449999995043,5.173461e-06
678.0599999995043,4.429598e-05,678.0599999995043,4.797435e-05,678.0599999995043,0.0001689745,678.0599999995043,5.091119e-06
678.0749999995043,4.162695e-05,678.0749999995043,5.80159e-05,678.0749999995043,0.0001714386,678.0749999995043,5.104936e-06
678.0899999995042,3.738482e-05,678.0899999995042,6.247646e-05,678.0899999995042,0.0001824792,678.0899999995042,5.121465e-06
678.1049999995042,3.330359e-05,678.1049999995042,6.779988e-05,678.1049999995042,0.0002052056,678.1049999995042,4.925167e-06
678.1199999995042,3.63063e-05,678.1199999995042,8.283339e-05,678.1199999995042,0.0002404353,678.1199999995042,4.950841e-06
678.1349999995042,3.57578e-05,678.1349999995042,0.0001066977,678.1349999995042,0.0003067164,678.1349999995042,5.115961e-06
678.1499999995042,3.385191e-05,678.1499999995042,0.0001348874,678.1499999995042,0.0003827995,678.1499999995042,5.055022e-06
678.1649999995042,3.837109e-05,678.1649999995042,0.0001448953,678.1649999995042,0.0004107498,678.1649999995042,4.93374e-06
678.1799999995042,3.943814e-05,678.1799999995042,0.0001474845,678.1799999995042,0.0004125519,678.1799999995042,4.890725e-06
678.1949999995041,4.29097e-05,678.1949999995041,0.0001527928,678.1949999995041,0.0004310999,678.1949999995041,4.844421e-06
678.2099999995041,4.438113e-05,678.2099999995041,0.0001550405,678.2099999995041,0.0004793291,678.2099999995041,4.815255e-06
678.2249999995041,4.643785e-05,678.2249999995041,0.0001639763,678.2249999995041,0.0004972281,678.2249999995041,4.81818e-06
678.2399999995041,4.583667e-05,678.2399999995041,0.000170914,678.2399999995041,0.0004952517,678.2399999995041,4.815255e-06
678.2549999995041,4.703584e-05,678.2549999995041,0.0001810059,678.2549999995041,0.0004936225,678.2549999995041,4.618143e-06
678.2699999995041,4.793323e-05,678.2699999995041,0.000188669,678.2699999995041,0.0004959364,678.2699999995041,4.717728e-06
678.2849999995041,4.790824e-05,678.2849999995041,0.0002016837,678.2849999995041,0.0004966991,678.2849999995041,4.73561e-06
678.299999999504,4.817595e-05,678.299999999504,0.0002066371,678.299999999504,0.0004953114,678.299999999504,4.553636e-06
678.314999999504,4.866412e-05,678.314999999504,0.0002135072,678.314999999504,0.0004924677,678.314999999504,4.645514e-06
678.329999999504,4.858996e-05,678.329999999504,0.0002225764,678.329999999504,0.0004908705,678.329999999504,4.821102e-06
678.344999999504,4.840145e-05,678.344999999504,0.0002297775,678.344999999504,0.0004896243,678.344999999504,5.001795e-06
678.359999999504,4.755824e-05,678.359999999504,0.0002293278,678.359999999504,0.0004930173,678.359999999504,5.118714e-06
678.374999999504,4.541679e-05,678.374999999504,0.0002228239,678.374999999504,0.0004947485,678.374999999504,5.099414e-06
678.389999999504,4.468921e-05,678.389999999504,0.0002204458,678.389999999504,0.000431436,678.389999999504,5.052234e-06
678.404999999504,4.358848e-05,678.404999999504,0.0002076244,678.404999999504,0.0003708809,678.404999999504,5.126963e-06
678.419999999504,4.105038e-05,678.419999999504,0.0002036162,678.419999999504,0.0003309112,678.419999999504,5.176183e-06
678.4349999995039,3.886027e-05,678.4349999995039,0.0002031403,678.4349999995039,0.0003451951,678.4349999995039,5.157098e-06
678.4499999995039,3.871063e-05,678.4499999995039,0.0002099311,678.4499999995039,0.0003293395,678.4499999995039,5.34752e-06
678.4649999995039,3.974307e-05,678.4649999995039,0.0002055563,678.4649999995039,0.0002747047,678.4649999995039,5.56946e-06
678.4799999995039,3.892728e-05,678.4799999995039,0.0002031599,678.4799999995039,0.0002532764,678.4799999995039,5.597212e-06
678.4949999995039,3.885048e-05,678.4949999995039,0.0002019153,678.4949999995039,0.00025301,678.4949999995039,5.694519e-06
678.5099999995039,3.818081e-05,678.5099999995039,0.0001929142,678.5099999995039,0.0002446519,678.5099999995039,5.857914e-06
678.5249999995038,3.833362e-05,678.5249999995038,0.0001926702,678.5249999995038,0.0002426373,678.5249999995038,5.929618e-06
678.5399999995038,3.829686e-05,678.5399999995038,0.0001761551,678.5399999995038,0.0002403136,678.5399999995038,5.862722e-06
678.5549999995038,3.874992e-05,678.5549999995038,0.0001732121,678.5549999995038,0.0002353762,678.5549999995038,5.778013e-06
678.5699999995038,4.163575e-05,678.5699999995038,0.0001566452,678.5699999995038,0.0002385106,678.5699999995038,5.679657e-06
678.5849999995038,4.133319e-05,678.5849999995038,0.0001491969,678.5849999995038,0.0002326415,678.5849999995038,5.521194e-06
678.5999999995038,4.147269e-05,678.5999999995038,0.0001441616,678.5999999995038,0.0002237865,678.5999999995038,5.428567e-06
678.6149999995038,4.097344e-05,678.6149999995038,0.0001450214,678.6149999995038,0.0002041512,678.6149999995038,5.485359e-06
678.6299999995038,4.127283e-05,678.6299999995038,0.0001442754,678.6299999995038,0.0001881077,678.6299999995038,5.508422e-06
678.6449999995037,4.113437e-05,678.6449999995037,0.0001362313,678.6449999995037,0.0001679782,678.6449999995037,5.449287e-06
678.6599999995037,4.114704e-05,678.6599999995037,0.000132412,678.6599999995037,0.0001679145,678.6599999995037,5.299891e-06
678.6749999995037,4.012334e-05,678.6749999995037,0.0001299365,678.6749999995037,0.0001577975,678.6749999995037,5.281253e-06
678.6899999995037,3.986305e-05,678.6899999995037,0.000122392,678.6899999995037,0.0001517014,678.6899999995037,5.151632e-06
678.7049999995037,3.703159e-05,678.7049999995037,0.0001115573,678.7049999995037,0.0001455609,678.7049999995037,5.104936e-06
678.7199999995037,3.529108e-05,678.7199999995037,0.0001107596,678.7199999995037,0.0001496531,678.7199999995037,5.029879e-06
678.7349999995037,3.511461e-05,678.7349999995037,0.0001054224,678.7349999995037,0.00014914,678.7349999995037,4.942298e-06
678.7499999995036,3.469042e-05,678.7499999995036,0.0001010175,678.7499999995036,0.0001509058,678.7499999995036,4.726678e-06
678.7649999995036,3.510698e-05,678.7649999995036,9.101593e-05,678.7649999995036,0.0001472884,678.7649999995036,4.660651e-06
678.7799999995036,3.426016e-05,678.7799999995036,8.609357e-05,678.7799999995036,0.0001459891,678.7799999995036,4.599804e-06
678.7949999995036,3.503308e-05,678.7949999995036,8.21649e-05,678.7949999995036,0.0001441053,678.7949999995036,4.599804e-06
678.8099999995036,3.350264e-05,678.8099999995036,7.755034e-05,678.8099999995036,0.0001425261,678.8099999995036,4.69378e-06
678.8249999995036,3.003095e-05,678.8249999995036,7.433713e-05,678.8249999995036,0.000130759,678.8249999995036,4.547444e-06
678.8399999995036,2.979218e-05,678.8399999995036,6.275766e-05,678.8399999995036,0.0001299477,678.8399999995036,4.690778e-06
678.8549999995035,2.896117e-05,678.8549999995035,5.309584e-05,678.8549999995035,0.0001159822,678.8549999995035,4.562907e-06
678.8699999995035,2.860931e-05,678.8699999995035,5.030411e-05,678.8699999995035,0.0001121049,678.8699999995035,4.469331e-06
678.8849999995035,3.037515e-05,678.8849999995035,4.071339e-05,678.8849999995035,0.0001078918,678.8849999995035,4.469331e-06
678.8999999995035,3.330444e-05,678.8999999995035,3.855165e-05,678.8999999995035,0.0001078212,678.8999999995035,4.605925e-06
678.9149999995035,3.465508e-05,678.9149999995035,3.522195e-05,678.9149999995035,0.000112768,678.9149999995035,4.541245e-06
678.9299999995035,3.560699e-05,678.9299999995035,2.871252e-05,678.9299999995035,0.0001225913,678.9299999995035,4.581393e-06
678.9449999995035,3.69882e-05,678.9449999995035,2.536468e-05,678.9449999995035,0.000122475,678.9449999995035,4.535037e-06
678.9599999995035,3.955655e-05,678.9599999995035,2.361252e-05,678.9599999995035,0.0001222815,678.9599999995035,4.39624e-06
678.9749999995034,4.012229e-05,678.9749999995034,1.774445e-05,678.9749999995034,0.0001197306,678.9749999995034,4.412233e-06
678.9899999995034,4.09755e-05,678.9899999995034,1.647661e-05,678.9899999995034,0.0001252071,678.9899999995034,4.584466e-06
679.0049999995034,4.093423e-05,679.0049999995034,1.671428e-05,679.0049999995034,0.0001248279,679.0049999995034,4.756387e-06
679.0199999995034,4.07998e-05,679.0199999995034,1.900777e-05,679.0199999995034,0.0001302552,679.0199999995034,4.633369e-06
679.0349999995034,4.248012e-05,679.0349999995034,2.05106e-05,679.0349999995034,0.0001325554,679.0349999995034,4.654602e-06
679.0499999995034,4.331324e-05,679.0499999995034,2.059559e-05,679.0499999995034,0.0001430342,679.0499999995034,4.785911e-06
679.0649999995034,4.66337e-05,679.0649999995034,2.039696e-05,679.0649999995034,0.0001432594,679.0649999995034,4.93374e-06
679.0799999995033,4.936965e-05,679.0799999995033,1.921269e-05,679.0799999995033,0.0001482172,679.0799999995033,4.930884e-06
679.0949999995033,5.40644e-05,679.0949999995033,1.910756e-05,679.0949999995033,0.000152824,679.0949999995033,5.115961e-06
679.1099999995033,5.5361e-05,679.1099999995033,1.901962e-05,679.1099999995033,0.000176013,679.1099999995033,5.592176e-06
679.1249999995033,5.793547e-05,679.1249999995033,2.081331e-05,679.1249999995033,0.0001787477,679.1249999995033,5.614802e-06
679.1399999995033,6.457464e-05,679.1399999995033,2.115966e-05,679.1399999995033,0.000180698,679.1399999995033,5.541568e-06
679.1549999995033,6.468819e-05,679.1549999995033,2.125332e-05,679.1549999995033,0.0001757126,679.1549999995033,5.469929e-06
679.1699999995033,6.592331e-05,679.1699999995033,2.145583e-05,679.1699999995033,0.0001747538,679.1699999995033,5.425972e-06
679.1849999995032,6.601129e-05,679.1849999995032,2.148339e-05,679.1849999995032,0.0001685032,679.1849999995032,5.477649e-06
679.1999999995032,6.432963e-05,679.1999999995032,2.163172e-05,679.1999999995032,0.0001694845,679.1999999995032,5.457037e-06
679.2149999995032,6.63769e-05,679.2149999995032,2.218215e-05,679.2149999995032,0.0001840672,679.2149999995032,5.662269e-06
679.2299999995032,6.675442e-05,679.2299999995032,2.310657e-05,679.2299999995032,0.0001856252,679.2299999995032,5.741327e-06
679.2449999995032,6.72573e-05,679.2449999995032,2.437862e-05,679.2449999995032,0.0001854528,679.2449999995032,5.544109e-06
679.2599999995032,6.762533e-05,679.2599999995032,2.547828e-05,679.2599999995032,0.0001839792,679.2599999995032,5.833818e-06
679.2749999995032,6.772046e-05,679.2749999995032,2.611769e-05,679.2749999995032,0.0001834912,679.2749999995032,5.836232e-06
679.2899999995032,6.712081e-05,679.2899999995032,3.338766e-05,679.2899999995032,0.0001814499,679.2899999995032,5.799914e-06
679.3049999995031,6.703282e-05,679.3049999995031,4.365758e-05,679.3049999995031,0.0001710304,679.3049999995031,5.692045e-06
679.3199999995031,6.689882e-05,679.3199999995031,5.247886e-05,679.3199999995031,0.0001711263,679.3199999995031,5.539025e-06
679.3349999995031,6.226799e-05,679.3349999995031,5.933583e-05,679.3349999995031,0.0001690411,679.3349999995031,5.498184e-06
679.3499999995031,6.099628e-05,679.3499999995031,7.355839e-05,679.3499999995031,0.0001570051,679.3499999995031,5.12971e-06
679.3649999995031,6.038468e-05,679.3649999995031,8.383948e-05,679.3649999995031,0.0001393248,679.3649999995031,4.928026e-06
679.3799999995031,5.757058e-05,679.3799999995031,9.450866e-05,679.3799999995031,0.0001400419,679.3799999995031,4.882076e-06
679.394999999503,4.6939e-05,679.394999999503,0.0001007203,679.394999999503,0.0001441729,679.394999999503,4.826943e-06
679.409999999503,4.486444e-05,679.409999999503,0.0001045055,679.409999999503,0.0001448082,679.409999999503,4.844421e-06
679.424999999503,4.325433e-05,679.424999999503,0.0001086258,679.424999999503,0.0001443734,679.424999999503,4.922306e-06
679.439999999503,4.186383e-05,679.439999999503,0.0001136291,679.439999999503,0.0001412252,679.439999999503,5.08004e-06
679.454999999503,4.029536e-05,679.454999999503,0.0001214014,679.454999999503,0.0001385487,679.454999999503,5.505864e-06
679.469999999503,3.729503e-05,679.469999999503,0.0001274863,679.469999999503,0.0001132239,679.469999999503,5.259872e-06
679.484999999503,3.593542e-05,679.484999999503,0.000131101,679.484999999503,0.0001160228,679.484999999503,5.214144e-06
679.499999999503,3.487591e-05,679.499999999503,0.0001349065,679.499999999503,0.0001176841,679.499999999503,5.203327e-06
679.514999999503,3.283459e-05,679.514999999503,0.0001373347,679.514999999503,0.0001222828,679.514999999503,5.107694e-06
679.5299999995029,3.014798e-05,679.5299999995029,0.0001385467,679.5299999995029,0.0001201159,679.5299999995029,5.402556e-06
679.5449999995029,3.074025e-05,679.5449999995029,0.0001377557,679.5449999995029,0.0001205542,679.5449999995029,5.363302e-06
679.5599999995029,2.947415e-05,679.5599999995029,0.0001378264,679.5599999995029,0.0001252746,679.5599999995029,5.386888e-06
679.5749999995029,2.932658e-05,679.5749999995029,0.0001379616,679.5749999995029,0.0001244775,679.5749999995029,5.459618e-06
679.5899999995029,2.930832e-05,679.5899999995029,0.0001366363,679.5899999995029,0.0001237624,679.5899999995029,5.574516e-06
679.6049999995029,2.884127e-05,679.6049999995029,0.0001290261,679.6049999995029,0.0001222679,679.6049999995029,5.592176e-06
679.6199999995029,2.874881e-05,679.6199999995029,0.0001218071,679.6199999995029,0.0001218217,679.6199999995029,5.528843e-06
679.6349999995028,2.834615e-05,679.6349999995028,0.00011713,679.6349999995028,0.0001152231,679.6349999995028,5.599728e-06
679.6499999995028,2.842605e-05,679.6499999995028,0.0001129778,679.6499999995028,0.0001137359,679.6499999995028,5.807196e-06
679.6649999995028,2.830438e-05,679.6649999995028,0.0001121274,679.6649999995028,0.0001126649,679.6649999995028,5.804769e-06
679.6799999995028,2.687738e-05,679.6799999995028,0.0001089423,679.6799999995028,0.0001131579,679.6799999995028,5.799914e-06
679.6949999995028,2.704822e-05,679.6949999995028,0.0001012845,679.6949999995028,0.0001113023,679.6949999995028,5.738873e-06
679.7099999995028,2.570999e-05,679.7099999995028,9.15991e-05,679.7099999995028,0.0001104809,679.7099999995028,5.457037e-06
679.7249999995028,2.504331e-05,679.7249999995028,8.846229e-05,679.7249999995028,0.0001091242,679.7249999995028,5.457037e-06
679.7399999995027,2.483431e-05,679.7399999995027,8.299309e-05,679.7399999995027,0.0001002312,679.7399999995027,5.352786e-06
679.7549999995027,2.446514e-05,679.7549999995027,7.698208e-05,679.7549999995027,9.512033e-05,679.7549999995027,5.265225e-06
679.7699999995027,2.491416e-05,679.7699999995027,7.114333e-05,679.7699999995027,8.770231e-05,679.7699999995027,4.916579e-06
679.7849999995027,2.439422e-05,679.7849999995027,6.833361e-05,679.7849999995027,0.0001038002,679.7849999995027,4.882076e-06
679.7999999995027,2.292602e-05,679.7999999995027,6.067651e-05,679.7999999995027,9.99563e-05,679.7999999995027,4.922306e-06
679.8149999995027,1.792454e-05,679.8149999995027,5.820135e-05,679.8149999995027,9.754193e-05,679.8149999995027,4.780021e-06
679.8299999995027,1.777618e-05,679.8299999995027,5.256201e-05,679.8299999995027,9.621232e-05,679.8299999995027,4.82986e-06
679.8449999995026,1.710498e-05,679.8449999995026,4.435827e-05,679.8449999995026,9.307464e-05,679.8449999995026,4.826943e-06
679.8599999995026,1.741431e-05,679.8599999995026,3.924622e-05,679.8599999995026,9.288389e-05,679.8599999995026,4.696781e-06
679.8749999995026,1.741835e-05,679.8749999995026,3.317688e-05,679.8749999995026,9.287707e-05,679.8749999995026,4.642481e-06
679.8899999995026,1.803891e-05,679.8899999995026,3.243966e-05,679.8899999995026,9.194079e-05,679.8899999995026,4.690778e-06
679.9049999995026,1.748454e-05,679.9049999995026,3.095351e-05,679.9049999995026,9.095106e-05,679.9049999995026,4.456705e-06
679.9199999995026,1.741997e-05,679.9199999995026,3.034174e-05,679.9199999995026,9.027933e-05,679.9199999995026,4.415424e-06
679.9349999995026,1.757695e-05,679.9349999995026,2.063658e-05,679.9349999995026,8.958858e-05,679.9349999995026,4.308857e-06
679.9499999995026,1.762337e-05,679.9499999995026,1.915468e-05,679.9499999995026,8.899097e-05,679.9499999995026,4.199587e-06
679.9649999995025,1.734379e-05,679.9649999995025,1.697685e-05,679.9649999995025,9.045486e-05,679.9649999995025,4.249604e-06
679.9799999995025,1.717812e-05,679.9799999995025,1.625887e-05,679.9799999995025,0.0001019431,679.9799999995025,4.370531e-06
679.9949999995025,1.677485e-05,679.9949999995025,1.44028e-05,679.9949999995025,0.0001005175,679.9949999995025,4.497608e-06
680.0099999995025,1.600652e-05,680.0099999995025,1.443015e-05,680.0099999995025,0.0001086471,680.0099999995025,4.510119e-06
680.0249999995025,1.684022e-05,680.0249999995025,1.274881e-05,680.0249999995025,0.0001373179,680.0249999995025,4.367307e-06
680.0399999995025,1.790173e-05,680.0399999995025,1.223459e-05,680.0399999995025,0.0002011817,680.0399999995025,4.510119e-06
680.0549999995025,1.703236e-05,680.0549999995025,1.203375e-05,680.0549999995025,0.000246778,680.0549999995025,4.497608e-06
680.0699999995024,1.732185e-05,680.0699999995024,6.535352e-06,680.0699999995024,0.0002482571,680.0699999995024,4.605925e-06
680.0849999995024,1.740055e-05,680.0849999995024,6.505105e-06,680.0849999995024,0.0002947433,680.0849999995024,4.510119e-06
680.0999999995024,1.692034e-05,680.0999999995024,6.797376e-06,680.0999999995024,0.0004728591,680.0999999995024,4.428167e-06
680.1149999995024,1.674291e-05,680.1149999995024,6.844875e-06,680.1149999995024,0.0005660208,680.1149999995024,4.510119e-06
680.1299999995024,1.713131e-05,680.1299999995024,6.995509e-06,680.1299999995024,0.0005799566,680.1299999995024,4.602866e-06
680.1449999995024,1.697602e-05,680.1449999995024,6.669763e-06,680.1449999995024,0.0006057981,680.1449999995024,4.466178e-06
680.1599999995024,1.699178e-05,680.1599999995024,6.703471e-06,680.1599999995024,0.0006263191,680.1599999995024,4.639445e-06
680.1749999995023,1.760738e-05,680.1749999995023,6.448557e-06,680.1749999995023,0.0006301624,680.1749999995023,4.699779e-06
680.1899999995023,1.732185e-05,680.1899999995023,5.974584e-06,680.1899999995023,0.0006304195,680.1899999995023,4.768218e-06
680.2049999995023,1.719943e-05,680.2049999995023,5.915346e-06,680.2049999995023,0.0006353526,680.2049999995023,4.687774e-06
680.2199999995023,1.741916e-05,680.2199999995023,5.877121e-06,680.2199999995023,0.0006397368,680.2199999995023,4.684768e-06
680.2349999995023,1.758176e-05,680.2349999995023,5.342249e-06,680.2349999995023,0.0006486257,680.2349999995023,4.587538e-06
680.2499999995023,1.767605e-05,680.2499999995023,5.376418e-06,680.2499999995023,0.0006503627,680.2499999995023,4.428167e-06
680.2649999995023,1.778489e-05,680.2649999995023,5.068936e-06,680.2649999995023,0.0006514594,680.2649999995023,4.485062e-06
680.2799999995023,1.736895e-05,680.2799999995023,4.853136e-06,680.2799999995023,0.0006397197,680.2799999995023,4.447213e-06
680.2949999995022,1.569996e-05,680.2949999995022,4.70577e-06,680.2949999995022,0.0006128129,680.2949999995022,4.259536e-06
680.3099999995022,1.874283e-05,680.3099999995022,4.714741e-06,680.3099999995022,0.000603445,680.3099999995022,4.38019e-06
680.3249999995022,2.172076e-05,680.3249999995022,4.768218e-06,680.3249999995022,0.0006047909,680.3249999995022,4.373753e-06
680.3399999995022,2.24052e-05,680.3399999995022,4.624239e-06,680.3399999995022,0.0005727752,680.3399999995022,4.485062e-06
680.3549999995022,2.204711e-05,680.3549999995022,4.121716e-06,680.3549999995022,0.0004479192,680.3549999995022,4.478776e-06
680.3699999995022,2.313947e-05,680.3699999995022,3.756974e-06,680.3699999995022,0.000341356,680.3699999995022,4.636408e-06
680.3849999995022,2.276632e-05,680.3849999995022,3.696496e-06,680.3849999995022,0.0003314067,680.3849999995022,4.675739e-06
680.3999999995021,2.333467e-05,680.3999999995021,3.688867e-06,680.3999999995021,0.0002836862,680.3999999995021,4.850233e-06
680.4149999995021,2.415513e-05,680.4149999995021,3.700305e-06,680.4149999995021,0.0002727805,680.4149999995021,4.838602e-06
680.4299999995021,2.376001e-05,680.4299999995021,3.685046e-06,680.4299999995021,0.0002697871,680.4299999995021,4.75046e-06
680.4449999995021,2.419708e-05,680.4449999995021,3.961384e-06,680.4449999995021,0.0002692382,680.4449999995021,4.633369e-06
680.4599999995021,2.412596e-05,680.4599999995021,4.145571e-06,680.4599999995021,0.0002722111,680.4599999995021,4.844421e-06
680.4749999995021,2.410668e-05,680.4749999995021,4.450379e-06,680.4749999995021,0.0002720903,680.4749999995021,4.979213e-06
680.4899999995021,2.401124e-05,680.4899999995021,4.469331e-06,680.4899999995021,0.0002600062,680.4899999995021,4.987693e-06
680.504999999502,2.400948e-05,680.504999999502,4.338181e-06,680.504999999502,0.0002592203,680.504999999502,5.066156e-06
680.519999999502,2.371075e-05,680.519999999502,4.741556e-06,680.519999999502,0.0002618874,680.519999999502,5.265225e-06
680.534999999502,2.329177e-05,680.534999999502,5.955692e-06,680.534999999502,0.0002583307,680.534999999502,5.344885e-06
680.549999999502,2.265281e-05,680.549999999502,5.981653e-06,680.549999999502,0.0002536603,680.549999999502,5.438937e-06
680.564999999502,2.044732e-05,680.564999999502,6.028569e-06,680.564999999502,0.0002530498,680.564999999502,5.326404e-06
680.579999999502,1.712391e-05,680.579999999502,6.042573e-06,680.579999999502,0.0002500987,680.579999999502,5.352786e-06
680.594999999502,1.629348e-05,680.594999999502,6.026232e-06,680.594999999502,0.0002185749,680.594999999502,5.321112e-06
680.609999999502,1.706045e-05,680.609999999502,6.155743e-06,680.609999999502,0.0002107124,680.609999999502,5.677176e-06
680.6249999995019,1.613799e-05,680.6249999995019,6.180865e-06,680.6249999995019,0.0002087561,680.6249999995019,5.399948e-06
680.6399999995019,1.577783e-05,680.6399999995019,6.158032e-06,680.6399999995019,0.0002106965,680.6399999995019,5.368553e-06
680.6549999995019,1.476119e-05,680.6549999995019,6.171741e-06,680.6549999995019,0.0002185083,680.6549999995019,5.318464e-06
680.6699999995019,1.375135e-05,680.6699999995019,6.091332e-06,680.6699999995019,0.0002184644,680.6699999995019,5.254512e-06
680.6849999995019,1.376875e-05,680.6849999995019,6.16489e-06,680.6849999995019,0.0002229773,680.6849999995019,5.275916e-06
680.6999999995019,1.312233e-05,680.6999999995019,5.986361e-06,680.6999999995019,0.0002234003,680.6999999995019,5.299891e-06
680.7149999995019,1.276317e-05,680.7149999995019,5.778013e-06,680.7149999995019,0.0002098618,680.7149999995019,5.176183e-06
680.7299999995018,1.266233e-05,680.7299999995018,5.743781e-06,680.7299999995018,0.0002291808,680.7299999995018,5.184341e-06
680.7449999995018,1.254161e-05,680.7449999995018,5.736418e-06,680.7449999995018,0.0002304677,680.7449999995018,5.135199e-06
680.7599999995018,1.213632e-05,680.7599999995018,5.61731e-06,680.7599999995018,0.0002303947,680.7599999995018,5.063375e-06
680.7749999995018,1.144087e-05,680.7749999995018,5.233022e-06,680.7749999995018,0.0002275404,680.7749999995018,4.982041e-06
680.7899999995018,1.114398e-05,680.7899999995018,4.094283e-06,680.7899999995018,0.000228658,680.7899999995018,4.976383e-06
680.8049999995018,1.028684e-05,680.8049999995018,4.000309e-06,680.8049999995018,0.0002325251,680.8049999995018,5.029879e-06
680.8199999995018,1.021815e-05,680.8199999995018,4.007346e-06,680.8199999995018,0.0002375644,680.8199999995018,5.173461e-06
680.8349999995017,9.965496e-06,680.8349999995017,3.954266e-06,680.8349999995017,0.0002276708,680.8349999995017,4.956529e-06
680.8499999995017,9.877468e-06,680.8499999995017,4.01437e-06,680.8499999995017,0.0002314928,680.8499999995017,4.916579e-06
680.8649999995017,8.154087e-06,680.8649999995017,3.794284e-06,680.8649999995017,0.0002310443,680.8649999995017,4.654602e-06
680.8799999995017,8.321666e-06,680.8799999995017,3.73441e-06,680.8799999995017,0.0002294624,680.8799999995017,4.593675e-06
680.8949999995017,7.827967e-06,680.8949999995017,3.685046e-06,680.8949999995017,0.0002233834,680.8949999995017,4.415424e-06
680.9099999995017,7.811755e-06,680.9099999995017,3.619477e-06,680.9099999995017,0.0002103969,680.9099999995017,4.376973e-06
680.9249999995017,7.97063e-06,680.9249999995017,3.677393e-06,680.9249999995017,0.0002094169,680.9249999995017,4.590608e-06
680.9399999995017,8.030494e-06,680.9399999995017,3.556662e-06,680.9399999995017,0.0002072381,680.9399999995017,4.69378e-06
680.9549999995016,7.981227e-06,680.9549999995016,3.54476e-06,680.9549999995016,0.0002069561,680.9549999995016,4.910845e-06
680.9699999995016,7.95825e-06,680.9699999995016,3.70411e-06,680.9699999995016,0.0001678495,680.9699999995016,5.195198e-06
680.9849999995016,7.883556e-06,680.9849999995016,3.86418e-06,680.9849999995016,0.000132194,680.9849999995016,5.339611e-06
680.9999999995016,8.063755e-06,680.9999999995016,3.860533e-06,680.9999999995016,0.0001104526,680.9999999995016,5.386888e-06
681.0149999995016,8.096878e-06,681.0149999995016,4.216325e-06,681.0149999995016,0.0001073032,681.0149999995016,5.444114e-06
681.0299999995016,7.85312e-06,681.0299999995016,4.272744e-06,681.0299999995016,0.000108637,681.0299999995016,5.373798e-06
681.0449999995016,8.055015e-06,681.0449999995016,4.073587e-06,681.0449999995016,0.0001102215,681.0449999995016,5.275916e-06
681.0599999995015,8.316587e-06,681.0599999995015,4.070128e-06,681.0599999995015,0.0001113223,681.0599999995015,5.206033e-06
681.0749999995015,8.609537e-06,681.0749999995015,4.094283e-06,681.0749999995015,0.00010919,681.0749999995015,5.53139e-06
681.0899999995015,9.118093e-06,681.0899999995015,4.101159e-06,681.0899999995015,0.0001083161,681.0899999995015,5.475077e-06
681.1049999995015,9.190417e-06,681.1049999995015,4.152361e-06,681.1049999995015,0.0001034485,681.1049999995015,5.629835e-06
681.1199999995015,9.318279e-06,681.1199999995015,4.34467e-06,681.1199999995015,0.0001004697,681.1199999995015,5.696992e-06
681.1349999995015,9.37705e-06,681.1349999995015,4.47563e-06,681.1349999995015,0.0001042725,681.1349999995015,5.912964e-06
681.1499999995015,9.278891e-06,681.1499999995015,4.506994e-06,681.1499999995015,0.0001027162,681.1499999995015,6.005157e-06
681.1649999995014,9.752604e-06,681.1649999995014,4.699779e-06,681.1649999995014,0.0001067949,681.1649999995014,5.967507e-06
681.1799999995014,9.707725e-06,681.1799999995014,4.642481e-06,681.1799999995014,0.000113476,681.1799999995014,5.821732e-06
681.1949999995014,1.062368e-05,681.1949999995014,4.657627e-06,681.1949999995014,0.0001205562,681.1949999995014,5.602244e-06
681.2099999995014,1.071346e-05,681.2099999995014,4.608983e-06,681.2099999995014,0.0001178091,681.2099999995014,5.397339e-06
681.2249999995014,1.083766e-05,681.2249999995014,4.459865e-06,681.2249999995014,0.0001360386,681.2249999995014,5.394728e-06
681.2399999995014,1.108059e-05,681.2399999995014,4.747494e-06,681.2399999995014,0.0001792569,681.2399999995014,5.140683e-06
681.2549999995014,1.111106e-05,681.2549999995014,4.69378e-06,681.2549999995014,0.000297306,681.2549999995014,5.438937e-06
681.2699999995014,1.143471e-05,681.2699999995014,4.714741e-06,681.2699999995014,0.0003938579,681.2699999995014,5.423375e-06
681.2849999995013,1.174105e-05,681.2849999995013,4.732634e-06,681.2849999995013,0.0004738711,681.2849999995013,5.48279e-06
681.2999999995013,1.19173e-05,681.2999999995013,4.821102e-06,681.2999999995013,0.0004997211,681.2999999995013,5.592176e-06
681.3149999995013,1.233663e-05,681.3149999995013,5.063375e-06,681.3149999995013,0.001014134,681.3149999995013,5.410373e-06
681.3299999995013,1.303185e-05,681.3299999995013,5.14616e-06,681.3299999995013,0.001038314,681.3299999995013,5.371176e-06
681.3449999995013,1.27278e-05,681.3449999995013,5.860319e-06,681.3449999995013,0.001123207,681.3449999995013,5.360675e-06
681.3599999995013,1.255508e-05,681.3599999995013,5.867525e-06,681.3599999995013,0.001295731,681.3599999995013,5.604757e-06
681.3749999995013,1.268012e-05,681.3749999995013,5.853103e-06,681.3749999995013,0.001359737,681.3749999995013,5.746233e-06
681.3899999995012,1.272337e-05,681.3899999995012,5.920107e-06,681.3899999995012,0.001391638,681.3899999995012,5.599728e-06
681.4049999995012,1.248871e-05,681.4049999995012,6.102884e-06,681.4049999995012,0.001399499,681.4049999995012,5.719203e-06
681.4199999995012,1.244124e-05,681.4199999995012,6.123622e-06,681.4199999995012,0.001412277,681.4199999995012,5.682137e-06
681.4349999995012,1.296031e-05,681.4349999995012,6.185421e-06,681.4349999995012,0.001448927,681.4349999995012,5.716739e-06
681.4499999995012,1.236059e-05,681.4499999995012,6.329497e-06,681.4499999995012,0.001463392,681.4499999995012,5.692045e-06
681.4649999995012,1.252137e-05,681.4649999995012,7.804539e-06,681.4649999995012,0.001468639,681.4649999995012,5.748683e-06
681.4799999995012,1.299071e-05,681.4799999995012,1.193029e-05,681.4799999995012,0.001469288,681.4799999995012,5.792623e-06
681.4949999995011,1.289274e-05,681.4949999995011,1.213632e-05,681.4949999995011,0.001440547,681.4949999995011,5.787757e-06
681.5099999995011,1.290039e-05,681.5099999995011,1.403926e-05,681.5099999995011,0.00143665,681.5099999995011,5.612292e-06
681.5249999995011,1.291894e-05,681.5249999995011,1.487527e-05,681.5249999995011,0.001412227,681.5249999995011,5.574516e-06
681.5399999995011,1.312663e-05,681.5399999995011,1.564783e-05,681.5399999995011,0.001401505,681.5399999995011,5.363302e-06
681.5549999995011,1.354076e-05,681.5549999995011,3.234486e-05,681.5549999995011,0.001365811,681.5549999995011,5.495621e-06
681.5699999995011,1.419989e-05,681.5699999995011,3.262758e-05,681.5699999995011,0.001027704,681.5699999995011,5.56693e-06
681.5849999995011,1.454489e-05,681.5849999995011,4.283807e-05,681.5849999995011,0.0009983187,681.5849999995011,5.472503e-06
681.599999999501,1.711898e-05,681.599999999501,4.732515e-05,681.599999999501,0.0008862971,681.599999999501,5.392116e-06
681.614999999501,1.839079e-05,681.614999999501,4.846107e-05,681.614999999501,0.0006555941,681.614999999501,5.107694e-06
681.629999999501,1.901147e-05,681.629999999501,5.022452e-05,681.629999999501,0.0005288243,681.629999999501,4.73561e-06
681.644999999501,2.018662e-05,681.644999999501,5.063597e-05,681.644999999501,0.0004156778,681.644999999501,4.806471e-06
681.659999999501,2.03049e-05,681.659999999501,5.142546e-05,681.659999999501,0.0003991867,681.659999999501,4.756387e-06
681.674999999501,2.09038e-05,681.674999999501,5.302921e-05,681.674999999501,0.0003779564,681.674999999501,4.812329e-06
681.689999999501,2.118494e-05,681.689999999501,5.30847e-05,681.689999999501,0.0002930545,681.689999999501,4.876302e-06
681.704999999501,2.17674e-05,681.704999999501,5.352786e-05,681.704999999501,0.0002762181,681.704999999501,4.907976e-06
681.7199999995009,2.16532e-05,681.7199999995009,5.347256e-05,681.7199999995009,0.0002460834,681.7199999995009,4.976383e-06
681.7349999995009,2.152073e-05,681.7349999995009,5.382703e-05,681.7349999995009,0.0002436703,681.7349999995009,4.899358e-06
681.7499999995009,2.176934e-05,681.7499999995009,5.399034e-05,681.7499999995009,0.0002389581,681.7499999995009,5.102175e-06
681.7649999995009,2.170389e-05,681.7649999995009,5.355232e-05,681.7649999995009,0.0002368438,681.7649999995009,5.029879e-06
681.7799999995009,2.144467e-05,681.7799999995009,5.342592e-05,681.7799999995009,0.0002237915,681.7799999995009,5.052234e-06
681.7949999995009,2.1151e-05,681.7949999995009,4.932055e-05,681.7949999995009,0.0002326509,681.7949999995009,5.110451e-06
681.8099999995009,2.104083e-05,681.8099999995009,4.518232e-05,681.8099999995009,0.0002606834,681.8099999995009,5.024275e-06
681.8249999995008,1.988287e-05,681.8249999995008,4.067774e-05,681.8249999995008,0.00030259,681.8249999995008,4.905105e-06
681.8399999995008,1.918848e-05,681.8399999995008,3.240316e-05,681.8399999995008,0.0003826581,681.8399999995008,4.794733e-06
681.8549999995008,1.804828e-05,681.8549999995008,2.94201e-05,681.8549999995008,0.000461599,681.8549999995008,4.803539e-06
681.8699999995008,1.657633e-05,681.8699999995008,2.547385e-05,681.8699999995008,0.0004848372,681.8699999995008,4.815255e-06
681.8849999995008,1.58482e-05,681.8849999995008,2.384109e-05,681.8849999995008,0.0004849843,681.8849999995008,4.624239e-06
681.8999999995008,1.481834e-05,681.8999999995008,2.247425e-05,681.8999999995008,0.0004921437,681.8999999995008,4.806471e-06
681.9149999995008,1.421773e-05,681.9149999995008,2.073397e-05,681.9149999995008,0.0005192042,681.9149999995008,4.642481e-06
681.9299999995008,1.337433e-05,681.9299999995008,1.703897e-05,681.9299999995008,0.0005328799,681.9299999995008,4.690778e-06
681.9449999995007,1.308794e-05,681.9449999995007,1.69561e-05,681.9449999995007,0.0005287749,681.9449999995007,4.696781e-06
681.9599999995007,1.259988e-05,681.9599999995007,1.446331e-05,681.9599999995007,0.0005177478,681.9599999995007,4.732634e-06
681.9749999995007,1.274218e-05,681.9749999995007,1.440671e-05,681.9749999995007,0.0005155876,681.9749999995007,4.815255e-06
681.9899999995007,1.325478e-05,681.9899999995007,8.524032e-06,681.9899999995007,0.0005172914,681.9899999995007,4.970719e-06
682.0049999995007,1.307501e-05,682.0049999995007,8.136793e-06,682.0049999995007,0.000514284,682.0049999995007,4.83569e-06
682.0199999995007,1.346251e-05,682.0199999995007,8.063755e-06,682.0199999995007,0.0005161663,682.0199999995007,4.922306e-06
682.0349999995007,1.3664e-05,682.0349999995007,8.077717e-06,682.0349999995007,0.000510986,682.0349999995007,4.905105e-06
682.0499999995006,1.395775e-05,682.0499999995006,8.046266e-06,682.0499999995006,0.0004937146,682.0499999995006,4.884961e-06
682.0649999995006,1.357816e-05,682.0649999995006,6.904299e-06,682.0649999995006,0.0004836093,682.0649999995006,4.79767e-06
682.0799999995006,1.408234e-05,682.0799999995006,7.031661e-06,682.0799999995006,0.0004703536,682.0799999995006,4.990517e-06
682.0949999995006,1.390619e-05,682.0949999995006,5.007424e-06,682.0949999995006,0.0003897127,682.0949999995006,5.038274e-06
682.1099999995006,1.348238e-05,682.1099999995006,4.657627e-06,682.1099999995006,0.0002874616,682.1099999995006,4.987693e-06
682.1249999995006,1.333953e-05,682.1249999995006,4.657627e-06,682.1249999995006,0.0002449933,682.1249999995006,4.990517e-06
682.1399999995006,1.347297e-05,682.1399999995006,4.624239e-06,682.1399999995006,0.0002442035,682.1399999995006,5.027078e-06
682.1549999995005,1.369489e-05,682.1549999995005,4.593675e-06,682.1549999995005,0.0002093571,682.1549999995005,4.965048e-06
682.1699999995005,1.334903e-05,682.1699999995005,4.627284e-06,682.1699999995005,0.0001517369,682.1699999995005,5.493057e-06
682.1849999995005,1.351994e-05,682.1849999995005,4.621192e-06,682.1849999995005,0.0001370203,682.1849999995005,5.828986e-06
682.1999999995005,1.342899e-05,682.1999999995005,4.575239e-06,682.1999999995005,0.0001340305,682.1999999995005,5.792623e-06
682.2149999995005,1.369901e-05,682.2149999995005,4.544346e-06,682.2149999995005,0.0001298654,682.2149999995005,5.692045e-06
682.2299999995005,1.32058e-05,682.2299999995005,4.500739e-06,682.2299999995005,0.0001238891,682.2299999995005,5.485359e-06
682.2449999995005,1.359268e-05,682.2449999995005,4.428167e-06,682.2449999995005,0.0001166223,682.2449999995005,5.436346e-06
682.2599999995005,1.330675e-05,682.2599999995005,4.424985e-06,682.2599999995005,0.0001144675,682.2599999995005,5.246463e-06
682.2749999995004,1.32026e-05,682.2749999995004,4.29576e-06,682.2749999995004,0.0001132352,682.2749999995004,5.189773e-06
682.2899999995004,1.396381e-05,682.2899999995004,4.279333e-06,682.2899999995004,0.0001169205,682.2899999995004,5.350154e-06
682.3049999995004,1.417109e-05,682.3049999995004,4.440873e-06,682.3049999995004,0.0001212365,682.3049999995004,5.93674e-06
682.3199999995004,1.454101e-05,682.3199999995004,4.500739e-06,682.3199999995004,0.0001259062,682.3199999995004,6.450741e-06
682.3349999995004,1.466353e-05,682.3349999995004,4.35762e-06,682.3349999995004,0.0001110296,682.3349999995004,6.515924e-06
682.3499999995004,1.921855e-05,682.3499999995004,4.285911e-06,682.3499999995004,0.0001163491,682.3499999995004,6.709772e-06
682.3649999995004,2.239891e-05,682.3649999995004,4.663672e-06,682.3649999995004,0.0001230444,682.3649999995004,6.892046e-06
682.3799999995003,2.292909e-05,682.3799999995003,4.962209e-06,682.3799999995003,0.000131429,682.3799999995003,6.987449e-06
682.3949999995003,2.427381e-05,682.3949999995003,5.394728e-06,682.3949999995003,0.0001392756,682.3949999995003,7.00557e-06
682.4099999995003,2.509557e-05,682.4099999995003,5.841057e-06,682.4099999995003,0.0001466237,682.4099999995003,7.03967e-06
682.4249999995003,2.761668e-05,682.4249999995003,6.051891e-06,682.4249999995003,0.0001524542,682.4249999995003,6.424483e-06
682.4399999995003,2.793013e-05,682.4399999995003,6.271365e-06,682.4399999995003,0.0001629394,682.4399999995003,6.230803e-06
682.4549999995003,3.041917e-05,682.4549999995003,7.704628e-06,682.4549999995003,0.0001723767,682.4549999995003,6.230803e-06
682.4699999995003,3.396656e-05,682.4699999995003,1.080381e-05,682.4699999995003,0.0001759088,682.4699999995003,7.233115e-06
682.4849999995002,3.487873e-05,682.4849999995002,1.088564e-05,682.4849999995002,0.0002102657,682.4849999995002,1.015869e-05
682.4999999995002,3.480191e-05,682.4999999995002,1.128466e-05,682.4999999995002,0.0002175472,682.4999999995002,1.716335e-05
682.5149999995002,3.531382e-05,682.5149999995002,1.214793e-05,682.5149999995002,0.0002264146,682.5149999995002,2.333346e-05
682.5299999995002,3.585811e-05,682.5299999995002,1.364233e-05,682.5299999995002,0.0002461673,682.5299999995002,3.366246e-05
682.5449999995002,3.631988e-05,682.5449999995002,1.530929e-05,682.5449999995002,0.0002493795,682.5449999995002,4.90634e-05
682.5599999995002,3.860752e-05,682.5599999995002,1.557475e-05,682.5599999995002,0.000294891,682.5599999995002,6.984969e-05
682.5749999995002,4.089222e-05,682.5749999995002,1.753683e-05,682.5749999995002,0.0002981692,682.5749999995002,7.584409e-05
682.5899999995002,4.223769e-05,682.5899999995002,1.794182e-05,682.5899999995002,0.0003108816,682.5899999995002,7.860579e-05
682.6049999995001,4.090324e-05,682.6049999995001,2.044387e-05,682.6049999995001,0.0003640839,682.6049999995001,7.877371e-05
682.6199999995001,4.15565e-05,682.6199999995001,2.342805e-05,682.6199999995001,0.0003709397,682.6199999995001,7.878605e-05
682.6349999995001,4.160664e-05,682.6349999995001,2.391366e-05,682.6349999995001,0.0004400875,682.6349999995001,7.882465e-05
682.6499999995001,4.391239e-05,682.6499999995001,2.423373e-05,682.6499999995001,0.0005240452,682.6499999995001,7.884896e-05
682.6649999995001,6.58166e-05,682.6649999995001,2.46184e-05,682.6649999995001,0.000592032,682.6649999995001,7.894198e-05
682.6799999995001,6.766906e-05,682.6799999995001,2.586839e-05,682.6799999995001,0.000606295,682.6799999995001,7.894608e-05
682.6949999995,9.983517e-05,682.6949999995,3.004361e-05,682.6949999995,0.0006098947,682.6949999995,7.896838e-05
682.7099999995,0.0001093829,682.7099999995,3.05001e-05,682.7099999995,0.0006363568,682.7099999995,7.899193e-05
682.7249999995,0.0001291433,682.7249999995,2.973586e-05,682.7249999995,0.0007209607,682.7249999995,7.887307e-05
682.7399999995,0.0001410791,682.7399999995,2.992569e-05,682.7399999995,0.0007620435,682.7399999995,7.784984e-05
682.7549999995,0.0001415012,682.7549999995,2.99605e-05,682.7549999995,0.00076598,682.7549999995,7.726518e-05
682.7699999995,0.0001456816,682.7699999995,2.922843e-05,682.7699999995,0.0007788693,682.7699999995,7.350896e-05
682.7849999995,0.0001462155,682.7849999995,2.864622e-05,682.7849999995,0.0007867219,682.7849999995,7.12733e-05
682.7999999995,0.0001460633,682.7999999995,2.831483e-05,682.7999999995,0.0007934435,682.7999999995,4.870521e-05
682.8149999995,0.0001471731,682.8149999995,2.774848e-05,682.8149999995,0.0007925566,682.8149999995,3.047931e-05
682.8299999994999,0.0001465407,682.8299999994999,2.697573e-05,682.8299999994999,0.0007958176,682.8299999994999,1.842599e-05
682.8449999994999,0.0001463022,682.8449999994999,2.640253e-05,682.8449999994999,0.0007799889,682.8449999994999,9.602679e-06
682.8599999994999,0.0001459886,682.8599999994999,2.403294e-05,682.8599999994999,0.0007632936,682.8599999994999,8.340267e-06
682.8749999994999,0.0001459648,682.8749999994999,2.189001e-05,682.8749999994999,0.0007501857,682.8749999994999,8.331817e-06
682.8899999994999,0.0001464804,682.8899999994999,2.117496e-05,682.8899999994999,0.0007143343,682.8899999994999,8.002378e-06
682.9049999994999,0.0001431938,682.9049999994999,2.091054e-05,682.9049999994999,0.0006596358,682.9049999994999,7.773794e-06
682.9199999994999,0.0001363295,682.9199999994999,2.04948e-05,682.9199999994999,0.0006005103,682.9199999994999,7.035667e-06
682.9349999994998,0.0001265929,682.9349999994998,1.610216e-05,682.9349999994998,0.0005973538,682.9349999994998,7.133099e-06
682.9499999994998,0.0001083253,682.9499999994998,8.869049e-06,682.9499999994998,0.0005774353,682.9499999994998,6.737009e-06
682.9649999994998,8.912937e-05,682.9649999994998,8.560311e-06,682.9649999994998,0.0005251055,682.9649999994998,6.616753e-06
682.9799999994998,6.397258e-05,682.9799999994998,7.638524e-06,682.9799999994998,0.0004120316,682.9799999994998,6.316129e-06
682.9949999994998,5.178414e-05,682.9949999994998,6.713969e-06,682.9949999994998,0.0003389161,682.9949999994998,6.500773e-06
683.0099999994998,5.046376e-05,683.0099999994998,6.457289e-06,683.0099999994998,0.0003293047,683.0099999994998,6.692956e-06
683.0249999994998,3.890556e-05,683.0249999994998,5.701935e-06,683.0249999994998,0.0003036039,683.0249999994998,6.515924e-06
683.0399999994997,3.518594e-05,683.0399999994997,5.469929e-06,683.0399999994997,0.0002948878,683.0399999994997,6.459471e-06
683.0549999994997,3.42182e-05,683.0549999994997,5.467352e-06,683.0549999994997,0.0002730174,683.0549999994997,6.158032e-06
683.0699999994997,2.913671e-05,683.0699999994997,5.438937e-06,683.0699999994997,0.0002566767,683.0699999994997,6.75163e-06
683.0849999994997,2.986255e-05,683.0849999994997,5.632336e-06,683.0849999994997,0.0002748758,683.0849999994997,7.197973e-06
683.0999999994997,3.118971e-05,683.0999999994997,5.612292e-06,683.0999999994997,0.0003042913,683.0999999994997,7.455606e-06
683.1149999994997,3.153065e-05,683.1149999994997,5.551726e-06,683.1149999994997,0.0003069904,683.1149999994997,7.480127e-06
683.1299999994997,2.889641e-05,683.1299999994997,5.495621e-06,683.1299999994997,0.0002997536,683.1299999994997,7.412022e-06
683.1449999994996,2.785286e-05,683.1449999994996,5.544109e-06,683.1449999994996,0.0003099494,683.1449999994996,8.943388e-06
683.1599999994996,2.772461e-05,683.1599999994996,5.363302e-06,683.1599999994996,0.0003116888,683.1599999994996,8.811686e-06
683.1749999994996,2.686427e-05,683.1749999994996,4.711753e-06,683.1749999994996,0.0003148157,683.1749999994996,8.935509e-06
683.1899999994996,2.607018e-05,683.1899999994996,4.318654e-06,683.1899999994996,0.000314659,683.1899999994996,8.794083e-06
683.2049999994996,2.574831e-05,683.2049999994996,4.312125e-06,683.2049999994996,0.0003148747,683.2049999994996,8.878575e-06
683.2199999994996,2.685273e-05,683.2199999994996,4.29576e-06,683.2199999994996,0.0003137635,683.2199999994996,8.949686e-06
683.2349999994996,2.675182e-05,683.2349999994996,4.4218e-06,683.2349999994996,0.0003117541,683.2349999994996,8.981111e-06
683.2499999994996,2.638599e-05,683.2499999994996,4.338181e-06,683.2499999994996,0.000313274,683.2499999994996,8.905506e-06
683.2649999994995,2.613063e-05,683.2649999994995,4.36408e-06,683.2649999994995,0.0003173354,683.2649999994995,9.031162e-06
683.2799999994995,2.697468e-05,683.2799999994995,4.38019e-06,683.2799999994995,0.0003237976,683.2799999994995,9.184283e-06
683.2949999994995,2.995862e-05,683.2949999994995,4.434525e-06,683.2949999994995,0.0003393783,683.2949999994995,9.316767e-06
683.3099999994995,3.475006e-05,683.3099999994995,4.305587e-06,683.3099999994995,0.0003494543,683.3099999994995,9.295575e-06
683.3249999994995,3.658151e-05,683.3249999994995,4.453544e-06,683.3249999994995,0.0003467936,683.3249999994995,8.699061e-06
683.3399999994995,3.783055e-05,683.3399999994995,4.249604e-06,683.3399999994995,0.0003203859,683.3399999994995,8.166172e-06
683.3549999994995,3.663154e-05,683.3549999994995,4.584466e-06,683.3549999994995,0.0003120866,683.3549999994995,8.228038e-06
683.3699999994994,3.629194e-05,683.3699999994994,4.702775e-06,683.3699999994994,0.0003079713,683.3699999994994,8.482616e-06
683.3849999994994,3.560541e-05,683.3849999994994,4.771172e-06,683.3849999994994,0.0003057572,683.3849999994994,9.088692e-06
683.3999999994994,3.574677e-05,683.3999999994994,4.832776e-06,683.3999999994994,0.0002964353,683.3999999994994,8.122932e-06
683.4149999994994,3.650519e-05,683.4149999994994,4.882076e-06,683.4149999994994,0.0002920115,683.4149999994994,8.28094e-06
683.4299999994994,3.786703e-05,683.4299999994994,5.137942e-06,683.4299999994994,0.0002923369,683.4299999994994,8.338578e-06
683.4449999994994,3.831635e-05,683.4449999994994,5.441526e-06,683.4449999994994,0.0002910745,683.4449999994994,8.377342e-06
683.4599999994994,3.8381e-05,683.4599999994994,1.134194e-05,683.4599999994994,0.0002896639,683.4599999994994,8.420948e-06
683.4749999994993,3.808366e-05,683.4749999994993,1.142608e-05,683.4749999994993,0.0002896131,683.4749999994993,8.845193e-06
683.4899999994993,3.793059e-05,683.4899999994993,1.16797e-05,683.4899999994993,0.0002863994,683.4899999994993,9.456335e-06
683.5049999994993,3.734447e-05,683.5049999994993,1.176383e-05,683.5049999994993,0.0002749178,683.5049999994993,9.390561e-06
683.5199999994993,3.751271e-05,683.5199999994993,1.547858e-05,683.5199999994993,0.0002510556,683.5199999994993,9.147398e-06
683.5349999994993,3.740742e-05,683.5349999994993,2.043629e-05,683.5349999994993,0.0002415821,683.5349999994993,8.990517e-06
683.5499999994993,3.184406e-05,683.5499999994993,2.407276e-05,683.5499999994993,0.0001927176,683.5499999994993,8.91973e-06
683.5649999994993,3.176034e-05,683.5649999994993,2.963478e-05,683.5649999994993,0.0001566748,683.5649999994993,9.029603e-06
683.5799999994993,3.194388e-05,683.5799999994993,3.291857e-05,683.5799999994993,0.0001577844,683.5799999994993,9.101082e-06
683.5949999994992,3.457654e-05,683.5949999994992,3.363483e-05,683.5949999994992,0.0001615598,683.5949999994992,9.156633e-06
683.6099999994992,3.465589e-05,683.6099999994992,3.369006e-05,683.6099999994992,0.0001433828,683.6099999994992,9.389061e-06
683.6249999994992,4.643664e-05,683.6249999994992,3.369299e-05,683.6249999994992,0.0001404928,683.6249999994992,9.096438e-06
