X[s],a: EMG RMS 1-1,X[s].1,a: EMG RMS 1-2,X[s].2,a: EMG RMS 1-3,X[s].3,a: EMG RMS 1-4
609.0149999995671,1.770074e-05,609.0149999995671,2.497572e-05,609.0149999995671,0.0001605399,609.0149999995671,5.986361e-06
609.029999999567,2.861226e-05,609.029999999567,3.268753e-05,609.029999999567,0.0001593443,609.029999999567,6.075122e-06
609.044999999567,4.930198e-05,609.044999999567,3.46258e-05,609.044999999567,0.0001616626,609.044999999567,7.998858e-06
609.059999999567,9.430917e-05,609.059999999567,3.643334e-05,609.059999999567,0.0001618346,609.059999999567,9.176611e-06
609.074999999567,0.0001069737,609.074999999567,3.694247e-05,609.074999999567,0.000162239,609.074999999567,9.76271e-06
609.089999999567,0.0001193513,609.089999999567,3.721108e-05,609.089999999567,0.0001581887,609.089999999567,1.007655e-05
609.104999999567,0.0001239171,609.104999999567,3.785251e-05,609.104999999567,0.0001679929,609.104999999567,1.153284e-05
609.119999999567,0.0001241719,609.119999999567,3.887477e-05,609.119999999567,0.0001601928,609.119999999567,1.232292e-05
609.134999999567,0.0001246622,609.134999999567,3.920098e-05,609.134999999567,0.0001642612,609.134999999567,1.340904e-05
609.149999999567,0.0001273898,609.149999999567,3.919127e-05,609.149999999567,0.0001639336,609.149999999567,1.35418e-05
609.1649999995669,0.0001284539,609.1649999995669,3.910347e-05,609.1649999995669,0.0001634793,609.1649999995669,1.420485e-05
609.1799999995669,0.0001383212,609.1799999995669,3.903171e-05,609.1799999995669,0.0001676135,609.1799999995669,1.420187e-05
609.1949999995669,0.0001442076,609.1949999995669,3.892402e-05,609.1949999995669,0.0001612948,609.1949999995669,1.423655e-05
609.2099999995669,0.0001448881,609.2099999995669,3.887658e-05,609.2099999995669,0.0001848055,609.2099999995669,1.419195e-05
609.2249999995669,0.0001465171,609.2249999995669,3.881203e-05,609.2249999995669,0.0001917837,609.2249999995669,1.418202e-05
609.2399999995669,0.0001471561,609.2399999995669,3.8617e-05,609.2399999995669,0.000188584,609.2399999995669,1.404829e-05
609.2549999995668,0.0001476324,609.2549999995668,3.737125e-05,609.2549999995668,0.0001877265,609.2549999995668,1.397187e-05
609.2699999995668,0.0001470747,609.2699999995668,3.157217e-05,609.2699999995668,0.0001881359,609.2699999995668,1.376978e-05
609.2849999995668,0.0001445937,609.2849999995668,2.61441e-05,609.2849999995668,0.0001903717,609.2849999995668,1.378409e-05
609.2999999995668,0.0001367893,609.2999999995668,2.320815e-05,609.2999999995668,0.0001890427,609.2999999995668,1.196566e-05
609.3149999995668,0.0001034861,609.3149999995668,1.911861e-05,609.3149999995668,0.0001902378,609.3149999995668,1.18628e-05
609.3299999995668,9.730466e-05,609.3299999995668,1.852435e-05,609.3299999995668,0.000188706,609.3299999995668,1.14544e-05
609.3449999995668,8.445619e-05,609.3449999995668,1.706128e-05,609.3449999995668,0.0001787946,609.3449999995668,1.078031e-05
609.3599999995668,8.210007e-05,609.3599999995668,1.595186e-05,609.3599999995668,0.0001783211,609.3599999995668,8.984247e-06
609.3749999995667,8.144286e-05,609.3749999995667,1.334058e-05,609.3749999995667,0.0001744248,609.3749999995667,7.851327e-06
609.3899999995667,8.069378e-05,609.3899999995667,1.280174e-05,609.3899999995667,0.0001737677,609.3899999995667,7.033664e-06
609.4049999995667,7.493486e-05,609.4049999995667,1.324946e-05,609.4049999995667,0.0001782295,609.4049999995667,5.61731e-06
609.4199999995667,7.104208e-05,609.4199999995667,1.313628e-05,609.4199999995667,0.0001765393,609.4199999995667,5.549188e-06
609.4349999995667,4.318262e-05,609.4349999995667,1.315771e-05,609.4349999995667,0.0001809117,609.4349999995667,6.091332e-06
609.4499999995667,3.357992e-05,609.4499999995667,1.316306e-05,609.4499999995667,0.0001770197,609.4499999995667,6.444187e-06
609.4649999995667,3.014051e-05,609.4649999995667,1.302969e-05,609.4649999995667,0.0001479339,609.4649999995667,6.395915e-06
609.4799999995666,2.736149e-05,609.4799999995666,1.272448e-05,609.4799999995666,0.0001332423,609.4799999995666,6.431058e-06
609.4949999995666,2.542348e-05,609.4949999995666,1.429875e-05,609.4949999995666,0.0001301371,609.4949999995666,6.468188e-06
609.5099999995666,2.417787e-05,609.5099999995666,1.445551e-05,609.5099999995666,0.0001307076,609.5099999995666,6.563313e-06
609.5249999995666,2.366793e-05,609.5249999995666,1.443308e-05,609.5249999995666,0.0001363867,609.5249999995666,6.597564e-06
609.5399999995666,2.43254e-05,609.5399999995666,1.421674e-05,609.5399999995666,0.0001355139,609.5399999995666,6.559019e-06
609.5549999995666,2.475876e-05,609.5549999995666,1.404127e-05,609.5549999995666,0.0001371033,609.5549999995666,6.481242e-06
609.5699999995666,2.48938e-05,609.5699999995666,1.384324e-05,609.5699999995666,0.0001338545,609.5699999995666,6.552573e-06
609.5849999995665,2.394427e-05,609.5849999995665,1.376773e-05,609.5849999995665,0.0001334709,609.5849999995665,6.442001e-06
609.5999999995665,2.406516e-05,609.5999999995665,1.421575e-05,609.5999999995665,0.0001321518,609.5999999995665,6.64861e-06
609.6149999995665,2.359342e-05,609.6149999995665,1.423556e-05,609.6149999995665,0.000142185,609.6149999995665,6.816002e-06
609.6299999995665,2.35964e-05,609.6299999995665,1.420881e-05,609.6299999995665,0.000143757,609.6299999995665,6.830453e-06
609.6449999995665,2.352945e-05,609.6449999995665,1.336063e-05,609.6449999995665,0.0001459789,609.6449999995665,7.037669e-06
609.6599999995665,2.280033e-05,609.6599999995665,1.241744e-05,609.6599999995665,0.0001435702,609.6599999995665,6.745368e-06
609.6749999995665,2.268574e-05,609.6749999995665,1.225414e-05,609.6749999995665,0.0001336273,609.6749999995665,6.420096e-06
609.6899999995665,2.221705e-05,609.6899999995665,1.205947e-05,609.6899999995665,0.0001320767,609.6899999995665,6.160319e-06
609.7049999995664,2.199786e-05,609.7049999995664,1.207232e-05,609.7049999995664,0.0001377655,609.7049999995664,5.738873e-06
609.7199999995664,2.110566e-05,609.7199999995664,1.267456e-05,609.7199999995664,0.0001456916,609.7199999995664,5.946224e-06
609.7349999995664,1.967563e-05,609.7349999995664,1.182593e-05,609.7349999995664,0.0001540149,609.7349999995664,6.125922e-06
609.7499999995664,1.903221e-05,609.7499999995664,9.877468e-06,609.7499999995664,0.0001534641,609.7499999995664,6.107498e-06
609.7649999995664,1.723788e-05,609.7649999995664,9.964083e-06,609.7649999995664,0.0001537143,609.7649999995664,5.988714e-06
609.7799999995664,1.664418e-05,609.7799999995664,9.947104e-06,609.7799999995664,0.0001586757,609.7799999995664,6.061194e-06
609.7949999995664,1.60566e-05,609.7949999995664,1.08934e-05,609.7949999995664,0.0001586732,609.7949999995664,5.967507e-06
609.8099999995663,1.564063e-05,609.8099999995663,1.074366e-05,609.8099999995663,0.0001594252,609.8099999995663,6.121322e-06
609.8249999995663,1.542479e-05,609.8249999995663,1.144825e-05,609.8249999995663,0.0001574518,609.8249999995663,6.217223e-06
609.8399999995663,1.565414e-05,609.8399999995663,1.087787e-05,609.8399999995663,0.0001577714,609.8399999995663,6.183143e-06
609.8549999995663,1.578675e-05,609.8549999995663,1.069504e-05,609.8549999995663,0.0001627936,609.8549999995663,5.826569e-06
609.8699999995663,1.572327e-05,609.8699999995663,1.074497e-05,609.8699999995663,0.0001557097,609.8699999995663,5.587136e-06
609.8849999995663,1.591473e-05,609.8849999995663,1.083636e-05,609.8849999995663,0.0001557918,609.8849999995663,5.216845e-06
609.8999999995663,1.563613e-05,609.8999999995663,1.079207e-05,609.8999999995663,0.0001534395,609.8999999995663,5.235713e-06
609.9149999995662,1.586597e-05,609.9149999995662,1.150594e-05,609.9149999995662,0.0001517831,609.9149999995662,5.523745e-06
609.9299999995662,1.57546e-05,609.9299999995662,1.158525e-05,609.9299999995662,0.0001517127,609.9299999995662,5.446701e-06
609.9449999995662,1.556389e-05,609.9449999995662,1.160711e-05,609.9449999995662,0.0001620488,609.9449999995662,5.467352e-06
609.9599999995662,1.522717e-05,609.9599999995662,1.164104e-05,609.9599999995662,0.0001597716,609.9599999995662,5.446701e-06
609.9749999995662,1.473349e-05,609.9749999995662,1.107551e-05,609.9749999995662,0.0001491741,609.9749999995662,5.259872e-06
609.9899999995662,1.436656e-05,609.9899999995662,1.05358e-05,609.9899999995662,0.0001429095,609.9899999995662,5.200618e-06
610.0049999995662,1.403826e-05,610.0049999995662,1.019192e-05,610.0049999995662,0.000139902,610.0049999995662,5.392116e-06
610.0199999995662,1.374828e-05,610.0199999995662,1.027999e-05,610.0199999995662,0.0001431777,610.0199999995662,5.342249e-06
610.0349999995661,1.352827e-05,610.0349999995661,1.060908e-05,610.0349999995661,0.0001412683,610.0349999995661,5.469929e-06
610.0499999995661,1.301454e-05,610.0499999995661,9.903105e-06,610.0499999995661,0.0001379947,610.0499999995661,5.381656e-06
610.0649999995661,1.305669e-05,610.0649999995661,1.041342e-05,610.0649999995661,0.0001403582,610.0649999995661,5.614802e-06
610.0799999995661,1.271783e-05,610.0799999995661,1.051037e-05,610.0799999995661,0.0001408277,610.0799999995661,5.546649e-06
610.0949999995661,1.25775e-05,610.0949999995661,1.074891e-05,610.0949999995661,0.0001481645,610.0949999995661,5.865124e-06
610.1099999995661,1.256405e-05,610.1099999995661,1.058382e-05,610.1099999995661,0.0001426789,610.1099999995661,5.910582e-06
610.1249999995661,1.255957e-05,610.1249999995661,1.034011e-05,610.1249999995661,0.0001425506,610.1249999995661,5.984008e-06
610.139999999566,1.339853e-05,610.139999999566,1.03904e-05,610.139999999566,0.0001381233,610.139999999566,6.019215e-06
610.154999999566,1.331098e-05,610.154999999566,1.017394e-05,610.154999999566,0.0001393491,610.154999999566,5.965146e-06
610.169999999566,1.301671e-05,610.169999999566,1.08025e-05,610.169999999566,0.0001394504,610.169999999566,5.624828e-06
610.184999999566,1.302969e-05,610.184999999566,1.082985e-05,610.184999999566,0.0001362432,610.184999999566,5.612292e-06
610.199999999566,1.32792e-05,610.199999999566,1.084025e-05,610.199999999566,0.0001257509,610.199999999566,5.896265e-06
610.214999999566,1.334481e-05,610.214999999566,1.077508e-05,610.214999999566,0.0001271501,610.214999999566,5.826569e-06
610.229999999566,1.315343e-05,610.229999999566,1.05358e-05,610.229999999566,0.0001292399,610.229999999566,6.061194e-06
610.244999999566,1.297443e-05,610.244999999566,1.165797e-05,610.244999999566,0.000130824,610.244999999566,5.946224e-06
610.2599999995659,1.312985e-05,610.2599999995659,1.157065e-05,610.2599999995659,0.0001492746,610.2599999995659,6.063518e-06
610.2749999995659,1.308794e-05,610.2749999995659,1.223228e-05,610.2749999995659,0.0001443003,610.2749999995659,6.189974e-06
610.2899999995659,1.31073e-05,610.2899999995659,1.18806e-05,610.2899999995659,0.0001465822,610.2899999995659,6.05887e-06
610.3049999995659,1.294726e-05,610.3049999995659,1.189245e-05,610.3049999995659,0.0001468717,610.3049999995659,6.155743e-06
610.3199999995659,1.265343e-05,610.3199999995659,1.110345e-05,610.3199999995659,0.0001486254,610.3199999995659,6.070483e-06
610.3349999995659,1.271562e-05,610.3349999995659,1.109584e-05,610.3349999995659,0.0001452143,610.3349999995659,5.965146e-06
610.3499999995659,1.267012e-05,610.3499999995659,1.100917e-05,610.3499999995659,0.0001401289,610.3499999995659,5.579567e-06
610.3649999995658,1.229775e-05,610.3649999995658,1.108059e-05,610.3649999995658,0.0001366693,610.3649999995658,5.61731e-06
610.3799999995658,1.170982e-05,610.3799999995658,1.114398e-05,610.3799999995658,0.0001462722,610.3799999995658,5.561867e-06
610.3949999995658,1.196919e-05,610.3949999995658,1.335852e-05,610.3949999995658,0.0001475399,610.3949999995658,5.549188e-06
610.4099999995658,1.217341e-05,610.4099999995658,1.259988e-05,610.4099999995658,0.0001508268,610.4099999995658,5.736418e-06
610.4249999995658,1.214213e-05,610.4249999995658,1.287744e-05,610.4249999995658,0.0001559338,610.4249999995658,5.790191e-06
610.4399999995658,1.210145e-05,610.4399999995658,1.2884e-05,610.4399999995658,0.000159128,610.4399999995658,5.799914e-06
610.4549999995658,1.174585e-05,610.4549999995658,1.305776e-05,610.4549999995658,0.0001578721,610.4549999995658,5.582091e-06
610.4699999995657,1.162167e-05,610.4699999995657,1.386459e-05,610.4699999995657,0.0001561626,610.4699999995657,5.795054e-06
610.4849999995657,1.166039e-05,610.4849999995657,1.350848e-05,610.4849999995657,0.0001605574,610.4849999995657,5.594695e-06
610.4999999995657,1.152551e-05,610.4999999995657,1.303941e-05,610.4999999995657,0.0001520251,610.4999999995657,5.475077e-06
610.5149999995657,1.156456e-05,610.5149999995657,1.310837e-05,610.5149999995657,0.0001479499,610.5149999995657,5.270573e-06
610.5299999995657,1.135931e-05,610.5299999995657,1.542388e-05,610.5299999995657,0.0001456962,610.5299999995657,5.115961e-06
610.5449999995657,1.120071e-05,610.5449999995657,1.545034e-05,610.5449999995657,0.0001454787,610.5449999995657,5.178904e-06
610.5599999995657,1.133324e-05,610.5599999995657,1.522717e-05,610.5599999995657,0.0001470424,610.5599999995657,5.035477e-06
610.5749999995656,1.18628e-05,610.5749999995656,1.516785e-05,610.5749999995656,0.0001480358,610.5749999995656,4.896482e-06
610.5899999995656,1.189718e-05,610.5899999995656,1.535981e-05,610.5899999995656,0.0001482897,610.5899999995656,4.936594e-06
610.6049999995656,1.233892e-05,610.6049999995656,1.565773e-05,610.6049999995656,0.000146533,610.6049999995656,4.919443e-06
610.6199999995656,1.239814e-05,610.6199999995656,1.562802e-05,610.6199999995656,0.0001434909,610.6199999995656,5.469929e-06
610.6349999995656,1.237312e-05,610.6349999995656,1.562982e-05,610.6349999995656,0.0001373937,610.6349999995656,5.549188e-06
610.6499999995656,1.215024e-05,610.6499999995656,1.364337e-05,610.6499999995656,0.0001396808,610.6499999995656,5.571988e-06
610.6649999995656,1.233892e-05,610.6649999995656,1.413027e-05,610.6649999995656,0.0001546339,610.6649999995656,6.03324e-06
610.6799999995656,1.252812e-05,610.6799999995656,1.388997e-05,610.6799999995656,0.0001467601,610.6799999995656,6.522406e-06
610.6949999995655,1.303833e-05,610.6949999995655,1.507376e-05,610.6949999995655,0.0001588253,610.6949999995655,7.025649e-06
610.7099999995655,1.416115e-05,610.7099999995655,1.646207e-05,610.7099999995655,0.0001771367,610.7099999995655,7.777418e-06
610.7249999995655,1.839615e-05,610.7249999995655,1.912524e-05,610.7249999995655,0.0001900218,610.7249999995655,7.879981e-06
610.7399999995655,2.416913e-05,610.7399999995655,3.664269e-05,610.7399999995655,0.0003095892,610.7399999995655,1.144825e-05
610.7549999995655,3.78313e-05,610.7549999995655,4.516891e-05,610.7549999995655,0.0003230618,610.7549999995655,1.186161e-05
610.7699999995655,5.701515e-05,610.7699999995655,4.689967e-05,610.7699999995655,0.0003582068,610.7699999995655,1.206882e-05
610.7849999995655,7.151599e-05,610.7849999995655,4.763844e-05,610.7849999995655,0.0003642722,610.7849999995655,1.230805e-05
610.7999999995654,7.173744e-05,610.7999999995654,4.995623e-05,610.7999999995654,0.0003642328,610.7999999995654,1.263672e-05
610.8149999995654,7.624809e-05,610.8149999995654,5.025116e-05,610.8149999995654,0.0003626567,610.8149999995654,1.669235e-05
610.8299999995654,7.920012e-05,610.8299999995654,5.09087e-05,610.8299999995654,0.0003614544,610.8299999995654,2.210135e-05
610.8449999995654,8.035474e-05,610.8449999995654,5.220786e-05,610.8449999995654,0.0003741485,610.8449999995654,2.585641e-05
610.8599999995654,8.253593e-05,610.8599999995654,5.278105e-05,610.8599999995654,0.0004863381,610.8599999995654,2.793972e-05
610.8749999995654,8.38499e-05,610.8749999995654,5.2828e-05,610.8749999995654,0.0005255923,610.8749999995654,2.819418e-05
610.8899999995654,8.457837e-05,610.8899999995654,5.294094e-05,610.8899999995654,0.0007299226,610.8899999995654,2.819967e-05
610.9049999995653,9.344651e-05,610.9049999995653,5.335072e-05,610.9049999995653,0.0008504581,610.9049999995653,2.822713e-05
610.9199999995653,9.799076e-05,610.9199999995653,5.385869e-05,610.9199999995653,0.0008544649,610.9199999995653,2.808103e-05
610.9349999995653,9.885422e-05,610.9349999995653,5.394597e-05,610.9349999995653,0.0008560928,610.9349999995653,2.807752e-05
610.9499999995653,0.000103706,610.9499999995653,5.377754e-05,610.9499999995653,0.0008583303,610.9499999995653,2.78655e-05
610.9649999995653,0.0001041534,610.9649999995653,5.292657e-05,610.9649999995653,0.0008595694,610.9649999995653,2.771292e-05
610.9799999995653,0.0001038119,610.9799999995653,4.769548e-05,610.9799999995653,0.0008673691,610.9799999995653,2.754109e-05
610.9949999995653,0.0001002451,610.9949999995653,3.953411e-05,610.9949999995653,0.000836737,610.9949999995653,2.634752e-05
611.0099999995653,9.839517e-05,611.0099999995653,3.240881e-05,611.0099999995653,0.0008330744,611.0099999995653,2.615003e-05
611.0249999995652,8.04138e-05,611.0249999995652,3.175812e-05,611.0249999995652,0.0008262544,611.0249999995652,2.605018e-05
611.0399999995652,7.786957e-05,611.0399999995652,2.644944e-05,611.0399999995652,0.0008272339,611.0399999995652,2.592551e-05
611.0549999995652,7.649139e-05,611.0549999995652,2.508939e-05,611.0549999995652,0.0008282547,611.0549999995652,2.553406e-05
611.0699999995652,7.3699e-05,611.0699999995652,2.449161e-05,611.0699999995652,0.0008295129,611.0699999995652,1.871575e-05
611.0849999995652,7.191081e-05,611.0849999995652,2.286326e-05,611.0849999995652,0.0008287126,611.0849999995652,1.582686e-05
611.0999999995652,7.053903e-05,611.0999999995652,2.09489e-05,611.0999999995652,0.000809954,611.0999999995652,7.883556e-06
611.1149999995652,6.827875e-05,611.1149999995652,1.92771e-05,611.1149999995652,0.0007208936,611.1149999995652,6.139704e-06
611.1299999995651,6.515362e-05,611.1299999995651,1.940456e-05,611.1299999995651,0.0006833629,611.1299999995651,5.032679e-06
611.1449999995651,6.22413e-05,611.1449999995651,1.835169e-05,611.1449999995651,0.0004038615,611.1449999995651,5.358047e-06
611.1599999995651,4.93394e-05,611.1599999995651,1.822537e-05,611.1599999995651,0.0002610328,611.1599999995651,5.157098e-06
611.1749999995651,4.266839e-05,611.1749999995651,1.58482e-05,611.1749999995651,0.0002513919,611.1749999995651,5.126963e-06
611.1899999995651,3.863888e-05,611.1899999995651,1.542388e-05,611.1899999995651,0.0002574097,611.1899999995651,5.307859e-06
611.2049999995651,2.849831e-05,611.2049999995651,1.448958e-05,611.2049999995651,0.0002518002,611.2049999995651,5.376418e-06
611.2199999995651,2.778146e-05,611.2199999995651,1.399001e-05,611.2199999995651,0.0002398659,611.2199999995651,5.415577e-06
611.234999999565,2.707893e-05,611.234999999565,1.476215e-05,611.234999999565,0.0002063032,611.234999999565,5.379038e-06
611.249999999565,2.548602e-05,611.249999999565,1.35418e-05,611.249999999565,0.0001821152,611.249999999565,5.397339e-06
611.264999999565,2.301616e-05,611.264999999565,1.23754e-05,611.264999999565,0.0001493667,611.264999999565,5.360675e-06
611.279999999565,2.344127e-05,611.279999999565,1.189955e-05,611.279999999565,0.0001389323,611.279999999565,5.291911e-06
611.294999999565,2.269754e-05,611.294999999565,1.214561e-05,611.294999999565,0.00013336,611.294999999565,5.278585e-06
611.309999999565,2.183847e-05,611.309999999565,1.240723e-05,611.309999999565,0.0001311923,611.309999999565,5.243778e-06
611.324999999565,2.170908e-05,611.324999999565,1.147284e-05,611.324999999565,0.000126918,611.324999999565,5.211442e-06
611.339999999565,2.059285e-05,611.339999999565,1.064487e-05,611.339999999565,0.0001271222,611.339999999565,5.386888e-06
611.3549999995649,2.042043e-05,611.3549999995649,1.079337e-05,611.3549999995649,0.0001274115,611.3549999995649,5.462197e-06
611.3699999995649,2.019499e-05,611.3699999995649,1.084805e-05,611.3699999995649,0.0001190758,611.3699999995649,5.48279e-06
611.3849999995649,2.069793e-05,611.3849999995649,1.095401e-05,611.3849999995649,0.0001181596,611.3849999995649,5.472503e-06
611.3999999995649,2.027922e-05,611.3999999995649,1.064355e-05,611.3999999995649,0.0001151052,611.3999999995649,5.063375e-06
611.4149999995649,1.997476e-05,611.4149999995649,1.132081e-05,611.4149999995649,0.0001145761,611.4149999995649,4.950841e-06
611.4299999995649,1.958665e-05,611.4299999995649,1.121328e-05,611.4299999995649,0.0001027498,611.4299999995649,4.753424e-06
611.4449999995649,1.875786e-05,611.4449999995649,1.106023e-05,611.4449999995649,9.80218e-05,611.4449999995649,4.506994e-06
611.4599999995648,1.549404e-05,611.4599999995648,1.100277e-05,611.4599999995648,9.992839e-05,611.4599999995648,4.447213e-06
611.4749999995648,1.497531e-05,611.4749999995648,1.053312e-05,611.4749999995648,9.668189e-05,611.4749999995648,4.621192e-06
611.4899999995648,1.391024e-05,611.4899999995648,9.921579e-06,611.4899999995648,0.0001017176,611.4899999995648,4.70577e-06
611.5049999995648,1.250449e-05,611.5049999995648,1.086751e-05,611.5049999995648,9.47238e-05,611.5049999995648,4.738583e-06
611.5199999995648,1.238336e-05,611.5199999995648,1.081554e-05,611.5199999995648,9.392286e-05,611.5199999995648,5.00461e-06
611.5349999995648,1.155725e-05,611.5349999995648,1.101557e-05,611.5349999995648,9.451716e-05,611.5349999995648,5.286585e-06
611.5499999995648,1.12296e-05,611.5499999995648,1.067526e-05,611.5499999995648,9.385415e-05,611.5499999995648,5.206033e-06
611.5649999995647,1.103728e-05,611.5649999995647,1.016424e-05,611.5649999995647,8.961389e-05,611.5649999995647,5.289249e-06
611.5799999995647,1.101173e-05,611.5799999995647,1.03019e-05,611.5799999995647,9.329655e-05,611.5799999995647,5.318464e-06
611.5949999995647,1.041883e-05,611.5949999995647,1.059181e-05,611.5949999995647,9.152879e-05,611.5949999995647,5.08004e-06
611.6099999995647,1.043909e-05,611.6099999995647,1.06197e-05,611.6099999995647,8.941656e-05,611.6099999995647,4.970719e-06
611.6249999995647,1.024156e-05,611.6249999995647,1.278963e-05,611.6249999995647,9.06532e-05,611.6249999995647,4.838602e-06
611.6399999995647,9.199609e-06,611.6399999995647,1.27466e-05,611.6399999995647,9.17156e-05,611.6399999995647,4.93374e-06
611.6549999995647,9.429483e-06,611.6549999995647,1.248306e-05,611.6549999995647,9.366379e-05,611.6549999995647,4.905105e-06
611.6699999995647,9.292544e-06,611.6699999995647,1.184021e-05,611.6699999995647,9.631022e-05,611.6699999995647,4.841512e-06
611.6849999995646,9.618801e-06,611.6849999995646,1.232064e-05,611.6849999995646,9.783077e-05,611.6849999995646,4.809401e-06
611.6999999995646,1.020435e-05,611.6999999995646,1.244237e-05,611.6999999995646,9.790921e-05,611.6999999995646,4.896482e-06
611.7149999995646,1.015869e-05,611.7149999995646,1.276758e-05,611.7149999995646,9.654702e-05,611.7149999995646,4.788854e-06
611.7299999995646,1.013092e-05,611.7299999995646,1.362373e-05,611.7299999995646,9.511988e-05,611.7299999995646,4.847328e-06
611.7449999995646,1.001063e-05,611.7449999995646,1.419393e-05,611.7449999995646,8.726708e-05,611.7449999995646,4.841512e-06
611.7599999995646,1.004013e-05,611.7599999995646,1.371648e-05,611.7599999995646,8.704873e-05,611.7599999995646,4.627284e-06
611.7749999995646,1.006536e-05,611.7749999995646,1.356571e-05,611.7749999995646,8.524032e-05,611.7749999995646,4.021382e-06
611.7899999995645,1.021952e-05,611.7899999995645,1.339222e-05,611.7899999995645,8.538215e-05,611.7899999995645,4.007346e-06
611.8049999995645,1.038226e-05,611.8049999995645,1.340484e-05,611.8049999995645,8.643437e-05,611.8049999995645,4.070128e-06
611.8199999995645,1.027588e-05,611.8199999995645,1.33004e-05,611.8199999995645,8.501129e-05,611.8199999995645,4.073587e-06
611.8349999995645,1.005836e-05,611.8349999995645,1.328132e-05,611.8349999995645,8.142072e-05,611.8349999995645,4.049309e-06
611.8499999995645,1.036868e-05,611.8499999995645,1.32898e-05,611.8499999995645,8.254105e-05,611.8499999995645,4.094283e-06
611.8649999995645,9.981033e-06,611.8649999995645,1.31395e-05,611.8649999995645,8.211174e-05,611.8649999995645,4.128545e-06
611.8799999995645,9.871762e-06,611.8799999995645,1.085324e-05,611.8799999995645,7.963293e-05,611.8799999995645,4.302314e-06
611.8949999995644,9.951351e-06,611.8949999995644,1.081554e-05,611.8949999995644,8.05519e-05,611.8949999995644,4.399444e-06
611.9099999995644,9.848904e-06,611.9099999995644,1.098483e-05,611.9099999995644,7.61281e-05,611.9099999995644,4.500739e-06
611.9249999995644,9.952766e-06,611.9249999995644,1.123713e-05,611.9249999995644,8.123192e-05,611.9249999995644,4.519479e-06
611.9399999995644,8.889673e-06,611.9399999995644,1.063693e-05,611.9399999995644,7.861457e-05,611.9399999995644,4.491339e-06
611.9549999995644,8.669864e-06,611.9549999995644,1.047277e-05,611.9549999995644,7.830522e-05,611.9549999995644,4.663672e-06
611.9699999995644,8.81648e-06,611.9699999995644,1.000359e-05,611.9699999995644,8.390162e-05,611.9699999995644,4.636408e-06
611.9849999995644,8.924467e-06,611.9849999995644,9.136613e-06,611.9849999995644,9.069747e-05,611.9849999995644,4.648545e-06
611.9999999995644,8.878575e-06,611.9999999995644,7.910313e-06,611.9999999995644,9.499081e-05,611.9999999995644,4.690778e-06
612.0149999995643,8.970124e-06,612.0149999995643,7.919212e-06,612.0149999995643,9.629501e-05,612.0149999995643,4.732634e-06
612.0299999995643,9.085591e-06,612.0299999995643,8.308113e-06,612.0299999995643,9.62192e-05,612.0299999995643,4.759348e-06
612.0449999995643,8.913411e-06,612.0449999995643,8.373978e-06,612.0449999995643,9.518088e-05,612.0449999995643,4.73561e-06
612.0599999995643,8.692581e-06,612.0599999995643,8.465993e-06,612.0599999995643,9.625638e-05,612.0599999995643,4.699779e-06
612.0749999995643,8.664989e-06,612.0749999995643,8.485937e-06,612.0749999995643,9.61385e-05,612.0749999995643,4.660651e-06
612.0899999995643,8.31828e-06,612.0899999995643,8.449338e-06,612.0899999995643,9.672384e-05,612.0899999995643,4.699779e-06
612.1049999995643,8.545489e-06,612.1049999995643,9.156633e-06,612.1049999995643,0.0001039251,612.1049999995643,4.654602e-06
612.1199999995642,8.395818e-06,612.1199999995642,9.408545e-06,612.1199999995642,0.0001071929,612.1199999995642,4.550541e-06
612.1349999995642,8.373978e-06,612.1349999995642,9.240859e-06,612.1349999995642,0.0001036735,612.1349999995642,4.440873e-06
612.1499999995642,8.253678e-06,612.1499999995642,9.340927e-06,612.1499999995642,0.0001054355,612.1499999995642,4.393035e-06
612.1649999995642,8.072484e-06,612.1649999995642,9.23476e-06,612.1649999995642,0.0001019673,612.1649999995642,4.39624e-06
612.1799999995642,8.171345e-06,612.1799999995642,8.999913e-06,612.1799999995642,0.000102337,612.1799999995642,4.38019e-06
612.1949999995642,8.141986e-06,612.1949999995642,9.439935e-06,612.1949999995642,0.0001027608,612.1949999995642,4.535037e-06
612.2099999995642,8.110784e-06,612.2099999995642,1.130836e-05,612.2099999995642,0.0001007181,612.2099999995642,4.373753e-06
612.2249999995641,8.098617e-06,612.2249999995641,1.163015e-05,612.2249999995641,9.694075e-05,612.2249999995641,4.302314e-06
612.2399999995641,8.171345e-06,612.2399999995641,1.134442e-05,612.2399999995641,9.047588e-05,612.2399999995641,4.242968e-06
612.2549999995641,8.234882e-06,612.2549999995641,1.137047e-05,612.2549999995641,8.964454e-05,612.2549999995641,4.272744e-06
612.2699999995641,8.609537e-06,612.2699999995641,1.131707e-05,612.2699999995641,9.066377e-05,612.2699999995641,4.308857e-06
612.2849999995641,8.442667e-06,612.2849999995641,1.123211e-05,612.2849999995641,9.382833e-05,612.2849999995641,4.376973e-06
612.2999999995641,8.343643e-06,612.2999999995641,1.355428e-05,612.2999999995641,9.382262e-05,612.2999999995641,4.370531e-06
612.3149999995641,8.389105e-06,612.3149999995641,1.401114e-05,612.3149999995641,9.585205e-05,612.3149999995641,4.308857e-06
612.329999999564,8.395818e-06,612.329999999564,1.43145e-05,612.329999999564,9.994644e-05,612.329999999564,4.412233e-06
612.344999999564,8.140256e-06,612.344999999564,1.411731e-05,612.344999999564,9.816296e-05,612.344999999564,4.639445e-06
612.359999999564,8.341955e-06,612.359999999564,1.497343e-05,612.359999999564,9.473525e-05,612.359999999564,4.657627e-06
612.374999999564,8.313199e-06,612.374999999564,1.560186e-05,612.374999999564,9.596867e-05,612.374999999564,4.541245e-06
612.389999999564,8.176516e-06,612.389999999564,1.579478e-05,612.389999999564,0.0001016774,612.389999999564,4.569077e-06
612.404999999564,8.119463e-06,612.404999999564,1.690034e-05,612.404999999564,0.0001193898,612.404999999564,4.867628e-06
612.419999999564,7.998858e-06,612.419999999564,1.872478e-05,612.419999999564,0.0001230623,612.419999999564,4.82986e-06
612.434999999564,7.764728e-06,612.434999999564,1.866224e-05,612.434999999564,0.0001352689,612.434999999564,4.913713e-06
612.4499999995639,7.757469e-06,612.4499999995639,1.818048e-05,612.4499999995639,0.0001408925,612.4499999995639,5.08004e-06
612.4649999995639,8.1264e-06,612.4649999995639,1.791353e-05,612.4649999995639,0.0001404575,612.4649999995639,5.001795e-06
612.4799999995639,8.34702e-06,612.4799999995639,1.817506e-05,612.4799999995639,0.0001414542,612.4799999995639,4.925167e-06
612.4949999995639,8.745896e-06,612.4949999995639,1.819829e-05,612.4949999995639,0.0001431521,612.4949999995639,4.893604e-06
612.5099999995639,1.01767e-05,612.5099999995639,1.817351e-05,612.5099999995639,0.000148337,612.5099999995639,4.893604e-06
612.5249999995639,9.930095e-06,612.5249999995639,1.885224e-05,612.5249999995639,0.0001525135,612.5249999995639,4.861837e-06
612.5399999995639,9.973975e-06,612.5399999995639,1.857523e-05,612.5399999995639,0.0001602111,612.5399999995639,4.79767e-06
612.5549999995638,1.027314e-05,612.5549999995638,1.732347e-05,612.5549999995638,0.0001638093,612.5549999995638,4.896482e-06
612.5699999995638,1.014621e-05,612.5699999995638,1.688784e-05,612.5699999995638,0.0001666137,612.5699999995638,5.091119e-06
612.5849999995638,1.023468e-05,612.5849999995638,1.690201e-05,612.5849999995638,0.0001651038,612.5849999995638,5.124215e-06
612.5999999995638,1.088694e-05,612.5999999995638,1.690034e-05,612.5999999995638,0.0001649719,612.5999999995638,5.644828e-06
612.6149999995638,1.075939e-05,612.6149999995638,1.522717e-05,612.6149999995638,0.0001668975,612.6149999995638,5.927241e-06
612.6299999995638,1.096943e-05,612.6299999995638,1.497249e-05,612.6299999995638,0.0001664491,612.6299999995638,6.828391e-06
612.6449999995638,1.103218e-05,612.6449999995638,1.490082e-05,612.6449999995638,0.0001538083,612.6449999995638,7.83696e-06
612.6599999995638,1.11212e-05,612.6599999995638,1.230348e-05,612.6599999995638,0.0001638683,612.6599999995638,7.764728e-06
612.6749999995637,1.201266e-05,612.6749999995637,1.135559e-05,612.6749999995637,0.0001676526,612.6749999995637,7.768356e-06
612.6899999995637,1.217341e-05,612.6899999995637,1.121203e-05,612.6899999995637,0.0001639914,612.6899999995637,7.835162e-06
612.7049999995637,1.215604e-05,612.7049999995637,1.149001e-05,612.7049999995637,0.0001642753,612.7049999995637,7.977696e-06
612.7199999995637,1.214445e-05,612.7199999995637,1.300263e-05,612.7199999995637,0.0001672292,612.7199999995637,8.66011e-06
612.7349999995637,1.193619e-05,612.7349999995637,1.277089e-05,612.7349999995637,0.0001731087,612.7349999995637,8.867461e-06
612.7499999995637,1.193855e-05,612.7499999995637,1.334269e-05,612.7499999995637,0.0001783006,612.7499999995637,8.968555e-06
612.7649999995637,1.123086e-05,612.7649999995637,1.348551e-05,612.7649999995637,0.0001809549,612.7649999995637,9.079387e-06
612.7799999995636,1.111486e-05,612.7799999995636,1.275323e-05,612.7799999995636,0.0001746024,612.7799999995636,9.076284e-06
612.7949999995636,1.156699e-05,612.7949999995636,1.407834e-05,612.7949999995636,0.0001779937,612.7949999995636,9.08249e-06
612.8099999995636,1.225759e-05,612.8099999995636,1.451386e-05,612.8099999995636,0.0001883042,612.8099999995636,9.032722e-06
612.8249999995636,1.237881e-05,612.8249999995636,1.481834e-05,612.8249999995636,0.0001874627,612.8249999995636,8.948112e-06
612.8399999995636,1.206765e-05,612.8399999995636,1.483639e-05,612.8399999995636,0.0001927453,612.8399999995636,9.035841e-06
612.8549999995636,1.24469e-05,612.8549999995636,1.479551e-05,612.8549999995636,0.0002030018,612.8549999995636,8.995216e-06
612.8699999995636,1.273112e-05,612.8699999995636,1.456328e-05,612.8699999995636,0.0002042203,612.8699999995636,8.876988e-06
612.8849999995635,1.281603e-05,612.8849999995635,1.490176e-05,612.8849999995635,0.0002079606,612.8849999995635,8.943388e-06
612.8999999995635,1.316948e-05,612.8999999995635,1.531665e-05,612.8999999995635,0.0002103793,612.8999999995635,8.186846e-06
612.9149999995635,1.255732e-05,612.9149999995635,1.511762e-05,612.9149999995635,0.0002103346,612.9149999995635,8.131598e-06
612.9299999995635,1.237198e-05,612.9299999995635,1.549677e-05,612.9299999995635,0.0002098703,612.9299999995635,8.51411e-06
612.9449999995635,1.242651e-05,612.9449999995635,1.552401e-05,612.9449999995635,0.0002116413,612.9449999995635,9.37705e-06
612.9599999995635,1.264341e-05,612.9599999995635,1.379941e-05,612.9599999995635,0.0002126753,612.9599999995635,8.880161e-06
612.9749999995635,1.239018e-05,612.9749999995635,1.341954e-05,612.9749999995635,0.0002132814,612.9749999995635,8.76681e-06
612.9899999995635,1.241744e-05,612.9899999995635,1.290912e-05,612.9899999995635,0.0002190739,612.9899999995635,8.699061e-06
613.0049999995634,1.233778e-05,613.0049999995634,1.250111e-05,613.0049999995634,0.0002217355,613.0049999995634,8.768416e-06
613.0199999995634,1.229431e-05,613.0199999995634,1.238109e-05,613.0199999995634,0.0002204483,613.0199999995634,8.753946e-06
613.0349999995634,1.283032e-05,613.0349999995634,1.236856e-05,613.0349999995634,0.0002196869,613.0349999995634,9.121181e-06
613.0499999995634,1.207582e-05,613.0499999995634,1.154261e-05,613.0499999995634,0.0002256791,613.0499999995634,1.137171e-05
613.0649999995634,1.176981e-05,613.0649999995634,1.066734e-05,613.0649999995634,0.0002188526,613.0649999995634,1.159497e-05
613.0799999995634,1.180685e-05,613.0799999995634,1.010307e-05,613.0799999995634,0.0002190958,613.0799999995634,1.191611e-05
613.0949999995634,1.165435e-05,613.0949999995634,1.005976e-05,613.0949999995634,0.000209182,613.0949999995634,1.169898e-05
613.1099999995633,1.120197e-05,613.1099999995633,1.010865e-05,613.1099999995633,0.0002279145,613.1099999995633,1.155603e-05
613.1249999995633,1.092826e-05,613.1249999995633,9.854623e-06,613.1249999995633,0.0002343891,613.1249999995633,1.141498e-05
613.1399999995633,1.111613e-05,613.1399999995633,1.009889e-05,613.1399999995633,0.0002362941,613.1399999995633,1.141622e-05
613.1549999995633,1.110472e-05,613.1549999995633,9.700467e-06,613.1549999995633,0.00023125,613.1549999995633,1.155115e-05
613.1699999995633,1.095787e-05,613.1699999995633,9.390561e-06,613.1699999995633,0.0002229749,613.1699999995633,1.164346e-05
613.1849999995633,1.125341e-05,613.1849999995633,9.225602e-06,613.1849999995633,0.0002372745,613.1849999995633,1.176981e-05
613.1999999995633,1.163015e-05,613.1999999995633,8.810087e-06,613.1999999995633,0.0002428109,613.1999999995633,1.164225e-05
613.2149999995632,1.128716e-05,613.2149999995632,8.54384e-06,613.2149999995632,0.0002457447,613.2149999995632,1.172785e-05
613.2299999995632,1.134939e-05,613.2299999995632,8.425965e-06,613.2299999995632,0.0002560378,613.2299999995632,1.172304e-05
613.2449999995632,1.143841e-05,613.2449999995632,9.113456e-06,613.2449999995632,0.0002446035,613.2449999995632,1.182355e-05
613.2599999995632,1.200797e-05,613.2599999995632,9.76271e-06,613.2599999995632,0.0002406217,613.2599999995632,1.17746e-05
613.2749999995632,1.111233e-05,613.2749999995632,9.930095e-06,613.2749999995632,0.0002456966,613.2749999995632,1.186992e-05
613.2899999995632,1.130711e-05,613.2899999995632,9.214908e-06,613.2899999995632,0.0002511603,613.2899999995632,1.119065e-05
613.3049999995632,1.106405e-05,613.3049999995632,9.110365e-06,613.3049999995632,0.0002483319,613.3049999995632,9.509811e-06
613.3199999995632,1.18806e-05,613.3199999995632,1.062765e-05,613.3199999995632,0.0002526258,613.3199999995632,9.176611e-06
613.3349999995631,1.191375e-05,613.3349999995631,1.096044e-05,613.3349999995631,0.0002502966,613.3349999995631,9.013988e-06
613.3499999995631,1.186399e-05,613.3499999995631,1.186161e-05,613.3499999995631,0.0002493064,613.3499999995631,9.383058e-06
613.3649999995631,1.174105e-05,613.3649999995631,1.181163e-05,613.3649999995631,0.0002295617,613.3649999995631,9.181215e-06
613.3799999995631,1.183069e-05,613.3799999995631,1.165918e-05,613.3799999995631,0.0002226729,613.3799999995631,8.990517e-06
613.3949999995631,1.118435e-05,613.3949999995631,1.142608e-05,613.3949999995631,0.0002234837,613.3949999995631,9.034282e-06
613.4099999995631,1.117049e-05,613.4099999995631,1.141375e-05,613.4099999995631,0.0002275539,613.4099999995631,9.287995e-06
613.424999999563,1.134442e-05,613.424999999563,1.156943e-05,613.424999999563,0.000228098,613.424999999563,9.30012e-06
613.439999999563,1.106787e-05,613.439999999563,1.178775e-05,613.439999999563,0.0002121154,613.439999999563,8.234882e-06
613.454999999563,1.082725e-05,613.454999999563,1.182831e-05,613.454999999563,0.0002077401,613.454999999563,7.894269e-06
613.469999999563,1.089211e-05,613.469999999563,1.198331e-05,613.469999999563,0.0002016697,613.469999999563,7.612662e-06
613.484999999563,1.107423e-05,613.484999999563,1.222537e-05,613.484999999563,0.0001883737,613.484999999563,7.666136e-06
613.499999999563,1.070426e-05,613.499999999563,1.21514e-05,613.499999999563,0.0002222675,613.499999999563,7.354785e-06
613.514999999563,1.23754e-05,613.514999999563,1.578675e-05,613.514999999563,0.0002251978,613.514999999563,7.632989e-06
613.529999999563,2.925155e-05,613.529999999563,1.960893e-05,613.529999999563,0.0002227482,613.529999999563,8.098617e-06
613.544999999563,6.480133e-05,613.544999999563,2.084442e-05,613.544999999563,0.0002147355,613.544999999563,8.889673e-06
613.5599999995629,0.0001268336,613.5599999995629,2.259241e-05,613.5599999995629,0.0002304596,613.5599999995629,9.407047e-06
613.5749999995629,0.0001408638,613.5749999995629,2.269381e-05,613.5749999995629,0.0002427977,613.5749999995629,9.96691e-06
613.5899999995629,0.0001475964,613.5899999995629,2.425291e-05,613.5899999995629,0.0002495307,613.5899999995629,1.002609e-05
613.6049999995629,0.0001512262,613.6049999995629,2.388065e-05,613.6049999995629,0.0002510009,613.6049999995629,1.054916e-05
613.6199999995629,0.0001517791,613.6199999995629,2.410084e-05,613.6199999995629,0.0002584436,613.6199999995629,1.107805e-05
613.6349999995629,0.0001536336,613.6349999995629,2.426859e-05,613.6349999995629,0.0002584263,613.6349999995629,1.294073e-05
613.6499999995629,0.0001580837,613.6499999995629,2.470522e-05,613.6499999995629,0.0002661413,613.6499999995629,1.314271e-05
613.6649999995628,0.0001674121,613.6649999995628,2.506018e-05,613.6649999995628,0.0004030991,613.6649999995628,1.330781e-05
613.6799999995628,0.0001798836,613.6799999995628,2.495766e-05,613.6799999995628,0.0004824588,613.6799999995628,1.330252e-05
613.6949999995628,0.0001804237,613.6949999995628,2.488871e-05,613.6949999995628,0.0005873782,613.6949999995628,1.330993e-05
613.7099999995628,0.0001814323,613.7099999995628,2.499489e-05,613.7099999995628,0.000687696,613.7099999995628,1.334375e-05
613.7249999995628,0.0001823517,613.7249999995628,2.515556e-05,613.7249999995628,0.0007022279,613.7249999995628,1.350326e-05
613.7399999995628,0.0001827425,613.7399999995628,2.559962e-05,613.7399999995628,0.0006999432,613.7399999995628,1.345623e-05
613.7549999995628,0.0001835175,613.7549999995628,2.39113e-05,613.7549999995628,0.0006984456,613.7549999995628,1.337749e-05
613.7699999995627,0.0001833997,613.7699999995627,2.128511e-05,613.7699999995627,0.0007061735,613.7699999995627,1.302536e-05
613.7849999995627,0.0001785955,613.7849999995627,1.971568e-05,613.7849999995627,0.0007105081,613.7849999995627,1.284129e-05
613.7999999995627,0.0001550106,613.7999999995627,1.754807e-05,613.7999999995627,0.000709692,613.7999999995627,1.272448e-05
613.8149999995627,0.0001294342,613.8149999995627,1.658058e-05,613.8149999995627,0.0007041285,613.8149999995627,1.229889e-05
613.8299999995627,0.0001152763,613.8299999995627,1.585887e-05,613.8299999995627,0.0007021686,613.8299999995627,1.167005e-05
613.8449999995627,0.0001056855,613.8449999995627,1.409634e-05,613.8449999995627,0.0006997878,613.8449999995627,1.111993e-05
613.8599999995627,0.0001053653,613.8599999995627,1.378614e-05,613.8599999995627,0.0006981762,613.8599999995627,1.066338e-05
613.8749999995626,0.0001043095,613.8749999995626,1.359682e-05,613.8749999995626,0.0006956499,613.8749999995626,9.374045e-06
613.8899999995626,9.604658e-05,613.8899999995626,1.350117e-05,613.8899999995626,0.0006948409,613.8899999995626,7.246734e-06
613.9049999995626,9.181414e-05,613.9049999995626,1.22507e-05,613.9049999995626,0.0006709439,613.9049999995626,7.233115e-06
613.9199999995626,6.401419e-05,613.9199999995626,1.342899e-05,613.9199999995626,0.0005554391,613.9199999995626,6.507271e-06
613.9349999995626,3.904471e-05,613.9349999995626,1.368563e-05,613.9349999995626,0.0005219955,613.9349999995626,6.424483e-06
613.9499999995626,3.777428e-05,613.9499999995626,1.360718e-05,613.9499999995626,0.0003851526,613.9499999995626,6.371642e-06
613.9649999995626,3.440418e-05,613.9649999995626,1.364853e-05,613.9649999995626,0.0002323267,613.9649999995626,6.338393e-06
613.9799999995626,3.313779e-05,613.9799999995626,1.234919e-05,613.9799999995626,0.0001893601,613.9799999995626,5.960421e-06
613.9949999995625,3.286975e-05,613.9949999995625,1.209912e-05,613.9949999995625,0.0001884194,613.9949999995625,6.030905e-06
614.0099999995625,3.130602e-05,614.0099999995625,1.303401e-05,614.0099999995625,0.0001681555,614.0099999995625,5.998116e-06
614.0249999995625,3.143848e-05,614.0249999995625,1.431745e-05,614.0249999995625,0.0001554871,614.0249999995625,5.920107e-06
614.0399999995625,3.227423e-05,614.0399999995625,1.425336e-05,614.0399999995625,0.0001491803,614.0399999995625,5.405162e-06
614.0549999995625,3.654144e-05,614.0549999995625,1.37329e-05,614.0549999995625,0.0001473865,614.0549999995625,5.281253e-06
614.0699999995625,3.754649e-05,614.0699999995625,1.315664e-05,614.0699999995625,0.0001364118,614.0699999995625,5.339611e-06
614.0849999995625,3.802369e-05,614.0849999995625,1.319406e-05,614.0849999995625,0.0001404164,614.0849999995625,5.373798e-06
614.0999999995624,4.114087e-05,614.0999999995624,1.384527e-05,614.0999999995624,0.0001430619,614.0999999995624,5.365928e-06
614.1149999995624,4.083327e-05,614.1149999995624,1.40533e-05,614.1149999995624,0.0001426172,614.1149999995624,5.318464e-06
614.1299999995624,4.139041e-05,614.1299999995624,1.394766e-05,614.1299999995624,0.0001424639,614.1299999995624,5.214144e-06
614.1449999995624,4.338083e-05,614.1449999995624,1.429382e-05,614.1449999995624,0.00014556,614.1449999995624,5.254512e-06
614.1599999995624,4.23456e-05,614.1599999995624,1.437048e-05,614.1599999995624,0.0001513693,614.1599999995624,5.662269e-06
614.1749999995624,4.325856e-05,614.1749999995624,1.345519e-05,614.1749999995624,0.0001513182,614.1749999995624,5.637336e-06
614.1899999995624,4.475284e-05,614.1899999995624,1.418798e-05,614.1899999995624,0.0001602298,614.1899999995624,5.751133e-06
614.2049999995623,4.474497e-05,614.2049999995623,1.403525e-05,614.2049999995623,0.0001640101,614.2049999995623,5.694519e-06
614.2199999995623,4.40629e-05,614.2199999995623,1.453326e-05,614.2199999995623,0.0001606542,614.2199999995623,5.792623e-06
614.2349999995623,4.401076e-05,614.2349999995623,1.497249e-05,614.2349999995623,0.000163829,614.2349999995623,5.738873e-06
614.2499999995623,4.24841e-05,614.2499999995623,1.547949e-05,614.2499999995623,0.0001592369,614.2499999995623,5.790191e-06
614.2649999995623,4.116312e-05,614.2649999995623,1.372572e-05,614.2649999995623,0.0001580753,614.2649999995623,5.881913e-06
614.2799999995623,4.090221e-05,614.2799999995623,1.447402e-05,614.2799999995623,0.0001586311,614.2799999995623,6.01219e-06
614.2949999995623,3.883307e-05,614.2949999995623,1.507936e-05,614.2949999995623,0.0001525527,614.2949999995623,5.790191e-06
614.3099999995623,3.562123e-05,614.3099999995623,1.534146e-05,614.3099999995623,0.0001519114,614.3099999995623,6.19907e-06
614.3249999995622,3.594835e-05,614.3249999995622,1.599067e-05,614.3249999995622,0.0001450043,614.3249999995622,6.313899e-06
614.3399999995622,3.512223e-05,614.3399999995622,1.63969e-05,614.3399999995622,0.0001420495,614.3399999995622,6.322817e-06
614.3549999995622,3.18144e-05,614.3549999995622,1.656103e-05,614.3549999995622,0.0001407433,614.3549999995622,6.345057e-06
614.3699999995622,3.148192e-05,614.3699999995622,1.790567e-05,614.3699999995622,0.0001414761,614.3699999995622,6.387099e-06
614.3849999995622,2.976048e-05,614.3849999995622,1.848705e-05,614.3849999995622,0.0001372069,614.3849999995622,6.316129e-06
614.3999999995622,2.573573e-05,614.3999999995622,1.854107e-05,614.3999999995622,0.0001353874,614.3999999995622,5.843468e-06
614.4149999995622,2.504331e-05,614.4149999995622,1.897662e-05,614.4149999995622,0.0001194463,614.4149999995622,5.701935e-06
614.4299999995621,2.255871e-05,614.4299999995621,1.977347e-05,614.4299999995621,0.0001151697,614.4299999995621,5.644828e-06
614.4449999995621,2.059217e-05,614.4449999995621,2.131884e-05,614.4449999995621,0.0001064209,614.4449999995621,5.8867e-06
614.4599999995621,2.063522e-05,614.4599999995621,2.240646e-05,614.4599999995621,0.0001037151,614.4599999995621,5.969867e-06
614.4749999995621,1.926906e-05,614.4749999995621,2.458691e-05,614.4749999995621,0.000100359,614.4749999995621,5.862722e-06
614.4899999995621,1.93413e-05,614.4899999995621,2.580624e-05,614.4899999995621,9.530704e-05,614.4899999995621,5.838645e-06
614.5049999995621,1.927053e-05,614.5049999995621,2.697207e-05,614.5049999995621,9.759924e-05,614.5049999995621,6.049562e-06
614.5199999995621,1.916203e-05,614.5199999995621,2.772258e-05,614.5199999995621,9.840562e-05,614.5199999995621,5.984008e-06
614.534999999562,1.838773e-05,614.534999999562,2.835311e-05,614.534999999562,9.695136e-05,614.534999999562,6.049562e-06
614.549999999562,1.770233e-05,614.549999999562,2.952191e-05,614.549999999562,9.544101e-05,614.549999999562,5.915346e-06
614.564999999562,1.633838e-05,614.564999999562,3.202272e-05,614.564999999562,9.503677e-05,614.564999999562,5.667242e-06
614.579999999562,1.557655e-05,614.579999999562,3.359124e-05,614.579999999562,0.0001050903,614.579999999562,5.577042e-06
614.594999999562,1.543483e-05,614.594999999562,3.600787e-05,614.594999999562,0.0001069617,614.594999999562,5.53139e-06
614.609999999562,1.497814e-05,614.609999999562,3.655994e-05,614.609999999562,0.0001070524,614.609999999562,5.574516e-06
614.624999999562,1.38351e-05,614.624999999562,3.713529e-05,614.624999999562,0.0001080493,614.624999999562,5.533936e-06
614.639999999562,1.393856e-05,614.639999999562,3.815646e-05,614.639999999562,0.0001083329,614.639999999562,5.659781e-06
614.6549999995619,1.385544e-05,614.6549999995619,4.013773e-05,614.6549999995619,0.000107627,614.6549999995619,5.546649e-06
614.6699999995619,1.385849e-05,614.6699999995619,4.429471e-05,614.6699999995619,0.0001129644,614.6699999995619,5.624828e-06
614.6849999995619,1.36227e-05,614.6849999995619,4.568368e-05,614.6849999995619,0.0001166283,614.6849999995619,5.56693e-06
614.6999999995619,1.256405e-05,614.6999999995619,4.557625e-05,614.6999999995619,0.0001204049,614.6999999995619,5.214144e-06
614.7149999995619,1.278302e-05,614.7149999995619,4.633946e-05,614.7149999995619,0.0001237949,614.7149999995619,5.197909e-06
614.7299999995619,1.277861e-05,614.7299999995619,4.701996e-05,614.7299999995619,0.0001223653,614.7299999995619,5.257193e-06
614.7449999995619,1.132827e-05,614.7449999995619,4.644271e-05,614.7449999995619,0.0001232161,614.7449999995619,5.233022e-06
614.7599999995618,1.099124e-05,614.7599999995618,4.856183e-05,614.7599999995618,0.0001218003,614.7599999995618,4.756387e-06
614.7749999995618,1.134194e-05,614.7749999995618,5.017485e-05,614.7749999995618,0.0001224977,614.7749999995618,4.726678e-06
614.7899999995618,1.136675e-05,614.7899999995618,5.102424e-05,614.7899999995618,0.0001249382,614.7899999995618,4.605925e-06
614.8049999995618,1.126217e-05,614.8049999995618,4.971824e-05,614.8049999995618,0.0001296832,614.8049999995618,4.544346e-06
614.8199999995618,1.131334e-05,614.8199999995618,4.906311e-05,614.8199999995618,0.0001254468,614.8199999995618,4.569077e-06
614.8349999995618,1.119568e-05,614.8349999995618,4.835864e-05,614.8349999995618,0.0001231923,614.8349999995618,4.525708e-06
614.8499999995618,1.094114e-05,614.8499999995618,4.71244e-05,614.8499999995618,0.0001247594,614.8499999995618,4.663672e-06
614.8649999995617,1.108441e-05,614.8649999995617,4.605069e-05,614.8649999995617,0.0001297673,614.8649999995617,5.049445e-06
614.8799999995617,1.090374e-05,614.8799999995617,4.634129e-05,614.8799999995617,0.000131407,614.8799999995617,5.235713e-06
614.8949999995617,1.043504e-05,614.8949999995617,4.808346e-05,614.8949999995617,0.0001292545,614.8949999995617,5.315815e-06
614.9099999995617,1.05545e-05,614.9099999995617,4.50737e-05,614.9099999995617,0.0001297264,614.9099999995617,5.281253e-06
614.9249999995617,1.043774e-05,614.9249999995617,4.18857e-05,614.9249999995617,0.0001322696,614.9249999995617,5.425972e-06
614.9399999995617,1.052108e-05,614.9399999995617,4.124859e-05,614.9399999995617,0.0001269892,614.9399999995617,5.485359e-06
614.9549999995617,1.057983e-05,614.9549999995617,4.006642e-05,614.9549999995617,0.0001259626,614.9549999995617,5.495621e-06
614.9699999995617,1.065545e-05,614.9699999995617,3.963553e-05,614.9699999995617,0.0001255732,614.9699999995617,5.559333e-06
614.9849999995616,1.052644e-05,614.9849999995616,3.847154e-05,614.9849999995616,0.0001230923,614.9849999995616,5.679657e-06
614.9999999995616,1.042153e-05,614.9999999995616,3.893886e-05,614.9999999995616,0.0001214056,614.9999999995616,5.677176e-06
615.0149999995616,1.031556e-05,615.0149999995616,3.343951e-05,615.0149999995616,0.0001268086,615.0149999995616,5.795054e-06
615.0299999995616,1.018086e-05,615.0299999995616,3.294851e-05,615.0299999995616,0.0001281368,615.0299999995616,5.795054e-06
615.0449999995616,1.015592e-05,615.0449999995616,3.136985e-05,615.0449999995616,0.0001276062,615.0449999995616,5.743781e-06
615.0599999995616,1.195035e-05,615.0599999995616,3.233179e-05,615.0599999995616,0.0001283826,615.0599999995616,5.792623e-06
615.0749999995616,1.254385e-05,615.0749999995616,3.215835e-05,615.0749999995616,0.0001333432,615.0749999995616,5.814468e-06
615.0899999995615,1.275102e-05,615.0899999995615,3.184848e-05,615.0899999995615,0.0001291079,615.0899999995615,5.903427e-06
615.1049999995615,1.30707e-05,615.1049999995615,3.213557e-05,615.1049999995615,0.0001259891,615.1049999995615,5.879517e-06
615.1199999995615,1.456715e-05,615.1199999995615,3.306204e-05,615.1199999995615,0.000121695,615.1199999995615,5.477649e-06
615.1349999995615,1.472584e-05,615.1349999995615,3.063145e-05,615.1349999995615,0.0001251308,615.1349999995615,5.334332e-06
615.1499999995615,1.501946e-05,615.1499999995615,3.041825e-05,615.1499999995615,0.0001341303,615.1499999995615,5.243778e-06
615.1649999995615,1.925078e-05,615.1649999995615,3.410067e-05,615.1649999995615,0.0001299541,615.1649999995615,5.467352e-06
615.1799999995615,2.117297e-05,615.1799999995615,3.648975e-05,615.1799999995615,0.0001232472,615.1799999995615,5.528843e-06
615.1949999995614,2.26814e-05,615.1949999995614,3.720578e-05,615.1949999995614,0.0001243864,615.1949999995614,5.61731e-06
615.2099999995614,2.492265e-05,615.2099999995614,3.901944e-05,615.2099999995614,0.0001223579,615.2099999995614,5.544109e-06
615.2249999995614,2.555556e-05,615.2249999995614,3.857795e-05,615.2249999995614,0.0001221411,615.2249999995614,6.304968e-06
615.2399999995614,2.631435e-05,615.2399999995614,3.789938e-05,615.2399999995614,0.0001228784,615.2399999995614,7.29903e-06
615.2549999995614,2.666691e-05,615.2549999995614,3.770747e-05,615.2549999995614,0.0001217958,615.2549999995614,7.579281e-06
615.2699999995614,2.711324e-05,615.2699999995614,3.972641e-05,615.2699999995614,0.0001172554,615.2699999995614,7.644054e-06
615.2849999995614,2.806648e-05,615.2849999995614,4.032261e-05,615.2849999995614,0.0001146575,615.2849999995614,7.887128e-06
615.2999999995614,2.843695e-05,615.2999999995614,4.007838e-05,615.2999999995614,0.000113831,615.2999999995614,8.098617e-06
615.3149999995613,2.828945e-05,615.3149999995613,3.965862e-05,615.3149999995613,0.0001067666,615.3149999995613,8.573465e-06
615.3299999995613,2.852054e-05,615.3299999995613,4.004743e-05,615.3299999995613,0.0001063265,615.3299999995613,8.604628e-06
615.3449999995613,3.003188e-05,615.3449999995613,4.007064e-05,615.3449999995613,0.0001134165,615.3449999995613,8.58496e-06
615.3599999995613,3.012508e-05,615.3599999995613,4.047325e-05,615.3599999995613,0.0001169645,615.3599999995613,8.500864e-06
615.3749999995613,2.942058e-05,615.3749999995613,4.021242e-05,615.3749999995613,0.0001240777,615.3749999995613,8.51411e-06
615.3899999995613,2.983612e-05,615.3899999995613,4.326182e-05,615.3899999995613,0.0001190585,615.3899999995613,8.580036e-06
615.4049999995613,3.011058e-05,615.4049999995613,4.021977e-05,615.4049999995613,0.0001169271,615.4049999995613,8.484277e-06
615.4199999995612,2.737847e-05,615.4199999995612,3.78886e-05,615.4199999995612,0.0001224748,615.4199999995612,8.414254e-06
615.4349999995612,2.661879e-05,615.4349999995612,3.74601e-05,615.4349999995612,0.000127833,615.4349999995612,8.331817e-06
615.4499999995612,2.400831e-05,615.4499999995612,3.683287e-05,615.4499999995612,0.000128784,615.4499999995612,8.362194e-06
615.4649999995612,2.371134e-05,615.4649999995612,3.687263e-05,615.4649999995612,0.0001305529,615.4649999995612,8.311504e-06
615.4799999995612,3.189622e-05,615.4799999995612,3.807848e-05,615.4799999995612,0.0001362593,615.4799999995612,8.221186e-06
615.4949999995612,3.521555e-05,615.4949999995612,3.944136e-05,615.4949999995612,0.0001423657,615.4949999995612,7.71559e-06
615.5099999995612,7.506728e-05,615.5099999995612,3.951879e-05,615.5099999995612,0.0001465839,615.5099999995612,8.425965e-06
615.5249999995611,8.182474e-05,615.5249999995611,4.183826e-05,615.5249999995611,0.000143848,615.5249999995611,9.433964e-06
615.5399999995611,9.595517e-05,615.5399999995611,4.664186e-05,615.5399999995611,0.0001470873,615.5399999995611,1.027725e-05
615.5549999995611,9.961453e-05,615.5549999995611,4.590025e-05,615.5549999995611,0.0001498629,615.5549999995611,1.055584e-05
615.5699999995611,0.0001000415,615.5699999995611,4.663612e-05,615.5699999995611,0.0001484977,615.5699999995611,1.101173e-05
615.5849999995611,0.0001011921,615.5849999995611,4.656176e-05,615.5849999995611,0.0001500458,615.5849999995611,1.168453e-05
615.5999999995611,0.0001019742,615.5999999995611,4.560467e-05,615.5999999995611,0.0001525479,615.5999999995611,1.488852e-05
615.6149999995611,0.0001036009,615.6149999995611,4.72134e-05,615.6149999995611,0.0001539846,615.6149999995611,1.540834e-05
615.629999999561,0.0001061942,615.629999999561,4.725783e-05,615.629999999561,0.0001846738,615.629999999561,1.642437e-05
615.644999999561,0.0001113891,615.644999999561,4.517858e-05,615.644999999561,0.0002081668,615.644999999561,1.677317e-05
615.659999999561,0.000112327,615.659999999561,4.477109e-05,615.659999999561,0.0002348062,615.659999999561,1.701663e-05
615.674999999561,0.0001123532,615.674999999561,4.47119e-05,615.674999999561,0.0002785418,615.674999999561,1.709098e-05
615.689999999561,0.0001125768,615.689999999561,4.414243e-05,615.689999999561,0.000429965,615.689999999561,1.723216e-05
615.704999999561,0.0001133038,615.704999999561,4.232498e-05,615.704999999561,0.0006164767,615.704999999561,1.727461e-05
615.719999999561,0.0001134825,615.719999999561,4.238019e-05,615.719999999561,0.000679469,615.719999999561,1.724605e-05
615.734999999561,0.0001115354,615.734999999561,4.053863e-05,615.734999999561,0.0006867412,615.734999999561,1.697436e-05
615.7499999995609,0.0001084366,615.7499999995609,4.014475e-05,615.7499999995609,0.0006936737,615.7499999995609,1.678912e-05
615.7649999995609,8.523618e-05,615.7649999995609,3.873501e-05,615.7649999995609,0.0007131879,615.7649999995609,1.624673e-05
615.7799999995609,7.672675e-05,615.7799999995609,3.467702e-05,615.7799999995609,0.0007284447,615.7799999995609,1.576354e-05
615.7949999995609,6.205271e-05,615.7949999995609,2.753239e-05,615.7949999995609,0.0007377719,615.7949999995609,1.51502e-05
615.8099999995609,5.904883e-05,615.8099999995609,2.816018e-05,615.8099999995609,0.0007481454,615.8099999995609,1.481929e-05
615.8249999995609,5.680773e-05,615.8249999995609,2.636249e-05,615.8249999995609,0.0007519265,615.8249999995609,1.441844e-05
615.8399999995609,5.583908e-05,615.8399999995609,2.604207e-05,615.8399999995609,0.0007505477,615.8399999995609,1.273886e-05
615.8549999995608,5.314251e-05,615.8549999995608,2.558641e-05,615.8549999995608,0.000750531,615.8549999995608,1.023055e-05
615.8699999995608,4.999006e-05,615.8699999995608,2.268326e-05,615.8699999995608,0.0007476417,615.8699999995608,9.017113e-06
615.8849999995608,4.034147e-05,615.8849999995608,2.062566e-05,615.8849999995608,0.0007385162,615.8849999995608,7.549485e-06
615.8999999995608,2.851412e-05,615.8999999995608,2.024306e-05,615.8999999995608,0.0007280185,615.8999999995608,6.680315e-06
615.9149999995608,2.652868e-05,615.9149999995608,2.003181e-05,615.9149999995608,0.0007081066,615.9149999995608,6.183143e-06
615.9299999995608,2.697051e-05,615.9299999995608,1.932746e-05,615.9299999995608,0.0006836132,615.9299999995608,5.814468e-06
615.9449999995608,2.601176e-05,615.9449999995608,1.879912e-05,615.9449999995608,0.0005774745,615.9449999995608,5.541568e-06
615.9599999995608,2.503093e-05,615.9599999995608,1.745229e-05,615.9599999995608,0.0003973867,615.9599999995608,5.029879e-06
615.9749999995607,2.424361e-05,615.9749999995607,1.585176e-05,615.9749999995607,0.000291855,615.9749999995607,5.02147e-06
615.9899999995607,2.341783e-05,615.9899999995607,1.536073e-05,615.9899999995607,0.0002778092,615.9899999995607,5.249148e-06
616.0049999995607,2.456627e-05,616.0049999995607,1.497437e-05,616.0049999995607,0.0002699258,616.0049999995607,5.222243e-06
616.0199999995607,2.4415e-05,616.0199999995607,1.52752e-05,616.0199999995607,0.0002439723,616.0199999995607,5.291911e-06
616.0349999995607,2.423838e-05,616.0349999995607,1.511948e-05,616.0349999995607,0.0002026348,616.0349999995607,5.281253e-06
616.0499999995607,2.460695e-05,616.0499999995607,1.451775e-05,616.0499999995607,0.0001742049,616.0499999995607,5.275916e-06
616.0649999995607,2.474112e-05,616.0649999995607,1.30804e-05,616.0649999995607,0.0001337709,616.0649999995607,5.251831e-06
616.0799999995606,2.482297e-05,616.0799999995606,1.305776e-05,616.0799999995606,0.0001277312,616.0799999995606,5.310512e-06
616.0949999995606,2.322878e-05,616.0949999995606,1.344681e-05,616.0949999995606,0.000127112,616.0949999995606,5.592176e-06
616.1099999995606,2.321483e-05,616.1099999995606,1.307825e-05,616.1099999995606,0.0001379163,616.1099999995606,5.518642e-06
616.1249999995606,2.248992e-05,616.1249999995606,1.151206e-05,616.1249999995606,0.0001385124,616.1249999995606,5.493057e-06
616.1399999995606,2.163693e-05,616.1399999995606,1.221269e-05,616.1399999995606,0.0001370121,616.1399999995606,5.48022e-06
616.1549999995606,2.14243e-05,616.1549999995606,1.197037e-05,616.1549999995606,0.000132929,616.1549999995606,5.556798e-06
616.1699999995606,2.101939e-05,616.1699999995606,1.140264e-05,616.1699999995606,0.0001300594,616.1699999995606,5.780451e-06
616.1849999995605,1.94951e-05,616.1849999995605,1.181282e-05,616.1849999995605,0.0001304663,616.1849999995605,5.814468e-06
616.1999999995605,1.915394e-05,616.1999999995605,1.430269e-05,616.1999999995605,0.000119073,616.1999999995605,5.924864e-06
616.2149999995605,1.757855e-05,616.2149999995605,1.470382e-05,616.2149999995605,0.0001168387,616.2149999995605,5.659781e-06
616.2299999995605,1.606011e-05,616.2299999995605,1.476215e-05,616.2299999995605,0.0001160142,616.2299999995605,5.536481e-06
616.2449999995605,1.516971e-05,616.2449999995605,1.508217e-05,616.2449999995605,0.0001146779,616.2449999995605,5.599728e-06
616.2599999995605,1.433122e-05,616.2599999995605,1.478027e-05,616.2599999995605,0.0001146692,616.2599999995605,5.629835e-06
616.2749999995605,1.342794e-05,616.2749999995605,1.472106e-05,616.2749999995605,0.0001132657,616.2749999995605,5.826569e-06
616.2899999995605,1.315236e-05,616.2899999995605,1.475356e-05,616.2899999995605,0.0001137483,616.2899999995605,5.879517e-06
616.3049999995604,1.218729e-05,616.3049999995604,1.607414e-05,616.3049999995604,0.000109006,616.3049999995604,6.137409e-06
616.3199999995604,1.236401e-05,616.3199999995604,1.622938e-05,616.3199999995604,0.0001031844,616.3199999995604,6.13052e-06
616.3349999995604,1.195624e-05,616.3349999995604,1.621983e-05,616.3349999995604,0.0001089257,616.3349999995604,6.08439e-06
616.3499999995604,1.17746e-05,616.3499999995604,1.574118e-05,616.3499999995604,0.0001042322,616.3499999995604,5.893875e-06
616.3649999995604,1.181401e-05,616.3649999995604,1.622244e-05,616.3649999995604,9.72376e-05,616.3649999995604,5.953326e-06
616.3799999995604,1.170982e-05,616.3799999995604,1.628743e-05,616.3799999995604,0.0001000493,616.3799999995604,5.976941e-06
616.3949999995604,1.180924e-05,616.3949999995604,1.64843e-05,616.3949999995604,0.0001053621,616.3949999995604,5.955692e-06
616.4099999995603,1.129215e-05,616.4099999995603,1.656443e-05,616.4099999995603,0.0001069902,616.4099999995603,5.682137e-06
616.4249999995603,1.131956e-05,616.4249999995603,1.714282e-05,616.4249999995603,0.000115628,616.4249999995603,5.526294e-06
616.4399999995603,1.107551e-05,616.4399999995603,1.719124e-05,616.4399999995603,0.0001218715,616.4399999995603,5.412975e-06
616.4549999995603,1.071083e-05,616.4549999995603,1.526875e-05,616.4549999995603,0.0001205446,616.4549999995603,5.334332e-06
616.4699999995603,1.02498e-05,616.4699999995603,1.558831e-05,616.4699999995603,0.0001222115,616.4699999995603,5.405162e-06
616.4849999995603,1.007375e-05,616.4849999995603,1.542022e-05,616.4849999995603,0.0001296136,616.4849999995603,5.331691e-06
616.4999999995603,1.014759e-05,616.4999999995603,1.551857e-05,616.4999999995603,0.0001277974,616.4999999995603,5.118714e-06
616.5149999995602,9.866052e-06,616.5149999995602,1.52281e-05,616.5149999995602,0.0001274373,616.5149999995602,5.046655e-06
616.5299999995602,9.858911e-06,616.5299999995602,1.622157e-05,616.5299999995602,0.0001277752,616.5299999995602,5.043863e-06
616.5449999995602,1.000359e-05,616.5449999995602,1.566313e-05,616.5449999995602,0.0001295986,616.5449999995602,5.197909e-06
616.5599999995602,9.834591e-06,616.5599999995602,1.511203e-05,616.5599999995602,0.0001339038,616.5599999995602,4.794733e-06
616.5749999995602,9.677204e-06,616.5749999995602,1.458358e-05,616.5749999995602,0.0001328999,616.5749999995602,4.82986e-06
616.5899999995602,9.291028e-06,616.5899999995602,1.462409e-05,616.5899999995602,0.0001281832,616.5899999995602,4.815255e-06
616.6049999995602,9.30012e-06,616.6049999995602,1.508123e-05,616.6049999995602,0.0001262598,616.6049999995602,4.896482e-06
616.6199999995602,9.579178e-06,616.6199999995602,1.604168e-05,616.6199999995602,0.0001291689,616.6199999995602,4.777073e-06
616.6349999995601,9.257612e-06,616.6349999995601,1.528719e-05,616.6349999995601,0.0001338863,616.6349999995601,4.684768e-06
616.6499999995601,9.096438e-06,616.6499999995601,1.507189e-05,616.6499999995601,0.000130226,616.6499999995601,4.73561e-06
616.6649999995601,9.127357e-06,616.6649999995601,1.783156e-05,616.6649999995601,0.0001285499,616.6649999995601,4.711753e-06
616.6799999995601,9.175076e-06,616.6799999995601,1.741916e-05,616.6799999995601,0.0001202966,616.6799999995601,4.809401e-06
616.6949999995601,9.15971e-06,616.6949999995601,1.652356e-05,616.6949999995601,0.0001172084,616.6949999995601,4.70577e-06
616.7099999995601,9.049861e-06,616.7099999995601,1.603026e-05,616.7099999995601,0.0001223236,616.7099999995601,4.645514e-06
616.72499999956,8.849969e-06,616.72499999956,1.661538e-05,616.72499999956,0.0001241087,616.72499999956,4.642481e-06
616.73999999956,8.78607e-06,616.73999999956,1.762257e-05,616.73999999956,0.0001150282,616.73999999956,4.660651e-06
616.75499999956,8.589881e-06,616.75499999956,1.74926e-05,616.75499999956,0.0001207617,616.75499999956,4.884961e-06
616.76999999956,8.913411e-06,616.76999999956,1.733567e-05,616.76999999956,0.0001222374,616.76999999956,4.947995e-06
616.78499999956,8.869049e-06,616.78499999956,1.659502e-05,616.78499999956,0.0001220179,616.78499999956,4.4218e-06
616.79999999956,8.43432e-06,616.79999999956,1.680924e-05,616.79999999956,0.0001244309,616.79999999956,4.29576e-06
616.81499999956,8.494233e-06,616.81499999956,1.712391e-05,616.81499999956,0.0001244377,616.81499999956,4.282623e-06
616.82999999956,8.495891e-06,616.82999999956,1.725422e-05,616.82999999956,0.000123217,616.82999999956,4.360851e-06
616.84499999956,8.487596e-06,616.84499999956,1.702739e-05,616.84499999956,0.0001252218,616.84499999956,4.424985e-06
616.8599999995599,8.399174e-06,616.8599999995599,1.648088e-05,616.8599999995599,0.00012561,616.8599999995599,4.431347e-06
616.8749999995599,7.847737e-06,616.8749999995599,1.541748e-05,616.8749999995599,0.0001220722,616.8749999995599,4.412233e-06
616.8899999995599,7.854914e-06,616.8899999995599,1.541383e-05,616.8899999995599,0.0001150654,616.8899999995599,4.447213e-06
616.9049999995599,7.974164e-06,616.9049999995599,1.51827e-05,616.9049999995599,0.0001147289,616.9049999995599,4.550541e-06
616.9199999995599,7.965326e-06,616.9199999995599,1.183783e-05,616.9199999995599,0.0001134691,616.9199999995599,4.513241e-06
616.9349999995599,7.560672e-06,616.9349999995599,1.175065e-05,616.9349999995599,0.0001121176,616.9349999995599,4.415424e-06
616.9499999995599,7.581139e-06,616.9499999995599,1.176023e-05,616.9499999995599,0.0001100821,616.9499999995599,4.39624e-06
616.9649999995598,7.625604e-06,616.9649999995598,1.168814e-05,616.9649999995598,0.000100365,616.9649999995598,4.415424e-06
616.9799999995598,7.744747e-06,616.9799999995598,9.86034e-06,616.9799999995598,9.823054e-05,616.9799999995598,4.450379e-06
616.9949999995598,7.425313e-06,616.9949999995598,8.560311e-06,616.9949999995598,9.75467e-05,616.9949999995598,4.434525e-06
617.0099999995598,7.582997e-06,617.0099999995598,8.474309e-06,617.0099999995598,9.028511e-05,617.0099999995598,4.34467e-06
617.0249999995598,7.345202e-06,617.0249999995598,8.447671e-06,617.0249999995598,9.146567e-05,617.0249999995598,4.485062e-06
617.0399999995598,7.333686e-06,617.0399999995598,7.62006e-06,617.0399999995598,0.0004039334,617.0399999995598,4.593675e-06
617.0549999995598,7.46882e-06,617.0549999995598,7.874616e-06,617.0549999995598,0.0004735192,617.0549999995598,4.861837e-06
617.0699999995597,8.067247e-06,617.0699999995597,6.556871e-06,617.0699999995597,0.0005281094,617.0699999995597,4.942298e-06
617.0849999995597,8.093397e-06,617.0849999995597,6.663425e-06,617.0849999995597,0.0005907138,617.0849999995597,4.812329e-06
617.0999999995597,8.528988e-06,617.0999999995597,6.782854e-06,617.0999999995597,0.0007020531,617.0999999995597,4.696781e-06
617.1149999995597,8.565246e-06,617.1149999995597,6.608231e-06,617.1149999995597,0.0007537163,617.1149999995597,4.759348e-06
617.1299999995597,9.617337e-06,617.1299999995597,7.256447e-06,617.1299999995597,0.0007836558,617.1299999995597,5.254512e-06
617.1449999995597,9.389061e-06,617.1449999995597,7.645896e-06,617.1449999995597,0.0008566096,617.1449999995597,5.431162e-06
617.1599999995597,9.866052e-06,617.1599999995597,7.945849e-06,617.1599999995597,0.0009168793,617.1599999995597,5.436346e-06
617.1749999995596,1.07476e-05,617.1749999995596,7.910313e-06,617.1749999995596,0.001092259,617.1749999995596,5.412975e-06
617.1899999995596,1.084545e-05,617.1899999995596,8.929201e-06,617.1899999995596,0.001193854,617.1899999995596,5.627332e-06
617.2049999995596,1.673113e-05,617.2049999995596,1.052376e-05,617.2049999995596,0.00129479,617.2049999995596,5.719203e-06
617.2199999995596,1.757855e-05,617.2199999995596,1.142238e-05,617.2199999995596,0.001362052,617.2199999995596,5.881913e-06
617.2349999995596,1.920462e-05,617.2349999995596,1.141004e-05,617.2349999995596,0.001407897,617.2349999995596,5.889093e-06
617.2499999995596,2.052914e-05,617.2499999995596,1.136551e-05,617.2499999995596,0.00157021,617.2499999995596,5.934367e-06
617.2649999995596,2.068159e-05,617.2649999995596,1.135683e-05,617.2649999995596,0.001617961,617.2649999995596,6.054217e-06
617.2799999995595,2.068636e-05,617.2799999995595,1.11982e-05,617.2799999995595,0.001624138,617.2799999995595,6.123622e-06
617.2949999995595,2.07618e-05,617.2949999995595,1.089599e-05,617.2949999995595,0.001561653,617.2949999995595,5.896265e-06
617.3099999995595,2.074891e-05,617.3099999995595,1.104621e-05,617.3099999995595,0.001599823,617.3099999995595,5.826569e-06
617.3249999995595,2.044663e-05,617.3249999995595,1.081032e-05,617.3249999995595,0.001600546,617.3249999995595,6.086705e-06
617.3399999995595,2.043284e-05,617.3399999995595,1.075022e-05,617.3399999995595,0.001662556,617.3399999995595,6.194524e-06
617.3549999995595,2.015729e-05,617.3549999995595,1.064222e-05,617.3549999995595,0.001732165,617.3549999995595,6.380479e-06
617.3699999995595,2.034925e-05,617.3699999995595,1.018915e-05,617.3699999995595,0.001727906,617.3699999995595,6.322817e-06
617.3849999995595,2.018941e-05,617.3849999995595,9.995137e-06,617.3849999995595,0.001766851,617.3849999995595,5.843468e-06
617.3999999995594,2.087615e-05,617.3999999995594,9.447393e-06,617.3999999995594,0.001787453,617.3999999995594,5.682137e-06
617.4149999995594,2.029866e-05,617.4149999995594,9.468245e-06,617.4149999995594,0.001770467,617.4149999995594,5.664756e-06
617.4299999995594,2.118893e-05,617.4299999995594,9.049861e-06,617.4299999995594,0.001669962,617.4299999995594,5.684616e-06
617.4449999995594,2.093074e-05,617.4449999995594,7.470705e-06,617.4449999995594,0.001662168,617.4449999995594,5.449287e-06
617.4599999995594,1.626493e-05,617.4599999995594,6.316129e-06,617.4599999995594,0.001621229,617.4599999995594,5.472503e-06
617.4749999995594,1.595098e-05,617.4749999995594,4.806471e-06,617.4749999995594,0.001879155,617.4749999995594,5.412975e-06
617.4899999995594,1.409834e-05,617.4899999995594,4.861837e-06,617.4899999995594,0.002224607,617.4899999995594,5.384273e-06
617.5049999995593,1.313521e-05,617.5049999995593,4.841512e-06,617.5049999995593,0.002295787,617.5049999995593,5.508422e-06
617.5199999995593,1.338591e-05,617.5199999995593,4.803539e-06,617.5199999995593,0.002296858,617.5199999995593,5.368553e-06
617.5349999995593,1.356882e-05,617.5349999995593,4.759348e-06,617.5349999995593,0.00229964,617.5349999995593,5.294573e-06
617.5499999995593,1.359682e-05,617.5499999995593,4.575239e-06,617.5499999995593,0.002290115,617.5499999995593,5.273245e-06
617.5649999995593,1.354908e-05,617.5649999995593,4.162526e-06,617.5649999995593,0.002301293,617.5649999995593,5.178904e-06
617.5799999995593,1.368975e-05,617.5799999995593,4.094283e-06,617.5799999995593,0.002304623,617.5799999995593,4.841512e-06
617.5949999995593,1.360822e-05,617.5949999995593,4.101159e-06,617.5949999995593,0.002202571,617.5949999995593,4.711753e-06
617.6099999995592,1.33543e-05,617.6099999995592,4.073587e-06,617.6099999995592,0.002171389,617.6099999995592,4.453544e-06
617.6249999995592,1.298637e-05,617.6249999995592,4.135364e-06,617.6249999995592,0.002126741,617.6249999995592,4.389827e-06
617.6399999995592,1.29614e-05,617.6399999995592,4.135364e-06,617.6399999995592,0.002103635,617.6399999995592,4.459865e-06
617.6549999995592,1.266233e-05,617.6549999995592,4.138769e-06,617.6549999995592,0.002065169,617.6549999995592,4.544346e-06
617.6699999995592,1.250674e-05,617.6699999995592,3.896851e-06,617.6699999995592,0.002054776,617.6699999995592,4.624239e-06
617.6849999995592,1.071215e-05,617.6849999995592,4.145571e-06,617.6849999995592,0.002003911,617.6849999995592,4.575239e-06
617.6999999995592,1.015037e-05,617.6999999995592,4.003829e-06,617.6999999995592,0.001972259,617.6999999995592,4.424985e-06
617.7149999995592,1.001766e-05,617.7149999995592,4.05626e-06,617.7149999995592,0.001921059,617.7149999995592,4.4377e-06
617.7299999995591,9.962669e-06,617.7299999995591,3.599965e-06,617.7299999995591,0.001530014,617.7299999995591,4.450379e-06
617.7449999995591,9.585059e-06,617.7449999995591,3.70411e-06,617.7449999995591,0.0009050284,617.7449999995591,4.148967e-06
617.7599999995591,9.245431e-06,617.7599999995591,4.007346e-06,617.7599999995591,0.0004918596,617.7599999995591,3.957827e-06
617.7749999995591,8.814882e-06,617.7749999995591,4.028382e-06,617.7749999995591,0.0004120617,617.7749999995591,3.950702e-06
617.7899999995591,8.345331e-06,617.7899999995591,3.982663e-06,617.7899999995591,0.0004133819,617.7899999995591,3.932833e-06
617.8049999995591,8.811686e-06,617.8049999995591,3.943564e-06,617.8049999995591,0.0003677072,617.8049999995591,3.92925e-06
617.8199999995591,8.869049e-06,617.8199999995591,3.975583e-06,617.8199999995591,0.000294457,617.8199999995591,3.86418e-06
617.834999999559,8.694202e-06,617.834999999559,3.954266e-06,617.834999999559,0.000222242,617.834999999559,3.797995e-06
617.849999999559,8.694202e-06,617.849999999559,3.947135e-06,617.849999999559,0.0001642832,617.849999999559,3.771943e-06
617.864999999559,8.724932e-06,617.864999999559,3.871464e-06,617.864999999559,0.0001220249,617.864999999559,3.812802e-06
617.879999999559,8.174792e-06,617.879999999559,3.950702e-06,617.879999999559,9.179665e-05,617.879999999559,3.78313e-06
617.894999999559,7.829767e-06,617.894999999559,3.900464e-06,617.894999999559,7.002131e-05,617.894999999559,3.654337e-06
617.909999999559,7.413922e-06,617.909999999559,3.932833e-06,617.909999999559,5.384194e-05,617.909999999559,3.496747e-06
617.924999999559,7.125195e-06,617.924999999559,3.805405e-06,617.924999999559,4.138701e-05,617.924999999559,3.662038e-06
617.939999999559,7.942303e-06,617.939999999559,3.692683e-06,617.939999999559,3.191299e-05,617.939999999559,3.707911e-06
617.9549999995589,8.190286e-06,617.9549999995589,3.820184e-06,617.9549999995589,2.433293e-05,617.9549999995589,4.028382e-06
617.9699999995589,8.209184e-06,617.9699999995589,3.834905e-06,617.9699999995589,1.898478e-05,617.9699999995589,4.052786e-06
617.9849999995589,8.400851e-06,617.9849999995589,3.820184e-06,617.9849999995589,1.478884e-05,617.9849999995589,3.975583e-06
617.9999999995589,8.353768e-06,617.9999999995589,3.524834e-06,617.9999999995589,1.127092e-05,617.9999999995589,4.035369e-06
618.0149999995589,8.822869e-06,618.0149999995589,3.394541e-06,618.0149999995589,8.596438e-06,618.0149999995589,4.31539e-06
618.0299999995589,8.768416e-06,618.0299999995589,3.419349e-06,618.0299999995589,6.707672e-06,618.0299999995589,4.38019e-06
618.0449999995589,8.606265e-06,618.0449999995589,3.504795e-06,618.0449999995589,5.365928e-06,618.0449999995589,4.497608e-06
618.0599999995588,8.326743e-06,618.0599999995588,3.54476e-06,618.0599999995588,4.531929e-06,618.0599999995588,4.550541e-06
618.0749999995588,8.207468e-06,618.0749999995588,3.528828e-06,618.0749999995588,3.932833e-06,618.0749999995588,4.590608e-06
618.0899999995588,8.384065e-06,618.0899999995588,3.556662e-06,618.0899999995588,3.452149e-06,618.0899999995588,4.587538e-06
618.1049999995588,8.331817e-06,618.1049999995588,3.70411e-06,618.1049999995588,3.067557e-06,618.1049999995588,4.654602e-06
618.1199999995588,8.407555e-06,618.1199999995588,3.764466e-06,618.1199999995588,2.878015e-06,618.1199999995588,5.001795e-06
618.1349999995588,8.480955e-06,618.1349999995588,3.741947e-06,618.1349999995588,2.808655e-06,618.1349999995588,5.035477e-06
618.1499999995588,8.467658e-06,618.1499999995588,3.801702e-06,618.1499999995588,2.706488e-06,618.1499999995588,5.203327e-06
618.1649999995587,8.535592e-06,618.1649999995587,3.989731e-06,618.1649999995587,2.768241e-06,618.1649999995587,5.459618e-06
618.1799999995587,8.262207e-06,618.1799999995587,3.986198e-06,618.1799999995587,2.803635e-06,618.1799999995587,5.490492e-06
618.1949999995587,7.52706e-06,618.1949999995587,5.082812e-06,618.1949999995587,2.974296e-06,618.1949999995587,5.472503e-06
618.2099999995587,7.325999e-06,618.2099999995587,5.035477e-06,618.2099999995587,3.067557e-06,618.2099999995587,5.329048e-06
618.2249999995587,8.148903e-06,618.2249999995587,5.467352e-06,618.2249999995587,3.039879e-06,618.2249999995587,5.323759e-06
618.2399999995587,8.58824e-06,618.2399999995587,7.412022e-06,618.2399999995587,2.983753e-06,618.2399999995587,5.872325e-06
618.2549999995587,1.084805e-05,618.2549999995587,7.897837e-06,618.2549999995587,2.997883e-06,618.2549999995587,5.857914e-06
618.2699999995586,1.368563e-05,618.2699999995586,8.274134e-06,618.2699999995586,2.916909e-06,618.2699999995586,5.711809e-06
618.2849999995586,1.379941e-05,618.2849999995586,8.333508e-06,618.2849999995586,2.926552e-06,618.2849999995586,5.736418e-06
618.2999999995586,1.692866e-05,618.2999999995586,8.736227e-06,618.2999999995586,2.921734e-06,618.2999999995586,5.831403e-06
618.3149999995586,1.82817e-05,618.3149999995586,8.987383e-06,618.3149999995586,2.912075e-06,618.3149999995586,5.962784e-06
618.3299999995586,1.871651e-05,618.3299999995586,9.655344e-06,618.3299999995586,2.803635e-06,618.3299999995586,5.998116e-06
618.3449999995586,2.113501e-05,618.3449999995586,1.001344e-05,618.3449999995586,2.793568e-06,618.3449999995586,6.086705e-06
618.3599999995586,2.181072e-05,618.3599999995586,1.180208e-05,618.3599999995586,2.868209e-06,618.3599999995586,6.056544e-06
618.3749999995586,2.256745e-05,618.3749999995586,1.303725e-05,618.3749999995586,2.853437e-06,618.3749999995586,5.903427e-06
618.3899999995585,2.419941e-05,618.3899999995585,1.330146e-05,618.3899999995585,2.979029e-06,618.3899999995585,5.965146e-06
618.4049999995585,2.457086e-05,618.4049999995585,1.345623e-05,618.4049999995585,2.931361e-06,618.4049999995585,5.922486e-06
618.4199999995585,2.681336e-05,618.4199999995585,1.40533e-05,618.4199999995585,2.737538e-06,618.4199999995585,5.860319e-06
618.4349999995585,3.039045e-05,618.4349999995585,1.419096e-05,618.4349999995585,2.696058e-06,618.4349999995585,5.920107e-06
618.4499999995585,3.262715e-05,618.4499999995585,1.467313e-05,618.4499999995585,2.438151e-06,618.4499999995585,5.986361e-06
618.4649999995585,3.323796e-05,618.4649999995585,1.504382e-05,618.4649999995585,2.337869e-06,618.4649999995585,5.946224e-06
618.4799999995585,3.449659e-05,618.4799999995585,1.507656e-05,618.4799999995585,2.270622e-06,618.4799999995585,5.778013e-06
618.4949999995584,3.603681e-05,618.4949999995584,1.495272e-05,618.4949999995584,2.301433e-06,618.4949999995584,5.541568e-06
618.5099999995584,3.606299e-05,618.5099999995584,1.631595e-05,618.5099999995584,2.282997e-06,618.5099999995584,5.56693e-06
618.5249999995584,3.548811e-05,618.5249999995584,1.748776e-05,618.5249999995584,2.391484e-06,618.5249999995584,5.536481e-06
618.5399999995584,3.794581e-05,618.5399999995584,1.763216e-05,618.5399999995584,2.391484e-06,618.5399999995584,5.302549e-06
618.5549999995584,3.874883e-05,618.5549999995584,1.77063e-05,618.5549999995584,2.343887e-06,618.5549999995584,5.454455e-06
618.5699999995584,3.930827e-05,618.5699999995584,1.847715e-05,618.5699999995584,2.282997e-06,618.5699999995584,5.410373e-06
618.5849999995584,3.978063e-05,618.5849999995584,1.948208e-05,618.5849999995584,2.307546e-06,618.5849999995584,5.438937e-06
618.5999999995583,3.887115e-05,618.5999999995583,2.022844e-05,618.5999999995583,2.282997e-06,618.5999999995583,5.402556e-06
618.6149999995583,3.96959e-05,618.6149999995583,1.966918e-05,618.6149999995583,2.129768e-06,618.6149999995583,5.329048e-06
618.6299999995583,4.114259e-05,618.6299999995583,1.913187e-05,618.6299999995583,2.103145e-06,618.6299999995583,5.222243e-06
618.6449999995583,4.111039e-05,618.6449999995583,1.989491e-05,618.6449999995583,2.035064e-06,618.6449999995583,5.151632e-06
618.6599999995583,4.156159e-05,618.6599999995583,2.004587e-05,618.6599999995583,2.062566e-06,618.6599999995583,4.990517e-06
618.6749999995583,4.027578e-05,618.6749999995583,2.25687e-05,618.6749999995583,2.062566e-06,618.6749999995583,4.785911e-06
618.6899999995583,4.049343e-05,618.6899999995583,2.37256e-05,618.6899999995583,2.048861e-06,618.6899999995583,4.68176e-06
618.7049999995583,3.963162e-05,618.7049999995583,2.371966e-05,618.7049999995583,2.014191e-06,618.7049999995583,4.738583e-06
618.7199999995582,3.898079e-05,618.7199999995582,2.371728e-05,618.7199999995582,2.021173e-06,618.7199999995582,4.618143e-06
618.7349999995582,4.066769e-05,618.7349999995582,2.400009e-05,618.7349999995582,2.014191e-06,618.7349999995582,4.513241e-06
618.7499999995582,4.081395e-05,618.7499999995582,2.359402e-05,618.7499999995582,1.942995e-06,618.7499999995582,4.759348e-06
618.7649999995582,4.16743e-05,618.7649999995582,2.384227e-05,618.7649999995582,1.935732e-06,618.7649999995582,4.780021e-06
618.7799999995582,4.055774e-05,618.7799999995582,2.408154e-05,618.7799999995582,1.861538e-06,618.7799999995582,4.919443e-06
618.7949999995582,3.989943e-05,618.7949999995582,2.504612e-05,618.7949999995582,1.815567e-06,618.7949999995582,4.850233e-06
618.8099999995582,4.03523e-05,618.8099999995582,2.492038e-05,618.8099999995582,1.846342e-06,618.8099999995582,4.531929e-06
618.8249999995581,4.127522e-05,618.8249999995581,2.6891e-05,618.8249999995581,1.884103e-06,618.8249999995581,4.559819e-06
618.8399999995581,4.298055e-05,618.8399999995581,2.692241e-05,618.8399999995581,1.898997e-06,618.8399999995581,4.720713e-06
618.8549999995581,4.296055e-05,618.8549999995581,2.834665e-05,618.8549999995581,1.884103e-06,618.8549999995581,4.81818e-06
618.8699999995581,4.280485e-05,618.8699999995581,2.928813e-05,618.8699999995581,1.957442e-06,618.8699999995581,4.973552e-06
618.8849999995581,4.308171e-05,618.8849999995581,3.064616e-05,618.8849999995581,2.035064e-06,618.8849999995581,5.035477e-06
618.8999999995581,4.441e-05,618.8999999995581,3.14461e-05,618.8999999995581,2.035064e-06,618.8999999995581,5.082812e-06
618.9149999995581,4.547878e-05,618.9149999995581,3.116983e-05,618.9149999995581,2.02813e-06,618.9149999995581,5.386888e-06
618.929999999558,4.489206e-05,618.929999999558,3.214346e-05,618.929999999558,2.041974e-06,618.929999999558,5.371176e-06
618.944999999558,4.386232e-05,618.944999999558,3.143176e-05,618.944999999558,2.035064e-06,618.944999999558,5.299891e-06
618.959999999558,4.508307e-05,618.959999999558,3.247785e-05,618.959999999558,2.07618e-06,618.959999999558,5.402556e-06
618.974999999558,4.564018e-05,618.974999999558,3.245225e-05,618.974999999558,2.035064e-06,618.974999999558,5.541568e-06
618.989999999558,4.572652e-05,618.989999999558,3.233571e-05,618.989999999558,2.24567e-06,618.989999999558,5.352786e-06
619.004999999558,4.42317e-05,619.004999999558,3.184494e-05,619.004999999558,2.282997e-06,619.004999999558,5.53139e-06
619.019999999558,4.293956e-05,619.019999999558,3.183255e-05,619.019999999558,2.282997e-06,619.019999999558,5.431162e-06
619.034999999558,4.469016e-05,619.034999999558,3.105393e-05,619.034999999558,2.282997e-06,619.034999999558,5.574516e-06
619.0499999995579,4.381765e-05,619.0499999995579,3.116532e-05,619.0499999995579,2.295304e-06,619.0499999995579,5.604757e-06
619.0649999995579,4.504274e-05,619.0649999995579,3.090478e-05,619.0649999995579,2.270622e-06,619.0649999995579,5.60727e-06
619.0799999995579,4.579886e-05,619.0799999995579,3.057944e-05,619.0799999995579,2.270622e-06,619.0799999995579,5.423375e-06
619.0949999995579,4.380576e-05,619.0949999995579,3.051996e-05,619.0949999995579,2.233089e-06,619.0949999995579,5.355417e-06
619.1099999995579,4.48613e-05,619.1099999995579,2.895144e-05,619.1099999995579,2.214083e-06,619.1099999995579,5.265225e-06
619.1249999995579,4.514396e-05,619.1249999995579,2.80469e-05,619.1249999995579,2.16909e-06,619.1249999995579,5.257193e-06
619.1399999995579,4.422278e-05,619.1399999995579,2.847012e-05,619.1399999995579,2.123144e-06,619.1399999995579,5.154366e-06
619.1549999995578,4.682151e-05,619.1549999995578,2.61069e-05,619.1549999995578,2.089706e-06,619.1549999995578,4.993339e-06
619.1699999995578,4.765677e-05,619.1699999995578,2.616941e-05,619.1699999995578,2.149519e-06,619.1699999995578,4.782967e-06
619.1849999995578,4.772854e-05,619.1849999995578,2.556328e-05,619.1849999995578,2.680338e-06,619.1849999995578,4.762306e-06
619.1999999995578,4.88891e-05,619.1999999995578,2.559192e-05,619.1999999995578,2.979029e-06,619.1999999995578,4.726678e-06
619.2149999995578,4.805562e-05,619.2149999995578,2.479912e-05,619.2149999995578,3.039879e-06,619.2149999995578,4.82986e-06
619.2299999995578,4.722593e-05,619.2299999995578,2.639826e-05,619.2299999995578,3.072146e-06,619.2299999995578,4.657627e-06
619.2449999995578,5.041544e-05,619.2449999995578,2.639186e-05,619.2449999995578,3.021286e-06,619.2449999995578,4.513241e-06
619.2599999995577,5.115493e-05,619.2599999995577,2.665687e-05,619.2599999995577,3.030597e-06,619.2599999995577,4.48192e-06
619.2749999995577,5.169348e-05,619.2749999995577,2.626559e-05,619.2749999995577,3.044509e-06,619.2749999995577,4.550541e-06
619.2899999995577,4.962862e-05,619.2899999995577,2.643133e-05,619.2899999995577,3.021286e-06,619.2899999995577,4.497608e-06
619.3049999995577,5.083449e-05,619.3049999995577,2.763657e-05,619.3049999995577,3.021286e-06,619.3049999995577,4.547444e-06
619.3199999995577,4.969075e-05,619.3199999995577,2.723713e-05,619.3199999995577,3.094987e-06,619.3199999995577,4.584466e-06
619.3349999995577,4.877919e-05,619.3349999995577,2.90219e-05,619.3349999995577,4.010859e-06,619.3349999995577,4.645514e-06
619.3499999995577,4.948565e-05,619.3499999995577,2.886031e-05,619.3499999995577,2.629936e-05,619.3499999995577,4.856038e-06
619.3649999995577,4.898898e-05,619.3649999995577,2.853585e-05,619.3649999995577,8.294301e-05,619.3649999995577,4.858938e-06
619.3799999995576,4.857315e-05,619.3799999995576,2.89777e-05,619.3799999995576,9.426121e-05,619.3799999995576,6.174023e-06
619.3949999995576,4.620917e-05,619.3949999995576,2.826354e-05,619.3949999995576,0.0001620322,619.3949999995576,6.176305e-06
619.4099999995576,4.412807e-05,619.4099999995576,2.783465e-05,619.4099999995576,0.0001948825,619.4099999995576,7.337527e-06
619.4249999995576,4.247316e-05,619.4249999995576,2.791702e-05,619.4249999995576,0.0001965171,619.4249999995576,7.457495e-06
619.4399999995576,4.167464e-05,619.4399999995576,2.89986e-05,619.4399999995576,0.0001991958,619.4399999995576,7.66246e-06
619.4549999995576,4.085328e-05,619.4549999995576,2.91488e-05,619.4549999995576,0.0002054785,619.4549999995576,7.513949e-06
619.4699999995576,4.043634e-05,619.4699999995576,2.928043e-05,619.4699999995576,0.000212879,619.4699999995576,7.746566e-06
619.4849999995575,3.873574e-05,619.4849999995575,3.074254e-05,619.4849999995575,0.0002150797,619.4849999995575,7.860292e-06
619.4999999995575,3.581605e-05,619.4999999995575,3.291643e-05,619.4999999995575,0.0002151977,619.4999999995575,7.840554e-06
619.5149999995575,3.49707e-05,619.5149999995575,3.30177e-05,619.5149999995575,0.0002153199,619.5149999995575,7.867457e-06
619.5299999995575,3.493926e-05,619.5299999995575,3.504956e-05,619.5299999995575,0.0002155463,619.5299999995575,7.811755e-06
619.5449999995575,3.45586e-05,619.5449999995575,3.460993e-05,619.5449999995575,0.0002156927,619.5449999995575,8.086432e-06
619.5599999995575,3.29421e-05,619.5599999995575,3.367626e-05,619.5599999995575,0.0002157582,619.5599999995575,8.284342e-06
619.5749999995575,3.203899e-05,619.5749999995575,3.234747e-05,619.5749999995575,0.0002157752,619.5749999995575,8.233172e-06
619.5899999995574,3.161364e-05,619.5899999995574,3.136491e-05,619.5899999995574,0.000215755,619.5899999995574,8.150632e-06
619.6049999995574,3.067327e-05,619.6049999995574,3.077643e-05,619.6049999995574,0.0002106272,619.6049999995574,8.095138e-06
619.6199999995574,2.934483e-05,619.6199999995574,3.076956e-05,619.6199999995574,0.0002016616,619.6199999995574,7.979462e-06
619.6349999995574,2.891346e-05,619.6349999995574,3.221132e-05,619.6349999995574,0.0002067713,619.6349999995574,6.997522e-06
619.6499999995574,2.837397e-05,619.6499999995574,3.299721e-05,619.6499999995574,0.0001598242,619.6499999995574,6.910417e-06
619.6649999995574,2.78149e-05,619.6649999995574,3.311653e-05,619.6649999995574,0.0002040022,619.6649999995574,6.54612e-06
619.6799999995574,2.826354e-05,619.6799999995574,3.312419e-05,619.6799999995574,0.0002195763,619.6799999995574,6.576178e-06
619.6949999995574,2.785539e-05,619.6949999995574,3.276157e-05,619.6949999995574,0.0002261745,619.6949999995574,6.541815e-06
619.7099999995573,2.7688e-05,619.7099999995573,3.273146e-05,619.7099999995573,0.0002293991,619.7099999995573,6.629514e-06
619.7249999995573,2.822164e-05,619.7249999995573,3.185644e-05,619.7249999995573,0.0002275243,619.7249999995573,6.420096e-06
619.7399999995573,2.861128e-05,619.7399999995573,2.839432e-05,619.7399999995573,0.0002266485,619.7399999995573,6.153455e-06
619.7549999995573,2.956339e-05,619.7549999995573,2.830488e-05,619.7549999995573,0.0002266451,619.7549999995573,6.293787e-06
619.7699999995573,2.946698e-05,619.7699999995573,2.822314e-05,619.7699999995573,0.0002306547,619.7699999995573,6.224016e-06
619.7849999995573,2.965426e-05,619.7849999995573,2.594289e-05,619.7849999995573,0.0002365359,619.7849999995573,6.180865e-06
619.7999999995573,2.845824e-05,619.7999999995573,2.592551e-05,619.7999999995573,0.0002385579,619.7999999995573,5.75603e-06
619.8149999995572,2.872086e-05,619.8149999995572,2.619363e-05,619.8149999995572,0.0002517643,619.8149999995572,5.485359e-06
619.8299999995572,2.836851e-05,619.8299999995572,2.709141e-05,619.8299999995572,0.0002663237,619.8299999995572,5.799914e-06
619.8449999995572,2.854029e-05,619.8449999995572,2.707841e-05,619.8449999995572,0.0002693388,619.8449999995572,5.93674e-06
619.8599999995572,2.847655e-05,619.8599999995572,2.724954e-05,619.8599999995572,0.0002699544,619.8599999995572,5.924864e-06
619.8749999995572,2.769868e-05,619.8749999995572,2.737024e-05,619.8749999995572,0.0002648135,619.8749999995572,5.939112e-06
619.8899999995572,2.725987e-05,619.8899999995572,2.447435e-05,619.8899999995572,0.0002695309,619.8899999995572,5.955692e-06
619.9049999995572,2.78473e-05,619.9049999995572,2.534635e-05,619.9049999995572,0.0002552415,619.9049999995572,5.869926e-06
619.9199999995571,2.85082e-05,619.9199999995571,2.547662e-05,619.9199999995571,0.0002042003,619.9199999995571,5.216845e-06
619.9349999995571,2.835858e-05,619.9349999995571,2.514267e-05,619.9349999995571,0.0002001258,619.9349999995571,5.12971e-06
619.9499999995571,2.832627e-05,619.9499999995571,2.515444e-05,619.9499999995571,0.0001906548,619.9499999995571,5.074491e-06
619.9649999995571,2.82431e-05,619.9649999995571,2.444383e-05,619.9649999995571,0.0001826837,619.9649999995571,4.873412e-06
619.9799999995571,2.762994e-05,619.9799999995571,2.416854e-05,619.9799999995571,0.000183449,619.9799999995571,4.990517e-06
619.9949999995571,2.716048e-05,619.9949999995571,2.522043e-05,619.9949999995571,0.0001860832,619.9949999995571,5.032679e-06
620.0099999995571,2.65308e-05,620.0099999995571,2.506692e-05,620.0099999995571,0.0001969332,620.0099999995571,4.867628e-06
620.024999999557,2.722316e-05,620.024999999557,2.507816e-05,620.024999999557,0.0001938879,620.024999999557,4.882076e-06
620.039999999557,2.698043e-05,620.039999999557,2.475648e-05,620.039999999557,0.000188026,620.039999999557,4.996159e-06
620.054999999557,2.874244e-05,620.054999999557,2.512922e-05,620.054999999557,0.000186946,620.054999999557,5.386888e-06
620.069999999557,2.821615e-05,620.069999999557,2.385763e-05,620.069999999557,0.0001656029,620.069999999557,5.475077e-06
620.084999999557,2.86226e-05,620.084999999557,2.336302e-05,620.084999999557,0.0001505072,620.084999999557,5.088352e-06
620.099999999557,2.842803e-05,620.099999999557,2.343286e-05,620.099999999557,0.0001429733,620.099999999557,4.996159e-06
620.114999999557,2.908542e-05,620.114999999557,2.32839e-05,620.114999999557,0.0001454273,620.114999999557,4.979213e-06
620.129999999557,2.89986e-05,620.129999999557,2.259864e-05,620.129999999557,0.00012952,620.129999999557,5.107694e-06
620.144999999557,2.936738e-05,620.144999999557,2.147618e-05,620.144999999557,0.0001169655,620.144999999557,5.273245e-06
620.1599999995569,2.812815e-05,620.1599999995569,2.126458e-05,620.1599999995569,0.0001142086,620.1599999995569,5.184341e-06
620.1749999995569,2.984792e-05,620.1749999995569,2.201194e-05,620.1749999995569,0.0001513144,620.1749999995569,5.176183e-06
620.1899999995569,2.927514e-05,620.1899999995569,2.189259e-05,620.1899999995569,0.0001764454,620.1899999995569,5.159829e-06
620.2049999995569,2.923517e-05,620.2049999995569,2.007676e-05,620.2049999995569,0.0001836663,620.2049999995569,5.148897e-06
620.2199999995569,2.939567e-05,620.2199999995569,2.034787e-05,620.2199999995569,0.0002206169,620.2199999995569,5.352786e-06
620.2349999995569,2.855954e-05,620.2349999995569,1.95384e-05,620.2349999995569,0.000254968,620.2349999995569,5.305204e-06
620.2499999995568,2.89636e-05,620.2499999995568,1.939948e-05,620.2499999995568,0.0002608409,620.2499999995568,5.696992e-06
620.2649999995568,2.980399e-05,620.2649999995568,1.95629e-05,620.2649999995568,0.0002564164,620.2649999995568,5.981653e-06
620.2799999995568,2.968418e-05,620.2799999995568,1.9326e-05,620.2799999995568,0.0002628193,620.2799999995568,5.960421e-06
620.2949999995568,2.864179e-05,620.2949999995568,1.921416e-05,620.2949999995568,0.0002670433,620.2949999995568,5.845879e-06
620.3099999995568,2.77302e-05,620.3099999995568,1.919729e-05,620.3099999995568,0.0002690915,620.3099999995568,5.614802e-06
620.3249999995568,2.841564e-05,620.3249999995568,1.914291e-05,620.3249999995568,0.0002700846,620.3249999995568,5.597212e-06
620.3399999995568,2.880266e-05,620.3399999995568,1.898626e-05,620.3399999995568,0.0002705297,620.3399999995568,5.667242e-06
620.3549999995568,2.812665e-05,620.3549999995568,1.918407e-05,620.3549999995568,0.0002702893,620.3549999995568,5.785323e-06
620.3699999995567,2.761974e-05,620.3699999995567,2.070813e-05,620.3699999995567,0.0002695385,620.3699999995567,5.746233e-06
620.3849999995567,2.790087e-05,620.3849999995567,2.100732e-05,620.3849999995567,0.0002725449,620.3849999995567,5.637336e-06
620.3999999995567,2.750833e-05,620.3999999995567,2.086873e-05,620.3999999995567,0.0002762161,620.3999999995567,5.556798e-06
620.4149999995567,2.718432e-05,620.4149999995567,2.130363e-05,620.4149999995567,0.0002759763,620.4149999995567,5.647323e-06
620.4299999995567,2.546998e-05,620.4299999995567,2.140259e-05,620.4299999995567,0.0002465079,620.4299999995567,5.689569e-06
620.4449999995567,2.508546e-05,620.4449999995567,2.193566e-05,620.4449999995567,0.0002346953,620.4449999995567,5.551726e-06
620.4599999995567,2.455365e-05,620.4599999995567,2.196902e-05,620.4599999995567,0.0002258802,620.4599999995567,5.523745e-06
620.4749999995566,2.594343e-05,620.4749999995566,2.12765e-05,620.4749999995566,0.0001888446,620.4749999995566,5.088352e-06
620.4899999995566,2.56749e-05,620.4899999995566,2.117496e-05,620.4899999995566,0.0001424746,620.4899999995566,5.206033e-06
620.5049999995566,2.486323e-05,620.5049999995566,2.121949e-05,620.5049999995566,0.0001296086,620.5049999995566,4.95937e-06
620.5199999995566,2.343226e-05,620.5199999995566,2.1105e-05,620.5199999995566,0.0001244405,620.5199999995566,4.565993e-06
620.5349999995566,2.38068e-05,620.5349999995566,2.118095e-05,620.5349999995566,0.0001114417,620.5349999995566,4.581393e-06
620.5499999995566,2.445305e-05,620.5499999995566,2.124669e-05,620.5499999995566,0.0001036866,620.5499999995566,4.494475e-06
620.5649999995566,2.414113e-05,620.5649999995566,2.16883e-05,620.5649999995566,0.0001000431,620.5649999995566,4.478776e-06
620.5799999995565,2.42471e-05,620.5799999995565,2.319298e-05,620.5799999995565,0.0001034624,620.5799999995565,4.440873e-06
620.5949999995565,2.442711e-05,620.5949999995565,2.318082e-05,620.5949999995565,9.903077e-05,620.5949999995565,4.494475e-06
620.6099999995565,2.499602e-05,620.6099999995565,2.37766e-05,620.6099999995565,9.934491e-05,620.6099999995565,4.642481e-06
620.6249999995565,2.499827e-05,620.6249999995565,2.250244e-05,620.6249999995565,0.0001046105,620.6249999995565,4.882076e-06
620.6399999995565,2.516228e-05,620.6399999995565,2.268264e-05,620.6399999995565,0.0001008981,620.6399999995565,4.821102e-06
620.6549999995565,2.569355e-05,620.6549999995565,2.385291e-05,620.6549999995565,9.525041e-05,620.6549999995565,4.824024e-06
620.6699999995565,2.631542e-05,620.6699999995565,2.278735e-05,620.6699999995565,9.538593e-05,620.6699999995565,4.884961e-06
620.6849999995565,2.613656e-05,620.6849999995565,2.262916e-05,620.6849999995565,9.582898e-05,620.6849999995565,4.777073e-06
620.6999999995564,2.668909e-05,620.6999999995564,2.224557e-05,620.6999999995564,9.83247e-05,620.6999999995564,4.847328e-06
620.7149999995564,2.530352e-05,620.7149999995564,2.276137e-05,620.7149999995564,0.0001004656,620.7149999995564,4.864733e-06
620.7299999995564,2.571656e-05,620.7299999995564,2.318812e-05,620.7299999995564,0.0001005602,620.7299999995564,4.861837e-06
620.7449999995564,2.667853e-05,620.7449999995564,2.385763e-05,620.7449999995564,0.0001016005,620.7449999995564,5.200618e-06
620.7599999995564,2.698252e-05,620.7599999995564,2.442423e-05,620.7599999995564,0.0001003868,620.7599999995564,5.115961e-06
620.7749999995564,2.667219e-05,620.7749999995564,2.477866e-05,620.7749999995564,0.000101259,620.7749999995564,5.165286e-06
620.7899999995564,2.596569e-05,620.7899999995564,2.472004e-05,620.7899999995564,0.0001048299,620.7899999995564,5.110451e-06
620.8049999995563,2.594289e-05,620.8049999995563,2.478321e-05,620.8049999995563,0.0001053295,620.8049999995563,5.170737e-06
620.8199999995563,2.660609e-05,620.8199999995563,2.382691e-05,620.8199999995563,0.0001056179,620.8199999995563,5.294573e-06
620.8349999995563,2.552192e-05,620.8349999995563,2.354381e-05,620.8349999995563,0.0001020976,620.8349999995563,5.441526e-06
620.8499999995563,2.497459e-05,620.8499999995563,2.356175e-05,620.8499999995563,9.801289e-05,620.8499999995563,5.305204e-06
620.8649999995563,2.456742e-05,620.8649999995563,2.259178e-05,620.8649999995563,9.521654e-05,620.8649999995563,5.649817e-06
620.8799999995563,2.488475e-05,620.8799999995563,2.34773e-05,620.8799999995563,9.044068e-05,620.8799999995563,5.910582e-06
620.8949999995563,2.440288e-05,620.8949999995563,2.283675e-05,620.8949999995563,9.072512e-05,620.8949999995563,5.841057e-06
620.9099999995562,2.331474e-05,620.9099999995562,2.142101e-05,620.9099999995562,8.983385e-05,620.9099999995562,5.831403e-06
620.9249999995562,2.509501e-05,620.9249999995562,2.182879e-05,620.9249999995562,8.535972e-05,620.9249999995562,5.709342e-06
620.9399999995562,2.465956e-05,620.9399999995562,2.1575e-05,620.9399999995562,8.97292e-05,620.9399999995562,5.807196e-06
620.9549999995562,2.495371e-05,620.9549999995562,2.079096e-05,620.9549999995562,8.739467e-05,620.9549999995562,5.943854e-06
620.9699999995562,2.469781e-05,620.9699999995562,2.059901e-05,620.9699999995562,8.828168e-05,620.9699999995562,6.042573e-06
620.9849999995562,2.490568e-05,620.9849999995562,2.082684e-05,620.9849999995562,8.928728e-05,620.9849999995562,5.662269e-06
620.9999999995562,2.401652e-05,620.9999999995562,2.143153e-05,620.9999999995562,8.468622e-05,620.9999999995562,5.619817e-06
621.0149999995562,2.397778e-05,621.0149999995562,2.093209e-05,621.0149999995562,8.727548e-05,621.0149999995562,5.778013e-06
621.0299999995561,2.488928e-05,621.0299999995561,2.097175e-05,621.0299999995561,8.581611e-05,621.0299999995561,5.853103e-06
621.0449999995561,2.569355e-05,621.0449999995561,2.110566e-05,621.0449999995561,8.334674e-05,621.0449999995561,5.838645e-06
621.0599999995561,2.505849e-05,621.0599999995561,2.135976e-05,621.0599999995561,8.679704e-05,621.0599999995561,5.674694e-06
621.0749999995561,2.397602e-05,621.0749999995561,2.144138e-05,621.0749999995561,8.524263e-05,621.0749999995561,5.597212e-06
621.0899999995561,2.50731e-05,621.0899999995561,2.12626e-05,621.0899999995561,9.223327e-05,621.0899999995561,5.307859e-06
621.1049999995561,2.564471e-05,621.1049999995561,2.150764e-05,621.1049999995561,9.934959e-05,621.1049999995561,5.344885e-06
621.1199999995561,2.546887e-05,621.1199999995561,2.125531e-05,621.1199999995561,9.68589e-05,621.1199999995561,4.717728e-06
621.134999999556,2.533801e-05,621.134999999556,2.062908e-05,621.134999999556,9.605494e-05,621.134999999556,4.768218e-06
621.149999999556,2.646967e-05,621.149999999556,2.157891e-05,621.149999999556,0.0001016708,621.149999999556,4.82986e-06
621.164999999556,2.691613e-05,621.164999999556,2.209434e-05,621.164999999556,0.0001029318,621.164999999556,4.858938e-06
621.179999999556,2.494468e-05,621.179999999556,2.157565e-05,621.179999999556,0.0001036679,621.179999999556,4.75046e-06
621.194999999556,2.471263e-05,621.194999999556,2.144467e-05,621.194999999556,9.87754e-05,621.194999999556,4.729657e-06
621.209999999556,2.397837e-05,621.209999999556,2.212365e-05,621.209999999556,9.82767e-05,621.209999999556,4.463023e-06
621.224999999556,2.473884e-05,621.224999999556,2.153644e-05,621.224999999556,9.685424e-05,621.224999999556,4.409039e-06
621.239999999556,2.42378e-05,621.239999999556,2.159914e-05,621.239999999556,0.0001003915,621.239999999556,4.354386e-06
621.2549999995559,2.464813e-05,621.2549999995559,2.036586e-05,621.2549999995559,0.0001005378,621.2549999995559,4.463023e-06
621.2699999995559,2.511689e-05,621.2699999995559,2.045903e-05,621.2699999995559,0.0001007074,621.2699999995559,4.341427e-06
621.2849999995559,2.555005e-05,621.2849999995559,2.069657e-05,621.2849999995559,0.0001037211,621.2849999995559,4.759348e-06
621.2999999995559,2.574065e-05,621.2999999995559,2.127518e-05,621.2999999995559,0.0001016957,621.2999999995559,5.151632e-06
621.3149999995559,2.580624e-05,621.3149999995559,2.049686e-05,621.3149999995559,0.0001018416,621.3149999995559,5.358047e-06
621.3299999995559,2.55495e-05,621.3299999995559,2.035894e-05,621.3299999995559,0.0001143178,621.3299999995559,5.34752e-06
621.3449999995559,2.61042e-05,621.3449999995559,2.087615e-05,621.3449999995559,0.0001089225,621.3449999995559,5.344885e-06
621.3599999995558,2.612632e-05,621.3599999995558,2.171946e-05,621.3599999995558,0.0001175369,621.3599999995558,5.176183e-06
621.3749999995558,2.671072e-05,621.3749999995558,2.269505e-05,621.3749999995558,0.0001359398,621.3749999995558,5.420777e-06
621.3899999995558,2.686375e-05,621.3899999995558,2.231006e-05,621.3899999995558,0.0001355505,621.3899999995558,5.273245e-06
621.4049999995558,2.672548e-05,621.4049999995558,2.140917e-05,621.4049999995558,0.0001423281,621.4049999995558,5.195198e-06
621.4199999995558,2.742731e-05,621.4199999995558,2.269319e-05,621.4199999995558,0.0001497339,621.4199999995558,5.173461e-06
621.4349999995558,2.853881e-05,621.4349999995558,2.296838e-05,621.4349999995558,0.0001552927,621.4349999995558,5.360675e-06
621.4499999995558,2.848941e-05,621.4499999995558,2.316867e-05,621.4499999995558,0.0001599601,621.4499999995558,5.410373e-06
621.4649999995557,2.793618e-05,621.4649999995557,2.242908e-05,621.4649999995557,0.0001601012,621.4649999995557,5.48279e-06
621.4799999995557,2.802127e-05,621.4799999995557,2.273722e-05,621.4799999995557,0.0001715313,621.4799999995557,5.564399e-06
621.4949999995557,2.887641e-05,621.4949999995557,2.267891e-05,621.4949999995557,0.0001755946,621.4949999995557,5.584614e-06
621.5099999995557,2.840176e-05,621.5099999995557,2.247049e-05,621.5099999995557,0.000175408,621.5099999995557,5.549188e-06
621.5249999995557,2.887885e-05,621.5249999995557,2.229301e-05,621.5249999995557,0.0001745471,621.5249999995557,5.428567e-06
621.5399999995557,2.791248e-05,621.5399999995557,2.20388e-05,621.5399999995557,0.0001762855,621.5399999995557,5.230329e-06
621.5549999995557,2.899131e-05,621.5549999995557,2.164279e-05,621.5549999995557,0.0001762191,621.5549999995557,4.753424e-06
621.5699999995556,2.873655e-05,621.5699999995556,2.304124e-05,621.5699999995556,0.0001732975,621.5699999995556,5.02147e-06
621.5849999995556,2.947224e-05,621.5849999995556,2.300576e-05,621.5849999995556,0.0001712042,621.5849999995556,5.22494e-06
621.5999999995556,2.901025e-05,621.5999999995556,2.194721e-05,621.5999999995556,0.0001703738,621.5999999995556,5.399948e-06
621.6149999995556,2.89709e-05,621.6149999995556,2.081804e-05,621.6149999995556,0.0001567543,621.6149999995556,5.751133e-06
621.6299999995556,2.907816e-05,621.6299999995556,2.105086e-05,621.6299999995556,0.0001462779,621.6299999995556,5.696992e-06
621.6449999995556,2.851264e-05,621.6449999995556,2.118627e-05,621.6449999995556,0.0001446165,621.6449999995556,5.991066e-06
621.6599999995556,2.778247e-05,621.6599999995556,2.135317e-05,621.6599999995556,0.0001352186,621.6599999995556,6.189974e-06
621.6749999995556,2.665317e-05,621.6749999995556,2.057369e-05,621.6749999995556,0.0001278204,621.6749999995556,6.287069e-06
621.6899999995555,2.625915e-05,621.6899999995555,2.027505e-05,621.6899999995555,0.0001157515,621.6899999995555,6.479067e-06
621.7049999995555,2.788016e-05,621.7049999995555,2.103279e-05,621.7049999995555,0.0001093684,621.7049999995555,6.818068e-06
621.7199999995555,2.820317e-05,621.7199999995555,2.0961e-05,621.7199999995555,0.0001062838,621.7199999995555,6.713969e-06
621.7349999995555,3.193814e-05,621.7349999995555,2.043078e-05,621.7349999995555,9.373866e-05,621.7349999995555,6.80773e-06
621.7499999995555,3.165015e-05,621.7499999995555,2.041698e-05,621.7499999995555,8.882825e-05,621.7499999995555,6.772462e-06
621.7649999995555,3.212856e-05,621.7649999995555,2.270933e-05,621.7649999995555,9.059382e-05,621.7649999995555,6.734918e-06
621.7799999995555,3.139319e-05,621.7799999995555,2.269505e-05,621.7799999995555,8.541185e-05,621.7799999995555,6.707672e-06
621.7949999995554,3.115085e-05,621.7949999995554,2.280774e-05,621.7949999995554,8.037876e-05,621.7949999995554,6.912455e-06
621.8099999995554,3.073063e-05,621.8099999995554,2.296347e-05,621.8099999995554,7.947303e-05,621.8099999995554,6.828391e-06
621.8249999995554,3.0477e-05,621.8249999995554,2.254622e-05,621.8249999995554,6.700991e-05,621.8249999995554,6.584741e-06
621.8399999995554,2.998541e-05,621.8399999995554,2.217834e-05,621.8399999995554,6.08358e-05,621.8399999995554,6.569749e-06
621.8549999995554,2.95753e-05,621.8549999995554,2.287989e-05,621.8549999995554,5.845252e-05,621.8549999995554,6.382687e-06
621.8699999995554,2.958626e-05,621.8699999995554,2.332017e-05,621.8699999995554,5.457553e-05,621.8699999995554,6.187698e-06
621.8849999995554,3.021426e-05,621.8849999995554,2.32118e-05,621.8849999995554,5.176374e-05,621.8849999995554,5.924864e-06
621.8999999995553,3.04673e-05,621.8999999995553,2.32118e-05,621.8999999995553,4.775333e-05,621.8999999995553,6.132817e-06
621.9149999995553,3.088015e-05,621.9149999995553,2.34605e-05,621.9149999995553,5.160538e-05,621.9149999995553,5.965146e-06
621.9299999995553,3.110378e-05,621.9299999995553,2.426394e-05,621.9299999995553,5.348178e-05,621.9299999995553,5.627332e-06
621.9449999995553,3.104666e-05,621.9449999995553,2.386058e-05,621.9449999995553,5.677474e-05,621.9449999995553,5.297233e-06
621.9599999995553,2.965094e-05,621.9599999995553,2.351328e-05,621.9599999995553,6.527976e-05,621.9599999995553,5.219545e-06
621.9749999995553,2.973159e-05,621.9749999995553,2.513651e-05,621.9749999995553,6.589446e-05,621.9749999995553,5.289249e-06
621.9899999995553,2.582261e-05,621.9899999995553,2.539687e-05,621.9899999995553,6.550358e-05,621.9899999995553,5.066156e-06
622.0049999995553,2.517403e-05,622.0049999995553,2.530741e-05,622.0049999995553,6.600809e-05,622.0049999995553,5.060592e-06
622.0199999995552,2.541184e-05,622.0199999995552,2.356235e-05,622.0199999995552,6.581446e-05,622.0199999995552,5.032679e-06
622.0349999995552,2.51964e-05,622.0349999995552,2.449046e-05,622.0349999995552,6.67865e-05,622.0349999995552,5.007424e-06
622.0499999995552,2.464127e-05,622.0499999995552,2.377068e-05,622.0499999995552,6.632021e-05,622.0499999995552,4.928026e-06
622.0649999995552,2.381508e-05,622.0649999995552,2.318872e-05,622.0649999995552,6.644308e-05,622.0649999995552,4.873412e-06
622.0799999995552,2.35964e-05,622.0799999995552,2.374459e-05,622.0799999995552,6.702146e-05,622.0799999995552,4.867628e-06
622.0949999995552,2.29426e-05,622.0949999995552,2.514884e-05,622.0949999995552,6.66205e-05,622.0949999995552,4.780021e-06
622.1099999995552,2.310291e-05,622.1099999995552,2.475591e-05,622.1099999995552,6.682108e-05,622.1099999995552,4.75046e-06
622.1249999995551,2.211219e-05,622.1249999995551,2.471833e-05,622.1249999995551,6.738306e-05,622.1249999995551,4.645514e-06
622.1399999995551,2.184427e-05,622.1399999995551,2.460581e-05,622.1399999995551,6.712879e-05,622.1399999995551,4.525708e-06
622.1549999995551,2.078757e-05,622.1549999995551,2.500278e-05,622.1549999995551,6.673417e-05,622.1549999995551,4.279333e-06
622.1699999995551,1.965414e-05,622.1699999995551,2.438382e-05,622.1699999995551,6.214775e-05,622.1699999995551,4.189512e-06
622.1849999995551,1.865242e-05,622.1849999995551,2.434046e-05,622.1849999995551,6.073267e-05,622.1849999995551,4.145571e-06
622.1999999995551,1.884402e-05,622.1999999995551,2.459435e-05,622.1999999995551,5.600709e-05,622.1999999995551,4.094283e-06
622.2149999995551,1.870295e-05,622.2149999995551,2.453242e-05,622.2149999995551,4.720654e-05,622.2149999995551,3.900464e-06
622.229999999555,1.760338e-05,622.229999999555,2.332803e-05,622.229999999555,4.544718e-05,622.229999999555,3.904074e-06
622.244999999555,1.68017e-05,622.244999999555,2.39578e-05,622.244999999555,4.445027e-05,622.244999999555,4.038859e-06
622.259999999555,1.533044e-05,622.259999999555,2.396603e-05,622.259999999555,4.029745e-05,622.259999999555,4.045829e-06
622.274999999555,1.518734e-05,622.274999999555,2.331353e-05,622.274999999555,3.923474e-05,622.274999999555,4.121716e-06
622.289999999555,1.561088e-05,622.289999999555,2.485303e-05,622.289999999555,3.79135e-05,622.289999999555,4.125132e-06
622.304999999555,1.508404e-05,622.304999999555,2.514828e-05,622.304999999555,3.76353e-05,622.304999999555,3.99326e-06
622.319999999555,1.528995e-05,622.319999999555,2.580842e-05,622.319999999555,3.80059e-05,622.319999999555,4.000309e-06
622.334999999555,1.660351e-05,622.334999999555,2.464871e-05,622.334999999555,3.758361e-05,622.334999999555,4.070128e-06
622.3499999995549,1.623719e-05,622.3499999995549,2.367864e-05,622.3499999995549,3.704186e-05,622.3499999995549,4.135364e-06
622.3649999995549,1.63582e-05,622.3649999995549,2.351268e-05,622.3649999995549,3.797513e-05,622.3649999995549,4.20294e-06
622.3799999995549,1.626147e-05,622.3799999995549,2.367686e-05,622.3799999995549,3.91884e-05,622.3799999995549,4.097722e-06
622.3949999995549,1.614759e-05,622.3949999995549,2.34707e-05,622.3949999995549,4.189411e-05,622.3949999995549,4.11145e-06
622.4099999995549,1.584376e-05,622.4099999995549,2.394721e-05,622.4099999995549,4.32628e-05,622.4099999995549,4.219664e-06
622.4249999995549,1.585531e-05,622.4249999995549,2.371015e-05,622.4249999995549,4.293661e-05,622.4249999995549,4.182782e-06
622.4399999995549,1.526782e-05,622.4399999995549,2.326877e-05,622.4399999995549,4.506494e-05,622.4399999995549,4.249604e-06
622.4549999995548,1.595274e-05,622.4549999995548,2.286449e-05,622.4549999995548,4.812563e-05,622.4549999995548,4.38019e-06
622.4699999995548,1.572954e-05,622.4699999995548,2.232079e-05,622.4699999995548,5.324288e-05,622.4699999995548,4.466178e-06
622.4849999995548,1.57689e-05,622.4849999995548,2.227088e-05,622.4849999995548,5.414537e-05,622.4849999995548,4.424985e-06
622.4999999995548,1.645008e-05,622.4999999995548,2.459149e-05,622.4999999995548,6.780694e-05,622.4999999995548,4.428167e-06
622.5149999995548,1.6922e-05,622.5149999995548,2.527176e-05,622.5149999995548,7.770187e-05,622.5149999995548,4.550541e-06
622.5299999995548,1.687866e-05,622.5299999995548,2.393897e-05,622.5299999995548,8.146172e-05,622.5299999995548,4.386617e-06
622.5449999995548,1.679415e-05,622.5449999995548,2.384641e-05,622.5449999995548,8.139546e-05,622.5449999995548,4.312125e-06
622.5599999995547,1.795202e-05,622.5599999995547,2.312424e-05,622.5599999995547,8.22677e-05,622.5599999995547,4.31539e-06
622.5749999995547,1.792061e-05,622.5749999995547,2.277931e-05,622.5749999995547,8.270779e-05,622.5749999995547,4.27604e-06
622.5899999995547,1.732103e-05,622.5899999995547,2.333467e-05,622.5899999995547,8.705374e-05,622.5899999995547,4.347911e-06
622.6049999995547,1.72436e-05,622.6049999995547,2.339616e-05,622.6049999995547,8.901898e-05,622.6049999995547,4.249604e-06
622.6199999995547,1.706128e-05,622.6199999995547,2.405345e-05,622.6199999995547,8.950631e-05,622.6199999995547,4.35115e-06
622.6349999995547,1.743937e-05,622.6349999995547,2.396309e-05,622.6349999995547,8.940757e-05,622.6349999995547,4.34467e-06
622.6499999995547,1.758817e-05,622.6499999995547,2.581334e-05,622.6499999995547,9.013942e-05,622.6499999995547,4.431347e-06
622.6649999995547,1.845044e-05,622.6649999995547,2.4819e-05,622.6649999995547,8.957977e-05,622.6649999995547,4.389827e-06
622.6799999995546,1.852967e-05,622.6799999995546,2.46121e-05,622.6799999995546,9.290209e-05,622.6799999995546,4.399444e-06
622.6949999995546,1.896102e-05,622.6949999995546,2.462011e-05,622.6949999995546,9.281987e-05,622.6949999995546,4.299038e-06
622.7099999995546,1.947268e-05,622.7099999995546,2.515388e-05,622.7099999995546,8.971554e-05,622.7099999995546,4.189512e-06
622.7249999995546,2.010971e-05,622.7249999995546,2.563866e-05,622.7249999995546,8.690361e-05,622.7249999995546,4.128545e-06
622.7399999995546,2.120023e-05,622.7399999995546,2.525169e-05,622.7399999995546,8.881081e-05,622.7399999995546,4.028382e-06
622.7549999995546,2.150633e-05,622.7549999995546,2.285463e-05,622.7549999995546,8.653487e-05,622.7549999995546,4.11145e-06
622.7699999995546,2.148798e-05,622.7699999995546,2.156259e-05,622.7699999995546,7.887307e-05,622.7699999995546,4.216325e-06
622.7849999995545,2.125398e-05,622.7849999995545,2.154494e-05,622.7849999995545,7.664721e-05,622.7849999995545,4.279333e-06
622.7999999995545,2.064887e-05,622.7999999995545,2.325363e-05,622.7999999995545,7.729763e-05,622.7999999995545,4.266145e-06
622.8149999995545,2.070677e-05,622.8149999995545,2.328209e-05,622.8149999995545,7.70417e-05,622.8149999995545,4.367307e-06
622.8299999995545,1.996348e-05,622.8299999995545,2.322514e-05,622.8299999995545,7.594209e-05,622.8299999995545,4.229668e-06
622.8449999995545,1.989208e-05,622.8449999995545,2.267767e-05,622.8449999995545,6.928841e-05,622.8449999995545,4.272744e-06
622.8599999995545,1.960677e-05,622.8599999995545,2.281762e-05,622.8599999995545,6.949121e-05,622.8599999995545,4.299038e-06
622.8749999995545,2.06884e-05,622.8749999995545,2.203561e-05,622.8749999995545,6.712375e-05,622.8749999995545,4.246287e-06
622.8899999995544,2.020824e-05,622.8899999995544,1.979269e-05,622.8899999995544,6.592245e-05,622.8899999995544,4.434525e-06
622.9049999995544,1.988004e-05,622.9049999995544,2.009359e-05,622.9049999995544,6.410501e-05,622.9049999995544,4.412233e-06
622.9199999995544,1.963836e-05,622.9199999995544,2.025419e-05,622.9199999995544,6.427772e-05,622.9199999995544,4.469331e-06
622.9349999995544,1.96656e-05,622.9349999995544,2.052639e-05,622.9349999995544,5.974018e-05,622.9349999995544,4.459865e-06
622.9499999995544,1.910829e-05,622.9499999995544,2.037209e-05,622.9499999995544,5.955787e-05,622.9499999995544,4.500739e-06
622.9649999995544,1.82817e-05,622.9649999995544,1.930047e-05,622.9649999995544,6.001825e-05,622.9649999995544,4.466178e-06
622.9799999995544,1.799121e-05,622.9799999995544,1.90174e-05,622.9799999995544,5.976564e-05,622.9799999995544,4.463023e-06
622.9949999995544,1.755209e-05,622.9949999995544,1.900703e-05,622.9949999995544,5.498568e-05,622.9949999995544,4.506994e-06
623.0099999995543,1.672186e-05,623.0099999995543,1.843899e-05,623.0099999995543,4.597966e-05,623.0099999995543,4.35115e-06
623.0249999995543,1.667293e-05,623.0249999995543,1.873607e-05,623.0249999995543,4.637441e-05,623.0249999995543,4.182782e-06
623.0399999995543,1.696606e-05,623.0399999995543,1.688033e-05,623.0399999995543,4.461097e-05,623.0399999995543,4.192873e-06
623.0549999995543,1.689201e-05,623.0549999995543,1.667631e-05,623.0549999995543,4.607179e-05,623.0549999995543,4.172666e-06
623.0699999995543,1.669319e-05,623.0699999995543,1.782208e-05,623.0699999995543,4.79996e-05,623.0699999995543,4.118297e-06
623.0849999995543,1.679919e-05,623.0849999995543,1.763536e-05,623.0849999995543,4.744941e-05,623.0849999995543,4.138769e-06
623.0999999995543,1.678828e-05,623.0999999995543,1.720434e-05,623.0999999995543,4.865052e-05,623.0999999995543,4.226336e-06
623.1149999995542,1.671175e-05,623.1149999995542,1.702822e-05,623.1149999995542,5.23216e-05,623.1149999995542,4.142171e-06
623.1299999995542,1.616764e-05,623.1299999995542,1.723706e-05,623.1299999995542,5.23773e-05,623.1299999995542,4.007346e-06
623.1449999995542,1.626666e-05,623.1449999995542,1.761538e-05,623.1449999995542,5.380661e-05,623.1449999995542,3.764466e-06
623.1599999995542,1.643809e-05,623.1599999995542,1.805062e-05,623.1599999995542,5.472014e-05,623.1599999995542,3.599965e-06
623.1749999995542,1.622417e-05,623.1749999995542,1.791275e-05,623.1749999995542,5.872685e-05,623.1749999995542,3.56062e-06
623.1899999995542,1.621288e-05,623.1899999995542,1.862143e-05,623.1899999995542,6.145093e-05,623.1899999995542,3.516832e-06
623.2049999995542,1.579924e-05,623.2049999995542,1.894095e-05,623.2049999995542,6.078669e-05,623.2049999995542,3.627253e-06
623.2199999995541,1.635475e-05,623.2199999995541,1.954417e-05,623.2199999995541,6.123944e-05,623.2199999995541,3.65048e-06
623.2349999995541,1.532768e-05,623.2349999995541,1.951387e-05,623.2349999995541,6.199956e-05,623.2349999995541,3.753223e-06
623.2499999995541,1.452745e-05,623.2499999995541,1.94227e-05,623.2499999995541,6.175575e-05,623.2499999995541,3.692683e-06
623.2649999995541,1.454973e-05,623.2649999995541,1.899962e-05,623.2649999995541,6.450326e-05,623.2649999995541,3.805405e-06
623.2799999995541,1.393351e-05,623.2799999995541,1.878862e-05,623.2799999995541,6.703639e-05,623.2799999995541,3.816494e-06
623.2949999995541,1.769676e-05,623.2949999995541,1.864563e-05,623.2949999995541,6.660634e-05,623.2949999995541,3.885991e-06
623.3099999995541,1.749823e-05,623.3099999995541,1.905588e-05,623.3099999995541,6.533196e-05,623.3099999995541,3.996786e-06
623.324999999554,1.721089e-05,623.324999999554,1.856537e-05,623.324999999554,6.611066e-05,623.324999999554,3.92925e-06
623.339999999554,1.71896e-05,623.339999999554,1.967204e-05,623.339999999554,6.820651e-05,623.339999999554,3.8751e-06
623.354999999554,1.702243e-05,623.354999999554,1.98389e-05,623.354999999554,6.858423e-05,623.354999999554,3.860533e-06
623.369999999554,1.678073e-05,623.369999999554,1.968064e-05,623.369999999554,6.733726e-05,623.369999999554,4.070128e-06
623.384999999554,1.633493e-05,623.384999999554,1.970853e-05,623.384999999554,6.778117e-05,623.384999999554,4.059732e-06
623.399999999554,1.693365e-05,623.399999999554,1.971139e-05,623.399999999554,6.429524e-05,623.399999999554,4.125132e-06
623.414999999554,1.679415e-05,623.414999999554,1.948931e-05,623.414999999554,6.281756e-05,623.414999999554,4.125132e-06
623.429999999554,1.690284e-05,623.429999999554,1.976135e-05,623.429999999554,6.084923e-05,623.429999999554,4.148967e-06
623.4449999995539,1.724932e-05,623.4449999995539,1.946907e-05,623.4449999995539,5.951646e-05,623.4449999995539,4.104592e-06
623.4599999995539,1.746358e-05,623.4599999995539,1.836473e-05,623.4599999995539,5.972344e-05,623.4599999995539,4.135364e-06
623.4749999995539,1.737057e-05,623.4749999995539,1.965772e-05,623.4749999995539,6.010995e-05,623.4749999995539,4.017877e-06
623.4899999995539,1.760098e-05,623.4899999995539,1.974281e-05,623.4899999995539,5.884163e-05,623.4899999995539,4.024883e-06
623.5049999995539,1.750387e-05,623.5049999995539,2.001985e-05,623.5049999995539,6.040731e-05,623.5049999995539,3.947135e-06
623.5199999995539,1.747568e-05,623.5199999995539,1.982754e-05,623.5199999995539,5.819433e-05,623.5199999995539,3.860533e-06
623.5349999995539,1.629003e-05,623.5349999995539,1.994301e-05,623.5349999995539,5.591975e-05,623.5349999995539,3.878734e-06
623.5499999995538,1.412629e-05,623.5499999995538,1.881409e-05,623.5499999995538,5.893254e-05,623.5499999995538,3.91848e-06
623.5649999995538,1.478503e-05,623.5649999995538,1.926906e-05,623.5649999995538,5.732586e-05,623.5649999995538,3.794284e-06
623.5799999995538,1.473254e-05,623.5799999995538,1.951604e-05,623.5799999995538,5.525173e-05,623.5799999995538,3.84957e-06
623.5949999995538,1.486201e-05,623.5949999995538,1.947847e-05,623.5949999995538,5.395015e-05,623.5949999995538,3.764466e-06
623.6099999995538,1.502977e-05,623.6099999995538,1.921782e-05,623.6099999995538,5.323759e-05,623.6099999995538,3.496747e-06
