X[s],a: EMG RMS 1-1,X[s].1,a: EMG RMS 1-2,X[s].2,a: EMG RMS 1-3,X[s].3,a: EMG RMS 1-4
539.0099999996307,1.397994e-05,539.0099999996307,5.230329e-06,539.0099999996307,0.0004803784,539.0099999996307,5.979298e-06
539.0249999996307,1.572507e-05,539.0249999996307,5.132455e-06,539.0249999996307,0.0003847044,539.0249999996307,6.260124e-06
539.0399999996307,1.769835e-05,539.0399999996307,5.189773e-06,539.0399999996307,0.0003958809,539.0399999996307,6.178585e-06
539.0549999996307,1.824005e-05,539.0549999996307,5.214144e-06,539.0549999996307,0.0003719387,539.0549999996307,6.158032e-06
539.0699999996307,1.806856e-05,539.0699999996307,4.887844e-06,539.0699999996307,0.0003646081,539.0699999996307,5.991066e-06
539.0849999996307,1.82948e-05,539.0849999996307,4.666692e-06,539.0849999996307,0.0003627209,539.0849999996307,5.758477e-06
539.0999999996307,1.960031e-05,539.0999999996307,4.596741e-06,539.0999999996307,0.0003505491,539.0999999996307,5.738873e-06
539.1149999996306,2.085725e-05,539.1149999996306,4.651575e-06,539.1149999996306,0.0003513399,539.1149999996306,5.787757e-06
539.1299999996306,2.076248e-05,539.1299999996306,4.522595e-06,539.1299999996306,0.0003505916,539.1299999996306,5.790191e-06
539.1449999996306,2.096974e-05,539.1449999996306,4.47563e-06,539.1449999996306,0.0003603889,539.1449999996306,5.912964e-06
539.1599999996306,2.162847e-05,539.1599999996306,4.017877e-06,539.1599999996306,0.000389519,539.1599999996306,5.773135e-06
539.1749999996306,2.462297e-05,539.1749999996306,3.982663e-06,539.1749999996306,0.0004305889,539.1749999996306,5.748683e-06
539.1899999996306,2.689571e-05,539.1899999996306,4.169289e-06,539.1899999996306,0.0005334782,539.1899999996306,5.162558e-06
539.2049999996306,2.707789e-05,539.2049999996306,4.318654e-06,539.2049999996306,0.0005695171,539.2049999996306,5.015856e-06
539.2199999996305,3.172661e-05,539.2199999996305,4.383405e-06,539.2199999996305,0.0005641337,539.2199999996305,5.091119e-06
539.2349999996305,3.448802e-05,539.2349999996305,4.347911e-06,539.2349999996305,0.0005324131,539.2349999996305,5.118714e-06
539.2499999996305,3.457531e-05,539.2499999996305,4.29248e-06,539.2499999996305,0.0005324154,539.2499999996305,4.984868e-06
539.2649999996305,3.498237e-05,539.2649999996305,4.279333e-06,539.2649999996305,0.0005396965,539.2649999996305,4.899358e-06
539.2799999996305,3.588325e-05,539.2799999996305,4.338181e-06,539.2799999996305,0.0005353151,539.2799999996305,4.68176e-06
539.2949999996305,3.563032e-05,539.2949999996305,4.29576e-06,539.2949999996305,0.0005208646,539.2949999996305,4.615091e-06
539.3099999996305,3.584868e-05,539.3099999996305,4.444044e-06,539.3099999996305,0.000517433,539.3099999996305,4.982041e-06
539.3249999996304,4.120827e-05,539.3249999996304,4.556728e-06,539.3249999996304,0.000515975,539.3249999996304,5.344885e-06
539.3399999996304,4.34979e-05,539.3399999996304,4.947995e-06,539.3399999996304,0.0006322488,539.3399999996304,5.360675e-06
539.3549999996304,4.346194e-05,539.3549999996304,4.876302e-06,539.3549999996304,0.0006439963,539.3549999996304,5.389503e-06
539.3699999996304,4.366759e-05,539.3699999996304,4.942298e-06,539.3699999996304,0.0006635095,539.3699999996304,5.392116e-06
539.3849999996304,4.371885e-05,539.3849999996304,4.965048e-06,539.3849999996304,0.0007117575,539.3849999996304,5.797484e-06
539.3999999996304,4.363338e-05,539.3999999996304,4.973552e-06,539.3999999996304,0.0006996867,539.3999999996304,6.051891e-06
539.4149999996304,4.305423e-05,539.4149999996304,5.013047e-06,539.4149999996304,0.0006599498,539.4149999996304,6.148874e-06
539.4299999996304,4.207462e-05,539.4299999996304,4.732634e-06,539.4299999996304,0.0006274038,539.4299999996304,6.167175e-06
539.4449999996303,4.116175e-05,539.4449999996303,4.69378e-06,539.4449999996303,0.0005665359,539.4449999996303,6.246608e-06
539.4599999996303,4.102532e-05,539.4599999996303,4.633369e-06,539.4599999996303,0.000543598,539.4599999996303,6.365006e-06
539.4749999996303,3.794581e-05,539.4749999996303,4.663672e-06,539.4749999996303,0.0005426676,539.4749999996303,6.210422e-06
539.4899999996303,3.649708e-05,539.4899999996303,4.714741e-06,539.4899999996303,0.0005365772,539.4899999996303,6.382687e-06
539.5049999996303,3.65102e-05,539.5049999996303,4.976383e-06,539.5049999996303,0.0005304666,539.5049999996303,6.356147e-06
539.5199999996303,3.72871e-05,539.5199999996303,4.979213e-06,539.5199999996303,0.0005251865,539.5199999996303,6.759971e-06
539.5349999996303,3.659075e-05,539.5349999996303,5.015856e-06,539.5349999996303,0.0005245279,539.5349999996303,7.109361e-06
539.5499999996302,3.739235e-05,539.5499999996302,5.259872e-06,539.5499999996302,0.0005268331,539.5499999996302,7.089519e-06
539.5649999996302,3.860715e-05,539.5649999996302,5.22494e-06,539.5649999996302,0.0005264698,539.5649999996302,7.047669e-06
539.5799999996302,3.154137e-05,539.5799999996302,5.107694e-06,539.5799999996302,0.0005263991,539.5799999996302,7.011599e-06
539.5949999996302,3.005111e-05,539.5949999996302,5.305204e-06,539.5949999996302,0.0005414833,539.5949999996302,7.135074e-06
539.6099999996302,2.978461e-05,539.6099999996302,5.500745e-06,539.6099999996302,0.0005624644,539.6099999996302,7.194059e-06
539.6249999996302,2.998964e-05,539.6249999996302,5.495621e-06,539.6249999996302,0.0006391013,539.6249999996302,7.556945e-06
539.6399999996302,3.041269e-05,539.6399999996302,5.516089e-06,539.6399999996302,0.0006327343,539.6399999996302,7.29903e-06
539.6549999996301,3.128982e-05,539.6549999996301,5.56693e-06,539.6549999996301,0.000626023,539.6549999996301,7.345202e-06
539.6699999996301,3.049087e-05,539.6699999996301,5.838645e-06,539.6699999996301,0.0006844859,539.6699999996301,7.349037e-06
539.6849999996301,3.046082e-05,539.6849999996301,5.927241e-06,539.6849999996301,0.0007962565,539.6849999996301,7.383459e-06
539.6999999996301,3.031062e-05,539.6999999996301,6.079758e-06,539.6999999996301,0.0008118741,539.6999999996301,7.268085e-06
539.7149999996301,3.010356e-05,539.7149999996301,5.969867e-06,539.7149999996301,0.0008167595,539.7149999996301,7.412022e-06
539.7299999996301,2.97368e-05,539.7299999996301,6.102884e-06,539.7299999996301,0.000838056,539.7299999996301,7.530803e-06
539.7449999996301,2.949518e-05,539.7449999996301,6.146583e-06,539.7449999996301,0.0008587445,539.7449999996301,7.413922e-06
539.75999999963,2.881048e-05,539.75999999963,5.931993e-06,539.75999999963,0.0008711843,539.75999999963,7.752019e-06
539.77499999963,2.729344e-05,539.77499999963,6.002811e-06,539.77499999963,0.0008810271,539.77499999963,7.174451e-06
539.78999999963,2.60491e-05,539.78999999963,5.872325e-06,539.78999999963,0.0008839425,539.78999999963,7.119262e-06
539.80499999963,2.409791e-05,539.80499999963,5.709342e-06,539.80499999963,0.0008858715,539.80499999963,6.838698e-06
539.81999999963,2.386353e-05,539.81999999963,5.706874e-06,539.81999999963,0.0008874428,539.81999999963,6.811867e-06
539.83499999963,2.398013e-05,539.83499999963,5.544109e-06,539.83499999963,0.0008861105,539.83499999963,7.28164e-06
539.84999999963,2.290512e-05,539.84999999963,5.254512e-06,539.84999999963,0.0007607861,539.84999999963,7.444261e-06
539.86499999963,2.396779e-05,539.86499999963,5.060592e-06,539.86499999963,0.0007306619,539.86499999963,7.99181e-06
539.87999999963,2.335156e-05,539.87999999963,5.135199e-06,539.87999999963,0.0006639435,539.87999999963,7.495178e-06
539.8949999996299,2.288543e-05,539.8949999996299,5.197909e-06,539.8949999996299,0.0006477761,539.8949999996299,7.48201e-06
539.9099999996299,2.447953e-05,539.9099999996299,5.302549e-06,539.9099999996299,0.000649633,539.9099999996299,7.711938e-06
539.9249999996299,2.420116e-05,539.9249999996299,5.035477e-06,539.9249999996299,0.000467388,539.9249999996299,7.673483e-06
539.9399999996299,2.584987e-05,539.9399999996299,4.738583e-06,539.9399999996299,0.0004338379,539.9399999996299,7.649581e-06
539.9549999996299,2.750782e-05,539.9549999996299,4.636408e-06,539.9549999996299,0.0004080265,539.9549999996299,7.472591e-06
539.9699999996299,2.714751e-05,539.9699999996299,4.83569e-06,539.9699999996299,0.0004117725,539.9699999996299,7.483893e-06
539.9849999996298,2.667747e-05,539.9849999996298,4.559819e-06,539.9849999996298,0.0003512579,539.9849999996298,7.432898e-06
539.9999999996298,2.692084e-05,539.9999999996298,4.578317e-06,539.9999999996298,0.0003446805,539.9999999996298,7.675319e-06
540.0149999996298,2.707112e-05,540.0149999996298,4.69378e-06,540.0149999996298,0.0002918799,540.0149999996298,7.673483e-06
540.0299999996298,2.752932e-05,540.0299999996298,4.654602e-06,540.0299999996298,0.000272949,540.0299999996298,7.70097e-06
540.0449999996298,2.737024e-05,540.0449999996298,4.639445e-06,540.0449999996298,0.0002593684,540.0449999996298,7.845942e-06
540.0599999996298,2.67834e-05,540.0599999996298,4.581393e-06,540.0599999996298,0.0002652161,540.0599999996298,7.878193e-06
540.0749999996298,2.678129e-05,540.0749999996298,4.562907e-06,540.0749999996298,0.0003262629,540.0749999996298,7.878193e-06
540.0899999996298,2.762586e-05,540.0899999996298,4.826943e-06,540.0899999996298,0.0007868776,540.0899999996298,7.362442e-06
540.1049999996297,3.561095e-05,540.1049999996297,4.838602e-06,540.1049999996297,0.0008039149,540.1049999996297,6.965238e-06
540.1199999996297,3.880985e-05,540.1199999996297,4.844421e-06,540.1199999996297,0.0008107285,540.1199999996297,6.654963e-06
540.1349999996297,3.955904e-05,540.1349999996297,4.815255e-06,540.1349999996297,0.000810568,540.1349999996297,6.552573e-06
540.1499999996297,4.563802e-05,540.1499999996297,4.850233e-06,540.1499999996297,0.0008110365,540.1499999996297,6.185421e-06
540.1649999996297,4.594074e-05,540.1649999996297,4.884961e-06,540.1649999996297,0.0008061608,540.1649999996297,6.063518e-06
540.1799999996297,5.82814e-05,540.1799999996297,4.815255e-06,540.1799999996297,0.0008084869,540.1799999996297,6.246608e-06
540.1949999996297,5.904549e-05,540.1949999996297,4.794733e-06,540.1949999996297,0.0008435544,540.1949999996297,6.393712e-06
540.2099999996296,6.436313e-05,540.2099999996296,4.998978e-06,540.2099999996296,0.000866959,540.2099999996296,6.515924e-06
540.2249999996296,6.521931e-05,540.2249999996296,4.794733e-06,540.2249999996296,0.0008580192,540.2249999996296,6.776621e-06
540.2399999996296,6.610192e-05,540.2399999996296,4.899358e-06,540.2399999996296,0.0008531552,540.2399999996296,6.535352e-06
540.2549999996296,6.651999e-05,540.2549999996296,4.890725e-06,540.2549999996296,0.000850382,540.2549999996296,6.100575e-06
540.2699999996296,6.836761e-05,540.2699999996296,4.756387e-06,540.2699999996296,0.0008430033,540.2699999996296,6.349495e-06
540.2849999996296,7.284251e-05,540.2849999996296,4.70577e-06,540.2849999996296,0.0008398007,540.2849999996296,6.266871e-06
540.2999999996296,7.609441e-05,540.2999999996296,4.690778e-06,540.2999999996296,0.0008396992,540.2999999996296,6.070483e-06
540.3149999996295,7.748583e-05,540.3149999996295,4.806471e-06,540.3149999996295,0.0008391869,540.3149999996295,6.262374e-06
540.3299999996295,7.857927e-05,540.3299999996295,4.824024e-06,540.3299999996295,0.0007079512,540.3299999996295,6.125922e-06
540.3449999996295,8.052251e-05,540.3449999996295,4.768218e-06,540.3449999996295,0.0003605892,540.3449999996295,6.03324e-06
540.3599999996295,7.814135e-05,540.3599999996295,4.708762e-06,540.3599999996295,0.0003613645,540.3599999996295,6.233063e-06
540.3749999996295,7.667184e-05,540.3749999996295,4.824024e-06,540.3749999996295,0.0003553706,540.3749999996295,6.201342e-06
540.3899999996295,7.518991e-05,540.3899999996295,4.596741e-06,540.3899999996295,0.0003532802,540.3899999996295,6.325044e-06
540.4049999996295,7.201613e-05,540.4049999996295,4.82986e-06,540.4049999996295,0.0003417476,540.4049999996295,6.244353e-06
540.4199999996295,6.97821e-05,540.4199999996295,4.913713e-06,540.4199999996295,0.0003379193,540.4199999996295,6.176305e-06
540.4349999996294,6.131484e-05,540.4349999996294,5.305204e-06,540.4349999996294,0.00042556,540.4349999996294,6.16489e-06
540.4499999996294,5.695137e-05,540.4499999996294,5.334332e-06,540.4499999996294,0.0003615464,540.4499999996294,6.042573e-06
540.4649999996294,5.356521e-05,540.4649999996294,5.249148e-06,540.4649999996294,0.0003467012,540.4649999996294,5.903427e-06
540.4799999996294,5.327118e-05,540.4799999996294,5.222243e-06,540.4799999996294,0.0003410472,540.4799999996294,5.56946e-06
540.4949999996294,5.177816e-05,540.4949999996294,5.379038e-06,540.4949999996294,0.0003388226,540.4949999996294,5.809621e-06
540.5099999996294,5.00959e-05,540.5099999996294,5.546649e-06,540.5099999996294,0.0003387717,540.5099999996294,5.95096e-06
540.5249999996294,4.7743e-05,540.5249999996294,5.624828e-06,540.5249999996294,0.0003330759,540.5249999996294,5.850696e-06
540.5399999996293,3.896381e-05,540.5399999996293,5.814468e-06,540.5399999996293,0.0003361276,540.5399999996293,5.879517e-06
540.5549999996293,3.208248e-05,540.5549999996293,5.988714e-06,540.5549999996293,0.0003391494,540.5549999996293,5.799914e-06
540.5699999996293,3.168618e-05,540.5699999996293,6.009847e-06,540.5699999996293,0.0003411294,540.5699999996293,5.677176e-06
540.5849999996293,2.392014e-05,540.5849999996293,6.06584e-06,540.5849999996293,0.0003520172,540.5849999996293,5.782887e-06
540.5999999996293,1.857296e-05,540.5999999996293,5.931993e-06,540.5999999996293,0.0003527309,540.5999999996293,5.609782e-06
540.6149999996293,1.647062e-05,540.6149999996293,5.965146e-06,540.6149999996293,0.0003491762,540.6149999996293,5.619817e-06
540.6299999996293,1.560456e-05,540.6299999996293,6.518086e-06,540.6299999996293,0.000354331,540.6299999996293,5.48022e-06
540.6449999996292,1.457295e-05,540.6449999996292,6.642251e-06,540.6449999996292,0.0004518056,540.6449999996292,5.386888e-06
540.6599999996292,1.482689e-05,540.6599999996292,6.420096e-06,540.6599999996292,0.0004780803,540.6599999996292,5.384273e-06
540.6749999996292,1.439888e-05,540.6749999996292,6.561167e-06,540.6749999996292,0.0004603996,540.6749999996292,5.394728e-06
540.6899999996292,1.385951e-05,540.6899999996292,6.457289e-06,540.6899999996292,0.0004548707,540.6899999996292,5.135199e-06
540.7049999996292,1.274328e-05,540.7049999996292,6.676097e-06,540.7049999996292,0.0004438812,540.7049999996292,5.216845e-06
540.7199999996292,1.254947e-05,540.7199999996292,6.584741e-06,540.7199999996292,0.0004415699,540.7199999996292,5.14616e-06
540.7349999996292,1.221615e-05,540.7349999996292,6.483414e-06,540.7349999996292,0.0004429661,540.7349999996292,5.093886e-06
540.7499999996292,1.155846e-05,540.7499999996292,6.264623e-06,540.7499999996292,0.000443462,540.7499999996292,4.919443e-06
540.7649999996291,1.050232e-05,540.7649999996291,6.316129e-06,540.7649999996291,0.0004440601,540.7649999996291,4.660651e-06
540.7799999996291,1.017394e-05,540.7799999996291,6.141998e-06,540.7799999996291,0.0004439699,540.7799999996291,4.785911e-06
540.7949999996291,1.002469e-05,540.7949999996291,6.070483e-06,540.7949999996291,0.0004378902,540.7949999996291,4.744526e-06
540.8099999996291,1.000781e-05,540.8099999996291,5.974584e-06,540.8099999996291,0.0004320921,540.8099999996291,4.699779e-06
540.8249999996291,9.767037e-06,540.8249999996291,6.030905e-06,540.8249999996291,0.0004293385,540.8249999996291,4.602866e-06
540.8399999996291,9.587998e-06,540.8399999996291,6.351713e-06,540.8399999996291,0.0004222634,540.8399999996291,4.4377e-06
540.8549999996291,9.346957e-06,540.8549999996291,6.360578e-06,540.8549999996291,0.0004216894,540.8549999996291,4.216325e-06
540.869999999629,8.800488e-06,540.869999999629,6.435437e-06,540.869999999629,0.0004194665,540.869999999629,4.125132e-06
540.884999999629,8.787673e-06,540.884999999629,5.729046e-06,540.884999999629,0.0004170676,540.884999999629,4.114875e-06
540.899999999629,8.282642e-06,540.899999999629,5.748683e-06,540.899999999629,0.0002820518,540.899999999629,4.376973e-06
540.914999999629,7.752019e-06,540.914999999629,5.556798e-06,540.914999999629,0.0002255597,540.914999999629,4.393035e-06
540.929999999629,7.584854e-06,540.929999999629,5.178904e-06,540.929999999629,0.0001184847,540.929999999629,4.431347e-06
540.944999999629,7.551351e-06,540.944999999629,5.602244e-06,540.944999999629,0.0001002458,540.944999999629,4.459865e-06
540.959999999629,7.453716e-06,540.959999999629,5.444114e-06,540.959999999629,9.549633e-05,540.959999999629,4.299038e-06
540.974999999629,7.262268e-06,540.974999999629,5.513535e-06,540.974999999629,8.817215e-05,540.974999999629,4.415424e-06
540.9899999996289,7.56626e-06,540.9899999996289,5.724127e-06,540.9899999996289,8.157094e-05,540.9899999996289,4.242968e-06
541.0049999996289,7.597844e-06,541.0049999996289,5.662269e-06,541.0049999996289,6.841046e-05,541.0049999996289,4.11145e-06
541.0199999996289,7.590424e-06,541.0199999996289,5.599728e-06,541.0199999996289,6.448645e-05,541.0199999996289,4.028382e-06
541.0349999996289,7.614512e-06,541.0349999996289,5.589657e-06,541.0349999996289,6.375156e-05,541.0349999996289,4.216325e-06
541.0499999996289,7.569982e-06,541.0499999996289,5.431162e-06,541.0499999996289,6.417638e-05,541.0499999996289,4.672725e-06
541.0649999996289,7.421518e-06,541.0649999996289,5.379038e-06,541.0649999996289,6.322504e-05,541.0649999996289,4.936594e-06
541.0799999996289,7.250621e-06,541.0799999996289,5.132455e-06,541.0799999996289,6.308185e-05,541.0799999996289,4.945147e-06
541.0949999996288,7.197973e-06,541.0949999996288,4.82986e-06,541.0949999996288,6.326224e-05,541.0949999996288,4.919443e-06
541.1099999996288,6.713969e-06,541.1099999996288,4.82986e-06,541.1099999996288,6.456002e-05,541.1099999996288,4.990517e-06
541.1249999996288,6.402519e-06,541.1249999996288,4.720713e-06,541.1249999996288,6.425601e-05,541.1249999996288,5.057808e-06
541.1399999996288,6.426676e-06,541.1399999996288,4.522595e-06,541.1399999996288,6.38176e-05,541.1399999996288,4.962209e-06
541.1549999996288,6.351713e-06,541.1549999996288,4.415424e-06,541.1549999996288,6.395122e-05,541.1549999996288,4.976383e-06
541.1699999996288,6.333946e-06,541.1699999996288,4.444044e-06,541.1699999996288,5.079652e-05,541.1699999996288,5.049445e-06
541.1849999996288,6.114414e-06,541.1849999996288,4.080498e-06,541.1849999996288,4.443189e-05,541.1849999996288,5.052234e-06
541.1999999996287,6.146583e-06,541.1999999996287,3.838577e-06,541.1999999996287,3.712391e-05,541.1999999996287,5.052234e-06
541.2149999996287,6.158032e-06,541.2149999996287,3.856882e-06,541.2149999996287,3.846971e-05,541.2149999996287,5.049445e-06
541.2299999996287,6.618881e-06,541.2299999996287,3.816494e-06,541.2299999996287,3.697753e-05,541.2299999996287,4.973552e-06
541.2449999996287,6.25337e-06,541.2449999996287,3.67356e-06,541.2449999996287,3.9446e-05,541.2449999996287,4.967884e-06
541.2599999996287,6.275856e-06,541.2599999996287,3.786851e-06,541.2599999996287,4.039731e-05,541.2599999996287,4.982041e-06
541.2749999996287,6.415707e-06,541.2749999996287,4.010859e-06,541.2749999996287,4.043286e-05,541.2749999996287,4.973552e-06
541.2899999996287,6.400318e-06,541.2899999996287,4.049309e-06,541.2899999996287,4.038405e-05,541.2899999996287,4.803539e-06
541.3049999996286,6.424483e-06,541.3049999996286,4.038859e-06,541.3049999996286,3.883017e-05,541.3049999996286,4.627284e-06
541.3199999996286,6.248863e-06,541.3199999996286,3.925663e-06,541.3199999996286,3.922109e-05,541.3199999996286,4.450379e-06
541.3349999996286,6.376062e-06,541.3349999996286,3.91848e-06,541.3349999996286,3.876482e-05,541.3349999996286,4.418613e-06
541.3499999996286,6.500773e-06,541.3499999996286,3.922073e-06,541.3499999996286,3.682943e-05,541.3499999996286,4.383405e-06
541.3649999996286,6.472542e-06,541.3649999996286,3.904074e-06,541.3649999996286,3.535967e-05,541.3649999996286,4.415424e-06
541.3799999996286,6.505105e-06,541.3799999996286,3.925663e-06,541.3799999996286,3.548414e-05,541.3799999996286,4.645514e-06
541.3949999996286,6.623136e-06,541.3949999996286,3.972038e-06,541.3949999996286,3.560343e-05,541.3949999996286,4.4218e-06
541.4099999996286,6.720261e-06,541.4099999996286,4.090841e-06,541.4099999996286,3.658652e-05,541.4099999996286,4.456705e-06
541.4249999996285,7.051666e-06,541.4249999996285,4.17604e-06,541.4249999996285,3.747476e-05,541.4249999996285,4.376973e-06
541.4399999996285,7.031661e-06,541.4399999996285,4.108022e-06,541.4399999996285,3.921966e-05,541.4399999996285,4.29248e-06
541.4549999996285,7.105398e-06,541.4549999996285,3.961384e-06,541.4549999996285,3.849021e-05,541.4549999996285,4.282623e-06
541.4699999996285,6.778699e-06,541.4699999996285,3.845909e-06,541.4699999996285,3.776384e-05,541.4699999996285,4.373753e-06
541.4849999996285,6.606099e-06,541.4849999996285,3.73818e-06,541.4849999996285,3.717965e-05,541.4849999996285,4.289197e-06
541.4999999996285,6.54612e-06,541.4999999996285,3.70411e-06,541.4999999996285,3.262542e-05,541.4999999996285,4.544346e-06
541.5149999996285,6.591156e-06,541.5149999996285,3.665883e-06,541.5149999996285,3.083862e-05,541.5149999996285,4.538142e-06
541.5299999996284,6.505105e-06,541.5299999996284,3.59605e-06,541.5299999996284,3.125153e-05,541.5299999996284,4.478776e-06
541.5449999996284,6.316129e-06,541.5449999996284,3.692683e-06,541.5449999996284,3.183521e-05,541.5449999996284,4.424985e-06
541.5599999996284,6.300498e-06,541.5599999996284,3.665883e-06,541.5599999996284,3.212987e-05,541.5599999996284,4.31539e-06
541.5749999996284,6.331722e-06,541.5749999996284,3.607783e-06,541.5749999996284,3.151456e-05,541.5749999996284,4.279333e-06
541.5899999996284,6.196798e-06,541.5899999996284,3.540784e-06,541.5899999996284,3.164971e-05,541.5899999996284,4.36408e-06
541.6049999996284,6.178585e-06,541.6049999996284,3.646619e-06,541.6049999996284,3.175635e-05,541.6049999996284,4.409039e-06
541.6199999996284,6.180865e-06,541.6199999996284,3.685046e-06,541.6199999996284,3.182724e-05,541.6199999996284,4.302314e-06
541.6349999996283,6.116717e-06,541.6349999996283,3.631134e-06,541.6349999996283,3.249866e-05,541.6349999996283,4.135364e-06
541.6499999996283,5.991066e-06,541.6499999996283,3.516832e-06,541.6499999996283,3.372141e-05,541.6499999996283,4.15914e-06
541.6649999996283,5.622323e-06,541.6649999996283,3.468433e-06,541.6649999996283,3.405561e-05,541.6649999996283,4.196231e-06
541.6799999996283,5.60727e-06,541.6799999996283,3.352786e-06,541.6799999996283,3.376399e-05,541.6799999996283,4.145571e-06
541.6949999996283,5.704405e-06,541.6949999996283,3.331712e-06,541.6949999996283,3.068245e-05,541.6949999996283,4.256228e-06
541.7099999996283,5.743781e-06,541.7099999996283,3.284874e-06,541.7099999996283,3.098853e-05,541.7099999996283,4.367307e-06
541.7249999996283,5.831403e-06,541.7249999996283,3.419349e-06,541.7249999996283,3.275383e-05,541.7249999996283,4.289197e-06
541.7399999996283,5.75603e-06,541.7399999996283,3.464369e-06,541.7399999996283,3.47233e-05,541.7399999996283,4.393035e-06
541.7549999996282,5.75603e-06,541.7549999996282,3.310505e-06,541.7549999996282,3.522755e-05,541.7549999996282,4.305587e-06
541.7699999996282,5.694519e-06,541.7699999996282,3.314757e-06,541.7699999996282,3.497956e-05,541.7699999996282,4.389827e-06
541.7849999996282,5.684616e-06,541.7849999996282,3.406967e-06,541.7849999996282,3.525114e-05,541.7849999996282,4.503868e-06
541.7999999996282,5.674694e-06,541.7999999996282,3.319004e-06,541.7999999996282,3.533934e-05,541.7999999996282,4.687774e-06
541.8149999996282,5.753582e-06,541.8149999996282,3.4111e-06,541.8149999996282,3.486136e-05,541.8149999996282,4.654602e-06
541.8299999996282,5.75603e-06,541.8299999996282,3.427579e-06,541.8299999996282,3.504313e-05,541.8299999996282,4.654602e-06
541.8449999996282,5.599728e-06,541.8449999996282,3.516832e-06,541.8449999996282,3.559117e-05,541.8449999996282,4.642481e-06
541.8599999996281,5.741327e-06,541.8599999996281,3.335938e-06,541.8599999996281,3.555037e-05,541.8599999996281,4.602866e-06
541.8749999996281,5.694519e-06,541.8749999996281,3.340158e-06,541.8749999996281,3.571128e-05,541.8749999996281,4.596741e-06
541.8899999996281,5.765811e-06,541.8899999996281,3.327482e-06,541.8899999996281,3.339905e-05,541.8899999996281,4.575239e-06
541.9049999996281,5.891484e-06,541.9049999996281,3.460301e-06,541.9049999996281,3.175857e-05,541.9049999996281,4.642481e-06
541.9199999996281,5.819312e-06,541.9199999996281,3.406967e-06,541.9199999996281,3.05001e-05,541.9199999996281,4.605925e-06
541.9349999996281,5.709342e-06,541.9349999996281,3.439886e-06,541.9349999996281,3.047331e-05,541.9349999996281,4.672725e-06
541.9499999996281,5.682137e-06,541.9499999996281,3.496747e-06,541.9499999996281,3.28054e-05,541.9499999996281,4.73561e-06
541.964999999628,5.733962e-06,541.964999999628,3.439886e-06,541.964999999628,3.505519e-05,541.964999999628,4.630328e-06
541.979999999628,5.684616e-06,541.979999999628,3.386231e-06,541.979999999628,3.45374e-05,541.979999999628,4.696781e-06
541.994999999628,5.765811e-06,541.994999999628,3.496747e-06,541.994999999628,3.454923e-05,541.994999999628,4.844421e-06
542.009999999628,5.780451e-06,542.009999999628,3.488681e-06,542.009999999628,3.486742e-05,542.009999999628,4.876302e-06
542.024999999628,5.770695e-06,542.024999999628,3.340158e-06,542.024999999628,3.588246e-05,542.024999999628,4.720713e-06
542.039999999628,5.862722e-06,542.039999999628,3.301983e-06,542.039999999628,4.640842e-05,542.039999999628,4.68176e-06
542.054999999628,5.841057e-06,542.054999999628,3.40283e-06,542.054999999628,4.665696e-05,542.054999999628,4.675739e-06
542.069999999628,6.01219e-06,542.069999999628,3.331712e-06,542.069999999628,4.751082e-05,542.069999999628,4.550541e-06
542.0849999996279,5.972226e-06,542.0849999996279,3.377901e-06,542.0849999996279,4.787206e-05,542.0849999996279,4.627284e-06
542.0999999996279,6.035575e-06,542.0999999996279,3.36955e-06,542.0999999996279,4.788618e-05,542.0999999996279,4.708762e-06
542.1149999996279,5.877121e-06,542.1149999996279,3.331712e-06,542.1149999996279,4.802102e-05,542.1149999996279,4.726678e-06
542.1299999996279,6.007502e-06,542.1299999996279,3.331712e-06,542.1299999996279,4.778371e-05,542.1299999996279,4.800605e-06
542.1449999996279,6.093644e-06,542.1449999996279,3.237359e-06,542.1449999996279,4.831522e-05,542.1449999996279,4.838602e-06
542.1599999996279,6.121322e-06,542.1599999996279,3.180289e-06,542.1599999996279,4.876389e-05,542.1599999996279,4.882076e-06
542.1749999996279,6.21269e-06,542.1749999996279,3.166973e-06,542.1749999996279,4.951325e-05,542.1749999996279,4.990517e-06
542.1899999996278,6.169459e-06,542.1899999996278,3.076727e-06,542.1899999996278,4.968734e-05,542.1899999996278,4.893604e-06
542.2049999996278,6.208153e-06,542.2049999996278,3.280583e-06,542.2049999996278,4.623934e-05,542.2049999996278,4.844421e-06
542.2199999996278,6.100575e-06,542.2199999996278,3.28916e-06,542.2199999996278,4.542485e-05,542.2199999996278,4.858938e-06
542.2349999996278,6.16489e-06,542.2349999996278,3.237359e-06,542.2349999996278,4.510899e-05,542.2349999996278,4.651575e-06
542.2499999996278,6.13052e-06,542.2499999996278,3.211145e-06,542.2499999996278,4.361917e-05,542.2499999996278,4.803539e-06
542.2649999996278,6.155743e-06,542.2649999996278,3.153601e-06,542.2649999996278,4.433063e-05,542.2649999996278,4.826943e-06
542.2799999996278,6.318359e-06,542.2799999996278,3.224279e-06,542.2799999996278,4.243467e-05,542.2799999996278,4.821102e-06
542.2949999996277,6.402519e-06,542.2949999996277,3.219907e-06,542.2949999996277,3.00042e-05,542.2949999996277,4.844421e-06
542.3099999996277,6.342836e-06,542.3099999996277,3.131187e-06,542.3099999996277,2.995157e-05,542.3099999996277,4.759348e-06
542.3249999996277,6.417902e-06,542.3249999996277,3.149131e-06,542.3249999996277,2.923999e-05,542.3249999996277,4.762306e-06
542.3399999996277,6.4921e-06,542.3399999996277,3.117661e-06,542.3399999996277,3.04451e-05,542.3399999996277,4.73561e-06
542.3549999996277,6.333946e-06,542.3549999996277,3.090432e-06,542.3549999996277,2.944594e-05,542.3549999996277,4.702775e-06
542.3699999996277,6.457289e-06,542.3699999996277,3.180289e-06,542.3699999996277,2.934483e-05,542.3699999996277,4.690778e-06
542.3849999996277,6.395915e-06,542.3849999996277,3.180289e-06,542.3849999996277,2.843943e-05,542.3849999996277,4.67875e-06
542.3999999996277,6.208153e-06,542.3999999996277,3.24605e-06,542.3999999996277,2.754825e-05,542.3999999996277,4.500739e-06
542.4149999996276,6.284828e-06,542.4149999996276,3.306247e-06,542.4149999996276,2.738619e-05,542.4149999996276,4.538142e-06
542.4299999996276,6.221753e-06,542.4299999996276,3.361178e-06,542.4299999996276,2.900103e-05,542.4299999996276,4.553636e-06
542.4449999996276,6.148874e-06,542.4449999996276,3.331712e-06,542.4449999996276,3.006798e-05,542.4449999996276,4.596741e-06
542.4599999996276,6.028569e-06,542.4599999996276,3.228645e-06,542.4599999996276,3.35287e-05,542.4599999996276,4.684768e-06
542.4749999996276,6.151165e-06,542.4749999996276,3.184716e-06,542.4749999996276,3.585143e-05,542.4749999996276,4.73561e-06
542.4899999996276,6.070483e-06,542.4899999996276,3.140172e-06,542.4899999996276,3.740591e-05,542.4899999996276,4.584466e-06
542.5049999996276,6.275856e-06,542.5049999996276,3.211145e-06,542.5049999996276,3.771943e-05,542.5049999996276,4.373753e-06
542.5199999996275,6.711871e-06,542.5199999996275,3.241707e-06,542.5199999996275,3.821032e-05,542.5199999996275,4.36408e-06
542.5349999996275,6.993494e-06,542.5349999996275,3.197958e-06,542.5349999996275,3.852058e-05,542.5349999996275,4.328428e-06
542.5499999996275,7.209706e-06,542.5499999996275,3.228645e-06,542.5499999996275,4.169762e-05,542.5499999996275,4.360851e-06
542.5649999996275,7.283574e-06,542.5649999996275,3.19355e-06,542.5649999996275,4.766534e-05,542.5649999996275,4.910845e-06
542.5799999996275,7.459384e-06,542.5799999996275,3.206755e-06,542.5799999996275,5.149581e-05,542.5799999996275,4.993339e-06
542.5949999996275,7.908532e-06,542.5949999996275,3.219907e-06,542.5949999996275,5.424232e-05,542.5949999996275,5.057808e-06
542.6099999996275,8.124666e-06,542.6099999996275,3.276286e-06,542.6099999996275,5.636136e-05,542.6099999996275,5.015856e-06
542.6249999996274,8.202317e-06,542.6249999996274,3.319004e-06,542.6249999996274,6.343569e-05,542.6249999996274,4.962209e-06
542.6399999996274,8.469321e-06,542.6399999996274,3.301983e-06,542.6399999996274,6.438194e-05,542.6399999996274,5.013047e-06
542.6549999996274,8.673113e-06,542.6549999996274,3.331712e-06,542.6549999996274,6.52124e-05,542.6549999996274,5.176183e-06
542.6699999996274,8.733001e-06,542.6699999996274,3.327482e-06,542.6699999996274,6.532377e-05,542.6699999996274,5.057808e-06
542.6849999996274,8.749116e-06,542.6849999996274,3.508812e-06,542.6849999996274,6.424439e-05,542.6849999996274,5.063375e-06
542.6999999996274,8.739451e-06,542.6999999996274,3.627253e-06,542.6999999996274,6.340793e-05,542.6999999996274,4.870521e-06
542.7149999996274,8.92131e-06,542.7149999996274,3.584279e-06,542.7149999996274,6.820713e-05,542.7149999996274,4.788854e-06
542.7299999996274,8.903924e-06,542.7299999996274,3.696496e-06,542.7299999996274,6.884541e-05,542.7299999996274,4.762306e-06
542.7449999996273,8.819675e-06,542.7449999996273,3.715501e-06,542.7449999996273,6.879342e-05,542.7449999996273,4.67875e-06
542.7599999996273,8.81648e-06,542.7599999996273,3.665883e-06,542.7599999996273,6.942144e-05,542.7599999996273,4.615091e-06
542.7749999996273,8.5108e-06,542.7749999996273,3.611685e-06,542.7749999996273,6.941373e-05,542.7749999996273,4.584466e-06
542.7899999996273,8.105571e-06,542.7899999996273,3.707911e-06,542.7899999996273,7.028696e-05,542.7899999996273,4.547444e-06
542.8049999996273,8.018206e-06,542.8049999996273,3.745709e-06,542.8049999996273,6.959107e-05,542.8049999996273,4.553636e-06
542.8199999996273,7.872827e-06,542.8199999996273,3.775675e-06,542.8199999996273,6.433247e-05,542.8199999996273,3.871464e-06
542.8349999996273,7.231167e-06,542.8349999996273,3.73441e-06,542.8349999996273,6.33319e-05,542.8349999996273,3.73818e-06
542.8499999996272,7.262268e-06,542.8499999996272,3.745709e-06,542.8499999996272,6.262419e-05,542.8499999996272,3.685046e-06
542.8649999996272,7.075597e-06,542.8649999996272,3.842245e-06,542.8649999996272,5.692391e-05,542.8649999996272,3.638885e-06
542.8799999996272,6.859265e-06,542.8799999996272,3.838577e-06,542.8799999996272,5.515527e-05,542.8799999996272,3.82387e-06
542.8949999996272,6.709772e-06,542.8949999996272,3.871464e-06,542.8949999996272,5.493878e-05,542.8949999996272,3.665883e-06
542.9099999996272,6.770382e-06,542.9099999996272,3.943564e-06,542.9099999996272,5.45843e-05,542.9099999996272,3.572469e-06
542.9249999996272,6.749543e-06,542.9249999996272,3.84957e-06,542.9249999996272,5.480143e-05,542.9249999996272,3.548731e-06
542.9399999996272,6.7391e-06,542.9399999996272,3.91848e-06,542.9399999996272,5.535234e-05,542.9399999996272,3.654337e-06
542.9549999996271,6.699267e-06,542.9549999996271,3.867824e-06,542.9549999996271,4.893748e-05,542.9549999996271,4.000309e-06
542.9699999996271,6.599699e-06,542.9699999996271,3.812802e-06,542.9699999996271,4.531494e-05,542.9699999996271,4.070128e-06
542.9849999996271,6.582601e-06,542.9849999996271,3.771943e-06,542.9849999996271,4.387516e-05,542.9849999996271,4.196231e-06
542.9999999996271,6.844875e-06,542.9999999996271,3.760722e-06,542.9999999996271,4.320056e-05,542.9999999996271,4.20294e-06
543.0149999996271,6.871577e-06,543.0149999996271,3.771943e-06,543.0149999996271,4.188772e-05,543.0149999996271,4.305587e-06
543.0299999996271,6.871577e-06,543.0299999996271,3.84957e-06,543.0299999996271,4.031807e-05,543.0299999996271,4.31539e-06
543.0449999996271,6.936866e-06,543.0449999996271,3.711708e-06,543.0449999996271,3.971081e-05,543.0449999996271,4.434525e-06
543.059999999627,6.96726e-06,543.059999999627,3.723076e-06,543.059999999627,3.873755e-05,543.059999999627,4.4377e-06
543.074999999627,6.961192e-06,543.074999999627,3.775675e-06,543.074999999627,3.820405e-05,543.074999999627,4.383405e-06
543.089999999627,7.00557e-06,543.089999999627,3.845909e-06,543.089999999627,3.847374e-05,543.089999999627,4.491339e-06
543.104999999627,6.678206e-06,543.104999999627,3.669723e-06,543.104999999627,3.438534e-05,543.104999999627,4.605925e-06
543.119999999627,6.834577e-06,543.119999999627,3.59605e-06,543.119999999627,3.329301e-05,543.119999999627,4.547444e-06
543.134999999627,6.795303e-06,543.134999999627,3.681221e-06,543.134999999627,3.228339e-05,543.134999999627,4.516361e-06
543.149999999627,6.755802e-06,543.149999999627,3.611685e-06,543.149999999627,3.086784e-05,543.149999999627,4.599804e-06
543.164999999627,6.764137e-06,543.164999999627,3.540784e-06,543.164999999627,3.099626e-05,543.164999999627,4.612038e-06
543.179999999627,6.942956e-06,543.179999999627,3.488681e-06,543.179999999627,3.176877e-05,543.179999999627,4.519479e-06
543.1949999996269,7.164627e-06,543.1949999996269,3.431686e-06,543.1949999996269,3.171063e-05,543.1949999996269,4.48192e-06
543.2099999996269,7.047669e-06,543.2099999996269,3.472492e-06,543.2099999996269,3.189224e-05,543.2099999996269,4.11145e-06
543.2249999996269,6.995509e-06,543.2249999996269,3.476546e-06,543.2249999996269,3.34976e-05,543.2249999996269,4.118297e-06
543.2399999996269,7.135074e-06,543.2399999996269,3.54476e-06,543.2399999996269,3.614648e-05,543.2399999996269,4.0632e-06
543.2549999996269,6.757886e-06,543.2549999996269,3.528828e-06,543.2549999996269,3.788376e-05,543.2549999996269,4.035369e-06
543.2699999996269,6.853102e-06,543.2699999996269,3.524834e-06,543.2699999996269,3.765925e-05,543.2699999996269,4.506994e-06
543.2849999996268,6.820134e-06,543.2849999996268,3.456227e-06,543.2849999996268,3.764466e-05,543.2849999996268,4.788854e-06
543.2999999996268,6.690851e-06,543.2999999996268,3.568524e-06,543.2999999996268,3.783651e-05,543.2999999996268,4.68176e-06
543.3149999996268,7.10738e-06,543.3149999996268,3.611685e-06,543.3149999996268,3.890266e-05,543.3149999996268,4.627284e-06
543.3299999996268,7.312527e-06,543.3299999996268,3.528828e-06,543.3299999996268,3.968703e-05,543.3299999996268,4.590608e-06
543.3449999996268,7.273898e-06,543.3449999996268,3.492716e-06,543.3449999996268,4.667869e-05,543.3449999996268,4.434525e-06
543.3599999996268,7.27777e-06,543.3599999996268,3.599965e-06,543.3599999996268,4.682061e-05,543.3599999996268,4.424985e-06
543.3749999996268,7.295169e-06,543.3749999996268,3.623367e-06,543.3749999996268,4.614084e-05,543.3749999996268,4.453544e-06
543.3899999996268,7.135074e-06,543.3899999996268,3.685046e-06,543.3899999996268,4.63738e-05,543.3899999996268,4.434525e-06
543.4049999996267,6.936866e-06,543.4049999996267,3.665883e-06,543.4049999996267,4.662403e-05,543.4049999996267,4.434525e-06
543.4199999996267,7.021637e-06,543.4199999996267,3.658189e-06,543.4199999996267,4.684888e-05,543.4199999996267,4.440873e-06
543.4349999996267,6.902258e-06,543.4349999996267,3.638885e-06,543.4349999996267,4.637502e-05,543.4349999996267,4.444044e-06
543.4499999996267,6.981399e-06,543.4499999996267,3.692683e-06,543.4499999996267,4.659321e-05,543.4499999996267,4.485062e-06
543.4649999996267,7.312527e-06,543.4649999996267,3.627253e-06,543.4649999996267,4.651393e-05,543.4649999996267,4.550541e-06
543.4799999996267,7.669811e-06,543.4799999996267,3.607783e-06,543.4799999996267,4.724024e-05,543.4799999996267,4.970719e-06
543.4949999996267,7.737468e-06,543.4949999996267,3.669723e-06,543.4949999996267,4.617197e-05,543.4949999996267,5.270573e-06
543.5099999996266,7.71559e-06,543.5099999996266,3.779404e-06,543.5099999996266,4.718087e-05,543.5099999996266,5.299891e-06
543.5249999996266,7.97593e-06,543.5249999996266,3.871464e-06,543.5249999996266,4.741734e-05,543.5249999996266,4.95937e-06
543.5399999996266,7.929877e-06,543.5399999996266,3.82387e-06,543.5399999996266,4.899588e-05,543.5399999996266,4.756387e-06
543.5549999996266,8.018206e-06,543.5549999996266,3.753223e-06,543.5549999996266,5.076045e-05,543.5549999996266,4.794733e-06
543.5699999996266,7.967094e-06,543.5699999996266,3.73441e-06,543.5699999996266,5.074907e-05,543.5699999996266,4.925167e-06
543.5849999996266,8.326743e-06,543.5849999996266,3.753223e-06,543.5849999996266,0.001076965,543.5849999996266,4.982041e-06
543.5999999996266,8.824465e-06,543.5999999996266,3.745709e-06,543.5999999996266,0.001513169,543.5999999996266,5.110451e-06
543.6149999996265,9.088692e-06,543.6149999996265,3.764466e-06,543.6149999996265,0.002011672,543.6149999996265,5.286585e-06
543.6299999996265,1.07777e-05,543.6299999996265,4.189512e-06,543.6299999996265,0.002063537,543.6299999996265,5.358047e-06
543.6449999996265,1.296466e-05,543.6449999996265,5.126963e-06,543.6449999996265,0.002170344,543.6449999996265,5.862722e-06
543.6599999996265,1.321007e-05,543.6599999996265,5.227635e-06,543.6599999996265,0.002253848,543.6599999996265,5.879517e-06
543.6749999996265,1.42108e-05,543.6749999996265,5.523745e-06,543.6749999996265,0.002268022,543.6749999996265,5.901041e-06
543.6899999996265,1.528719e-05,543.6899999996265,5.589657e-06,543.6899999996265,0.002270145,543.6899999996265,6.318359e-06
543.7049999996265,1.776111e-05,543.7049999996265,5.647323e-06,543.7049999996265,0.002274124,543.7049999996265,6.597564e-06
543.7199999996265,1.809816e-05,543.7199999996265,5.797484e-06,543.7199999996265,0.002276538,543.7199999996265,6.57832e-06
543.7349999996264,2.122546e-05,543.7349999996264,6.349495e-06,543.7349999996264,0.00227703,543.7349999996264,6.606099e-06
543.7499999996264,2.220754e-05,543.7499999996264,6.606099e-06,543.7499999996264,0.002277256,543.7499999996264,7.14888e-06
543.7649999996264,2.438555e-05,543.7649999996264,6.743279e-06,543.7649999996264,0.002277349,543.7649999996264,7.36818e-06
543.7799999996264,2.501348e-05,543.7799999996264,7.00959e-06,543.7799999996264,0.002278057,543.7799999996264,8.110784e-06
543.7949999996264,2.605937e-05,543.7949999996264,8.140256e-06,543.7949999996264,0.002278351,543.7949999996264,8.397496e-06
543.8099999996264,2.702842e-05,543.8099999996264,9.198077e-06,543.8099999996264,0.002278432,543.8099999996264,8.827657e-06
543.8249999996264,2.942872e-05,543.8249999996264,9.214908e-06,543.8249999996264,0.002282107,543.8249999996264,9.243908e-06
543.8399999996263,3.067373e-05,543.8399999996263,9.63051e-06,543.8399999996263,0.001924177,543.8399999996263,9.587998e-06
543.8549999996263,3.177497e-05,543.8549999996263,9.877468e-06,543.8549999996263,0.00152118,543.8549999996263,9.701918e-06
543.8699999996263,3.179802e-05,543.8699999996263,9.880319e-06,543.8699999996263,0.0009279078,543.8699999996263,9.840318e-06
543.8849999996263,3.145864e-05,543.8849999996263,9.764152e-06,543.8849999996263,0.0008527495,543.8849999996263,9.945687e-06
543.8999999996263,3.164036e-05,543.8999999996263,9.675749e-06,543.8999999996263,0.0005623523,543.8999999996263,1.000218e-05
543.9149999996263,3.166617e-05,543.9149999996263,1.004294e-05,543.9149999996263,0.0003604663,543.9149999996263,1.0306e-05
543.9299999996263,3.144206e-05,543.9299999996263,9.891719e-06,543.9299999996263,0.0005786362,543.9299999996263,1.037547e-05
543.9449999996262,3.150785e-05,543.9449999996262,9.841749e-06,543.9449999996262,0.0008087428,543.9449999996262,1.040395e-05
543.9599999996262,3.078741e-05,543.9599999996262,9.866052e-06,543.9599999996262,0.001280703,543.9599999996262,1.03333e-05
543.9749999996262,3.056101e-05,543.9749999996262,9.701918e-06,543.9749999996262,0.001690165,543.9749999996262,1.03442e-05
543.9899999996262,2.847606e-05,543.9899999996262,9.41902e-06,543.9899999996262,0.00196253,543.9899999996262,1.038633e-05
544.0049999996262,2.845527e-05,544.0049999996262,9.127357e-06,544.0049999996262,0.002192544,544.0049999996262,9.931514e-06
544.0199999996262,2.796794e-05,544.0199999996262,9.125813e-06,544.0199999996262,0.002334606,544.0199999996262,9.968323e-06
544.0349999996262,2.764625e-05,544.0349999996262,8.136793e-06,544.0349999996262,0.002343811,544.0349999996262,9.268258e-06
544.0499999996262,2.749912e-05,544.0499999996262,7.726537e-06,544.0499999996262,0.002348024,544.0499999996262,9.292544e-06
544.0649999996261,2.65053e-05,544.0649999996261,6.805661e-06,544.0649999996261,0.002357382,544.0649999996261,8.849969e-06
544.0799999996261,2.601013e-05,544.0799999996261,6.724452e-06,544.0799999996261,0.002366926,544.0799999996261,8.576751e-06
544.0949999996261,2.459206e-05,544.0949999996261,5.986361e-06,544.0949999996261,0.002374522,544.0949999996261,8.545489e-06
544.1099999996261,2.546113e-05,544.1099999996261,5.804769e-06,544.1099999996261,0.002376864,544.1099999996261,8.350395e-06
544.1249999996261,2.542403e-05,544.1249999996261,5.946224e-06,544.1249999996261,0.002381652,544.1249999996261,8.148903e-06
544.1399999996261,2.538356e-05,544.1399999996261,5.699464e-06,544.1399999996261,0.002397083,544.1399999996261,8.154087e-06
544.154999999626,2.649201e-05,544.154999999626,4.861837e-06,544.154999999626,0.002409176,544.154999999626,7.822567e-06
544.169999999626,2.690462e-05,544.169999999626,4.612038e-06,544.169999999626,0.002420718,544.169999999626,7.560672e-06
544.184999999626,2.671283e-05,544.184999999626,4.672725e-06,544.184999999626,0.002366423,544.184999999626,7.252564e-06
544.199999999626,2.599496e-05,544.199999999626,4.578317e-06,544.199999999626,0.002175758,544.199999999626,7.485775e-06
544.214999999626,2.575925e-05,544.214999999626,4.726678e-06,544.214999999626,0.002011223,544.214999999626,7.523317e-06
544.229999999626,2.599605e-05,544.229999999626,4.856038e-06,544.229999999626,0.001562402,544.229999999626,7.381551e-06
544.244999999626,2.681441e-05,544.244999999626,5.02147e-06,544.244999999626,0.001354409,544.244999999626,7.011599e-06
544.259999999626,2.567271e-05,544.259999999626,5.029879e-06,544.259999999626,0.0009185444,544.259999999626,6.857212e-06
544.274999999626,2.490059e-05,544.274999999626,5.08004e-06,544.274999999626,0.0006516418,544.274999999626,7.197973e-06
544.2899999996259,2.691875e-05,544.2899999996259,5.110451e-06,544.2899999996259,0.0006133613,544.2899999996259,7.083556e-06
544.3049999996259,2.782655e-05,544.3049999996259,5.104936e-06,544.3049999996259,0.0005849698,544.3049999996259,7.051666e-06
544.3199999996259,2.747759e-05,544.3199999996259,5.286585e-06,544.3199999996259,0.0005739085,544.3199999996259,6.805661e-06
544.3349999996259,2.566722e-05,544.3349999996259,5.594695e-06,544.3349999996259,0.0005533421,544.3349999996259,6.646491e-06
544.3499999996259,2.479969e-05,544.3499999996259,5.659781e-06,544.3499999996259,0.0005357577,544.3499999996259,6.606099e-06
544.3649999996259,2.463384e-05,544.3649999996259,5.828986e-06,544.3649999996259,0.0005328828,544.3649999996259,6.64861e-06
544.3799999996259,2.462755e-05,544.3799999996259,5.828986e-06,544.3799999996259,0.0004050799,544.3799999996259,6.678206e-06
544.3949999996258,2.345509e-05,544.3949999996258,5.943854e-06,544.3949999996258,0.0003528397,544.3949999996258,6.54612e-06
544.4099999996258,2.243787e-05,544.4099999996258,6.009847e-06,544.4099999996258,0.0002879532,544.4099999996258,7.001547e-06
544.4249999996258,2.29929e-05,544.4249999996258,6.05887e-06,544.4249999996258,0.0002064439,544.4249999996258,7.375824e-06
544.4399999996258,2.385113e-05,544.4399999996258,6.244353e-06,544.4399999996258,0.0001738402,544.4399999996258,7.135074e-06
544.4549999996258,2.590431e-05,544.4549999996258,6.378271e-06,544.4549999996258,0.0001970228,544.4549999996258,7.372003e-06
544.4699999996258,2.693078e-05,544.4699999996258,6.400318e-06,544.4699999996258,0.0002033962,544.4699999996258,7.402513e-06
544.4849999996258,2.848892e-05,544.4849999996258,6.709772e-06,544.4849999996258,0.0002300965,544.4849999996258,8.198881e-06
544.4999999996257,2.987056e-05,544.4999999996257,6.879772e-06,544.4999999996257,0.0002299006,544.4999999996257,8.205751e-06
544.5149999996257,3.047423e-05,544.5149999996257,7.350954e-06,544.5149999996257,0.0002703962,544.5149999996257,8.635676e-06
544.5299999996257,3.047931e-05,544.5299999996257,7.797315e-06,544.5299999996257,0.0002805649,544.5299999996257,8.674737e-06
544.5449999996257,3.044972e-05,544.5449999996257,8.207468e-06,544.5449999996257,0.0003035901,544.5449999996257,1.065545e-05
544.5599999996257,3.376358e-05,544.5599999996257,8.452672e-06,544.5599999996257,0.0003226969,544.5599999996257,1.117931e-05
544.5749999996257,3.580307e-05,544.5749999996257,8.800488e-06,544.5749999996257,0.000326999,544.5749999996257,1.119946e-05
544.5899999996257,3.733014e-05,544.5899999996257,9.248478e-06,544.5899999996257,0.0003245082,544.5899999996257,1.124339e-05
544.6049999996256,3.745296e-05,544.6049999996256,9.983855e-06,544.6049999996256,0.0003261214,544.6049999996256,1.148143e-05
544.6199999996256,3.835162e-05,544.6199999996256,1.058648e-05,544.6199999996256,0.0003362123,544.6199999996256,1.160468e-05
544.6349999996256,4.334055e-05,544.6349999996256,1.109965e-05,544.6349999996256,0.0003591284,544.6349999996256,1.177819e-05
544.6499999996256,4.451519e-05,544.6499999996256,1.15743e-05,544.6499999996256,0.000359447,544.6499999996256,1.23936e-05
544.6649999996256,4.769134e-05,544.6649999996256,1.192084e-05,544.6649999996256,0.0003616037,544.6649999996256,1.209563e-05
544.6799999996256,4.879248e-05,544.6799999996256,1.354804e-05,544.6799999996256,0.0003654897,544.6799999996256,1.226104e-05
544.6949999996256,4.889371e-05,544.6949999996256,1.495837e-05,544.6949999996256,0.0003756414,544.6949999996256,1.276979e-05
544.7099999996256,4.928226e-05,544.7099999996256,1.507376e-05,544.7099999996256,0.0003680929,544.7099999996256,1.287853e-05
544.7249999996255,4.92076e-05,544.7249999996255,1.516135e-05,544.7249999996255,0.000366214,544.7249999996255,1.323563e-05
544.7399999996255,4.878786e-05,544.7399999996255,1.55494e-05,544.7399999996255,0.0003552329,544.7399999996255,1.306963e-05
544.7549999996255,4.936651e-05,544.7549999996255,1.556027e-05,544.7549999996255,0.0003450451,544.7549999996255,1.306208e-05
544.7699999996255,4.906368e-05,544.7699999996255,1.55113e-05,544.7699999996255,0.0003448403,544.7699999996255,1.338065e-05
544.7849999996255,4.939618e-05,544.7849999996255,1.556117e-05,544.7849999996255,0.0003373792,544.7849999996255,1.333213e-05
544.7999999996255,5.029599e-05,544.7999999996255,1.552401e-05,544.7999999996255,0.0003293378,544.7999999996255,1.2134e-05
544.8149999996255,4.995341e-05,544.8149999996255,1.544943e-05,544.8149999996255,0.0003223066,544.8149999996255,1.228629e-05
544.8299999996254,5.165968e-05,544.8299999996254,1.55222e-05,544.8299999996254,0.00031853,544.8299999996254,1.233663e-05
544.8449999996254,5.208711e-05,544.8449999996254,1.52549e-05,544.8449999996254,0.0003237691,544.8449999996254,1.241631e-05
544.8599999996254,5.249094e-05,544.8599999996254,1.512414e-05,544.8599999996254,0.0003202383,544.8599999996254,1.257414e-05
544.8749999996254,5.284159e-05,544.8749999996254,1.476501e-05,544.8749999996254,0.00031871,544.8749999996254,1.29527e-05
544.8899999996254,5.014284e-05,544.8899999996254,1.455747e-05,544.8899999996254,0.0003036321,544.8899999996254,1.289493e-05
544.9049999996254,4.992182e-05,544.9049999996254,1.486864e-05,544.9049999996254,0.0003038719,544.9049999996254,1.254834e-05
544.9199999996254,4.845497e-05,544.9199999996254,1.485632e-05,544.9199999996254,0.0003054436,544.9199999996254,1.269788e-05
544.9349999996253,5.353338e-05,544.9349999996253,1.346147e-05,544.9349999996253,0.0003018217,544.9349999996253,1.235261e-05
544.9499999996253,5.369182e-05,544.9499999996253,1.242198e-05,544.9499999996253,0.0002873199,544.9499999996253,1.245143e-05
544.9649999996253,5.423505e-05,544.9649999996253,1.252025e-05,544.9649999996253,0.0002886504,544.9649999996253,1.213632e-05
544.9799999996253,5.488208e-05,544.9799999996253,1.232407e-05,544.9799999996253,0.0002881955,544.9799999996253,1.193147e-05
544.9949999996253,5.53111e-05,544.9949999996253,1.23697e-05,544.9949999996253,0.0003017733,544.9949999996253,1.246613e-05
545.0099999996253,5.546294e-05,545.0099999996253,1.252025e-05,545.0099999996253,0.0002900578,545.0099999996253,1.264452e-05
545.0249999996253,5.667367e-05,545.0249999996253,1.336485e-05,545.0249999996253,0.0002963478,545.0249999996253,1.236173e-05
545.0399999996253,5.629109e-05,545.0399999996253,1.348342e-05,545.0399999996253,0.0002950251,545.0399999996253,1.233778e-05
545.0549999996252,5.420543e-05,545.0549999996252,1.32792e-05,545.0549999996252,0.0002844616,545.0549999996252,1.21896e-05
545.0699999996252,5.187845e-05,545.0699999996252,1.363717e-05,545.0699999996252,0.0002870532,545.0699999996252,1.183545e-05
545.0849999996252,5.28885e-05,545.0849999996252,1.43646e-05,545.0849999996252,0.0002950623,545.0849999996252,1.179372e-05
545.0999999996252,5.272337e-05,545.0999999996252,1.545034e-05,545.0999999996252,0.0002995734,545.0999999996252,1.1896e-05
545.1149999996252,5.090594e-05,545.1149999996252,1.62502e-05,545.1149999996252,0.0002964978,545.1149999996252,1.154749e-05
545.1299999996252,5.026517e-05,545.1299999996252,1.618157e-05,545.1299999996252,0.0002835463,545.1299999996252,1.103473e-05
545.1449999996252,4.925453e-05,545.1449999996252,1.566943e-05,545.1449999996252,0.0002781265,545.1449999996252,1.0762e-05
545.1599999996251,4.816659e-05,545.1599999996251,1.529272e-05,545.1599999996251,0.000274846,545.1599999996251,1.125717e-05
545.1749999996251,4.640235e-05,545.1749999996251,1.566853e-05,545.1749999996251,0.0002652245,545.1749999996251,1.24966e-05
545.1899999996251,3.969448e-05,545.1899999996251,1.669742e-05,545.1899999996251,0.0002701788,545.1899999996251,1.607414e-05
545.2049999996251,3.787261e-05,545.2049999996251,1.677737e-05,545.2049999996251,0.0002700332,545.2049999996251,1.64398e-05
545.2199999996251,3.927421e-05,545.2199999996251,1.66501e-05,545.2199999996251,0.0002678358,545.2199999996251,1.939077e-05
545.2349999996251,3.805887e-05,545.2349999996251,1.62606e-05,545.2349999996251,0.0002673783,545.2349999996251,2.435608e-05
545.2499999996251,3.558641e-05,545.2499999996251,1.589967e-05,545.2499999996251,0.0002466087,545.2499999996251,2.798908e-05
545.264999999625,3.820811e-05,545.264999999625,1.585265e-05,545.264999999625,0.0002697168,545.264999999625,8.696972e-05
545.279999999625,4.525771e-05,545.279999999625,1.503727e-05,545.279999999625,0.0003054785,545.279999999625,0.0001000234
545.294999999625,4.742328e-05,545.294999999625,1.510084e-05,545.294999999625,0.0003082972,545.294999999625,0.0001032003
545.309999999625,6.018513e-05,545.309999999625,1.570086e-05,545.309999999625,0.0003165815,545.309999999625,0.0001034058
545.324999999625,8.191267e-05,545.324999999625,1.578586e-05,545.324999999625,0.0003130166,545.324999999625,0.0001035771
545.339999999625,8.348623e-05,545.339999999625,1.603553e-05,545.339999999625,0.000312036,545.339999999625,0.0001036125
545.354999999625,8.899635e-05,545.354999999625,1.424545e-05,545.354999999625,0.0003267902,545.354999999625,0.0001039166
545.369999999625,9.399588e-05,545.369999999625,1.560998e-05,545.369999999625,0.0003363047,545.369999999625,0.0001039396
545.3849999996249,9.463512e-05,545.3849999996249,1.793004e-05,545.3849999996249,0.0003415218,545.3849999996249,0.0001039789
545.3999999996249,9.551551e-05,545.3999999996249,2.061131e-05,545.3999999996249,0.0003442201,545.3999999996249,0.0001040198
545.4149999996249,9.582339e-05,545.4149999996249,2.269133e-05,545.4149999996249,0.0003451327,545.4149999996249,0.0001042646
545.4299999996249,9.701381e-05,545.4299999996249,2.261235e-05,545.4299999996249,0.0003429964,545.4299999996249,0.0001037826
545.4449999996249,9.794632e-05,545.4449999996249,2.24943e-05,545.4449999996249,0.0003377702,545.4449999996249,0.000103872
545.4599999996249,9.731001e-05,545.4599999996249,2.309803e-05,545.4599999996249,0.0003344239,545.4599999996249,0.0001039979
545.4749999996249,9.871861e-05,545.4749999996249,2.314494e-05,545.4749999996249,0.0003385455,545.4749999996249,0.0001033904
545.4899999996248,0.0001004171,545.4899999996248,2.318812e-05,545.4899999996248,0.0003881081,545.4899999996248,0.000101827
545.5049999996248,0.0001045908,545.5049999996248,2.390541e-05,545.5049999996248,0.0003961175,545.5049999996248,9.336205e-05
545.5199999996248,0.0001023779,545.5199999996248,2.438036e-05,545.5199999996248,0.0004270742,545.5199999996248,3.504956e-05
545.5349999996248,9.943492e-05,545.5349999996248,2.451289e-05,545.5349999996248,0.0005221087,545.5349999996248,2.889884e-05
545.5499999996248,0.0001073973,545.5499999996248,2.483829e-05,545.5499999996248,0.0005118607,545.5499999996248,2.131884e-05
545.5649999996248,9.468364e-05,545.5649999996248,2.437226e-05,545.5649999996248,0.0005322706,545.5649999996248,2.074348e-05
545.5799999996248,8.13579e-05,545.5799999996248,2.49492e-05,545.5799999996248,0.0005561815,545.5799999996248,2.043836e-05
545.5949999996247,8.253712e-05,545.5949999996247,2.495597e-05,545.5949999996247,0.0005610995,545.5949999996247,2.123475e-05
545.6099999996247,8.175137e-05,545.6099999996247,2.523327e-05,545.6099999996247,0.0005519401,545.6099999996247,2.187585e-05
545.6249999996247,7.924315e-05,545.6249999996247,2.423257e-05,545.6249999996247,0.0005508821,545.6249999996247,2.175381e-05
545.6399999996247,7.95315e-05,545.6399999996247,2.209625e-05,545.6399999996247,0.001173464,545.6399999996247,2.199466e-05
545.6549999996247,8.092057e-05,545.6549999996247,1.99218e-05,545.6549999996247,0.001362071,545.6549999996247,2.152597e-05
545.6699999996247,8.967062e-05,545.6699999996247,1.939222e-05,545.6699999996247,0.001569696,545.6699999996247,2.039075e-05
545.6849999996247,9.805743e-05,545.6849999996247,1.880361e-05,545.6849999996247,0.001631907,545.6849999996247,1.987083e-05
545.6999999996247,0.000103868,545.6999999996247,1.869844e-05,545.6999999996247,0.001694322,545.6999999996247,1.984316e-05
545.7149999996246,0.0001075869,545.7149999996246,1.83655e-05,545.7149999996246,0.001698668,545.7149999996246,1.854183e-05
545.7299999996246,0.0001104141,545.7299999996246,1.852207e-05,545.7299999996246,0.001711174,545.7299999996246,1.868562e-05
545.7449999996246,0.0001091462,545.7449999996246,1.952326e-05,545.7449999996246,0.001881408,545.7449999996246,1.892086e-05
545.7599999996246,0.0001108455,545.7599999996246,1.891416e-05,545.7599999996246,0.002038221,545.7599999996246,1.873531e-05
545.7749999996246,0.0001204103,545.7749999996246,1.875485e-05,545.7749999996246,0.002298848,545.7749999996246,1.858888e-05
545.7899999996246,0.0001182676,545.7899999996246,1.86063e-05,545.7899999996246,0.002348002,545.7899999996246,1.845731e-05
545.8049999996246,0.0001182769,545.8049999996246,1.852283e-05,545.8049999996246,0.002350115,545.8049999996246,1.872779e-05
545.8199999996245,0.0001189972,545.8199999996245,1.756733e-05,545.8199999996245,0.002351407,545.8199999996245,1.873531e-05
545.8349999996245,0.0001192615,545.8349999996245,1.854487e-05,545.8349999996245,0.002367709,545.8349999996245,1.783867e-05
545.8499999996245,0.0001181293,545.8499999996245,2.011111e-05,545.8499999996245,0.002374149,545.8499999996245,1.694695e-05
545.8649999996245,0.000119949,545.8649999996245,1.989987e-05,545.8649999996245,0.002375445,545.8649999996245,1.536989e-05
545.8799999996245,0.0001197653,545.8799999996245,1.914217e-05,545.8799999996245,0.002271541,545.8799999996245,1.68895e-05
545.8949999996245,0.0001212613,545.8949999996245,1.913997e-05,545.8949999996245,0.002097602,545.8949999996245,1.721089e-05
545.9099999996245,0.000122178,545.9099999996245,1.857826e-05,545.9099999996245,0.001956681,545.9099999996245,1.711157e-05
545.9249999996244,0.0001150229,545.9249999996244,1.859115e-05,545.9249999996244,0.001819566,545.9249999996244,1.674039e-05
545.9399999996244,0.0001081505,545.9399999996244,1.87541e-05,545.9399999996244,0.001777712,545.9399999996244,1.69727e-05
545.9549999996244,0.0001031166,545.9549999996244,1.869241e-05,545.9549999996244,0.001697209,545.9549999996244,1.918921e-05
545.9699999996244,0.0001001348,545.9699999996244,1.811917e-05,545.9699999996244,0.001696586,545.9699999996244,1.965987e-05
545.9849999996244,9.412767e-05,545.9849999996244,1.706953e-05,545.9849999996244,0.001693621,545.9849999996244,1.920389e-05
545.9999999996244,9.346355e-05,545.9999999996244,1.687615e-05,545.9999999996244,0.001411681,545.9999999996244,1.870371e-05
546.0149999996244,8.405075e-05,546.0149999996244,1.699676e-05,546.0149999996244,0.001100154,546.0149999996244,1.866073e-05
546.0299999996244,7.532e-05,546.0299999996244,1.745713e-05,546.0299999996244,0.0005566775,546.0299999996244,1.887166e-05
546.0449999996243,7.469216e-05,546.0449999996243,1.73072e-05,546.0449999996243,0.000357172,546.0449999996243,1.885374e-05
546.0599999996243,6.827875e-05,546.0599999996243,1.715597e-05,546.0599999996243,0.0003443008,546.0599999996243,1.817661e-05
546.0749999996243,6.624072e-05,546.0749999996243,1.642694e-05,546.0749999996243,0.0003163113,546.0749999996243,1.850838e-05
546.0899999996243,6.471366e-05,546.0899999996243,1.292221e-05,546.0899999996243,0.0002302133,546.0899999996243,1.874283e-05
546.1049999996243,6.16281e-05,546.1049999996243,1.216994e-05,546.1049999996243,0.0001514371,546.1049999996243,1.829634e-05
546.1199999996243,5.321695e-05,546.1199999996243,1.173385e-05,546.1199999996243,0.0001389032,546.1199999996243,1.669235e-05
546.1349999996243,4.970378e-05,546.1349999996243,1.194209e-05,546.1349999996243,0.0001250659,546.1349999996243,1.599948e-05
546.1499999996242,4.570865e-05,546.1499999996242,1.19102e-05,546.1499999996242,0.0001253472,546.1499999996242,1.565504e-05
546.1649999996242,4.184027e-05,546.1649999996242,1.186517e-05,546.1649999996242,0.0001273146,546.1649999996242,1.579478e-05
546.1799999996242,3.858598e-05,546.1799999996242,1.069899e-05,546.1799999996242,0.000127058,546.1799999996242,1.548676e-05
546.1949999996242,3.574637e-05,546.1949999996242,1.039311e-05,546.1949999996242,0.0001296344,546.1949999996242,1.257414e-05
546.2099999996242,2.904277e-05,546.2099999996242,1.012675e-05,546.2099999996242,0.0001242386,546.2099999996242,1.042829e-05
546.2249999996242,2.72919e-05,546.2249999996242,1.012118e-05,546.2249999996242,0.0001145894,546.2249999996242,1.003873e-05
546.2399999996242,2.664313e-05,546.2399999996242,1.015453e-05,546.2399999996242,0.0001065027,546.2399999996242,1.021125e-05
546.2549999996241,2.563317e-05,546.2549999996241,9.013988e-06,546.2549999996241,0.000100701,546.2549999996241,9.897414e-06
546.2699999996241,2.330749e-05,546.2699999996241,7.770169e-06,546.2699999996241,9.841664e-05,546.2699999996241,9.846043e-06
546.2849999996241,2.366555e-05,546.2849999996241,5.905813e-06,546.2849999996241,9.698709e-05,546.2849999996241,9.387561e-06
546.2999999996241,2.227467e-05,546.2999999996241,5.865124e-06,546.2999999996241,9.217109e-05,546.2999999996241,9.284961e-06
546.3149999996241,2.171038e-05,546.3149999996241,5.955692e-06,546.3149999996241,9.186385e-05,546.3149999996241,8.998348e-06
546.3299999996241,2.130033e-05,546.3299999996241,5.924864e-06,546.3299999996241,8.580807e-05,546.3299999996241,8.109047e-06
546.3449999996241,2.068091e-05,546.3449999996241,5.753582e-06,546.3449999996241,8.490385e-05,546.3449999996241,6.918566e-06
546.359999999624,1.962329e-05,546.359999999624,5.731505e-06,546.359999999624,8.626716e-05,546.359999999624,7.00758e-06
546.374999999624,1.789307e-05,546.374999999624,5.363302e-06,546.374999999624,7.834353e-05,546.374999999624,7.00557e-06
546.389999999624,1.773651e-05,546.389999999624,5.235713e-06,546.389999999624,7.795996e-05,546.389999999624,7.231167e-06
546.404999999624,1.693864e-05,546.404999999624,4.73561e-06,546.404999999624,7.144978e-05,546.404999999624,7.105398e-06
546.419999999624,1.685778e-05,546.419999999624,4.199587e-06,546.419999999624,6.921131e-05,546.419999999624,6.772462e-06
546.434999999624,1.611265e-05,546.434999999624,4.282623e-06,546.434999999624,6.992044e-05,546.434999999624,6.840758e-06
546.449999999624,1.521699e-05,546.449999999624,4.341427e-06,546.449999999624,6.502463e-05,546.449999999624,6.376062e-06
546.464999999624,1.504476e-05,546.464999999624,4.256228e-06,546.464999999624,6.653312e-05,546.464999999624,5.281253e-06
546.4799999996239,1.469712e-05,546.4799999996239,4.714741e-06,546.4799999996239,6.942509e-05,546.4799999996239,5.412975e-06
546.4949999996239,1.445064e-05,546.4949999996239,4.950841e-06,546.4949999996239,7.211484e-05,546.4949999996239,5.200618e-06
546.5099999996239,1.293638e-05,546.5099999996239,4.890725e-06,546.5099999996239,7.19118e-05,546.5099999996239,5.368553e-06
546.5249999996239,1.210494e-05,546.5249999996239,4.956529e-06,546.5249999996239,7.166593e-05,546.5249999996239,5.344885e-06
546.5399999996239,1.151695e-05,546.5399999996239,4.858938e-06,546.5399999996239,7.245062e-05,546.5399999996239,5.758477e-06
546.5549999996239,1.164225e-05,546.5549999996239,4.913713e-06,546.5549999996239,7.121181e-05,546.5549999996239,5.850696e-06
546.5699999996239,1.186636e-05,546.5699999996239,4.69378e-06,546.5699999996239,7.170503e-05,546.5699999996239,6.11211e-06
546.5849999996238,1.180924e-05,546.5849999996238,4.896482e-06,546.5849999996238,7.172664e-05,546.5849999996238,6.107498e-06
546.5999999996238,1.185092e-05,546.5999999996238,4.893604e-06,546.5999999996238,7.248056e-05,546.5999999996238,5.984008e-06
546.6149999996238,1.164467e-05,546.6149999996238,4.884961e-06,546.6149999996238,6.94328e-05,546.6149999996238,5.958057e-06
546.6299999996238,1.138038e-05,546.6299999996238,4.945147e-06,546.6299999996238,6.928291e-05,546.6299999996238,6.026232e-06
546.6449999996238,1.090504e-05,546.6449999996238,4.896482e-06,546.6449999996238,6.865219e-05,546.6449999996238,5.711809e-06
546.6599999996238,1.081944e-05,546.6599999996238,4.765263e-06,546.6599999996238,6.365404e-05,546.6599999996238,5.931993e-06
546.6749999996238,1.073842e-05,546.6749999996238,4.841512e-06,546.6749999996238,6.357765e-05,546.6749999996238,6.044903e-06
546.6899999996238,1.068713e-05,546.6899999996238,4.844421e-06,546.6899999996238,6.249066e-05,546.6899999996238,5.969867e-06
546.7049999996237,1.016978e-05,546.7049999996237,4.708762e-06,546.7049999996237,5.931874e-05,546.7049999996237,5.836232e-06
546.7199999996237,1.013926e-05,546.7199999996237,4.75046e-06,546.7199999996237,5.726833e-05,546.7199999996237,5.889093e-06
546.7349999996237,9.932932e-06,546.7349999996237,3.957827e-06,546.7349999996237,5.042299e-05,546.7349999996237,5.743781e-06
546.7499999996237,9.780009e-06,546.7499999996237,3.939991e-06,546.7499999996237,5.075241e-05,546.7499999996237,5.392116e-06
546.7649999996237,9.794402e-06,546.7649999996237,3.947135e-06,546.7649999996237,5.077932e-05,546.7649999996237,5.943854e-06
546.7799999996237,9.791525e-06,546.7799999996237,3.889614e-06,546.7799999996237,5.002555e-05,546.7799999996237,6.162605e-06
546.7949999996237,9.817387e-06,546.7949999996237,3.936414e-06,546.7949999996237,5.134129e-05,546.7949999996237,5.694519e-06
546.8099999996236,9.969736e-06,546.8099999996236,3.84957e-06,546.8099999996236,5.364116e-05,546.8099999996236,5.714275e-06
546.8249999996236,9.823125e-06,546.8249999996236,3.838577e-06,546.8249999996236,5.512385e-05,546.8249999996236,5.467352e-06
546.8399999996236,9.40555e-06,546.8399999996236,3.638885e-06,546.8399999996236,5.675737e-05,546.8399999996236,5.544109e-06
546.8549999996236,9.378553e-06,546.8549999996236,3.685046e-06,546.8549999996236,6.002975e-05,546.8549999996236,5.629835e-06
546.8699999996236,1.005696e-05,546.8699999996236,3.56062e-06,546.8699999996236,6.261271e-05,546.8699999996236,5.526294e-06
546.8849999996236,1.038768e-05,546.8849999996236,3.588207e-06,546.8849999996236,6.48411e-05,546.8849999996236,5.412975e-06
546.8999999996236,1.039717e-05,546.8999999996236,3.59605e-06,546.8999999996236,6.647402e-05,546.8999999996236,5.418178e-06
546.9149999996235,1.040259e-05,546.9149999996235,3.760722e-06,546.9149999996235,6.79267e-05,546.9149999996235,5.214144e-06
546.9299999996235,1.072398e-05,546.9299999996235,3.797995e-06,546.9299999996235,7.250816e-05,546.9299999996235,4.953686e-06
546.9449999996235,1.074628e-05,546.9449999996235,3.603876e-06,546.9449999996235,7.522455e-05,546.9449999996235,4.939447e-06
546.9599999996235,1.070689e-05,546.9599999996235,3.677393e-06,546.9599999996235,7.594858e-05,546.9599999996235,5.057808e-06
546.9749999996235,1.06409e-05,546.9749999996235,3.599965e-06,546.9749999996235,7.72174e-05,546.9749999996235,4.990517e-06
546.9899999996235,1.072004e-05,546.9899999996235,3.768206e-06,546.9899999996235,7.750728e-05,546.9899999996235,5.113207e-06
547.0049999996235,1.059845e-05,547.0049999996235,3.768206e-06,547.0049999996235,8.131616e-05,547.0049999996235,5.038274e-06
547.0199999996235,1.068054e-05,547.0199999996235,3.812802e-06,547.0199999996235,8.300802e-05,547.0199999996235,4.513241e-06
547.0349999996234,1.06581e-05,547.0349999996234,3.885991e-06,547.0349999996234,8.94531e-05,547.0349999996234,4.052786e-06
547.0499999996234,1.093728e-05,547.0499999996234,3.867824e-06,547.0499999996234,9.280075e-05,547.0499999996234,3.982663e-06
547.0649999996234,1.128841e-05,547.0649999996234,3.954266e-06,547.0649999996234,9.66596e-05,547.0649999996234,4.087396e-06
547.0799999996234,1.109076e-05,547.0799999996234,4.242968e-06,547.0799999996234,9.564992e-05,547.0799999996234,4.308857e-06
547.0949999996234,1.113512e-05,547.0949999996234,4.34467e-06,547.0949999996234,0.0001005082,547.0949999996234,4.386617e-06
547.1099999996234,1.064355e-05,547.1099999996234,4.354386e-06,547.1099999996234,9.804838e-05,547.1099999996234,4.272744e-06
547.1249999996234,1.066999e-05,547.1249999996234,4.415424e-06,547.1249999996234,9.657445e-05,547.1249999996234,4.252917e-06
547.1399999996233,1.055584e-05,547.1399999996233,4.513241e-06,547.1399999996233,9.576281e-05,547.1399999996233,4.370531e-06
547.1549999996233,1.086103e-05,547.1549999996233,4.587538e-06,547.1549999996233,9.673987e-05,547.1549999996233,4.525708e-06
547.1699999996233,1.102835e-05,547.1699999996233,4.466178e-06,547.1699999996233,9.651171e-05,547.1699999996233,4.612038e-06
547.1849999996233,1.057717e-05,547.1849999996233,4.513241e-06,547.1849999996233,9.274532e-05,547.1849999996233,4.605925e-06
547.1999999996233,1.074104e-05,547.1999999996233,4.602866e-06,547.1999999996233,9.505115e-05,547.1999999996233,4.66971e-06
547.2149999996233,1.058116e-05,547.2149999996233,4.690778e-06,547.2149999996233,9.526979e-05,547.2149999996233,4.732634e-06
547.2299999996233,1.031966e-05,547.2299999996233,4.732634e-06,547.2299999996233,0.0001004099,547.2299999996233,4.858938e-06
547.2449999996232,1.102579e-05,547.2449999996232,4.596741e-06,547.2449999996232,0.0001184825,547.2449999996232,4.984868e-06
547.2599999996232,1.110345e-05,547.2599999996232,4.648545e-06,547.2599999996232,0.0001178914,547.2599999996232,5.08004e-06
547.2749999996232,1.106533e-05,547.2749999996232,4.654602e-06,547.2749999996232,0.0001184886,547.2749999996232,5.358047e-06
547.2899999996232,1.129465e-05,547.2899999996232,4.618143e-06,547.2899999996232,0.0001184397,547.2899999996232,5.544109e-06
547.3049999996232,1.190074e-05,547.3049999996232,4.66971e-06,547.3049999996232,0.0001173384,547.3049999996232,5.795054e-06
547.3199999996232,1.20021e-05,547.3199999996232,4.500739e-06,547.3199999996232,0.0001221647,547.3199999996232,5.962784e-06
547.3349999996232,1.3989e-05,547.3349999996232,4.466178e-06,547.3349999996232,0.0001253756,547.3349999996232,5.953326e-06
547.3499999996232,1.400108e-05,547.3499999996232,4.447213e-06,547.3499999996232,0.0001244818,547.3499999996232,6.105191e-06
547.3649999996231,1.39072e-05,547.3649999996231,4.519479e-06,547.3649999996231,0.0001268642,547.3649999996231,6.176305e-06
547.3799999996231,1.452163e-05,547.3799999996231,4.428167e-06,547.3799999996231,0.0001274027,547.3799999996231,6.217223e-06
547.3949999996231,1.493104e-05,547.3949999996231,4.415424e-06,547.3949999996231,0.0001356816,547.3949999996231,6.569749e-06
547.4099999996231,1.540834e-05,547.4099999996231,4.331681e-06,547.4099999996231,0.0001377498,547.4099999996231,6.431058e-06
547.4249999996231,1.589967e-05,547.4249999996231,4.389827e-06,547.4249999996231,0.0001403664,547.4249999996231,6.450741e-06
547.4399999996231,1.630731e-05,547.4399999996231,4.34467e-06,547.4399999996231,0.0001407317,547.4399999996231,6.476893e-06
547.454999999623,1.677149e-05,547.454999999623,4.469331e-06,547.454999999623,0.0001378037,547.454999999623,6.322817e-06
547.469999999623,1.69893e-05,547.469999999623,4.47563e-06,547.469999999623,0.0001406537,547.469999999623,6.239839e-06
547.484999999623,1.74046e-05,547.484999999623,4.491339e-06,547.484999999623,0.0001346288,547.484999999623,6.178585e-06
547.499999999623,1.765771e-05,547.499999999623,4.52882e-06,547.499999999623,0.0001340645,547.499999999623,6.072803e-06
547.514999999623,1.817816e-05,547.514999999623,4.506994e-06,547.514999999623,0.0001350356,547.514999999623,6.002811e-06
547.529999999623,1.859115e-05,547.529999999623,4.453544e-06,547.529999999623,0.0001385669,547.529999999623,5.843468e-06
547.544999999623,1.84512e-05,547.544999999623,4.538142e-06,547.544999999623,0.0001358358,547.544999999623,5.642331e-06
547.559999999623,1.842217e-05,547.559999999623,4.497608e-06,547.559999999623,0.0001353815,547.559999999623,5.669728e-06
547.574999999623,1.818126e-05,547.574999999623,4.402644e-06,547.574999999623,0.0001279782,547.574999999623,5.431162e-06
547.5899999996229,1.690534e-05,547.5899999996229,4.302314e-06,547.5899999996229,0.0001252352,547.5899999996229,5.305204e-06
547.6049999996229,1.728277e-05,547.6049999996229,4.259536e-06,547.6049999996229,0.0001232662,547.6049999996229,5.151632e-06
547.6199999996229,1.772539e-05,547.6199999996229,4.370531e-06,547.6199999996229,0.0001212446,547.6199999996229,5.035477e-06
547.6349999996229,1.715022e-05,547.6349999996229,4.249604e-06,547.6349999996229,0.0001189497,547.6349999996229,4.905105e-06
547.6499999996229,1.700587e-05,547.6499999996229,4.27604e-06,547.6499999996229,0.0001144475,547.6499999996229,4.762306e-06
547.6649999996229,1.703814e-05,547.6649999996229,4.556728e-06,547.6649999996229,0.0001113387,547.6649999996229,4.82986e-06
547.6799999996229,1.721007e-05,547.6799999996229,4.503868e-06,547.6799999996229,0.0001107923,547.6799999996229,4.809401e-06
547.6949999996228,1.696523e-05,547.6949999996228,4.428167e-06,547.6949999996228,0.0001132119,547.6949999996228,4.788854e-06
547.7099999996228,1.712638e-05,547.7099999996228,4.232997e-06,547.7099999996228,0.0001141731,547.7099999996228,4.850233e-06
547.7249999996228,1.660096e-05,547.7249999996228,4.52882e-06,547.7249999996228,0.0001042283,547.7249999996228,4.765263e-06
547.7399999996228,1.686446e-05,547.7399999996228,4.575239e-06,547.7399999996228,0.0001026707,547.7399999996228,5.035477e-06
547.7549999996228,1.618157e-05,547.7549999996228,4.572159e-06,547.7549999996228,9.362091e-05,547.7549999996228,5.165286e-06
547.7699999996228,1.634441e-05,547.7699999996228,4.729657e-06,547.7699999996228,9.512418e-05,547.7699999996228,5.490492e-06
547.7849999996228,1.613362e-05,547.7849999996228,4.785911e-06,547.7849999996228,9.348314e-05,547.7849999996228,5.632336e-06
547.7999999996227,1.637971e-05,547.7999999996227,4.774123e-06,547.7999999996227,8.921625e-05,547.7999999996227,5.556798e-06
547.8149999996227,1.705302e-05,547.8149999996227,4.824024e-06,547.8149999996227,9.098265e-05,547.8149999996227,5.451871e-06
547.8299999996227,1.707366e-05,547.8299999996227,4.853136e-06,547.8299999996227,9.047074e-05,547.8299999996227,5.644828e-06
547.8449999996227,1.767525e-05,547.8449999996227,4.976383e-06,547.8449999996227,9.315134e-05,547.8449999996227,5.714275e-06
547.8599999996227,1.863656e-05,547.8599999996227,5.029879e-06,547.8599999996227,9.338544e-05,547.8599999996227,6.128222e-06
547.8749999996227,1.874208e-05,547.8749999996227,5.007424e-06,547.8749999996227,9.22948e-05,547.8749999996227,6.125922e-06
547.8899999996227,1.881859e-05,547.8899999996227,5.057808e-06,547.8899999996227,9.34141e-05,547.8899999996227,6.056544e-06
547.9049999996226,1.927126e-05,547.9049999996226,5.077266e-06,547.9049999996226,9.81156e-05,547.9049999996226,6.296025e-06
547.9199999996226,1.99543e-05,547.9199999996226,4.984868e-06,547.9199999996226,9.918428e-05,547.9199999996226,6.400318e-06
547.9349999996226,2.058054e-05,547.9349999996226,5.08004e-06,547.9349999996226,0.0001011091,547.9349999996226,6.66131e-06
547.9499999996226,2.074823e-05,547.9499999996226,5.373798e-06,547.9499999996226,0.0001037779,547.9499999996226,6.997522e-06
547.9649999996226,2.113301e-05,547.9649999996226,5.381656e-06,547.9649999996226,0.0001097652,547.9649999996226,7.071614e-06
547.9799999996226,2.187521e-05,547.9799999996226,5.027078e-06,547.9799999996226,0.0005617393,547.9799999996226,7.423416e-06
547.9949999996226,2.250244e-05,547.9949999996226,5.096651e-06,547.9949999996226,0.0006718641,547.9949999996226,7.590424e-06
548.0099999996226,2.243096e-05,548.0099999996226,5.154366e-06,548.0099999996226,0.0008103804,548.0099999996226,7.682656e-06
548.0249999996225,2.277498e-05,548.0249999996225,5.093886e-06,548.0249999996225,0.0008529363,548.0249999996225,7.791894e-06
548.0399999996225,2.268264e-05,548.0399999996225,5.035477e-06,548.0399999996225,0.0008538641,548.0399999996225,7.817162e-06
548.0549999996225,2.421338e-05,548.0549999996225,5.091119e-06,548.0549999996225,0.0008585975,548.0549999996225,7.791894e-06
548.0699999996225,2.464642e-05,548.0699999996225,5.115961e-06,548.0699999996225,0.0008669076,548.0699999996225,7.995334e-06
548.0849999996225,2.511577e-05,548.0849999996225,5.121465e-06,548.0849999996225,0.0008690457,548.0849999996225,7.947621e-06
548.0999999996225,2.465442e-05,548.0999999996225,5.027078e-06,548.0999999996225,0.0008704714,548.0999999996225,8.129866e-06
548.1149999996225,2.45284e-05,548.1149999996225,4.970719e-06,548.1149999996225,0.0008711854,548.1149999996225,8.055015e-06
548.1299999996224,2.603882e-05,548.1299999996224,5.024275e-06,548.1299999996224,0.0008712241,548.1299999996224,8.147174e-06
548.1449999996224,2.665528e-05,548.1449999996224,5.165286e-06,548.1449999996224,0.0008710977,548.1449999996224,7.981227e-06
548.1599999996224,2.679444e-05,548.1599999996224,5.195198e-06,548.1599999996224,0.0008705418,548.1599999996224,7.806343e-06
548.1749999996224,2.693497e-05,548.1749999996224,5.137942e-06,548.1749999996224,0.0008702065,548.1749999996224,7.730182e-06
548.1899999996224,2.662038e-05,548.1899999996224,5.099414e-06,548.1899999996224,0.0008700225,548.1899999996224,7.647739e-06
548.2049999996224,2.651115e-05,548.2049999996224,5.162558e-06,548.2049999996224,0.0008693738,548.2049999996224,7.72289e-06
548.2199999996224,2.647925e-05,548.2199999996224,5.462197e-06,548.2199999996224,0.0008674866,548.2199999996224,7.640368e-06
548.2349999996223,2.733419e-05,548.2349999996223,5.614802e-06,548.2349999996223,0.0005598436,548.2349999996223,7.373913e-06
548.2499999996223,2.70628e-05,548.2499999996223,5.505864e-06,548.2499999996223,0.0004825111,548.2499999996223,7.38918e-06
548.2649999996223,2.888324e-05,548.2649999996223,5.602244e-06,548.2649999996223,0.0002385666,548.2649999996223,7.413922e-06
548.2799999996223,2.951093e-05,548.2799999996223,5.614802e-06,548.2799999996223,0.0001879545,548.2799999996223,7.69548e-06
548.2949999996223,3.255626e-05,548.2949999996223,5.729046e-06,548.2949999996223,0.0001872514,548.2949999996223,7.693649e-06
548.3099999996223,3.132357e-05,548.3099999996223,5.782887e-06,548.3099999996223,0.0001730743,548.3099999996223,8.174792e-06
548.3249999996223,3.169952e-05,548.3249999996223,5.920107e-06,548.3249999996223,0.0001503859,548.3249999996223,7.95825e-06
548.3399999996223,3.210267e-05,548.3399999996223,6.026232e-06,548.3399999996223,0.000144055,548.3399999996223,7.671647e-06
548.3549999996222,3.633888e-05,548.3549999996222,6.371642e-06,548.3549999996222,0.0001360196,548.3549999996222,7.956479e-06
548.3699999996222,3.651599e-05,548.3699999996222,7.033664e-06,548.3699999996222,0.0001440561,548.3699999996222,8.135063e-06
548.3849999996222,3.821695e-05,548.3849999996222,7.800928e-06,548.3849999996222,0.0001659269,548.3849999996222,8.303025e-06
548.3999999996222,4.160867e-05,548.3999999996222,8.212614e-06,548.3999999996222,0.0001787246,548.3999999996222,9.071627e-06
548.4149999996222,4.795174e-05,548.4149999996222,8.946537e-06,548.4149999996222,0.0001904812,548.4149999996222,9.462292e-06
548.4299999996222,4.984925e-05,548.4299999996222,9.50833e-06,548.4299999996222,0.0002072381,548.4299999996222,1.021263e-05
548.4449999996222,5.027078e-05,548.4449999996222,1.023192e-05,548.4449999996222,0.0002122891,548.4449999996222,1.11212e-05
548.4599999996221,5.107915e-05,548.4599999996221,1.03714e-05,548.4599999996221,0.0002208583,548.4599999996221,1.222883e-05
548.4749999996221,5.481762e-05,548.4749999996221,1.243331e-05,548.4749999996221,0.0002326707,548.4749999996221,1.315878e-05
548.4899999996221,5.791091e-05,548.4899999996221,1.294508e-05,548.4899999996221,0.0002410276,548.4899999996221,1.376159e-05
548.5049999996221,6.00776e-05,548.5049999996221,1.322712e-05,548.5049999996221,0.0002406771,548.5049999996221,1.396582e-05
548.5199999996221,6.249877e-05,548.5199999996221,1.353348e-05,548.5199999996221,0.0002406912,548.5199999996221,1.420088e-05
548.5349999996221,6.21609e-05,548.5349999996221,1.382491e-05,548.5349999996221,0.0002414847,548.5349999996221,1.409134e-05
548.5499999996221,6.237107e-05,548.5499999996221,1.457488e-05,548.5499999996221,0.0002474263,548.5499999996221,1.41223e-05
548.564999999622,6.292489e-05,548.564999999622,1.455457e-05,548.564999999622,0.0002466617,548.564999999622,1.412629e-05
548.579999999622,6.371421e-05,548.579999999622,1.489136e-05,548.579999999622,0.0002553109,548.579999999622,1.425928e-05
548.594999999622,6.506275e-05,548.594999999622,1.517342e-05,548.594999999622,0.0002710742,548.594999999622,1.536623e-05
548.609999999622,6.583628e-05,548.609999999622,1.532032e-05,548.609999999622,0.0002736142,548.609999999622,1.547038e-05
548.624999999622,6.666891e-05,548.624999999622,1.512041e-05,548.624999999622,0.0002734902,548.624999999622,1.553036e-05
548.639999999622,6.621328e-05,548.639999999622,1.489136e-05,548.639999999622,0.0002761715,548.639999999622,1.608203e-05
548.654999999622,6.473369e-05,548.654999999622,1.465584e-05,548.654999999622,0.0002740021,548.654999999622,1.642694e-05
548.669999999622,6.163405e-05,548.669999999622,1.468177e-05,548.669999999622,0.0002762792,548.669999999622,1.66501e-05
548.6849999996219,6.191567e-05,548.6849999996219,1.426027e-05,548.6849999996219,0.0002790327,548.6849999996219,1.666617e-05
548.6999999996219,6.406742e-05,548.6999999996219,1.408434e-05,548.6999999996219,0.0002797322,548.6999999996219,1.64218e-05
548.7149999996219,6.349384e-05,548.7149999996219,1.259317e-05,548.7149999996219,0.0002733114,548.7149999996219,1.588815e-05
548.7299999996219,6.045323e-05,548.7299999996219,1.242651e-05,548.7299999996219,0.0002699961,548.7299999996219,1.572148e-05
548.7449999996219,5.881002e-05,548.7449999996219,1.22484e-05,548.7449999996219,0.0002637097,548.7449999996219,1.536623e-05
548.7599999996219,5.743363e-05,548.7599999996219,1.268567e-05,548.7599999996219,0.0002632768,548.7599999996219,1.575192e-05
548.7749999996219,5.521373e-05,548.7749999996219,1.269677e-05,548.7749999996219,0.0002626953,548.7749999996219,1.557203e-05
548.7899999996218,5.597992e-05,548.7899999996218,1.273001e-05,548.7899999996218,0.0002621556,548.7899999996218,1.578943e-05
548.8049999996218,5.483149e-05,548.8049999996218,1.236173e-05,548.8049999996218,0.0002596211,548.8049999996218,1.585176e-05
548.8199999996218,5.511235e-05,548.8199999996218,1.226219e-05,548.8199999996218,0.0002599142,548.8199999996218,1.620419e-05
548.8349999996218,5.422258e-05,548.8349999996218,1.220808e-05,548.8349999996218,0.0002438593,548.8349999996218,1.542388e-05
548.8499999996218,5.518668e-05,548.8499999996218,1.220923e-05,548.8499999996218,0.0002351489,548.8499999996218,1.562261e-05
548.8649999996218,5.211145e-05,548.8649999996218,1.21711e-05,548.8649999996218,0.0002313067,548.8649999996218,1.591827e-05
548.8799999996218,5.071298e-05,548.8799999996218,1.225874e-05,548.8799999996218,0.0002207618,548.8799999996218,1.592358e-05
548.8949999996217,5.438678e-05,548.8949999996217,1.221038e-05,548.8949999996217,0.0002166897,548.8949999996217,1.504289e-05
548.9099999996217,5.480143e-05,548.9099999996217,1.19739e-05,548.9099999996217,0.0002260945,548.9099999996217,1.498002e-05
548.9249999996217,5.371753e-05,548.9249999996217,1.209563e-05,548.9249999996217,0.0002193104,548.9249999996217,1.466641e-05
548.9399999996217,5.051537e-05,548.9399999996217,1.204428e-05,548.9399999996217,0.0002046363,548.9399999996217,1.376261e-05
548.9549999996217,5.307169e-05,548.9549999996217,1.231149e-05,548.9549999996217,0.0002064348,548.9549999996217,1.327495e-05
548.9699999996217,5.248557e-05,548.9699999996217,1.233207e-05,548.9699999996217,0.0002026752,548.9699999996217,1.310944e-05
548.9849999996217,5.252367e-05,548.9849999996217,1.233435e-05,548.9849999996217,0.0002055005,548.9849999996217,1.312233e-05
548.9999999996217,5.202514e-05,548.9999999996217,1.212471e-05,548.9999999996217,0.0002049117,548.9999999996217,1.29233e-05
549.0149999996216,5.367398e-05,549.0149999996216,1.173745e-05,549.0149999996216,0.0002047609,549.0149999996216,1.231949e-05
549.0299999996216,5.459617e-05,549.0299999996216,1.171463e-05,549.0299999996216,0.0001983107,549.0299999996216,1.222768e-05
549.0449999996216,5.542508e-05,549.0449999996216,1.135187e-05,549.0449999996216,0.0002068116,549.0449999996216,1.290367e-05
549.0599999996216,5.681443e-05,549.0599999996216,1.104749e-05,549.0599999996216,0.0002003012,549.0599999996216,1.264675e-05
549.0749999996216,5.565234e-05,549.0749999996216,1.114018e-05,549.0749999996216,0.0001984797,549.0749999996216,1.245708e-05
549.0899999996216,5.383724e-05,549.0899999996216,1.135187e-05,549.0899999996216,0.0002032283,549.0899999996216,1.233892e-05
549.1049999996216,5.193978e-05,549.1049999996216,1.107932e-05,549.1049999996216,0.0002016979,549.1049999996216,1.159254e-05
549.1199999996215,5.25813e-05,549.1199999996215,1.110218e-05,549.1199999996215,0.0002039729,549.1199999996215,1.151084e-05
549.1349999996215,5.400104e-05,549.1349999996215,1.122709e-05,549.1349999996215,0.0001946174,549.1349999996215,1.11604e-05
549.1499999996215,5.378986e-05,549.1499999996215,1.123838e-05,549.1499999996215,0.0001947207,549.1499999996215,1.120826e-05
549.1649999996215,5.468975e-05,549.1649999996215,1.13096e-05,549.1649999996215,0.0001726724,549.1649999996215,1.063295e-05
549.1799999996215,5.480014e-05,549.1799999996215,1.116671e-05,549.1799999996215,0.0001716919,549.1799999996215,1.045392e-05
549.1949999996215,5.651188e-05,549.1949999996215,1.111233e-05,549.1949999996215,0.0001670352,549.1949999996215,1.085843e-05
549.2099999996215,5.40073e-05,549.2099999996215,1.090374e-05,549.2099999996215,0.0001700889,549.2099999996215,1.223343e-05
549.2249999996214,5.428645e-05,549.2249999996214,1.070294e-05,549.2249999996214,0.0001780373,549.2249999996214,1.238677e-05
549.2399999996214,5.370809e-05,549.2399999996214,1.053714e-05,549.2399999996214,0.0001719039,549.2399999996214,1.218498e-05
549.2549999996214,5.438859e-05,549.2549999996214,1.053714e-05,549.2549999996214,0.0001704792,549.2549999996214,1.220115e-05
549.2699999996214,5.166622e-05,549.2699999996214,9.861767e-06,549.2699999996214,0.0001664797,549.2699999996214,1.168694e-05
549.2849999996214,5.025368e-05,549.2849999996214,9.942854e-06,549.2849999996214,0.0001664298,549.2849999996214,1.157795e-05
549.2999999996214,4.669589e-05,549.2999999996214,9.759823e-06,549.2999999996214,0.00015391,549.2999999996214,1.048084e-05
549.3149999996214,4.577579e-05,549.3149999996214,1.429776e-05,549.3149999996214,0.0001521079,549.3149999996214,1.045258e-05
549.3299999996214,4.614236e-05,549.3299999996214,1.43979e-05,549.3299999996214,0.0001540982,549.3299999996214,1.043909e-05
549.3449999996213,4.701966e-05,549.3449999996213,1.390619e-05,549.3449999996213,0.0001775674,549.3449999996213,1.003733e-05
549.3599999996213,5.3375e-05,549.3599999996213,1.470478e-05,549.3599999996213,0.0001879285,549.3599999996213,1.086492e-05
549.3749999996213,5.320768e-05,549.3749999996213,1.45352e-05,549.3749999996213,0.0001819485,549.3749999996213,1.12909e-05
549.3899999996213,5.20154e-05,549.3899999996213,1.449541e-05,549.3899999996213,0.0002114032,549.3899999996213,1.315343e-05
549.4049999996213,5.148021e-05,549.4049999996213,1.43891e-05,549.4049999996213,0.0002115499,549.4049999996213,1.32122e-05
549.4199999996213,4.869075e-05,549.4199999996213,1.410633e-05,549.4199999996213,0.000214755,549.4199999996213,1.342584e-05
549.4349999996213,5.136818e-05,549.4349999996213,1.407334e-05,549.4349999996213,0.0002390125,549.4349999996213,1.410932e-05
549.4499999996212,4.92694e-05,549.4499999996212,1.413227e-05,549.4499999996212,0.0002546641,549.4499999996212,1.484493e-05
549.4649999996212,4.983907e-05,549.4649999996212,1.411132e-05,549.4649999996212,0.000251769,549.4649999996212,1.440377e-05
549.4799999996212,5.102451e-05,549.4799999996212,1.406633e-05,549.4799999996212,0.0002506546,549.4799999996212,1.515391e-05
549.4949999996212,5.164331e-05,549.4949999996212,1.435479e-05,549.4949999996212,0.0002519077,549.4949999996212,1.547858e-05
549.5099999996212,5.146817e-05,549.5099999996212,1.434497e-05,549.5099999996212,0.0002633627,549.5099999996212,1.603553e-05
549.5249999996212,5.450709e-05,549.5249999996212,1.453908e-05,549.5249999996212,0.0002687374,549.5249999996212,1.648003e-05
549.5399999996212,5.576158e-05,549.5399999996212,1.444577e-05,549.5399999996212,0.0002721044,549.5399999996212,1.718468e-05
549.5549999996211,5.71023e-05,549.5549999996211,1.445454e-05,549.5549999996211,0.0002781585,549.5549999996211,1.745713e-05
549.5699999996211,5.861112e-05,549.5699999996211,9.76848e-06,549.5699999996211,0.0002832324,549.5699999996211,1.807947e-05
549.5849999996211,5.842287e-05,549.5849999996211,9.959841e-06,549.5849999996211,0.0002647475,549.5849999996211,1.798182e-05
549.5999999996211,5.879948e-05,549.5999999996211,9.813081e-06,549.5999999996211,0.0002604815,549.5999999996211,1.789465e-05
549.6149999996211,5.16804e-05,549.6149999996211,8.515764e-06,549.6149999996211,0.0002613445,549.6149999996211,1.776349e-05
549.6299999996211,5.115989e-05,549.6299999996211,8.452672e-06,549.6299999996211,0.0002585608,549.6299999996211,1.790331e-05
549.6449999996211,4.984925e-05,549.6449999996211,8.294538e-06,549.6449999996211,0.0002434231,549.6449999996211,1.681678e-05
549.659999999621,5.047017e-05,549.659999999621,8.323359e-06,549.659999999621,0.0002479999,549.659999999621,1.680086e-05
549.674999999621,5.01108e-05,549.674999999621,8.620983e-06,549.674999999621,0.0002515453,549.674999999621,1.66991e-05
549.689999999621,4.833067e-05,549.689999999621,8.594799e-06,549.689999999621,0.000226665,549.689999999621,1.586064e-05
549.704999999621,4.962976e-05,549.704999999621,8.410905e-06,549.704999999621,0.0002187445,549.704999999621,1.537173e-05
549.719999999621,4.872979e-05,549.719999999621,8.599714e-06,549.719999999621,0.0002200534,549.719999999621,1.580281e-05
549.734999999621,4.777869e-05,549.734999999621,8.397496e-06,549.734999999621,0.0002244722,549.734999999621,1.507002e-05
549.749999999621,4.897518e-05,549.749999999621,8.303025e-06,549.749999999621,0.0002450355,549.749999999621,1.638229e-05
549.764999999621,4.898898e-05,549.764999999621,8.5866e-06,549.764999999621,0.0002341011,549.764999999621,1.574655e-05
549.7799999996209,5.39893e-05,549.7799999996209,9.108818e-06,549.7799999996209,0.0002533046,549.7799999996209,1.611265e-05
549.7949999996209,5.392795e-05,549.7949999996209,9.150478e-06,549.7949999996209,0.0002535668,549.7949999996209,1.593596e-05
549.8099999996209,5.656146e-05,549.8099999996209,9.601211e-06,549.8099999996209,0.000250342,549.8099999996209,1.566763e-05
549.8249999996209,5.572696e-05,549.8249999996209,9.898837e-06,549.8249999996209,0.0002480733,549.8249999996209,1.504102e-05
549.8399999996209,5.620293e-05,549.8399999996209,9.925839e-06,549.8399999996209,0.0002511342,549.8399999996209,1.524566e-05
549.8549999996209,5.552259e-05,549.8549999996209,1.007934e-05,549.8549999996209,0.000258668,549.8549999996209,1.564693e-05
549.8699999996209,5.66682e-05,549.8699999996209,1.024843e-05,549.8699999996209,0.0002641149,549.8699999996209,1.477169e-05
549.8849999996208,5.650639e-05,549.8849999996208,1.077901e-05,549.8849999996208,0.0002626221,549.8849999996208,1.478503e-05
549.8999999996208,5.687093e-05,549.8999999996208,1.071346e-05,549.8999999996208,0.0002601029,549.8999999996208,1.474305e-05
549.9149999996208,5.699192e-05,549.9149999996208,1.050634e-05,549.9149999996208,0.0002526282,549.9149999996208,1.453035e-05
549.9299999996208,5.544414e-05,549.9299999996208,1.007795e-05,549.9299999996208,0.0002413838,549.9299999996208,1.412928e-05
549.9449999996208,5.50855e-05,549.9449999996208,1.004855e-05,549.9449999996208,0.0002397781,549.9449999996208,1.382491e-05
549.9599999996208,5.342301e-05,549.9599999996208,1.037004e-05,549.9599999996208,0.0002353928,549.9599999996208,1.32792e-05
549.9749999996208,5.231164e-05,549.9749999996208,1.02841e-05,549.9749999996208,0.0002314599,549.9749999996208,1.221615e-05
549.9899999996207,5.070992e-05,549.9899999996207,1.024568e-05,549.9899999996207,0.0002181117,549.9899999996207,1.194327e-05
550.0049999996207,4.973892e-05,550.0049999996207,9.985267e-06,550.0049999996207,0.000201282,550.0049999996207,1.207815e-05
550.0199999996207,4.36027e-05,550.0199999996207,9.739596e-06,550.0199999996207,0.0001883202,550.0199999996207,2.02173e-05
550.0349999996207,3.833473e-05,550.0349999996207,8.918151e-06,550.0349999996207,0.0001643289,550.0349999996207,3.371472e-05
550.0499999996207,3.647585e-05,550.0499999996207,9.751159e-06,550.0499999996207,0.0001606864,550.0499999996207,4.065383e-05
550.0649999996207,3.198222e-05,550.0649999996207,1.268123e-05,550.0649999996207,0.0001658044,550.0649999996207,4.291823e-05
550.0799999996207,2.955434e-05,550.0799999996207,1.369695e-05,550.0799999996207,0.0001718624,550.0799999996207,4.758311e-05
550.0949999996207,2.992851e-05,550.0949999996207,1.3602e-05,550.0949999996207,0.0001632858,550.0949999996207,5.448796e-05
550.1099999996206,3.126189e-05,550.1099999996206,1.428199e-05,550.1099999996206,0.0002157761,550.1099999996206,5.670001e-05
550.1249999996206,2.904277e-05,550.1249999996206,1.468753e-05,550.1249999996206,0.0002213857,550.1249999996206,5.898223e-05
550.1399999996206,2.924433e-05,550.1399999996206,1.459227e-05,550.1399999996206,0.0002419636,550.1399999996206,6.432197e-05
550.1549999996206,2.740573e-05,550.1549999996206,1.487148e-05,550.1549999996206,0.0002771118,550.1549999996206,6.839398e-05
550.1699999996206,2.763147e-05,550.1699999996206,1.554215e-05,550.1699999996206,0.0002851618,550.1699999996206,6.974393e-05
550.1849999996206,3.196548e-05,550.1849999996206,1.654571e-05,550.1849999996206,0.0003299195,550.1849999996206,6.978532e-05
550.1999999996206,3.809586e-05,550.1999999996206,2.071902e-05,550.1999999996206,0.0003428286,550.1999999996206,6.982549e-05
550.2149999996205,4.261156e-05,550.2149999996205,2.126392e-05,550.2149999996205,0.0003737324,550.2149999996205,6.987429e-05
550.2299999996205,4.839068e-05,550.2299999996205,2.196325e-05,550.2299999996205,0.0003863217,550.2299999996205,6.989485e-05
550.2449999996205,5.427919e-05,550.2449999996205,2.255247e-05,550.2449999996205,0.000402691,550.2449999996205,6.984404e-05
550.2599999996205,6.758428e-05,550.2599999996205,2.273598e-05,550.2599999996205,0.0004026474,550.2599999996205,6.944944e-05
550.2749999996205,8.16436e-05,550.2749999996205,2.316259e-05,550.2749999996205,0.0004030144,550.2749999996205,6.631426e-05
550.2899999996205,8.165671e-05,550.2899999996205,2.40218e-05,550.2899999996205,0.0004059268,550.2899999996205,5.917965e-05
550.3049999996205,8.224733e-05,550.3049999996205,2.308156e-05,550.3049999996205,0.0004057337,550.3049999996205,5.709194e-05
550.3199999996204,8.236046e-05,550.3199999996204,2.222719e-05,550.3199999996204,0.0004431434,550.3199999996204,5.555277e-05
550.3349999996204,8.487896e-05,550.3349999996204,2.187778e-05,550.3349999996204,0.0004870734,550.3349999996204,5.170628e-05
550.3499999996204,8.495808e-05,550.3499999996204,2.314068e-05,550.3499999996204,0.0004834822,550.3499999996204,4.46889e-05
550.3649999996204,8.849476e-05,550.3649999996204,2.286203e-05,550.3649999996204,0.0004682514,550.3649999996204,4.290838e-05
550.3799999996204,9.477449e-05,550.3799999996204,2.265156e-05,550.3799999996204,0.0004804964,550.3799999996204,3.963269e-05
550.3949999996204,0.0001000964,550.3949999996204,2.443288e-05,550.3949999996204,0.000482322,550.3949999996204,2.414288e-05
550.4099999996204,0.0001095224,550.4099999996204,2.402942e-05,550.4099999996204,0.0004779568,550.4099999996204,1.957658e-05
550.4249999996204,0.0001104629,550.4249999996204,2.394956e-05,550.4249999996204,0.0004714671,550.4249999996204,1.715432e-05
550.4399999996203,0.0001103178,550.4399999996203,2.233972e-05,550.4399999996203,0.0004484829,550.4399999996203,1.716171e-05
550.4549999996203,0.0001083285,550.4549999996203,2.045007e-05,550.4549999996203,0.0004303647,550.4549999996203,1.706376e-05
550.4699999996203,0.0001070787,550.4699999996203,1.975636e-05,550.4699999996203,0.000417842,550.4699999996203,1.68536e-05
550.4849999996203,0.0001058694,550.4849999996203,1.959096e-05,550.4849999996203,0.0004023174,550.4849999996203,1.681008e-05
550.4999999996203,9.707855e-05,550.4999999996203,2.177969e-05,550.4999999996203,0.0003907535,550.4999999996203,1.591827e-05
550.5149999996203,9.106792e-05,550.5149999996203,2.210709e-05,550.5149999996203,0.0003909919,550.5149999996203,1.588283e-05
550.5299999996203,8.481637e-05,550.5299999996203,2.216945e-05,550.5299999996203,0.0004015635,550.5299999996203,1.544031e-05
550.5449999996202,8.602941e-05,550.5449999996202,2.122148e-05,550.5449999996202,0.0004040349,550.5449999996202,1.49131e-05
550.5599999996202,8.897087e-05,550.5599999996202,2.162651e-05,550.5599999996202,0.0003968719,550.5599999996202,1.464719e-05
550.5749999996202,8.934074e-05,550.5749999996202,2.185652e-05,550.5749999996202,0.0003560098,550.5749999996202,9.848904e-06
550.5899999996202,9.226183e-05,550.5899999996202,2.1575e-05,550.5899999996202,0.0003155696,550.5899999996202,9.887446e-06
550.6049999996202,9.241896e-05,550.6049999996202,2.131223e-05,550.6049999996202,0.0003116851,550.6049999996202,9.268258e-06
550.6199999996202,8.869907e-05,550.6199999996202,2.125332e-05,550.6199999996202,0.0003016335,550.6199999996202,7.373913e-06
550.6349999996202,8.563782e-05,550.6349999996202,2.12957e-05,550.6349999996202,0.0002716701,550.6349999996202,7.62006e-06
550.6499999996201,7.654938e-05,550.6499999996201,1.929682e-05,550.6499999996201,0.000257666,550.6499999996201,7.781039e-06
550.6649999996201,6.863864e-05,550.6649999996201,1.934349e-05,550.6649999996201,0.0002377019,550.6649999996201,7.979462e-06
550.6799999996201,6.709142e-05,550.6799999996201,1.927856e-05,550.6799999996201,0.0002341181,550.6799999996201,7.845942e-06
550.6949999996201,6.825915e-05,550.6949999996201,1.929901e-05,550.6949999996201,0.0002445522,550.6949999996201,7.70097e-06
550.7099999996201,6.883456e-05,550.7099999996201,1.90011e-05,550.7099999996201,0.0002428433,550.7099999996201,7.708283e-06
550.7249999996201,6.729017e-05,550.7249999996201,1.867507e-05,550.7249999996201,0.0002416793,550.7249999996201,7.693649e-06
550.7399999996201,6.811929e-05,550.7399999996201,1.710498e-05,550.7399999996201,0.0002394847,550.7399999996201,7.558809e-06
550.75499999962,6.822344e-05,550.75499999962,1.547949e-05,550.75499999962,0.0002341879,550.75499999962,7.333686e-06
550.76999999962,7.083994e-05,550.76999999962,1.442625e-05,550.76999999962,0.0002323157,550.76999999962,7.170523e-06
550.78499999962,7.209413e-05,550.78499999962,1.409134e-05,550.78499999962,0.0002098999,550.78499999962,6.957143e-06
550.79999999962,7.008485e-05,550.79999999962,1.361236e-05,550.79999999962,0.0002015786,550.79999999962,6.25337e-06
550.81499999962,6.564708e-05,550.81499999962,1.412828e-05,550.81499999962,0.0001989226,550.81499999962,6.180865e-06
550.82999999962,6.121736e-05,550.82999999962,1.904775e-05,550.82999999962,0.0001653624,550.82999999962,6.203613e-06
550.84499999962,5.564474e-05,550.84499999962,2.402004e-05,550.84499999962,0.0001559375,550.84499999962,5.8867e-06
550.85999999962,5.484254e-05,550.85999999962,2.80258e-05,550.85999999962,0.0001515869,550.85999999962,5.891484e-06
550.87499999962,4.910731e-05,550.87499999962,3.008484e-05,550.87499999962,0.0001500535,550.87499999962,5.490492e-06
550.8899999996199,4.746425e-05,550.8899999996199,3.253462e-05,550.8899999996199,0.0001449715,550.8899999996199,4.83569e-06
550.9049999996199,4.736383e-05,550.9049999996199,3.377317e-05,550.9049999996199,0.0001404209,550.9049999996199,4.581393e-06
550.9199999996199,4.359785e-05,550.9199999996199,3.394748e-05,550.9199999996199,0.0001404098,550.9199999996199,4.199587e-06
550.9349999996199,4.287982e-05,550.9349999996199,3.474723e-05,550.9349999996199,0.0001311107,550.9349999996199,3.950702e-06
550.9499999996199,3.996187e-05,550.9499999996199,3.522835e-05,550.9499999996199,0.0001118653,550.9499999996199,3.947135e-06
550.9649999996199,3.791833e-05,550.9649999996199,3.479665e-05,550.9649999996199,0.0001063297,550.9649999996199,3.939991e-06
550.9799999996198,3.739913e-05,550.9799999996198,3.505237e-05,550.9799999996198,0.0001024623,550.9799999996198,4.052786e-06
550.9949999996198,3.242446e-05,550.9949999996198,3.537361e-05,550.9949999996198,9.25195e-05,550.9949999996198,4.226336e-06
551.0099999996198,3.047469e-05,551.0099999996198,3.534213e-05,551.0099999996198,9.098915e-05,551.0099999996198,4.29248e-06
551.0249999996198,2.384759e-05,551.0249999996198,3.559591e-05,551.0249999996198,9.255391e-05,551.0249999996198,4.189512e-06
551.0399999996198,1.857599e-05,551.0399999996198,3.584475e-05,551.0399999996198,9.532271e-05,551.0399999996198,4.104592e-06
551.0549999996198,1.834554e-05,551.0549999996198,3.587265e-05,551.0549999996198,8.857273e-05,551.0549999996198,4.108022e-06
551.0699999996198,1.668475e-05,551.0699999996198,3.497392e-05,551.0699999996198,8.704274e-05,551.0699999996198,4.083948e-06
551.0849999996198,1.658993e-05,551.0849999996198,2.953527e-05,551.0849999996198,9.114075e-05,551.0849999996198,3.885991e-06
551.0999999996197,1.451386e-05,551.0999999996197,2.553406e-05,551.0999999996197,9.815464e-05,551.0999999996197,3.996786e-06
551.1149999996197,1.328556e-05,551.1149999996197,2.370243e-05,551.1149999996197,9.283231e-05,551.1149999996197,3.979125e-06
551.1299999996197,1.25719e-05,551.1299999996197,2.083495e-05,551.1299999996197,8.786888e-05,551.1299999996197,4.0632e-06
551.1449999996197,1.26077e-05,551.1449999996197,1.585442e-05,551.1449999996197,8.810598e-05,551.1449999996197,4.125132e-06
551.1599999996197,1.199271e-05,551.1599999996197,1.426027e-05,551.1599999996197,8.966198e-05,551.1599999996197,4.148967e-06
551.1749999996197,1.215604e-05,551.1749999996197,1.872478e-05,551.1749999996197,8.318314e-05,551.1749999996197,4.083948e-06
551.1899999996197,1.222883e-05,551.1899999996197,3.427784e-05,551.1899999996197,8.277725e-05,551.1899999996197,4.0632e-06
551.2049999996196,1.229889e-05,551.2049999996196,3.63412e-05,551.2049999996196,8.331749e-05,551.2049999996196,4.007346e-06
551.2199999996196,1.211076e-05,551.2199999996196,3.655146e-05,551.2199999996196,8.418857e-05,551.2199999996196,3.982663e-06
551.2349999996196,1.157795e-05,551.2349999996196,3.987718e-05,551.2349999996196,8.517865e-05,551.2349999996196,3.900464e-06
551.2499999996196,1.176023e-05,551.2499999996196,4.125849e-05,551.2499999996196,8.637226e-05,551.2499999996196,3.896851e-06
551.2649999996196,1.113386e-05,551.2649999996196,4.152225e-05,551.2649999996196,8.655229e-05,551.2649999996196,3.816494e-06
551.2799999996196,1.130836e-05,551.2799999996196,4.137544e-05,551.2799999996196,8.531465e-05,551.2799999996196,3.834905e-06
551.2949999996196,1.115156e-05,551.2949999996196,4.158463e-05,551.2949999996196,8.060609e-05,551.2949999996196,3.820184e-06
551.3099999996195,1.093084e-05,551.3099999996195,4.177086e-05,551.3099999996195,7.92604e-05,551.3099999996195,3.775675e-06
551.3249999996195,1.108822e-05,551.3249999996195,4.246088e-05,551.3249999996195,7.51273e-05,551.3249999996195,3.845909e-06
551.3399999996195,1.112247e-05,551.3399999996195,4.258776e-05,551.3399999996195,6.744888e-05,551.3399999996195,3.954266e-06
551.3549999996195,1.134567e-05,551.3549999996195,4.270106e-05,551.3549999996195,6.234487e-05,551.3549999996195,3.838577e-06
551.3699999996195,1.128966e-05,551.3699999996195,4.318686e-05,551.3699999996195,6.462828e-05,551.3699999996195,3.911283e-06
551.3849999996195,1.145071e-05,551.3849999996195,4.364855e-05,551.3849999996195,6.610512e-05,551.3849999996195,3.99326e-06
551.3999999996195,1.173505e-05,551.3999999996195,4.370241e-05,551.3999999996195,7.058175e-05,551.3999999996195,3.904074e-06
551.4149999996195,1.17746e-05,551.4149999996195,4.377745e-05,551.4149999996195,7.165747e-05,551.4149999996195,3.979125e-06
551.4299999996194,1.156577e-05,551.4299999996194,3.163635e-05,551.4299999996194,7.271961e-05,551.4299999996194,4.031877e-06
551.4449999996194,1.132454e-05,551.4449999996194,2.924674e-05,551.4449999996194,7.293914e-05,551.4449999996194,4.11145e-06
551.4599999996194,1.151818e-05,551.4599999996194,2.791752e-05,551.4599999996194,8.415225e-05,551.4599999996194,4.31539e-06
551.4749999996194,1.140387e-05,551.4749999996194,2.75927e-05,551.4749999996194,8.581431e-05,551.4749999996194,4.4377e-06
551.4899999996194,1.1332e-05,551.4899999996194,2.104083e-05,551.4899999996194,8.621343e-05,551.4899999996194,4.266145e-06
551.5049999996194,1.110726e-05,551.5049999996194,1.880885e-05,551.5049999996194,8.716338e-05,551.5049999996194,4.325173e-06
551.5199999996194,1.104366e-05,551.5199999996194,1.898256e-05,551.5199999996194,8.84497e-05,551.5199999996194,4.510119e-06
551.5349999996193,1.112627e-05,551.5349999996193,1.876161e-05,551.5349999996193,9.014676e-05,551.5349999996193,4.738583e-06
551.5499999996193,1.105641e-05,551.5499999996193,1.82099e-05,551.5499999996193,9.161786e-05,551.5499999996193,4.747494e-06
551.5649999996193,1.137047e-05,551.5649999996193,1.738111e-05,551.5649999996193,9.272391e-05,551.5649999996193,4.809401e-06
551.5799999996193,1.129839e-05,551.5799999996193,1.576264e-05,551.5799999996193,9.30931e-05,551.5799999996193,4.744526e-06
551.5949999996193,1.09874e-05,551.5949999996193,1.564153e-05,551.5949999996193,9.404682e-05,551.5949999996193,4.68176e-06
551.6099999996193,1.003873e-05,551.6099999996193,1.528074e-05,551.6099999996193,9.663307e-05,551.6099999996193,4.663672e-06
551.6249999996193,1.020573e-05,551.6249999996193,1.370312e-05,551.6249999996193,9.421712e-05,551.6249999996193,4.456705e-06
551.6399999996192,9.853194e-06,551.6399999996192,1.234805e-05,551.6399999996192,9.441576e-05,551.6399999996192,4.553636e-06
551.6549999996192,9.477167e-06,551.6549999996192,1.214445e-05,551.6549999996192,8.904319e-05,551.6549999996192,4.556728e-06
551.6699999996192,9.280408e-06,551.6699999996192,1.183069e-05,551.6699999996192,9.051526e-05,551.6699999996192,4.440873e-06
551.6849999996192,9.101082e-06,551.6849999996192,1.054515e-05,551.6849999996192,8.914265e-05,551.6849999996192,4.409039e-06
551.6999999996192,9.195013e-06,551.6999999996192,9.085591e-06,551.6999999996192,8.850781e-05,551.6999999996192,4.434525e-06
551.7149999996192,8.908669e-06,551.7149999996192,8.550433e-06,551.7149999996192,7.534935e-05,551.7149999996192,4.128545e-06
551.7299999996192,8.933933e-06,551.7299999996192,8.343643e-06,551.7299999996192,7.576195e-05,551.7299999996192,4.165909e-06
551.7449999996192,8.782863e-06,551.7449999996192,7.623756e-06,551.7449999996192,7.582625e-05,551.7449999996192,4.285911e-06
551.7599999996191,8.656856e-06,551.7599999996191,5.821732e-06,551.7599999996191,7.317611e-05,551.7599999996191,4.503868e-06
551.7749999996191,8.484277e-06,551.7749999996191,5.436346e-06,551.7749999996191,7.192825e-05,551.7749999996191,4.266145e-06
551.7899999996191,8.547137e-06,551.7899999996191,5.441526e-06,551.7899999996191,6.902034e-05,551.7899999996191,4.162526e-06
551.8049999996191,8.519072e-06,551.8049999996191,5.176183e-06,551.8049999996191,6.806695e-05,551.8049999996191,4.125132e-06
551.8199999996191,8.275836e-06,551.8199999996191,4.494475e-06,551.8199999996191,6.798827e-05,551.8199999996191,3.979125e-06
551.8349999996191,7.887128e-06,551.8349999996191,4.152361e-06,551.8349999996191,6.631405e-05,551.8349999996191,3.964939e-06
551.8499999996191,7.912094e-06,551.8499999996191,4.196231e-06,551.8499999996191,6.478655e-05,551.8499999996191,3.96849e-06
551.864999999619,8.030494e-06,551.864999999619,4.179412e-06,551.864999999619,5.947811e-05,551.864999999619,4.035369e-06
551.879999999619,7.822567e-06,551.879999999619,4.118297e-06,551.879999999619,5.590463e-05,551.879999999619,3.932833e-06
551.894999999619,7.871038e-06,551.894999999619,4.108022e-06,551.894999999619,5.6701e-05,551.894999999619,3.8751e-06
551.909999999619,7.869248e-06,551.909999999619,4.073587e-06,551.909999999619,5.733815e-05,551.909999999619,3.91848e-06
551.924999999619,7.990047e-06,551.924999999619,3.954266e-06,551.924999999619,5.240419e-05,551.924999999619,3.853228e-06
551.939999999619,8.072484e-06,551.939999999619,3.975583e-06,551.939999999619,5.858612e-05,551.939999999619,3.845909e-06
551.954999999619,7.808148e-06,551.954999999619,3.986198e-06,551.954999999619,5.827488e-05,551.954999999619,3.775675e-06
551.969999999619,7.835162e-06,551.969999999619,3.860533e-06,551.969999999619,5.988785e-05,551.969999999619,3.82387e-06
551.9849999996189,7.919212e-06,551.9849999996189,3.853228e-06,551.9849999996189,5.827077e-05,551.9849999996189,3.688867e-06
551.9999999996189,7.768356e-06,551.9999999996189,3.692683e-06,551.9999999996189,5.473739e-05,551.9999999996189,3.271984e-06
552.0149999996189,7.569982e-06,552.0149999996189,3.452149e-06,552.0149999996189,5.660702e-05,552.0149999996189,3.280583e-06
552.0299999996189,7.737468e-06,552.0299999996189,3.468433e-06,552.0299999996189,5.907077e-05,552.0299999996189,3.685046e-06
552.0449999996189,7.391086e-06,552.0449999996189,3.512824e-06,552.0449999996189,6.517178e-05,552.0449999996189,3.696496e-06
552.0599999996189,7.306746e-06,552.0599999996189,3.611685e-06,552.0599999996189,6.60258e-05,552.0599999996189,3.816494e-06
552.0749999996189,8.060259e-06,552.0749999996189,3.753223e-06,552.0749999996189,6.446809e-05,552.0749999996189,4.209638e-06
552.0899999996188,8.258797e-06,552.0899999996188,3.805405e-06,552.0899999996188,6.3457e-05,552.0899999996188,4.516361e-06
552.1049999996188,8.277538e-06,552.1049999996188,3.801702e-06,552.1049999996188,6.874774e-05,552.1049999996188,4.965048e-06
552.1199999996188,8.619349e-06,552.1199999996188,3.982663e-06,552.1199999996188,7.035667e-05,552.1199999996188,4.976383e-06
552.1349999996188,8.806888e-06,552.1349999996188,3.794284e-06,552.1349999996188,7.612939e-05,552.1349999996188,4.998978e-06
552.1499999996188,8.838821e-06,552.1499999996188,3.700305e-06,552.1499999996188,8.259701e-05,552.1499999996188,5.00461e-06
552.1649999996188,8.876988e-06,552.1649999996188,3.719291e-06,552.1649999996188,8.414539e-05,552.1649999996188,4.950841e-06
552.1799999996188,9.054529e-06,552.1799999996188,3.631134e-06,552.1799999996188,8.361976e-05,552.1799999996188,5.015856e-06
552.1949999996187,1.014204e-05,552.1949999996187,3.688867e-06,552.1949999996187,9.153449e-05,552.1949999996187,5.137942e-06
552.2099999996187,1.01767e-05,552.2099999996187,3.939991e-06,552.2099999996187,9.146105e-05,552.2099999996187,5.187057e-06
552.2249999996187,1.01337e-05,552.2249999996187,4.152361e-06,552.2249999996187,9.265917e-05,552.2249999996187,5.281253e-06
552.2399999996187,1.0462e-05,552.2399999996187,4.223002e-06,552.2399999996187,9.391836e-05,552.2399999996187,5.780451e-06
552.2549999996187,1.058116e-05,552.2549999996187,4.447213e-06,552.2549999996187,0.0001038372,552.2549999996187,5.969867e-06
552.2699999996187,1.198918e-05,552.2699999996187,4.708762e-06,552.2699999996187,0.0001088615,552.2699999996187,6.040241e-06
552.2849999996187,1.2669e-05,552.2849999996187,4.899358e-06,552.2849999996187,0.0001139686,552.2849999996187,6.007502e-06
552.2999999996186,1.370312e-05,552.2999999996186,4.990517e-06,552.2999999996186,0.0001127598,552.2999999996186,6.158032e-06
552.3149999996186,1.737219e-05,552.3149999996186,5.038274e-06,552.3149999996186,0.0001139544,552.3149999996186,6.153455e-06
552.3299999996186,1.90048e-05,552.3299999996186,4.945147e-06,552.3299999996186,0.0001163124,552.3299999996186,6.093644e-06
552.3449999996186,2.021033e-05,552.3449999996186,5.157098e-06,552.3449999996186,0.0001213264,552.3449999996186,5.93674e-06
552.3599999996186,2.210645e-05,552.3599999996186,5.344885e-06,552.3599999996186,0.0001211184,552.3599999996186,5.931993e-06
552.3749999996186,2.323727e-05,552.3749999996186,5.579567e-06,552.3749999996186,0.0001703547,552.3749999996186,6.056544e-06
552.3899999996186,2.595266e-05,552.3899999996186,6.210422e-06,552.3899999996186,0.0005445143,552.3899999996186,6.686639e-06
552.4049999996186,2.639399e-05,552.4049999996186,6.463831e-06,552.4049999996186,0.0005992544,552.4049999996186,7.035667e-06
552.4199999996185,2.731202e-05,552.4199999996185,6.789081e-06,552.4199999996185,0.0006493384,552.4199999996185,7.470705e-06
552.4349999996185,3.406595e-05,552.4349999996185,7.101431e-06,552.4349999996185,0.0008740809,552.4349999996185,7.899621e-06
552.4499999996185,3.440254e-05,552.4499999996185,7.806343e-06,552.4499999996185,0.0009770823,552.4499999996185,8.599714e-06
552.4649999996185,3.524115e-05,552.4649999996185,8.095138e-06,552.4649999996185,0.000994447,552.4649999996185,8.867461e-06
552.4799999996185,3.729352e-05,552.4799999996185,8.36893e-06,552.4799999996185,0.0009985414,552.4799999996185,8.851561e-06
552.4949999996185,7.262501e-05,552.4949999996185,8.576751e-06,552.4949999996185,0.001031731,552.4949999996185,8.575109e-06
552.5099999996185,7.750346e-05,552.5099999996185,8.479295e-06,552.5099999996185,0.001059196,552.5099999996185,8.651973e-06
552.5249999996184,7.86092e-05,552.5249999996184,8.485937e-06,552.5249999996184,0.001066359,552.5249999996184,8.576751e-06
552.5399999996184,7.978879e-05,552.5399999996184,8.565246e-06,552.5399999996184,0.001079649,552.5399999996184,8.495891e-06
552.5549999996184,8.000249e-05,552.5549999996184,8.58496e-06,552.5549999996184,0.001085893,552.5549999996184,8.535592e-06
552.5699999996184,8.035562e-05,552.5699999996184,8.806888e-06,552.5699999996184,0.001086862,552.5699999996184,8.566891e-06
552.5849999996184,8.02142e-05,552.5849999996184,9.118093e-06,552.5849999996184,0.00109169,552.5849999996184,8.427637e-06
552.5999999996184,8.049452e-05,552.5999999996184,9.306177e-06,552.5999999996184,0.001134282,552.5999999996184,8.469321e-06
552.6149999996184,8.095572e-05,552.6149999996184,9.425e-06,552.6149999996184,0.001206264,552.6149999996184,8.331817e-06
552.6299999996183,8.13392e-05,552.6299999996183,9.800154e-06,552.6299999996183,0.001313334,552.6299999996183,8.209184e-06
552.6449999996183,8.068365e-05,552.6449999996183,9.754049e-06,552.6449999996183,0.001525487,552.6449999996183,8.207468e-06
552.6599999996183,8.071071e-05,552.6599999996183,1.028137e-05,552.6599999996183,0.001669881,552.6599999996183,8.079462e-06
552.6749999996183,7.894162e-05,552.6749999996183,1.025942e-05,552.6749999996183,0.001647987,552.6749999996183,7.634834e-06
552.6899999996183,7.913375e-05,552.6899999996183,1.010307e-05,552.6899999996183,0.0020256,552.6899999996183,7.337527e-06
552.7049999996183,8.108612e-05,552.7049999996183,1.048621e-05,552.7049999996183,0.002437032,552.7049999996183,6.732826e-06
552.7199999996183,8.162911e-05,552.7199999996183,1.077247e-05,552.7199999996183,0.002783803,552.7199999996183,6.762054e-06
552.7349999996183,8.090943e-05,552.7349999996183,1.070294e-05,552.7349999996183,0.002832375,552.7349999996183,7.768356e-06
552.7499999996182,4.954738e-05,552.7499999996182,1.117679e-05,552.7499999996182,0.002835861,552.7499999996182,8.568535e-06
552.7649999996182,4.670916e-05,552.7649999996182,1.209796e-05,552.7649999996182,0.002912748,552.7649999996182,8.535592e-06
552.7799999996182,4.616312e-05,552.7799999996182,1.366503e-05,552.7799999996182,0.003019002,552.7799999996182,9.023361e-06
552.7949999996182,4.934197e-05,552.7949999996182,1.385748e-05,552.7949999996182,0.003071083,552.7949999996182,9.196546e-06
552.8099999996182,5.157207e-05,552.8099999996182,1.423951e-05,552.8099999996182,0.003081928,552.8099999996182,9.515735e-06
552.8249999996182,5.413001e-05,552.8249999996182,1.443699e-05,552.8249999996182,0.003080052,552.8249999996182,9.88887e-06
552.8399999996182,5.494211e-05,552.8399999996182,1.486959e-05,552.8399999996182,0.003080788,552.8399999996182,9.958426e-06
552.8549999996181,5.673925e-05,552.8549999996181,1.565144e-05,552.8549999996181,0.003073075,552.8549999996181,1.047277e-05
552.8699999996181,5.826569e-05,552.8699999996181,1.586242e-05,552.8699999996181,0.003051757,552.8699999996181,1.128466e-05
552.8849999996181,5.779476e-05,552.8849999996181,1.617374e-05,552.8849999996181,0.002974015,552.8849999996181,1.19586e-05
552.8999999996181,5.957891e-05,552.8999999996181,1.707201e-05,552.8999999996181,0.002830256,552.8999999996181,1.203609e-05
552.9149999996181,6.139681e-05,552.9149999996181,1.714118e-05,552.9149999996181,0.002703386,552.9149999996181,1.220923e-05
552.9299999996181,6.392985e-05,552.9299999996181,1.768162e-05,552.9299999996181,0.002643951,552.9299999996181,1.233321e-05
552.9449999996181,6.483762e-05,552.9449999996181,1.764414e-05,552.9449999996181,0.002288398,552.9449999996181,1.245934e-05
552.959999999618,6.205611e-05,552.959999999618,1.757695e-05,552.959999999618,0.00180773,552.959999999618,1.245595e-05
552.974999999618,6.380987e-05,552.974999999618,1.80748e-05,552.974999999618,0.001266379,552.974999999618,1.249998e-05
552.989999999618,6.382245e-05,552.989999999618,1.809894e-05,552.989999999618,0.001220752,552.989999999618,1.250336e-05
553.004999999618,6.344169e-05,553.004999999618,1.78284e-05,553.004999999618,0.001195381,553.004999999618,1.217341e-05
553.019999999618,6.918586e-05,553.019999999618,1.778648e-05,553.019999999618,0.001001008,553.019999999618,1.212704e-05
553.034999999618,6.968109e-05,553.034999999618,1.676897e-05,553.034999999618,0.0007920209,553.034999999618,1.215024e-05
553.049999999618,6.7509e-05,553.049999999618,1.700504e-05,553.049999999618,0.0005862259,553.049999999618,1.216994e-05
553.064999999618,6.792276e-05,553.064999999618,1.676897e-05,553.064999999618,0.0004953226,553.064999999618,1.182355e-05
553.0799999996179,6.671833e-05,553.0799999996179,1.756893e-05,553.0799999996179,0.0004775296,553.0799999996179,1.193501e-05
553.0949999996179,6.55859e-05,553.0949999996179,1.703236e-05,553.0949999996179,0.0004752415,553.0949999996179,1.175065e-05
553.1099999996179,6.430357e-05,553.1099999996179,1.661114e-05,553.1099999996179,0.0004746922,553.1099999996179,1.147406e-05
553.1249999996179,6.446765e-05,553.1249999996179,1.650053e-05,553.1249999996179,0.0004684676,553.1249999996179,1.033466e-05
553.1399999996179,6.512918e-05,553.1399999996179,1.61406e-05,553.1399999996179,0.000468006,553.1399999996179,1.012536e-05
553.1549999996179,6.345323e-05,553.1549999996179,1.527244e-05,553.1549999996179,0.0004475712,553.1549999996179,9.856052e-06
553.1699999996179,6.340259e-05,553.1699999996179,1.547949e-05,553.1699999996179,0.0004467087,553.1699999996179,9.881745e-06
553.1849999996178,6.122219e-05,553.1849999996178,1.485632e-05,553.1849999996178,0.0004412552,553.1849999996178,9.769921e-06
553.1999999996178,6.134516e-05,553.1999999996178,1.498284e-05,553.1999999996178,0.0004406576,553.1999999996178,9.951351e-06
553.2149999996178,5.989725e-05,553.2149999996178,1.481739e-05,553.2149999996178,0.0004333089,553.2149999996178,9.79584e-06
553.2299999996178,5.935933e-05,553.2299999996178,1.453035e-05,553.2299999996178,0.0004376075,553.2299999996178,9.031162e-06
553.2449999996178,5.908317e-05,553.2449999996178,1.439399e-05,553.2449999996178,0.0004481462,553.2449999996178,8.750726e-06
553.2599999996178,5.726636e-05,553.2599999996178,1.451095e-05,553.2599999996178,0.0003577067,553.2599999996178,8.720087e-06
553.2749999996178,5.009506e-05,553.2749999996178,1.453714e-05,553.2749999996178,0.0003477363,553.2749999996178,9.629048e-06
553.2899999996177,4.848229e-05,553.2899999996177,1.481739e-05,553.2899999996177,0.0003271206,553.2899999996177,1.582864e-05
553.3049999996177,4.678961e-05,553.3049999996177,1.411431e-05,553.3049999996177,0.0003416471,553.3049999996177,1.971139e-05
553.3199999996177,4.231765e-05,553.3199999996177,1.418401e-05,553.3199999996177,0.0004773188,553.3199999996177,3.406637e-05
553.3349999996177,4.187528e-05,553.3349999996177,1.369181e-05,553.3349999996177,0.0005565164,553.3349999996177,3.594561e-05
553.3499999996177,4.144449e-05,553.3499999996177,1.366709e-05,553.3499999996177,0.0006786337,553.3499999996177,3.838283e-05
553.3649999996177,4.045062e-05,553.3649999996177,1.362684e-05,553.3649999996177,0.0007066378,553.3649999996177,4.062749e-05
553.3799999996177,3.859365e-05,553.3799999996177,1.37892e-05,553.3799999996177,0.0007095895,553.3799999996177,4.662706e-05
553.3949999996177,4.140845e-05,553.3949999996177,1.35875e-05,553.3949999996177,0.00071618,553.3949999996177,4.753454e-05
553.4099999996176,4.375524e-05,553.4099999996176,1.353868e-05,553.4099999996176,0.0007301062,553.4099999996176,4.811304e-05
553.4249999996176,3.983548e-05,553.4249999996176,1.290476e-05,553.4249999996176,0.0007355904,553.4249999996176,5.033938e-05
553.4399999996176,4.470749e-05,553.4399999996176,1.263672e-05,553.4399999996176,0.000735477,553.4399999996176,5.054548e-05
553.4549999996176,4.784911e-05,553.4549999996176,1.222076e-05,553.4549999996176,0.0007327732,553.4549999996176,5.065072e-05
553.4699999996176,4.576963e-05,553.4699999996176,1.221154e-05,553.4699999996176,0.0007313967,553.4699999996176,5.206358e-05
553.4849999996176,4.641813e-05,553.4849999996176,1.142485e-05,553.4849999996176,0.0007255687,553.4849999996176,5.213658e-05
553.4999999996176,4.636408e-05,553.4999999996176,1.123211e-05,553.4999999996176,0.000717559,553.4999999996176,5.217061e-05
553.5149999996175,4.801105e-05,553.5149999996175,1.040259e-05,553.5149999996175,0.0007156691,553.5149999996175,5.211577e-05
553.5299999996175,4.852701e-05,553.5299999996175,9.947104e-06,553.5299999996175,0.0007190701,553.5299999996175,5.143641e-05
553.5449999996175,4.9142e-05,553.5449999996175,9.318279e-06,553.5449999996175,0.0007164553,553.5449999996175,5.009028e-05
553.5599999996175,4.883317e-05,553.5599999996175,9.167396e-06,553.5599999996175,0.0006394102,553.5599999996175,4.62107e-05
553.5749999996175,4.911247e-05,553.5749999996175,8.420948e-06,553.5749999996175,0.0006261055,553.5749999996175,3.97179e-05
553.5899999996175,4.9941e-05,553.5899999996175,7.686323e-06,553.5899999996175,0.0005580086,553.5899999996175,3.756262e-05
553.6049999996175,5.175612e-05,553.6049999996175,7.528932e-06,553.6049999996175,0.0004757559,553.6049999996175,3.605713e-05
553.6199999996174,5.432173e-05,553.6199999996174,5.459618e-06,553.6199999996174,0.0004598656,553.6199999996174,2.857088e-05
