X[s],a: EMG RMS 1-1,X[s].1,a: EMG RMS 1-2,X[s].2,a: EMG RMS 1-3,X[s].3,a: EMG RMS 1-4
434.0099999997262,6.578812e-05,434.0099999997262,0.0002563371,434.0099999997262,0.0001058269,434.0099999997262,3.712467e-05
434.02499999972616,6.644689e-05,434.02499999972616,0.0002569587,434.02499999972616,0.0001101293,434.02499999972616,3.748266e-05
434.03999999972615,6.58228e-05,434.03999999972615,0.0002583109,434.03999999972615,0.0001095198,434.03999999972615,3.949418e-05
434.05499999972614,6.995992e-05,434.05499999972614,0.0002752792,434.05499999972614,0.0001154654,434.05499999972614,3.848399e-05
434.0699999997261,6.956799e-05,434.0699999997261,0.0002741316,434.0699999997261,0.0001182824,434.0699999997261,3.623017e-05
434.0849999997261,7.328537e-05,434.0849999997261,0.0002849977,434.0849999997261,0.000120352,434.0849999997261,3.512022e-05
434.0999999997261,7.851631e-05,434.0999999997261,0.0002833175,434.0999999997261,0.0001215242,434.0999999997261,3.360843e-05
434.1149999997261,7.784713e-05,434.1149999997261,0.0003165668,434.1149999997261,0.0001210782,434.1149999997261,3.177808e-05
434.12999999972607,7.914425e-05,434.12999999972607,0.000348858,434.12999999972607,0.0001184531,434.12999999972607,3.122086e-05
434.14499999972605,9.050156e-05,434.14499999972605,0.0003901745,434.14499999972605,0.0001223539,434.14499999972605,2.994404e-05
434.15999999972604,9.286054e-05,434.15999999972604,0.0004841415,434.15999999972604,0.0001229907,434.15999999972604,2.918213e-05
434.174999999726,9.978309e-05,434.174999999726,0.0005041576,434.174999999726,0.0001234167,434.174999999726,2.868356e-05
434.189999999726,0.0001032858,434.189999999726,0.0005214932,434.189999999726,0.0001167769,434.189999999726,2.985594e-05
434.204999999726,0.0001154612,434.204999999726,0.0005298794,434.204999999726,0.0001176836,434.204999999726,2.997648e-05
434.219999999726,0.0001256885,434.219999999726,0.0005506345,434.219999999726,0.000119514,434.219999999726,2.976758e-05
434.23499999972597,0.0001404165,434.23499999972597,0.0005591239,434.23499999972597,0.0001151292,434.23499999972597,2.985028e-05
434.24999999972596,0.0001531188,434.24999999972596,0.0005800558,434.24999999972596,0.0001135303,434.24999999972596,2.955434e-05
434.26499999972594,0.0001568534,434.26499999972594,0.0006222268,434.26499999972594,0.0001117689,434.26499999972594,2.975764e-05
434.27999999972593,0.0001754645,434.27999999972593,0.0006992077,434.27999999972593,0.0001094056,434.27999999972593,2.968038e-05
434.2949999997259,0.0001765674,434.2949999997259,0.0007327542,434.2949999997259,0.0001249619,434.2949999997259,2.711688e-05
434.3099999997259,0.0001770975,434.3099999997259,0.0007318889,434.3099999997259,0.0001144259,434.3099999997259,2.769563e-05
434.3249999997259,0.0001774048,434.3249999997259,0.0007328119,434.3249999997259,0.0001157318,434.3249999997259,3.000185e-05
434.3399999997259,0.0001776175,434.3399999997259,0.0008468403,434.3399999997259,0.0001123745,434.3399999997259,3.019654e-05
434.35499999972586,0.0001777246,434.35499999972586,0.0008993197,434.35499999972586,0.0001145865,434.35499999972586,3.125739e-05
434.36999999972585,0.0001767494,434.36999999972585,0.0008912424,434.36999999972585,0.0001172073,434.36999999972585,3.200556e-05
434.38499999972584,0.0001761732,434.38499999972584,0.00088572,434.38499999972584,0.00011535,434.38499999972584,3.231174e-05
434.3999999997258,0.0001729345,434.3999999997258,0.0008803423,434.3999999997258,0.0001097918,434.3999999997258,3.430618e-05
434.4149999997258,0.0001720759,434.4149999997258,0.0008267159,434.4149999997258,0.0001118372,434.4149999997258,3.469367e-05
434.4299999997258,0.0001701449,434.4299999997258,0.000894028,434.4299999997258,0.0001124001,434.4299999997258,3.452312e-05
434.4449999997258,0.0001678461,434.4449999997258,0.0009267545,434.4449999997258,0.0001296038,434.4449999997258,3.428811e-05
434.45999999972577,0.0001587849,434.45999999972577,0.0009228635,434.45999999972577,0.0001403703,434.45999999972577,3.506402e-05
434.47499999972575,0.0001573537,434.47499999972575,0.0009055373,434.47499999972575,0.0001409399,434.47499999972575,3.416258e-05
434.48999999972574,0.000143295,434.48999999972574,0.0009534752,434.48999999972574,0.0001414474,434.48999999972574,3.404775e-05
434.5049999997257,0.0001375854,434.5049999997257,0.0009797105,434.5049999997257,0.0001638506,434.5049999997257,3.456431e-05
434.5199999997257,0.0001322321,434.5199999997257,0.0009146595,434.5199999997257,0.000166022,434.5199999997257,3.647391e-05
434.5349999997257,0.0001151491,434.5349999997257,0.0008942058,434.5349999997257,0.0001611125,434.5349999997257,3.661577e-05
434.5499999997257,0.0001135083,434.5499999997257,0.0009466624,434.5499999997257,0.0001587956,434.5499999997257,3.607978e-05
434.56499999972567,0.0001164383,434.56499999972567,0.001074503,434.56499999972567,0.000165137,434.56499999972567,3.839274e-05
434.57999999972566,0.0001154361,434.57999999972566,0.001128406,434.57999999972566,0.0001692394,434.57999999972566,4.078944e-05
434.59499999972564,0.0001146968,434.59499999972564,0.001258691,434.59499999972564,0.000204102,434.59499999972564,4.121169e-05
434.60999999972563,0.0001188485,434.60999999972563,0.001424637,434.60999999972563,0.0002101373,434.60999999972563,4.183354e-05
434.6249999997256,0.0001229091,434.6249999997256,0.001459557,434.6249999997256,0.0002159999,434.6249999997256,4.192369e-05
434.6399999997256,0.0001237784,434.6399999997256,0.00151189,434.6399999997256,0.0002203623,434.6399999997256,4.036975e-05
434.6549999997256,0.0001262134,434.6549999997256,0.001523406,434.6549999997256,0.0002272945,434.6549999997256,4.063304e-05
434.6699999997256,0.0001296217,434.6699999997256,0.001576077,434.6699999997256,0.0002291543,434.6699999997256,4.026563e-05
434.68499999972556,0.000132598,434.68499999972556,0.001577948,434.68499999972556,0.0002295526,434.68499999972556,3.949882e-05
434.69999999972555,0.000133256,434.69999999972555,0.001717801,434.69999999972555,0.0002192256,434.69999999972555,3.886969e-05
434.71499999972553,0.0001433659,434.71499999972553,0.001988007,434.71499999972553,0.0002185343,434.71499999972553,3.80248e-05
434.7299999997255,0.00014158,434.7299999997255,0.002067127,434.7299999997255,0.0002159937,434.7299999997255,3.753561e-05
434.7449999997255,0.0001560992,434.7449999997255,0.002144862,434.7449999997255,0.000215229,434.7449999997255,3.836925e-05
434.7599999997255,0.0001597212,434.7599999997255,0.002142159,434.7599999997255,0.0001990702,434.7599999997255,3.781007e-05
434.7749999997255,0.0001646705,434.7749999997255,0.002164668,434.7749999997255,0.000195998,434.7749999997255,3.700038e-05
434.78999999972547,0.0001664373,434.78999999972547,0.002156643,434.78999999972547,0.0001956841,434.78999999972547,3.600748e-05
434.80499999972545,0.0001676359,434.80499999972545,0.002077257,434.80499999972545,0.0001916082,434.80499999972545,3.593934e-05
434.81999999972544,0.0001688171,434.81999999972544,0.002035716,434.81999999972544,0.0001883398,434.81999999972544,3.127451e-05
434.8349999997254,0.0001679832,434.8349999997254,0.001980208,434.8349999997254,0.0001602373,434.8349999997254,2.97548e-05
434.8499999997254,0.0001686091,434.8499999997254,0.001875772,434.8499999997254,0.0001468424,434.8499999997254,2.914396e-05
434.8649999997254,0.0001657186,434.8649999997254,0.001783073,434.8649999997254,0.0001336212,434.8649999997254,2.853388e-05
434.8799999997254,0.0001636885,434.8799999997254,0.001773848,434.8799999997254,0.0001195739,434.8799999997254,2.899374e-05
434.89499999972537,0.0001636327,434.89499999972537,0.001742061,434.89499999972537,0.0001097681,434.89499999972537,2.829393e-05
434.90999999972536,0.0001663989,434.90999999972536,0.001716579,434.90999999972536,0.0001032595,434.90999999972536,2.811262e-05
434.92499999972534,0.0001687661,434.92499999972534,0.001660912,434.92499999972534,0.000102148,434.92499999972534,2.992804e-05
434.93999999972533,0.0001721641,434.93999999972533,0.001614357,434.93999999972533,0.0001031499,434.93999999972533,3.064157e-05
434.9549999997253,0.0001783789,434.9549999997253,0.001449837,434.9549999997253,0.0001132237,434.9549999997253,3.172351e-05
434.9699999997253,0.0001711176,434.9699999997253,0.001239696,434.9699999997253,0.0001069251,434.9699999997253,3.225414e-05
434.9849999997253,0.0001734375,434.9849999997253,0.0009584125,434.9849999997253,0.0001103048,434.9849999997253,3.296903e-05
434.9999999997253,0.0001676122,434.9999999997253,0.0009280102,434.9999999997253,0.0001134549,434.9999999997253,3.298141e-05
435.01499999972526,0.0001621319,435.01499999972526,0.0009762212,435.01499999972526,0.0001256786,435.01499999972526,3.628262e-05
435.02999999972525,0.0001657639,435.02999999972525,0.001317391,435.02999999972525,0.0001327876,435.02999999972525,3.687186e-05
435.04499999972523,0.0001621529,435.04499999972523,0.001450775,435.04499999972523,0.0001371486,435.04499999972523,3.690279e-05
435.0599999997252,0.0001679201,435.0599999997252,0.001582679,435.0599999997252,0.0001383517,435.0599999997252,3.790644e-05
435.0749999997252,0.0001672706,435.0749999997252,0.00186797,435.0749999997252,0.000135807,435.0749999997252,3.752698e-05
435.0899999997252,0.0001721979,435.0899999997252,0.001909685,435.0899999997252,0.0001362136,435.0899999997252,3.874883e-05
435.1049999997252,0.0001760165,435.1049999997252,0.00201529,435.1049999997252,0.0001371273,435.1049999997252,4.023868e-05
435.11999999972517,0.0001762524,435.11999999972517,0.00216827,435.11999999972517,0.0001342675,435.11999999972517,3.938131e-05
435.13499999972515,0.0001733405,435.13499999972515,0.002196856,435.13499999972515,0.0001361501,435.13499999972515,3.867787e-05
435.14999999972514,0.0001724531,435.14999999972514,0.002217162,435.14999999972514,0.000137398,435.14999999972514,3.986093e-05
435.1649999997251,0.0001693702,435.1649999997251,0.002280122,435.1649999997251,0.0001389833,435.1649999997251,4.070474e-05
435.1799999997251,0.000163368,435.1799999997251,0.002305852,435.1799999997251,0.0001403611,435.1799999997251,4.001436e-05
435.1949999997251,0.0001586024,435.1949999997251,0.002324593,435.1949999997251,0.0001297054,435.1949999997251,4.027857e-05
435.2099999997251,0.0001456739,435.2099999997251,0.002282982,435.2099999997251,0.0001443234,435.2099999997251,3.996328e-05
435.22499999972507,0.0001439782,435.22499999972507,0.002250428,435.22499999972507,0.0001443766,435.22499999972507,4.080567e-05
435.23999999972506,0.0001317058,435.23999999972506,0.002250176,435.23999999972506,0.0001473671,435.23999999972506,3.914523e-05
435.25499999972504,0.000121455,435.25499999972504,0.002251,435.25499999972504,0.0001516802,435.25499999972504,3.870154e-05
435.26999999972503,0.0001198168,435.26999999972503,0.002187368,435.26999999972503,0.0001507527,435.26999999972503,3.553056e-05
435.284999999725,0.0001127686,435.284999999725,0.001931283,435.284999999725,0.0001466212,435.284999999725,3.540465e-05
435.299999999725,0.0001086691,435.299999999725,0.001886512,435.299999999725,0.0001497407,435.299999999725,3.445614e-05
435.314999999725,0.0001006121,435.314999999725,0.001661005,435.314999999725,0.0001702934,435.314999999725,3.366748e-05
435.329999999725,9.494052e-05,435.329999999725,0.001519387,435.329999999725,0.000178651,435.329999999725,3.521716e-05
435.34499999972496,8.473611e-05,435.34499999972496,0.001507947,435.34499999972496,0.0001873087,435.34499999972496,3.363106e-05
435.35999999972495,7.881733e-05,435.35999999972495,0.001257988,435.35999999972495,0.0001861838,435.35999999972495,3.274093e-05
435.37499999972493,7.601106e-05,435.37499999972493,0.001084874,435.37499999972493,0.0001856139,435.37499999972493,3.224584e-05
435.3899999997249,7.426224e-05,435.3899999997249,0.001045118,435.3899999997249,0.0001939476,435.3899999997249,3.222924e-05
435.4049999997249,7.438297e-05,435.4049999997249,0.001100415,435.4049999997249,0.0001978299,435.4049999997249,3.103532e-05
435.4199999997249,7.550661e-05,435.4199999997249,0.001151197,435.4199999997249,0.0002026049,435.4199999997249,2.959245e-05
435.4349999997249,0.0002893584,435.4349999997249,0.001103922,435.4349999997249,0.0002011368,435.4349999997249,3.043769e-05
435.44999999972487,0.0004574652,435.44999999972487,0.00108872,435.44999999972487,0.0001992337,435.44999999972487,3.386772e-05
435.46499999972485,0.001020683,435.46499999972485,0.0011846,435.46499999972485,0.000192709,435.46499999972485,5.650863e-05
435.47999999972484,0.001052321,435.47999999972484,0.00129631,435.47999999972484,0.0001918032,435.47999999972484,0.000127298
435.4949999997248,0.001163549,435.4949999997248,0.001357991,435.4949999997248,0.000192946,435.4949999997248,0.0001877861
435.5099999997248,0.001282819,435.5099999997248,0.001760401,435.5099999997248,0.0001965125,435.5099999997248,0.0002515794
435.5249999997248,0.00134089,435.5249999997248,0.002178932,435.5249999997248,0.0002126055,435.5249999997248,0.0002709504
435.5399999997248,0.001393004,435.5399999997248,0.002357142,435.5399999997248,0.0002242478,435.5399999997248,0.0003293278
435.55499999972477,0.001399855,435.55499999972477,0.002700372,435.55499999972477,0.0002216958,435.55499999972477,0.0003369955
435.56999999972476,0.001418747,435.56999999972476,0.002866493,435.56999999972476,0.0002014945,435.56999999972476,0.0003617984
435.58499999972474,0.001425382,435.58499999972474,0.002901995,435.58499999972474,0.0001931683,435.58499999972474,0.0003701971
435.59999999972473,0.001433788,435.59999999972473,0.003062543,435.59999999972473,0.0001885391,435.59999999972473,0.000388432
435.6149999997247,0.00145164,435.6149999997247,0.003122533,435.6149999997247,0.0001900358,435.6149999997247,0.0003994274
435.6299999997247,0.001471243,435.6299999997247,0.0033402,435.6299999997247,0.0001896128,435.6299999997247,0.0004056158
435.6449999997247,0.001488759,435.6449999997247,0.003540337,435.6449999997247,0.000191513,435.6449999997247,0.0004095688
435.6599999997247,0.001500415,435.6599999997247,0.003561188,435.6599999997247,0.000186567,435.6599999997247,0.000419076
435.67499999972466,0.001502246,435.67499999972466,0.003566695,435.67499999972466,0.0001777082,435.67499999972466,0.0004412479
435.68999999972465,0.001436093,435.68999999972465,0.003800385,435.68999999972465,0.0001784369,435.68999999972465,0.000443855
435.70499999972463,0.001379901,435.70499999972463,0.003957285,435.70499999972463,0.0001825154,435.70499999972463,0.0004441152
435.7199999997246,0.001082203,435.7199999997246,0.004012583,435.7199999997246,0.0001810552,435.7199999997246,0.0004403382
435.7349999997246,0.00105059,435.7349999997246,0.004202451,435.7349999997246,0.0001803935,435.7349999997246,0.0004280118
435.7499999997246,0.0008431908,435.7499999997246,0.004379604,435.7499999997246,0.0001742476,435.7499999997246,0.0003850095
435.7649999997246,0.0007787822,435.7649999997246,0.004312628,435.7649999997246,0.0001474772,435.7649999997246,0.0003590624
435.77999999972457,0.0006232116,435.77999999972457,0.004143189,435.77999999972457,0.0001297078,435.77999999972457,0.0003417108
435.79499999972455,0.0005806045,435.79499999972455,0.00408888,435.79499999972455,0.0001228047,435.79499999972455,0.0003032176
435.80999999972454,0.0005693084,435.80999999972454,0.003949156,435.80999999972454,0.000126246,435.80999999972454,0.0002819444
435.8249999997245,0.0005292796,435.8249999997245,0.003943926,435.8249999997245,0.0001293325,435.8249999997245,0.0002550581
435.8399999997245,0.0004874267,435.8399999997245,0.003980587,435.8399999997245,0.0001289362,435.8399999997245,0.0002422091
435.8549999997245,0.0004891007,435.8549999997245,0.003844748,435.8549999997245,0.0001250127,435.8549999997245,0.0002156649
435.8699999997245,0.0004196334,435.8699999997245,0.003792162,435.8699999997245,0.0001229809,435.8699999997245,0.0001986817
435.88499999972447,0.0003649367,435.88499999972447,0.003612677,435.88499999972447,0.0001291796,435.88499999972447,0.0001891355
435.89999999972446,0.0002385533,435.89999999972446,0.003636588,435.89999999972446,0.0001243761,435.89999999972446,0.000177147
435.91499999972444,0.0002293242,435.91499999972444,0.003629912,435.91499999972444,0.0001267206,435.91499999972444,0.0001418021
435.92999999972443,0.0002173257,435.92999999972443,0.003515216,435.92999999972443,0.0001279989,435.92999999972443,7.234419e-05
435.9449999997244,0.0002135083,435.9449999997244,0.003220365,435.9449999997244,0.0001276808,435.9449999997244,6.757553e-05
435.9599999997244,0.0002057891,435.9599999997244,0.003025038,435.9599999997244,0.0001226964,435.9599999997244,6.102191e-05
435.9749999997244,0.0001988618,435.9749999997244,0.00289087,435.9749999997244,0.0001228523,435.9749999997244,4.726737e-05
435.9899999997244,0.0001969609,435.9899999997244,0.002618441,435.9899999997244,0.0001191863,435.9899999997244,4.707146e-05
436.00499999972436,0.000195136,436.00499999972436,0.002231467,436.00499999972436,0.0001190347,436.00499999972436,4.987213e-05
436.01999999972435,0.0001937768,436.01999999972435,0.00209847,436.01999999972435,0.0001140375,436.01999999972435,5.313748e-05
436.03499999972433,0.0001941892,436.03499999972433,0.002131718,436.03499999972433,0.0001137941,436.03499999972433,5.279172e-05
436.0499999997243,0.0001598455,436.0499999997243,0.002023563,436.0499999997243,0.0001157403,436.0499999997243,4.885537e-05
436.0649999997243,0.0001449915,436.0649999997243,0.001910387,436.0649999997243,0.0001137778,436.0649999997243,4.676883e-05
436.0799999997243,0.0001305036,436.0799999997243,0.001707447,436.0799999997243,0.0001127247,436.0799999997243,4.760117e-05
436.0949999997243,0.0001188054,436.0949999997243,0.001470655,436.0949999997243,0.0001181754,436.0949999997243,4.732664e-05
436.10999999972427,0.0001105835,436.10999999972427,0.001463107,436.10999999972427,0.0001190338,436.10999999972427,4.660319e-05
436.12499999972425,0.0001057402,436.12499999972425,0.001487611,436.12499999972425,0.0001136451,436.12499999972425,4.391816e-05
436.13999999972424,0.0001079589,436.13999999972424,0.001267783,436.13999999972424,0.0001068392,436.13999999972424,4.396305e-05
436.1549999997242,0.0001030836,436.1549999997242,0.0009464523,436.1549999997242,0.0001034468,436.1549999997242,4.321882e-05
436.1699999997242,0.0001037048,436.1699999997242,0.0008807085,436.1699999997242,0.0001020358,436.1699999997242,4.358848e-05
436.1849999997242,0.000102065,436.1849999997242,0.0009089129,436.1849999997242,0.0001006252,436.1849999997242,4.186888e-05
436.1999999997242,9.831482e-05,436.1999999997242,0.0008861471,436.1999999997242,9.891107e-05,436.1999999997242,4.126839e-05
436.21499999972417,9.598643e-05,436.21499999972417,0.0008783617,436.21499999972417,0.0001072402,436.21499999972417,3.888926e-05
436.22999999972416,9.125474e-05,436.22999999972416,0.0008394794,436.22999999972416,0.0001061444,436.22999999972416,3.674212e-05
436.24499999972414,8.824433e-05,436.24499999972414,0.0007685615,436.24499999972414,0.0001061285,436.24499999972414,3.574637e-05
436.25999999972413,8.400196e-05,436.25999999972413,0.0007685645,436.25999999972413,0.0001031503,436.25999999972413,3.039879e-05
436.2749999997241,8.420195e-05,436.2749999997241,0.0007294776,436.2749999997241,0.0001035086,436.2749999997241,2.963193e-05
436.2899999997241,8.161806e-05,436.2899999997241,0.0006654895,436.2899999997241,0.0001070149,436.2899999997241,2.995768e-05
436.3049999997241,7.704426e-05,436.3049999997241,0.0006570694,436.3049999997241,0.0001040065,436.3049999997241,3.23466e-05
436.3199999997241,7.741054e-05,436.3199999997241,0.000654696,436.3199999997241,0.0001030538,436.3199999997241,3.051442e-05
436.33499999972406,7.704042e-05,436.33499999972406,0.0006624931,436.33499999972406,0.0001037653,436.33499999972406,3.078604e-05
436.34999999972405,7.710714e-05,436.34999999972405,0.0006576026,436.34999999972405,9.828974e-05,436.34999999972405,3.150428e-05
436.36499999972403,7.324442e-05,436.36499999972403,0.000572485,436.36499999972403,0.0001005888,436.36499999972403,3.192226e-05
436.379999999724,7.301712e-05,436.379999999724,0.0005229955,436.379999999724,9.979297e-05,436.379999999724,3.22703e-05
436.394999999724,6.920011e-05,436.394999999724,0.0005110769,436.394999999724,9.660522e-05,436.394999999724,3.200644e-05
436.409999999724,6.140989e-05,436.409999999724,0.0004362919,436.409999999724,9.815751e-05,436.409999999724,3.202931e-05
436.424999999724,6.051821e-05,436.424999999724,0.0003894823,436.424999999724,9.821662e-05,436.424999999724,3.187633e-05
436.43999999972397,5.905002e-05,436.43999999972397,0.0003450101,436.43999999972397,9.757875e-05,436.43999999972397,3.144475e-05
436.45499999972395,5.56779e-05,436.45499999972395,0.0004272163,436.45499999972395,9.125072e-05,436.45499999972395,3.094031e-05
436.46999999972394,5.63001e-05,436.46999999972394,0.0004707207,436.46999999972394,8.468606e-05,436.46999999972394,3.412091e-05
436.4849999997239,5.671194e-05,436.4849999997239,0.0004741247,436.4849999997239,8.283951e-05,436.4849999997239,3.460789e-05
436.4999999997239,5.50264e-05,436.4999999997239,0.0005318476,436.4999999997239,7.767721e-05,436.4999999997239,3.460586e-05
436.5149999997239,8.071524e-05,436.5149999997239,0.0005526166,436.5149999997239,7.60068e-05,436.5149999997239,3.217281e-05
436.5299999997239,8.40985e-05,436.5299999997239,0.0005930597,436.5299999997239,7.10958e-05,436.5299999997239,3.513225e-05
436.54499999972387,8.536797e-05,436.54499999972387,0.0006442416,436.54499999972387,6.145346e-05,436.54499999972387,3.225938e-05
436.55999999972386,0.0001013979,436.55999999972386,0.0006605644,436.55999999972386,6.016523e-05,436.55999999972386,3.315224e-05
436.57499999972384,0.0001149477,436.57499999972384,0.0006664207,436.57499999972384,5.777672e-05,436.57499999972384,3.4497e-05
436.58999999972383,0.0001166841,436.58999999972383,0.0006715058,436.58999999972383,5.402034e-05,436.58999999972383,3.465467e-05
436.6049999997238,0.000120482,436.6049999997238,0.0007499373,436.6049999997238,5.196608e-05,436.6049999997238,3.416753e-05
436.6199999997238,0.0001242321,436.6199999997238,0.0007986457,436.6199999997238,4.07082e-05,436.6199999997238,3.329767e-05
436.6349999997238,0.000127321,436.6349999997238,0.0007974099,436.6349999997238,3.802591e-05,436.6349999997238,3.435624e-05
436.6499999997238,0.0001272056,436.6499999997238,0.0007984237,436.6499999997238,3.158199e-05,436.6499999997238,3.490861e-05
436.66499999972376,0.0001274263,436.66499999972376,0.0007987903,436.66499999972376,1.52964e-05,436.66499999972376,3.494612e-05
436.67999999972375,0.0001271554,436.67999999972375,0.0008082794,436.67999999972375,1.248419e-05,436.67999999972375,3.456472e-05
436.69499999972373,0.0001270393,436.69499999972373,0.0008347954,436.69499999972373,9.131986e-06,436.69499999972373,3.510177e-05
436.7099999997237,0.000127187,436.7099999997237,0.0008028416,436.7099999997237,9.25609e-06,436.7099999997237,3.640046e-05
436.7249999997237,0.0001292367,436.7249999997237,0.000803301,436.7249999997237,9.20267e-06,436.7249999997237,3.383568e-05
436.7399999997237,0.0001291132,436.7399999997237,0.0007878711,436.7399999997237,9.284961e-06,436.7399999997237,3.423548e-05
436.7549999997237,0.0001270981,436.7549999997237,0.0007694986,436.7549999997237,9.292544e-06,436.7549999997237,3.430659e-05
436.76999999972367,0.0001117855,436.76999999972367,0.0007899065,436.76999999972367,9.40555e-06,436.76999999972367,3.41766e-05
436.78499999972365,0.0001089423,436.78499999972365,0.0007696479,436.78499999972365,9.334893e-06,436.78499999972365,3.169063e-05
436.79999999972364,0.0001088763,436.79999999972364,0.0007447094,436.79999999972364,9.429483e-06,436.79999999972364,3.249043e-05
436.8149999997236,8.461333e-05,436.8149999997236,0.0007329594,436.8149999997236,9.399558e-06,436.8149999997236,3.27306e-05
436.8299999997236,7.068865e-05,436.8299999997236,0.0007808011,436.8299999997236,9.384559e-06,436.8299999997236,3.201788e-05
436.8449999997236,6.874036e-05,436.8449999997236,0.0008171085,436.8449999997236,9.47122e-06,436.8449999997236,3.122312e-05
436.8599999997236,6.149952e-05,436.8599999997236,0.0007515813,436.8599999997236,9.487566e-06,436.8599999997236,3.16506e-05
436.87499999972357,5.423894e-05,436.87499999972357,0.0007114378,436.87499999972357,9.427989e-06,436.87499999972357,3.167462e-05
436.88999999972356,4.946201e-05,436.88999999972356,0.0007210169,436.88999999972356,9.420515e-06,436.88999999972356,3.094486e-05
436.90499999972354,4.814611e-05,436.90499999972354,0.0007254141,436.90499999972354,9.196546e-06,436.90499999972354,3.021286e-05
436.91999999972353,4.781759e-05,436.91999999972353,0.0007591988,436.91999999972353,9.118093e-06,436.91999999972353,3.04673e-05
436.9349999997235,4.905766e-05,436.9349999997235,0.0007697187,436.9349999997235,8.630781e-06,436.9349999997235,3.049502e-05
436.9499999997235,4.896482e-05,436.9499999997235,0.0007437657,436.9499999997235,6.174023e-06,436.9499999997235,3.10639e-05
436.9649999997235,4.318327e-05,436.9649999997235,0.0007269228,436.9649999997235,6.362793e-06,436.9649999997235,2.949183e-05
436.9799999997235,4.01244e-05,436.9799999997235,0.0007361212,436.9799999997235,6.345057e-06,436.9799999997235,2.854375e-05
436.99499999972346,4.129433e-05,436.99499999972346,0.0007359191,436.99499999972346,6.16489e-06,436.99499999972346,2.934003e-05
437.00999999972345,4.249504e-05,437.00999999972345,0.0006986375,437.00999999972345,6.158032e-06,437.00999999972345,3.115446e-05
437.02499999972343,4.054245e-05,437.02499999972343,0.000676511,437.02499999972343,6.74119e-06,437.02499999972343,2.975006e-05
437.0399999997234,4.095865e-05,437.0399999997234,0.0006330426,437.0399999997234,6.938897e-06,437.0399999997234,3.01578e-05
437.0549999997234,4.053446e-05,437.0549999997234,0.0006168997,437.0549999997234,7.063642e-06,437.0549999997234,2.859946e-05
437.0699999997234,4.095143e-05,437.0699999997234,0.0006003689,437.0699999997234,7.099447e-06,437.0699999997234,3.002485e-05
437.0849999997234,4.070093e-05,437.0849999997234,0.0005499386,437.0849999997234,7.115304e-06,437.0849999997234,2.889592e-05
437.09999999972337,4.171383e-05,437.09999999972337,0.0004885922,437.09999999972337,6.844875e-06,437.09999999972337,2.940525e-05
437.11499999972335,4.202873e-05,437.11499999972335,0.0004846916,437.11499999972335,6.749543e-06,437.11499999972335,2.847556e-05
437.12999999972334,4.26304e-05,437.12999999972334,0.0004939801,437.12999999972334,6.638008e-06,437.12999999972334,2.884908e-05
437.1449999997233,4.440873e-05,437.1449999997233,0.0005170892,437.1449999997233,6.58688e-06,437.1449999997233,3.125964e-05
437.1599999997233,4.526051e-05,437.1599999997233,0.0005004248,437.1599999997233,1.165797e-05,437.1599999997233,3.265649e-05
437.1749999997233,4.583329e-05,437.1749999997233,0.0004640771,437.1749999997233,1.353036e-05,437.1749999997233,3.170752e-05
437.1899999997233,4.486507e-05,437.1899999997233,0.0004531156,437.1899999997233,1.429086e-05,437.1899999997233,3.087331e-05
437.20499999972327,4.432714e-05,437.20499999972327,0.000459007,437.20499999972327,1.421773e-05,437.20499999972327,3.113321e-05
437.21999999972326,4.517515e-05,437.21999999972326,0.0004212906,437.21999999972326,1.412728e-05,437.21999999972326,3.239229e-05
437.23499999972324,4.223168e-05,437.23499999972324,0.0004187477,437.23499999972324,1.420286e-05,437.23499999972324,3.294808e-05
437.24999999972323,4.120553e-05,437.24999999972323,0.0004196127,437.24999999972323,1.430958e-05,437.24999999972323,3.137299e-05
437.2649999997232,4.20009e-05,437.2649999997232,0.0004187566,437.2649999997232,1.424742e-05,437.2649999997232,3.106299e-05
437.2799999997232,4.094317e-05,437.2799999997232,0.0004146657,437.2799999997232,1.384731e-05,437.2799999997232,3.106254e-05
437.2949999997232,4.109462e-05,437.2949999997232,0.0004214696,437.2949999997232,1.379635e-05,437.2949999997232,3.159224e-05
437.3099999997232,4.380865e-05,437.3099999997232,0.0004373927,437.3099999997232,1.369901e-05,437.3099999997232,3.088107e-05
437.32499999972316,4.427944e-05,437.32499999972316,0.0004290299,437.32499999972316,1.36774e-05,437.32499999972316,2.988282e-05
437.33999999972315,4.561116e-05,437.33999999972315,0.0004501237,437.33999999972315,1.3664e-05,437.33999999972315,3.029435e-05
437.35499999972313,4.768721e-05,437.35499999972313,0.0004222547,437.35499999972313,1.365059e-05,437.35499999972313,3.02883e-05
437.3699999997231,4.965133e-05,437.3699999997231,0.0003783157,437.3699999997231,1.365369e-05,437.3699999997231,3.147296e-05
437.3849999997231,4.902635e-05,437.3849999997231,0.0003654184,437.3849999997231,1.365266e-05,437.3849999997231,2.953193e-05
437.3999999997231,4.763785e-05,437.3999999997231,0.0003427397,437.3999999997231,1.020435e-05,437.3999999997231,2.957721e-05
437.4149999997231,4.657476e-05,437.4149999997231,0.0003376073,437.4149999997231,8.677985e-06,437.4149999997231,2.801675e-05
437.42999999972307,4.645089e-05,437.42999999972307,0.0003270919,437.42999999972307,5.358047e-06,437.42999999972307,2.940669e-05
437.44499999972305,4.648636e-05,437.44499999972305,0.0003047055,437.44499999972305,4.236323e-06,437.44499999972305,3.055963e-05
437.45999999972304,4.69504e-05,437.45999999972304,0.0003041296,437.45999999972304,3.996786e-06,437.45999999972304,3.096125e-05
437.474999999723,4.681911e-05,437.474999999723,0.0003044658,437.474999999723,3.954266e-06,437.474999999723,3.042195e-05
437.489999999723,4.632183e-05,437.489999999723,0.0002978566,437.489999999723,3.512824e-06,437.489999999723,2.918985e-05
437.504999999723,4.900738e-05,437.504999999723,0.000297618,437.504999999723,3.488681e-06,437.504999999723,2.915315e-05
437.519999999723,4.759111e-05,437.519999999723,0.0002940125,437.519999999723,3.484641e-06,437.519999999723,2.994169e-05
437.53499999972297,4.95161e-05,437.53499999972297,0.0002995566,437.53499999972297,3.431686e-06,437.53499999972297,3.106209e-05
437.54999999972296,4.954738e-05,437.54999999972296,0.0002664615,437.54999999972296,3.584279e-06,437.54999999972296,3.031898e-05
437.56499999972294,4.453227e-05,437.56499999972294,0.0002804383,437.56499999972294,3.592131e-06,437.56499999972294,3.020913e-05
437.57999999972293,4.449303e-05,437.57999999972293,0.0002669051,437.57999999972293,3.627253e-06,437.57999999972293,2.984178e-05
437.5949999997229,4.213317e-05,437.5949999997229,0.0002279831,437.5949999997229,3.685046e-06,437.5949999997229,2.960863e-05
437.6099999997229,3.860496e-05,437.6099999997229,0.0002319179,437.6099999997229,3.723076e-06,437.6099999997229,2.996567e-05
437.6249999997229,3.739988e-05,437.6249999997229,0.0002410641,437.6249999997229,3.658189e-06,437.6249999997229,2.974296e-05
437.6399999997229,3.695505e-05,437.6399999997229,0.0002517819,437.6399999997229,3.715501e-06,437.6399999997229,2.916764e-05
437.65499999972286,3.820589e-05,437.65499999972286,0.0002638094,437.65499999972286,3.688867e-06,437.65499999972286,2.880119e-05
437.66999999972285,3.799181e-05,437.66999999972285,0.0002621806,437.66999999972285,3.658189e-06,437.66999999972285,2.833572e-05
437.68499999972283,3.687377e-05,437.68499999972283,0.0002738888,437.68499999972283,3.681221e-06,437.68499999972283,2.714128e-05
437.6999999997228,3.567142e-05,437.6999999997228,0.0002780281,437.6999999997228,3.779404e-06,437.6999999997228,2.443634e-05
437.7149999997228,3.537918e-05,437.7149999997228,0.0002831228,437.7149999997228,3.845909e-06,437.7149999997228,2.38204e-05
437.7299999997228,3.633035e-05,437.7299999997228,0.0003071968,437.7299999997228,4.007346e-06,437.7299999997228,2.231827e-05
437.7449999997228,3.71679e-05,437.7449999997228,0.0003181871,437.7449999997228,4.0632e-06,437.7449999997228,2.266276e-05
437.75999999972277,3.504514e-05,437.75999999972277,0.0003258984,437.75999999972277,4.338181e-06,437.75999999972277,2.244101e-05
437.77499999972275,3.598047e-05,437.77499999972275,0.0004218874,437.77499999972275,4.605925e-06,437.77499999972275,2.113101e-05
437.78999999972274,3.342223e-05,437.78999999972274,0.0004729551,437.78999999972274,4.599804e-06,437.78999999972274,2.00564e-05
437.8049999997227,3.673253e-05,437.8049999997227,0.0005148245,437.8049999997227,4.569077e-06,437.8049999997227,2.027296e-05
437.8199999997227,3.918552e-05,437.8199999997227,0.0005206722,437.8199999997227,4.660651e-06,437.8199999997227,1.995148e-05
437.8349999997227,5.817326e-05,437.8349999997227,0.0005182653,437.8349999997227,5.00461e-06,437.8349999997227,1.942415e-05
437.8499999997227,8.018821e-05,437.8499999997227,0.0005265022,437.8499999997227,5.187057e-06,437.8499999997227,2.066183e-05
437.86499999972267,8.28538e-05,437.86499999972267,0.0005613589,437.86499999972267,7.588568e-06,437.86499999972267,2.144204e-05
437.87999999972266,9.579428e-05,437.87999999972266,0.0005615988,437.87999999972266,7.708283e-06,437.87999999972266,2.62613e-05
437.89499999972264,0.0001125075,437.89499999972264,0.0005724026,437.89499999972264,7.899621e-06,437.89499999972264,2.800116e-05
437.90999999972263,0.0001168531,437.90999999972263,0.0005861957,437.90999999972263,8.095138e-06,437.90999999972263,3.305224e-05
437.9249999997226,0.0001374738,437.9249999997226,0.0006170065,437.9249999997226,8.135063e-06,437.9249999997226,4.319241e-05
437.9399999997226,0.0001375545,437.9399999997226,0.0008134962,437.9399999997226,8.333508e-06,437.9399999997226,4.467313e-05
437.9549999997226,0.0001400194,437.9549999997226,0.0008740587,437.9549999997226,8.333508e-06,437.9549999997226,4.555739e-05
437.9699999997226,0.0002615876,437.9699999997226,0.0009477921,437.9699999997226,8.37566e-06,437.9699999997226,4.835544e-05
437.98499999972256,0.0003974292,437.98499999972256,0.001098525,437.98499999972256,8.352081e-06,437.98499999972256,4.966438e-05
437.99999999972255,0.0005401894,437.99999999972255,0.001109272,437.99999999972255,8.402527e-06,437.99999999972255,5.02046e-05
438.01499999972253,0.0009398058,438.01499999972253,0.001141694,438.01499999972253,8.494233e-06,438.01499999972253,5.060202e-05
438.0299999997225,0.001014031,438.0299999997225,0.001210969,438.0299999997225,8.497549e-06,438.0299999997225,5.223403e-05
438.0449999997225,0.001020776,438.0449999997225,0.001554106,438.0449999997225,1.184021e-05,438.0449999997225,5.319709e-05
438.0599999997225,0.001057845,438.0599999997225,0.002057545,438.0599999997225,1.252362e-05,438.0599999997225,5.350311e-05
438.0749999997225,0.001077477,438.0749999997225,0.002463738,438.0749999997225,1.272116e-05,438.0749999997225,5.461913e-05
438.08999999972247,0.001080472,438.08999999972247,0.002725407,438.08999999972247,1.331522e-05,438.08999999972247,5.54294e-05
438.10499999972245,0.001123216,438.10499999972245,0.003007413,438.10499999972245,1.280174e-05,438.10499999972245,5.487489e-05
438.11999999972244,0.001182296,438.11999999972244,0.003212898,438.11999999972244,1.203843e-05,438.11999999972244,5.466631e-05
438.1349999997224,0.001191389,438.1349999997224,0.003224158,438.1349999997224,1.201031e-05,438.1349999997224,5.27669e-05
438.1499999997224,0.001202816,438.1499999997224,0.003259906,438.1499999997224,1.190429e-05,438.1499999997224,5.300582e-05
438.1649999997224,0.00122752,438.1649999997224,0.003268061,438.1649999997224,1.197978e-05,438.1649999997224,5.194141e-05
438.1799999997224,0.001259358,438.1799999997224,0.003275283,438.1799999997224,1.207815e-05,438.1799999997224,5.005933e-05
438.19499999972237,0.001280017,438.19499999972237,0.003281333,438.19499999972237,1.248758e-05,438.19499999972237,5.12339e-05
438.20999999972236,0.001418756,438.20999999972236,0.003284972,438.20999999972236,1.490271e-05,438.20999999972236,5.035953e-05
438.22499999972234,0.00143046,438.22499999972234,0.003283409,438.22499999972234,1.640292e-05,438.22499999972234,4.837204e-05
438.23999999972233,0.001557293,438.23999999972233,0.00324177,438.23999999972233,1.671091e-05,438.23999999972233,4.783615e-05
438.2549999997223,0.001869005,438.2549999997223,0.003239445,438.2549999997223,1.693698e-05,438.2549999997223,5.060592e-05
438.2699999997223,0.002016928,438.2699999997223,0.003229887,438.2699999997223,1.720926e-05,438.2699999997223,5.087217e-05
438.2849999997223,0.00238484,438.2849999997223,0.003196675,438.2849999997223,1.649711e-05,438.2849999997223,4.949105e-05
438.2999999997223,0.002771118,438.2999999997223,0.00299415,438.2999999997223,1.609778e-05,438.2999999997223,5.031447e-05
438.31499999972226,0.002883859,438.31499999972226,0.002649336,438.31499999972226,1.939222e-05,438.31499999972226,5.314914e-05
438.32999999972225,0.003007339,438.32999999972225,0.00256908,438.32999999972225,1.950232e-05,438.32999999972225,5.759724e-05
438.34499999972223,0.003121651,438.34499999972223,0.002468322,438.34499999972223,1.952758e-05,438.34499999972223,6.260259e-05
438.3599999997222,0.003265868,438.3599999997222,0.002058934,438.3599999997222,1.953263e-05,438.3599999997222,7.908496e-05
438.3749999997222,0.003372013,438.3749999997222,0.001668181,438.3749999997222,1.953984e-05,438.3749999997222,8.241107e-05
438.3899999997222,0.003517865,438.3899999997222,0.001675083,438.3899999997222,1.954056e-05,438.3899999997222,8.55259e-05
438.4049999997222,0.003544871,438.4049999997222,0.001755691,438.4049999997222,2.007746e-05,438.4049999997222,8.513482e-05
438.41999999972217,0.00354177,438.41999999972217,0.001805141,438.41999999972217,2.200618e-05,438.41999999972217,8.67826e-05
438.43499999972215,0.003543283,438.43499999972215,0.001864696,438.43499999972215,2.323727e-05,438.43499999972215,8.527782e-05
438.44999999972214,0.003550396,438.44999999972214,0.001812857,438.44999999972214,2.533245e-05,438.44999999972214,8.482965e-05
438.4649999997221,0.003510786,438.4649999997221,0.001839646,438.4649999997221,2.342324e-05,438.4649999997221,8.484144e-05
438.4799999997221,0.003510805,438.4799999997221,0.001806316,438.4799999997221,2.310535e-05,438.4799999997221,8.465428e-05
438.4949999997221,0.003422615,438.4949999997221,0.001802313,438.4949999997221,2.294629e-05,438.4949999997221,8.360645e-05
438.5099999997221,0.003162962,438.5099999997221,0.001812874,438.5099999997221,2.278302e-05,438.5099999997221,8.245037e-05
438.52499999972207,0.002968318,438.52499999972207,0.001776247,438.52499999972207,2.294936e-05,438.52499999972207,8.233651e-05
438.53999999972206,0.00269311,438.53999999972206,0.001752988,438.53999999972206,2.300759e-05,438.53999999972206,8.150977e-05
438.55499999972204,0.002342799,438.55499999972204,0.001749465,438.55499999972204,2.194015e-05,438.55499999972204,8.108195e-05
438.56999999972203,0.002316099,438.56999999972203,0.001682449,438.56999999972203,2.22481e-05,438.56999999972203,7.876923e-05
438.584999999722,0.002076975,438.584999999722,0.001235196,438.584999999722,2.226202e-05,438.584999999722,7.415613e-05
438.599999999722,0.002049601,438.599999999722,0.0009968473,438.599999999722,2.424594e-05,438.599999999722,6.623051e-05
438.614999999722,0.001836349,438.614999999722,0.0009465979,438.614999999722,2.450714e-05,438.614999999722,4.757068e-05
438.629999999722,0.001688324,438.629999999722,0.0009500496,438.629999999722,2.541184e-05,438.629999999722,4.30084e-05
438.64499999972196,0.001395724,438.64499999972196,0.0009434244,438.64499999972196,2.548933e-05,438.64499999972196,3.701028e-05
438.65999999972195,0.001396804,438.65999999972195,0.0008693063,438.65999999972195,2.4013e-05,438.65999999972195,3.252899e-05
438.67499999972193,0.001381676,438.67499999972193,0.0007728674,438.67499999972193,2.331051e-05,438.67499999972193,2.577729e-05
438.6899999997219,0.001398317,438.6899999997219,0.0006504452,438.6899999997219,2.18049e-05,438.6899999997219,2.44098e-05
438.7049999997219,0.001344759,438.7049999997219,0.0005743693,438.7049999997219,2.457888e-05,438.7049999997219,2.438498e-05
438.7199999997219,0.001280497,438.7199999997219,0.0005184171,438.7199999997219,3.478774e-05,438.7199999997219,2.374103e-05
438.7349999997219,0.001254349,438.7349999997219,0.0005160096,438.7349999997219,3.941992e-05,438.7349999997219,2.376594e-05
438.74999999972187,0.001265048,438.74999999972187,0.000518363,438.74999999972187,3.950417e-05,438.74999999972187,2.366436e-05
438.76499999972185,0.001257077,438.76499999972185,0.0004541507,438.76499999972185,3.927421e-05,438.76499999972185,2.57762e-05
438.77999999972184,0.001311234,438.77999999972184,0.0004766402,438.77999999972184,4.000802e-05,438.77999999972184,2.562217e-05
438.7949999997218,0.00131715,438.7949999997218,0.0005052654,438.7949999997218,4.059801e-05,438.7949999997218,2.883638e-05
438.8099999997218,0.001282628,438.8099999997218,0.0005067258,438.8099999997218,4.09332e-05,438.8099999997218,2.885543e-05
438.8249999997218,0.001253169,438.8249999997218,0.0005039227,438.8249999997218,4.142647e-05,438.8249999997218,2.839035e-05
438.8399999997218,0.001221863,438.8399999997218,0.0004899052,438.8399999997218,4.446421e-05,438.8399999997218,2.828845e-05
438.85499999972177,0.001053303,438.85499999972177,0.0004996072,438.85499999972177,4.410029e-05,438.85499999972177,2.860242e-05
438.86999999972176,0.0009690846,438.86999999972176,0.0004864393,438.86999999972176,4.396145e-05,438.86999999972176,2.873852e-05
438.88499999972174,0.0009514772,438.88499999972174,0.0004561901,438.88499999972174,4.365436e-05,438.88499999972174,2.854178e-05
438.89999999972173,0.0008508771,438.89999999972173,0.0004471292,438.89999999972173,4.381347e-05,438.89999999972173,2.927514e-05
438.9149999997217,0.0008101798,438.9149999997217,0.000443807,438.9149999997217,4.549705e-05,438.9149999997217,2.921927e-05
438.9299999997217,0.0008567347,438.9299999997217,0.0004477892,438.9299999997217,4.591589e-05,438.9299999997217,2.766917e-05
438.9449999997217,0.0008457363,438.9449999997217,0.0004476346,438.9449999997217,4.691889e-05,438.9449999997217,2.762943e-05
438.9599999997217,0.0008462411,438.9599999997217,0.0004513032,438.9599999997217,4.627193e-05,438.9599999997217,2.760852e-05
438.97499999972166,0.000832495,438.97499999972166,0.0004428217,438.97499999972166,3.469935e-05,438.97499999972166,2.777639e-05
438.98999999972165,0.0008103035,438.98999999972165,0.0004352487,438.98999999972165,3.534133e-05,438.98999999972165,2.850918e-05
439.00499999972163,0.0007813189,439.00499999972163,0.0004334839,439.00499999972163,3.568287e-05,439.00499999972163,2.896506e-05
439.0199999997216,0.0006879388,439.0199999997216,0.0003827951,439.0199999997216,3.566273e-05,439.0199999997216,2.679444e-05
439.0349999997216,0.0006235841,439.0349999997216,0.0003373158,439.0349999997216,3.527311e-05,439.0349999997216,2.659497e-05
439.0499999997216,0.0006015335,439.0499999997216,0.0002986991,439.0499999997216,3.409365e-05,439.0499999997216,2.317475e-05
439.0649999997216,0.0005956352,439.0649999997216,0.0002959326,439.0649999997216,3.843711e-05,439.0649999997216,2.292049e-05
439.07999999972157,0.0005719951,439.07999999972157,0.0002951005,439.07999999972157,3.709886e-05,439.07999999972157,2.25406e-05
439.09499999972155,0.0005669274,439.09499999972155,0.000297768,439.09499999972155,3.35753e-05,439.09499999972155,2.252559e-05
439.10999999972154,0.0005466495,439.10999999972154,0.0002664881,439.10999999972154,3.3068e-05,439.10999999972154,2.236241e-05
439.1249999997215,0.0004958618,439.1249999997215,0.000241497,439.1249999997215,3.299807e-05,439.1249999997215,2.158087e-05
439.1399999997215,0.0004713187,439.1399999997215,0.0002568913,439.1399999997215,3.286889e-05,439.1399999997215,2.164474e-05
439.1549999997215,0.0004656327,439.1549999997215,0.0002517495,439.1549999997215,3.210004e-05,439.1549999997215,2.151942e-05
439.1699999997215,0.0004305676,439.1699999997215,0.0002380704,439.1699999997215,3.082262e-05,439.1699999997215,2.125465e-05
439.18499999972147,0.0004098497,439.18499999972147,0.0002261888,439.18499999972147,2.951284e-05,439.18499999972147,2.121949e-05
439.19999999972146,0.0004090393,439.19999999972146,0.0002268494,439.19999999972146,2.595646e-05,439.19999999972146,2.111301e-05
439.21499999972144,0.0004071227,439.21499999972144,0.0002295679,439.21499999972144,2.64734e-05,439.21499999972144,2.136768e-05
439.22999999972143,0.0004125278,439.22999999972143,0.000227097,439.22999999972143,2.604477e-05,439.22999999972143,2.163889e-05
439.2449999997214,0.0004189682,439.2449999997214,0.0002405814,439.2449999997214,2.566392e-05,439.2449999997214,1.991756e-05
439.2599999997214,0.0004220785,439.2599999997214,0.000266356,439.2599999997214,2.667905e-05,439.2599999997214,1.968493e-05
439.2749999997214,0.0004197628,439.2749999997214,0.0002627048,439.2749999997214,2.687633e-05,439.2749999997214,1.830711e-05
439.2899999997214,0.000437569,439.2899999997214,0.0002609369,439.2899999997214,2.604585e-05,439.2899999997214,1.74434e-05
439.30499999972136,0.0005009492,439.30499999972136,0.0002675359,439.30499999972136,2.573354e-05,439.30499999972136,1.732185e-05
439.31999999972135,0.0005099233,439.31999999972135,0.0002744589,439.31999999972135,2.150371e-05,439.31999999972135,1.732591e-05
439.33499999972133,0.0005604457,439.33499999972133,0.0002573128,439.33499999972133,2.249117e-05,439.33499999972133,1.711075e-05
439.3499999997213,0.0005681731,439.3499999997213,0.0002525349,439.3499999997213,2.26192e-05,439.3499999997213,1.695693e-05
439.3649999997213,0.0005558002,439.3649999997213,0.0002528488,439.3649999997213,2.374043e-05,439.3649999997213,1.627013e-05
439.3799999997213,0.0005364692,439.3799999997213,0.0002466188,439.3799999997213,2.425407e-05,439.3799999997213,1.635217e-05
439.3949999997213,0.0005730183,439.3949999997213,0.0002385766,439.3949999997213,2.487455e-05,439.3949999997213,1.6347e-05
439.40999999972126,0.0006066752,439.40999999972126,0.0002413197,439.40999999972126,2.793215e-05,439.40999999972126,1.570624e-05
439.42499999972125,0.0006016213,439.42499999972125,0.0002497078,439.42499999972125,2.83551e-05,439.42499999972125,1.677401e-05
439.43999999972124,0.0006356543,439.43999999972124,0.0002544837,439.43999999972124,2.855756e-05,439.43999999972124,1.779598e-05
439.4549999997212,0.0006577125,439.4549999997212,0.0002550077,439.4549999997212,2.945599e-05,439.4549999997212,1.767764e-05
439.4699999997212,0.0006641285,439.4699999997212,0.0002481878,439.4699999997212,2.9706e-05,439.4699999997212,1.747568e-05
439.4849999997212,0.0006667242,439.4849999997212,0.0002452345,439.4849999997212,3.023151e-05,439.4849999997212,1.748051e-05
439.4999999997212,0.000693687,439.4999999997212,0.0002191981,439.4999999997212,2.948371e-05,439.4999999997212,1.727461e-05
439.51499999972117,0.0007017026,439.51499999972117,0.0001906623,439.51499999972117,2.87292e-05,439.51499999972117,1.722235e-05
439.52999999972116,0.0007008815,439.52999999972116,0.00021334,439.52999999972116,2.867227e-05,439.52999999972116,1.717156e-05
439.54499999972114,0.0006992908,439.54499999972114,0.0002165756,439.54499999972114,2.917826e-05,439.54499999972114,1.713625e-05
439.55999999972113,0.0008052702,439.55999999972113,0.0001928521,439.55999999972113,2.897965e-05,439.55999999972113,2.258555e-05
439.5749999997211,0.0008039057,439.5749999997211,0.0001927455,439.5749999997211,2.840027e-05,439.5749999997211,2.450886e-05
439.5899999997211,0.0008272659,439.5899999997211,0.0001908758,439.5899999997211,2.715788e-05,439.5899999997211,2.548712e-05
439.6049999997211,0.0008348954,439.6049999997211,0.0001884776,439.6049999997211,2.637103e-05,439.6049999997211,2.569848e-05
439.6199999997211,0.0008363265,439.6199999997211,0.0001991071,439.6199999997211,2.566557e-05,439.6199999997211,2.581006e-05
439.63499999972106,0.0008357454,439.63499999972106,0.0001995719,439.63499999972106,2.557925e-05,439.63499999972106,2.548602e-05
439.64999999972105,0.0007783959,439.64999999972105,0.000195564,439.64999999972105,2.735685e-05,439.64999999972105,2.495371e-05
439.66499999972103,0.000743085,439.66499999972103,0.0001955312,439.66499999972103,2.475022e-05,439.66499999972103,2.420989e-05
439.679999999721,0.0007352681,439.679999999721,0.0001849785,439.679999999721,2.378016e-05,439.679999999721,2.273041e-05
439.694999999721,0.000713645,439.694999999721,0.0001821988,439.694999999721,2.235107e-05,439.694999999721,2.251871e-05
439.709999999721,0.000701207,439.709999999721,0.0001775704,439.709999999721,2.215228e-05,439.709999999721,2.269257e-05
439.724999999721,0.0006918695,439.724999999721,0.0001780662,439.724999999721,2.143087e-05,439.724999999721,2.274156e-05
439.73999999972096,0.0006769966,439.73999999972096,0.0001823588,439.73999999972096,2.327906e-05,439.73999999972096,2.225126e-05
439.75499999972095,0.0006466253,439.75499999972095,0.0001888432,439.75499999972095,2.395897e-05,439.75499999972095,2.221008e-05
439.76999999972094,0.0006455347,439.76999999972094,0.0002028102,439.76999999972094,2.483545e-05,439.76999999972094,2.213702e-05
439.7849999997209,0.0006376176,439.7849999997209,0.0001798153,439.7849999997209,2.501517e-05,439.7849999997209,2.197672e-05
439.7999999997209,0.0006531396,439.7999999997209,0.0001852121,439.7999999997209,2.291188e-05,439.7999999997209,2.122746e-05
439.8149999997209,0.0005920629,439.8149999997209,0.0001770314,439.8149999997209,2.181459e-05,439.8149999997209,1.562351e-05
439.8299999997209,0.0006190027,439.8299999997209,0.0001722697,439.8299999997209,2.276323e-05,439.8299999997209,1.687949e-05
439.84499999972087,0.0007428152,439.84499999972087,0.0001737695,439.84499999972087,2.340459e-05,439.84499999972087,1.681678e-05
439.85999999972086,0.0007713732,439.85999999972086,0.000166238,439.85999999972086,2.332501e-05,439.85999999972086,1.745229e-05
439.87499999972084,0.0007752081,439.87499999972084,0.0001580012,439.87499999972084,2.540519e-05,439.87499999972084,1.832711e-05
439.8899999997208,0.00079061,439.8899999997208,0.0001566899,439.8899999997208,2.468754e-05,439.8899999997208,1.830173e-05
439.9049999997208,0.0008378542,439.9049999997208,0.0001552214,439.9049999997208,2.281083e-05,439.9049999997208,1.881859e-05
439.9199999997208,0.0009232132,439.9199999997208,0.0001479444,439.9199999997208,2.283614e-05,439.9199999997208,1.962903e-05
439.9349999997208,0.0009359159,439.9349999997208,0.0001482249,439.9349999997208,2.334432e-05,439.9349999997208,2.096638e-05
439.9499999997208,0.0009728124,439.9499999997208,0.0001600109,439.9499999997208,2.33576e-05,439.9499999997208,2.254934e-05
439.96499999972076,0.0009944341,439.96499999972076,0.0001614581,439.96499999972076,2.358207e-05,439.96499999972076,2.261235e-05
439.97999999972075,0.001000537,439.97999999972075,0.0001615575,439.97999999972075,2.206755e-05,439.97999999972075,2.282379e-05
439.99499999972073,0.00100028,439.99499999972073,0.0001626179,439.99499999972073,2.114834e-05,439.99499999972073,2.301861e-05
440.0099999997207,0.001127993,440.0099999997207,0.000150604,440.0099999997207,1.985593e-05,440.0099999997207,2.884761e-05
440.0249999997207,0.001191236,440.0249999997207,0.0001316205,440.0249999997207,1.937332e-05,440.0249999997207,2.966234e-05
440.0399999997207,0.001202095,440.0399999997207,0.0001281695,440.0399999997207,1.931798e-05,440.0399999997207,3.202623e-05
440.0549999997207,0.001217841,440.0549999997207,0.0001269815,440.0549999997207,2.169999e-05,440.0549999997207,3.274437e-05
440.06999999972066,0.001164379,440.06999999972066,0.000126411,440.06999999972066,2.134261e-05,440.06999999972066,3.231785e-05
440.08499999972065,0.001113957,440.08499999972065,0.0001236642,440.08499999972065,2.053051e-05,440.08499999972065,3.008952e-05
440.09999999972064,0.001046486,440.09999999972064,0.0001329269,440.09999999972064,2.022705e-05,440.09999999972064,3.000044e-05
440.1149999997206,0.001023057,440.1149999997206,0.0001380439,440.1149999997206,2.025211e-05,440.1149999997206,2.938992e-05
440.1299999997206,0.001021687,440.1299999997206,0.0001376586,440.1299999997206,1.808571e-05,440.1299999997206,2.930015e-05
440.1449999997206,0.001011766,440.1449999997206,0.0001577541,440.1449999997206,1.705302e-05,440.1449999997206,2.934723e-05
440.1599999997206,0.0009638895,440.1599999997206,0.0001645896,440.1599999997206,1.851294e-05,440.1599999997206,2.845082e-05
440.17499999972057,0.0008960342,440.17499999972057,0.0001680302,440.17499999972057,1.813782e-05,440.17499999972057,2.829492e-05
440.18999999972056,0.0009036377,440.18999999972056,0.0001647222,440.18999999972056,1.981617e-05,440.18999999972056,2.686427e-05
440.20499999972054,0.0008769048,440.20499999972054,0.0001606939,440.20499999972054,1.991119e-05,440.20499999972054,2.559412e-05
440.2199999997205,0.0008628559,440.2199999997205,0.0001604219,440.2199999997205,1.958593e-05,440.2199999997205,2.555226e-05
440.2349999997205,0.0008883688,440.2349999997205,0.0001519857,440.2349999997205,2.010971e-05,440.2349999997205,2.574941e-05
440.2499999997205,0.0009062494,440.2499999997205,0.0001491078,440.2499999997205,1.998323e-05,440.2499999997205,2.37054e-05
440.2649999997205,0.0006826273,440.2649999997205,0.0001422084,440.2649999997205,2.002055e-05,440.2649999997205,1.851599e-05
440.2799999997205,0.0007557762,440.2799999997205,0.000147444,440.2799999997205,2.051472e-05,440.2799999997205,1.936605e-05
440.29499999972046,0.0008017105,440.29499999972046,0.000155564,440.29499999972046,2.038453e-05,440.29499999972046,1.563523e-05
440.30999999972045,0.0007510113,440.30999999972045,0.0001555338,440.30999999972045,1.900184e-05,440.30999999972045,1.774366e-05
440.32499999972043,0.0007921549,440.32499999972043,0.000156569,440.32499999972043,1.904775e-05,440.32499999972043,1.842447e-05
440.3399999997204,0.0008103403,440.3399999997204,0.0001620159,440.3399999997204,1.975779e-05,440.3399999997204,1.846494e-05
440.3549999997204,0.0008109176,440.3549999997204,0.0001584242,440.3549999997204,2.154167e-05,440.3549999997204,1.839003e-05
440.3699999997204,0.000815742,440.3699999997204,0.0001573833,440.3699999997204,2.23857e-05,440.3699999997204,1.850914e-05
440.3849999997204,0.0008250826,440.3849999997204,0.0001526336,440.3849999997204,2.153186e-05,440.3849999997204,1.835169e-05
440.39999999972036,0.0008313079,440.39999999972036,0.0001360532,440.39999999972036,2.111301e-05,440.39999999972036,1.839462e-05
440.41499999972035,0.0008290184,440.41499999972035,0.0001247642,440.41499999972035,2.032501e-05,440.41499999972035,1.844662e-05
440.42999999972034,0.0008472694,440.42999999972034,0.0001245789,440.42999999972034,2.022218e-05,440.42999999972034,2.089437e-05
440.4449999997203,0.000828306,440.4449999997203,0.0001237677,440.4449999997203,2.151615e-05,440.4449999997203,2.098921e-05
440.4599999997203,0.0008151548,440.4599999997203,0.0001302864,440.4599999997203,2.138547e-05,440.4599999997203,2.10033e-05
440.4749999997203,0.0008026017,440.4749999997203,0.000138849,440.4749999997203,2.139864e-05,440.4749999997203,2.106826e-05
440.4899999997203,0.0007803908,440.4899999997203,0.0001455004,440.4899999997203,2.088762e-05,440.4899999997203,2.078893e-05
440.50499999972027,0.0007551904,440.50499999972027,0.0001591616,440.50499999972027,2.135976e-05,440.50499999972027,2.088088e-05
440.51999999972026,0.0007294344,440.51999999972026,0.0001584765,440.51999999972026,2.100263e-05,440.51999999972026,1.945966e-05
440.53499999972024,0.0005792346,440.53499999972024,0.0001481519,440.53499999972024,2.220564e-05,440.53499999972024,1.768481e-05
440.5499999997202,0.0005439143,440.5499999997202,0.0001420824,440.5499999997202,2.423432e-05,440.5499999997202,1.670416e-05
440.5649999997202,0.0005122554,440.5649999997202,0.0001425289,440.5649999997202,2.577074e-05,440.5649999997202,1.476787e-05
440.5799999997202,0.0004677977,440.5799999997202,0.0001428483,440.5799999997202,2.61468e-05,440.5799999997202,1.441159e-05
440.5949999997202,0.0004478653,440.5949999997202,0.0001335268,440.5949999997202,2.479628e-05,440.5949999997202,1.43263e-05
440.6099999997202,0.0004707834,440.6099999997202,0.000132428,440.6099999997202,2.689205e-05,440.6099999997202,1.467505e-05
440.62499999972016,0.0004573242,440.62499999972016,0.0001339432,440.62499999972016,2.726659e-05,440.62499999972016,1.45061e-05
440.63999999972015,0.0004317348,440.63999999972015,0.0001341983,440.63999999972015,2.836801e-05,440.63999999972015,1.433613e-05
440.65499999972013,0.0004261568,440.65499999972013,0.0001442536,440.65499999972013,2.830189e-05,440.65499999972013,1.437734e-05
440.6699999997201,0.0004004424,440.6699999997201,0.0001504078,440.6699999997201,2.821915e-05,440.6699999997201,1.317376e-05
440.6849999997201,0.0003780603,440.6849999997201,0.0001490703,440.6849999997201,2.774036e-05,440.6849999997201,1.023743e-05
440.6999999997201,0.0003762546,440.6999999997201,0.0001507141,440.6999999997201,2.729654e-05,440.6999999997201,9.94852e-06
440.7149999997201,0.0003741838,440.7149999997201,0.0001383795,440.7149999997201,2.792459e-05,440.7149999997201,9.880319e-06
440.72999999972006,0.0003765706,440.72999999972006,0.000136631,440.72999999972006,2.862654e-05,440.72999999972006,9.52757e-06
440.74499999972005,0.0003526993,440.74499999972005,0.000126253,440.74499999972005,2.900151e-05,440.74499999972005,9.184283e-06
440.75999999972004,0.000344958,440.75999999972004,0.0001218582,440.75999999972004,2.905295e-05,440.75999999972004,9.15971e-06
440.77499999972,0.0003419842,440.77499999972,0.0001248344,440.77499999972,3.022265e-05,440.77499999972,8.999913e-06
440.78999999972,0.0003151438,440.78999999972,0.0001257013,440.78999999972,3.320489e-05,440.78999999972,8.316587e-06
440.80499999972,0.0003121008,440.80499999972,0.0001332497,440.80499999972,3.363106e-05,440.80499999972,8.425965e-06
440.81999999972,0.0003006481,440.81999999972,0.0001373962,440.81999999972,3.283716e-05,440.81999999972,8.532291e-06
440.83499999971997,0.00028177,440.83499999971997,0.0001385864,440.83499999971997,3.342476e-05,440.83499999971997,8.527336e-06
440.84999999971996,0.0002601341,440.84999999971996,0.0001371562,440.84999999971996,3.422602e-05,440.84999999971996,8.612809e-06
440.86499999971994,0.000240906,440.86499999971994,0.0001336096,440.86499999971994,3.292114e-05,440.86499999971994,7.856707e-06
440.8799999997199,0.0002439307,440.8799999997199,0.0001335802,440.8799999997199,3.282687e-05,440.8799999997199,8.007658e-06
440.8949999997199,0.0002395766,440.8949999997199,0.0001308717,440.8949999997199,3.201831e-05,440.8949999997199,7.752019e-06
440.9099999997199,0.0002245732,440.9099999997199,0.000124935,440.9099999997199,3.204734e-05,440.9099999997199,7.607108e-06
440.9249999997199,0.0002482608,440.9249999997199,0.0001373318,440.9249999997199,3.292541e-05,440.9249999997199,7.732004e-06
440.9399999997199,0.0002500439,440.9399999997199,0.0001409891,440.9399999997199,3.218156e-05,440.9399999997199,7.660622e-06
440.95499999971986,0.0002327104,440.95499999971986,0.0001502739,440.95499999971986,3.408166e-05,440.95499999971986,8.311504e-06
440.96999999971985,0.0002371182,440.96999999971985,0.0001520881,440.96999999971985,3.344541e-05,440.96999999971985,8.224612e-06
440.98499999971983,0.000241845,440.98499999971983,0.0001516164,440.98499999971983,3.329555e-05,440.98499999971983,8.058511e-06
440.9999999997198,0.000237193,440.9999999997198,0.0001581036,440.9999999997198,3.328667e-05,440.9999999997198,8.159269e-06
441.0149999997198,0.0002708989,441.0149999997198,0.0001603864,441.0149999997198,3.29639e-05,441.0149999997198,8.046266e-06
441.0299999997198,0.0003043396,441.0299999997198,0.0001593146,441.0299999997198,3.22406e-05,441.0299999997198,8.088174e-06
441.0449999997198,0.0003166575,441.0449999997198,0.0001604064,441.0449999997198,2.891687e-05,441.0449999997198,8.313199e-06
441.05999999971976,0.0003275244,441.05999999971976,0.0001514513,441.05999999971976,3.062639e-05,441.05999999971976,8.279239e-06
441.07499999971975,0.0003297986,441.07499999971975,0.0001478066,441.07499999971975,2.97619e-05,441.07499999971975,8.096878e-06
441.08999999971974,0.0003264424,441.08999999971974,0.0001497751,441.08999999971974,2.93693e-05,441.08999999971974,7.867457e-06
441.1049999997197,0.0003421255,441.1049999997197,0.0001486589,441.1049999997197,2.938177e-05,441.1049999997197,8.694202e-06
441.1199999997197,0.0003463818,441.1199999997197,0.0001479682,441.1199999997197,2.926166e-05,441.1199999997197,8.512456e-06
441.1349999997197,0.0003490845,441.1349999997197,0.000147009,441.1349999997197,2.904762e-05,441.1349999997197,8.695822e-06
441.1499999997197,0.0003713605,441.1499999997197,0.0001460407,441.1499999997197,3.013116e-05,441.1499999997197,8.607901e-06
441.16499999971967,0.0003939319,441.16499999971967,0.0001336795,441.16499999971967,3.347488e-05,441.16499999971967,8.720087e-06
441.17999999971966,0.0003846719,441.17999999971966,0.000117192,441.17999999971966,3.288303e-05,441.17999999971966,9.230183e-06
441.19499999971964,0.0004383855,441.19499999971964,0.0001147857,441.19499999971964,3.274437e-05,441.19499999971964,9.210321e-06
441.2099999997196,0.0004422064,441.2099999997196,0.0001078786,441.2099999997196,3.063237e-05,441.2099999997196,9.266738e-06
441.2249999997196,0.000437963,441.2249999997196,0.0001066699,441.2249999997196,3.059418e-05,441.2249999997196,9.224075e-06
441.2399999997196,0.0004617752,441.2399999997196,0.0001050157,441.2399999997196,3.054672e-05,441.2399999997196,9.342435e-06
441.2549999997196,0.0004529019,441.2549999997196,9.197526e-05,441.2549999997196,3.001218e-05,441.2549999997196,9.178147e-06
441.2699999997196,0.0004380575,441.2699999997196,9.152048e-05,441.2699999997196,3.026411e-05,441.2699999997196,9.823125e-06
441.28499999971956,0.0004303828,441.28499999971956,9.170684e-05,441.28499999971956,2.782959e-05,441.28499999971956,9.74827e-06
441.29999999971955,0.0004476767,441.29999999971955,9.280226e-05,441.29999999971955,2.901754e-05,441.29999999971955,9.665551e-06
441.31499999971953,0.000448977,441.31499999971953,9.352547e-05,441.31499999971953,2.64004e-05,441.31499999971953,9.830293e-06
441.3299999997195,0.0004674203,441.3299999997195,9.887175e-05,441.3299999997195,2.993651e-05,441.3299999997195,1.058382e-05
441.3449999997195,0.0004895296,441.3449999997195,9.786172e-05,441.3449999997195,3.128486e-05,441.3449999997195,1.063428e-05
441.3599999997195,0.0004875741,441.3599999997195,9.781824e-05,441.3599999997195,3.116667e-05,441.3599999997195,1.039446e-05
441.3749999997195,0.0004846512,441.3749999997195,0.0001019883,441.3749999997195,3.02776e-05,441.3749999997195,1.0505e-05
441.38999999971946,0.0004809421,441.38999999971946,0.0001235902,441.38999999971946,3.841511e-05,441.38999999971946,1.094629e-05
441.40499999971945,0.0004633518,441.40499999971945,0.000127268,441.40499999971945,3.960211e-05,441.40499999971945,1.098483e-05
441.41999999971944,0.0004596528,441.41999999971944,0.0001489408,441.41999999971944,3.871354e-05,441.41999999971944,1.097457e-05
441.4349999997194,0.0004569582,441.4349999997194,0.0001575632,441.4349999997194,3.998724e-05,441.4349999997194,1.082465e-05
441.4499999997194,0.0004167011,441.4499999997194,0.000156639,441.4499999997194,4.005975e-05,441.4499999997194,1.087917e-05
441.4649999997194,0.0004367013,441.4649999997194,0.000154114,441.4649999997194,4.164624e-05,441.4649999997194,1.125341e-05
441.4799999997194,0.0004552733,441.4799999997194,0.0001532224,441.4799999997194,4.57256e-05,441.4799999997194,1.131583e-05
441.49499999971937,0.0004410864,441.49499999971937,0.0001601976,441.49499999971937,4.581393e-05,441.49499999971937,1.153529e-05
441.50999999971935,0.0004476704,441.50999999971935,0.0001620558,441.50999999971935,4.536745e-05,441.50999999971935,1.153284e-05
441.52499999971934,0.0004848076,441.52499999971934,0.00016327,441.52499999971934,4.535378e-05,441.52499999971934,1.180924e-05
441.5399999997193,0.0005665545,441.5399999997193,0.0001636472,441.5399999997193,4.542765e-05,441.5399999997193,1.243784e-05
441.5549999997193,0.0005677729,441.5549999997193,0.000181182,441.5549999997193,4.601641e-05,441.5549999997193,1.307932e-05
441.5699999997193,0.0006023881,441.5699999997193,0.0001876084,441.5699999997193,4.621984e-05,441.5699999997193,1.366297e-05
441.5849999997193,0.0006569223,441.5849999997193,0.0001940521,441.5849999997193,4.411881e-05,441.5849999997193,1.388693e-05
441.5999999997193,0.0006421639,441.5999999997193,0.0002255225,441.5999999997193,4.366823e-05,441.5999999997193,1.406332e-05
441.61499999971926,0.0006427115,441.61499999971926,0.0002380068,441.61499999971926,4.619881e-05,441.61499999971926,1.400008e-05
441.62999999971925,0.0007102635,441.62999999971925,0.0002374873,441.62999999971925,4.329664e-05,441.62999999971925,1.603992e-05
441.64499999971923,0.0007293763,441.64499999971923,0.0002340399,441.64499999971923,3.865929e-05,441.64499999971923,1.591738e-05
441.6599999997192,0.0007475498,441.6599999997192,0.0002297184,441.6599999997192,3.768991e-05,441.6599999997192,1.739731e-05
441.6749999997192,0.000757874,441.6749999997192,0.0002147309,441.6749999997192,4.133422e-05,441.6749999997192,1.73649e-05
441.6899999997192,0.0007541069,441.6899999997192,0.0002100793,441.6899999997192,4.187326e-05,441.6899999997192,1.735678e-05
441.7049999997192,0.000758419,441.7049999997192,0.0002140629,441.7049999997192,4.208199e-05,441.7049999997192,1.74329e-05
441.71999999971916,0.0007521915,441.71999999971916,0.0002277487,441.71999999971916,3.843198e-05,441.71999999971916,1.743371e-05
441.73499999971915,0.0007377397,441.73499999971915,0.0002322372,441.73499999971915,3.706505e-05,441.73499999971915,1.751593e-05
441.74999999971914,0.0007397505,441.74999999971914,0.000228055,441.74999999971914,3.770374e-05,441.74999999971914,1.755048e-05
441.7649999997191,0.0007363521,441.7649999997191,0.0002253539,441.7649999997191,3.893813e-05,441.7649999997191,1.802485e-05
441.7799999997191,0.0006828453,441.7799999997191,0.0002254337,441.7799999997191,4.009911e-05,441.7799999997191,1.734704e-05
441.7949999997191,0.000627264,441.7949999997191,0.000224635,441.7949999997191,4.110045e-05,441.7949999997191,1.709675e-05
441.8099999997191,0.0006214743,441.8099999997191,0.000220609,441.8099999997191,4.481543e-05,441.8099999997191,1.665941e-05
441.82499999971907,0.0005627922,441.82499999971907,0.0002210728,441.82499999971907,4.697171e-05,441.82499999971907,1.625627e-05
441.83999999971905,0.0005079204,441.83999999971905,0.0002247061,441.83999999971905,5.272043e-05,441.83999999971905,1.584554e-05
441.85499999971904,0.0005029535,441.85499999971904,0.0001907954,441.85499999971904,5.331136e-05,441.85499999971904,1.587573e-05
441.869999999719,0.0005167533,441.869999999719,0.0001814837,441.869999999719,5.20116e-05,441.869999999719,1.592092e-05
441.884999999719,0.0003982092,441.884999999719,0.0001876811,441.884999999719,5.384508e-05,441.884999999719,1.393856e-05
441.899999999719,0.0003928069,441.899999999719,0.0001932746,441.899999999719,6.24424e-05,441.899999999719,1.32367e-05
441.914999999719,0.000343062,441.914999999719,0.0001931276,441.914999999719,6.486782e-05,441.914999999719,1.175304e-05
441.929999999719,0.0003261428,441.929999999719,0.0001899324,441.929999999719,6.241758e-05,441.929999999719,1.20021e-05
441.94499999971896,0.0003169173,441.94499999971896,0.0002015774,441.94499999971896,6.598482e-05,441.94499999971896,1.198213e-05
441.95999999971895,0.000298522,441.95999999971895,0.0002093586,441.95999999971895,7.049928e-05,441.95999999971895,1.150104e-05
441.97499999971893,0.0003253101,441.97499999971893,0.0001969296,441.97499999971893,7.337642e-05,441.97499999971893,1.132827e-05
441.9899999997189,0.0003766012,441.9899999997189,0.0002066654,441.9899999997189,7.778631e-05,441.9899999997189,1.116797e-05
442.0049999997189,0.0003797267,442.0049999997189,0.0002168506,442.0049999997189,7.898158e-05,442.0049999997189,1.126842e-05
442.0199999997189,0.0003959713,442.0199999997189,0.0002311371,442.0199999997189,8.411609e-05,442.0199999997189,1.091149e-05
442.0349999997189,0.0003979875,442.0349999997189,0.0002345352,442.0349999997189,8.68561e-05,442.0349999997189,1.115535e-05
442.04999999971886,0.0003968925,442.04999999971886,0.0002257046,442.04999999971886,8.668646e-05,442.04999999971886,1.145071e-05
442.06499999971885,0.0003843007,442.06499999971885,0.0002169716,442.06499999971885,8.368341e-05,442.06499999971885,1.136055e-05
442.07999999971884,0.0004031312,442.07999999971884,0.0002136818,442.07999999971884,8.525436e-05,442.07999999971884,1.154261e-05
442.0949999997188,0.0004192396,442.0949999997188,0.0002134426,442.0949999997188,8.659459e-05,442.0949999997188,1.166401e-05
442.1099999997188,0.0004086557,442.1099999997188,0.0002171435,442.1099999997188,8.638726e-05,442.1099999997188,1.176502e-05
442.1249999997188,0.0004151594,442.1249999997188,0.000217903,442.1249999997188,8.712346e-05,442.1249999997188,1.173625e-05
442.1399999997188,0.0004219509,442.1399999997188,0.0002333059,442.1399999997188,8.377846e-05,442.1399999997188,1.178655e-05
442.15499999971877,0.0004175051,442.15499999971877,0.0002408795,442.15499999971877,8.359078e-05,442.15499999971877,1.182831e-05
442.16999999971875,0.0004163869,442.16999999971875,0.0002417639,442.16999999971875,8.325458e-05,442.16999999971875,1.270675e-05
442.18499999971874,0.0004171706,442.18499999971874,0.0002421954,442.18499999971874,8.318263e-05,442.18499999971874,1.247064e-05
442.1999999997187,0.0004370766,442.1999999997187,0.0002296492,442.1999999997187,8.372128e-05,442.1999999997187,1.313735e-05
442.2149999997187,0.0004439011,442.2149999997187,0.0002365388,442.2149999997187,8.168259e-05,442.2149999997187,1.314486e-05
442.2299999997187,0.0004101111,442.2299999997187,0.0002453218,442.2299999997187,7.850106e-05,442.2299999997187,1.326434e-05
442.2449999997187,0.0003691059,442.2449999997187,0.0002326399,442.2449999997187,7.483629e-05,442.2449999997187,1.313735e-05
442.2599999997187,0.0003617085,442.2599999997187,0.0002331668,442.2599999997187,7.287306e-05,442.2599999997187,1.273997e-05
442.27499999971866,0.0003550658,442.27499999971866,0.0002387306,442.27499999971866,6.843166e-05,442.27499999971866,1.249322e-05
442.28999999971865,0.0003484722,442.28999999971865,0.0002425788,442.28999999971865,6.523939e-05,442.28999999971865,1.247629e-05
442.30499999971863,0.0003467495,442.30499999971863,0.0002445884,442.30499999971863,6.461782e-05,442.30499999971863,1.229775e-05
442.3199999997186,0.0003465592,442.3199999997186,0.0002474632,442.3199999997186,6.382598e-05,442.3199999997186,1.206298e-05
442.3349999997186,0.0003087048,442.3349999997186,0.0002498536,442.3349999997186,5.885336e-05,442.3349999997186,1.172544e-05
442.3499999997186,0.0003061507,442.3499999997186,0.0002435918,442.3499999997186,5.595979e-05,442.3499999997186,1.110218e-05
442.3649999997186,0.0003040869,442.3649999997186,0.000245231,442.3649999997186,5.518336e-05,442.3649999997186,1.099765e-05
442.37999999971856,0.0002821973,442.37999999971856,0.0002442519,442.37999999971856,5.415837e-05,442.37999999971856,1.08947e-05
442.39499999971855,0.000269953,442.39499999971855,0.0002295283,442.39499999971855,5.297153e-05,442.39499999971855,1.100277e-05
442.40999999971854,0.0002746724,442.40999999971854,0.0002347865,442.40999999971854,4.536838e-05,442.40999999971854,1.110599e-05
442.4249999997185,0.0002657087,442.4249999997185,0.0002370794,442.4249999997185,4.276863e-05,442.4249999997185,1.036732e-05
442.4399999997185,0.0002619821,442.4399999997185,0.0002350374,442.4399999997185,4.241009e-05,442.4399999997185,1.098483e-05
442.4549999997185,0.0002925478,442.4549999997185,0.0002373059,442.4549999997185,4.163913e-05,442.4549999997185,1.079859e-05
442.4699999997185,0.0003326841,442.4699999997185,0.0002192267,442.4699999997185,3.979231e-05,442.4699999997185,1.111486e-05
442.48499999971847,0.0003871763,442.48499999971847,0.0002203188,442.48499999971847,3.888419e-05,442.48499999971847,1.127092e-05
442.49999999971845,0.0003981465,442.49999999971845,0.0002323175,442.49999999971845,3.659152e-05,442.49999999971845,1.262445e-05
442.51499999971844,0.0004166222,442.51499999971844,0.0002249264,442.51499999971844,3.638575e-05,442.51499999971844,1.390821e-05
442.5299999997184,0.0004537991,442.5299999997184,0.0002083834,442.5299999997184,3.97498e-05,442.5299999997184,1.497249e-05
442.5449999997184,0.0005140366,442.5449999997184,0.000205889,442.5449999997184,3.974024e-05,442.5449999997184,1.719451e-05
442.5599999997184,0.0005790832,442.5599999997184,0.0002032522,442.5599999997184,4.001541e-05,442.5599999997184,1.798103e-05
442.5749999997184,0.0006167156,442.5749999997184,0.0001924488,442.5749999997184,3.85553e-05,442.5749999997184,1.829326e-05
442.5899999997184,0.000640791,442.5899999997184,0.0001915942,442.5899999997184,3.806701e-05,442.5899999997184,1.837393e-05
442.60499999971836,0.0006393648,442.60499999971836,0.000183797,442.60499999971836,3.629388e-05,442.60499999971836,1.846876e-05
442.61999999971835,0.0006451824,442.61999999971835,0.0001855879,442.61999999971835,3.730749e-05,442.61999999971835,1.859115e-05
442.63499999971833,0.0006562174,442.63499999971833,0.0001797172,442.63499999971833,3.937809e-05,442.63499999971833,1.913555e-05
442.6499999997183,0.0006497199,442.6499999997183,0.0001736764,442.6499999997183,4.029745e-05,442.6499999997183,1.882383e-05
442.6649999997183,0.0006561094,442.6649999997183,0.0001678782,442.6649999997183,4.054384e-05,442.6649999997183,1.909059e-05
442.6799999997183,0.0006586827,442.6799999997183,0.0001668163,442.6799999997183,3.775265e-05,442.6799999997183,1.922222e-05
442.6949999997183,0.0006603316,442.6949999997183,0.0001664042,442.6949999997183,3.41939e-05,442.6949999997183,1.883355e-05
442.70999999971826,0.0006195933,442.70999999971826,0.0001489818,442.70999999971826,3.347867e-05,442.70999999971826,1.907509e-05
442.72499999971825,0.0006026378,442.72499999971825,0.0001414294,442.72499999971825,3.368295e-05,442.72499999971825,1.896919e-05
442.73999999971824,0.0005904598,442.73999999971824,0.0001318601,442.73999999971824,3.41939e-05,442.73999999971824,1.891863e-05
442.7549999997182,0.0005815878,442.7549999997182,0.000116187,442.7549999997182,3.417288e-05,442.7549999997182,1.793946e-05
442.7699999997182,0.0005664778,442.7699999997182,0.0001128307,442.7699999997182,3.409406e-05,442.7699999997182,1.670669e-05
442.7849999997182,0.0005496953,442.7849999997182,0.0001156341,442.7849999997182,2.663943e-05,442.7849999997182,1.643209e-05
442.7999999997182,0.000456944,442.7999999997182,0.0001141491,442.7999999997182,2.698669e-05,442.7999999997182,1.370312e-05
442.81499999971817,0.0004354918,442.81499999971817,0.0001094591,442.81499999971817,2.64116e-05,442.81499999971817,1.337749e-05
442.82999999971815,0.0003628071,442.82999999971815,0.0001239637,442.82999999971815,2.622587e-05,442.82999999971815,1.28391e-05
442.84499999971814,0.0003549747,442.84499999971814,0.0001267967,442.84499999971814,2.887739e-05,442.84499999971814,1.2689e-05
442.8599999997181,0.0003486391,442.8599999997181,0.0001242122,442.8599999997181,2.907186e-05,442.8599999997181,1.261105e-05
442.8749999997181,0.0003560727,442.8749999997181,0.0001212699,442.8749999997181,2.506018e-05,442.8749999997181,1.230462e-05
442.8899999997181,0.0003446256,442.8899999997181,0.0001232648,442.8899999997181,2.300882e-05,442.8899999997181,1.190784e-05
442.9049999997181,0.0003407065,442.9049999997181,0.0001136814,442.9049999997181,2.120953e-05,442.9049999997181,1.197037e-05
442.9199999997181,0.000320301,442.9199999997181,0.0001072374,442.9199999997181,2.066251e-05,442.9199999997181,1.172905e-05
442.93499999971806,0.0003228223,442.93499999971806,0.0001068211,442.93499999971806,2.379733e-05,442.93499999971806,1.190665e-05
442.94999999971805,0.0003269863,442.94999999971805,0.0001020214,442.94999999971805,2.417961e-05,442.94999999971805,1.188889e-05
442.96499999971803,0.0003224564,442.96499999971803,0.0001015869,442.96499999971803,2.389657e-05,442.96499999971803,1.135931e-05
442.979999999718,0.0003202943,442.979999999718,0.0001020661,442.979999999718,2.305897e-05,442.979999999718,1.207815e-05
442.994999999718,0.0003068515,442.994999999718,0.000102908,442.994999999718,2.272855e-05,442.994999999718,1.159983e-05
443.009999999718,0.0003070573,443.009999999718,0.0001056673,443.009999999718,2.248616e-05,443.009999999718,1.165797e-05
443.024999999718,0.0002880222,443.024999999718,0.0001046868,443.024999999718,2.139798e-05,443.024999999718,1.239814e-05
443.03999999971796,0.0002483137,443.03999999971796,0.0001069501,443.03999999971796,2.197159e-05,443.03999999971796,1.204779e-05
443.05499999971795,0.0002582899,443.05499999971795,0.0001068526,443.05499999971795,2.313947e-05,443.05499999971795,1.23936e-05
443.06999999971794,0.0002417292,443.06999999971794,0.000106056,443.06999999971794,2.310474e-05,443.06999999971794,1.243331e-05
443.0849999997179,0.0002345724,443.0849999997179,9.377712e-05,443.0849999997179,2.127055e-05,443.0849999997179,1.259429e-05
443.0999999997179,0.0002370089,443.0999999997179,9.222594e-05,443.0999999997179,1.948859e-05,443.0999999997179,1.265788e-05
443.1149999997179,0.0002348396,443.1149999997179,0.000111229,443.1149999997179,1.890745e-05,443.1149999997179,1.226449e-05
443.1299999997179,0.000232891,443.1299999997179,0.0001170935,443.1299999997179,1.880436e-05,443.1299999997179,1.223919e-05
443.14499999971787,0.0002363401,443.14499999971787,0.0001172983,443.14499999971787,1.882233e-05,443.14499999971787,1.211658e-05
443.15999999971785,0.0002456784,443.15999999971785,0.0001156232,443.15999999971785,1.881784e-05,443.15999999971785,1.194091e-05
443.17499999971784,0.0002785605,443.17499999971784,0.0001164749,443.17499999971784,1.83678e-05,443.17499999971784,1.18628e-05
443.1899999997178,0.0002885305,443.1899999997178,0.0001190258,443.1899999997178,1.613187e-05,443.1899999997178,1.149492e-05
443.2049999997178,0.0002822416,443.2049999997178,0.0001230587,443.2049999997178,1.60074e-05,443.2049999997178,1.148879e-05
443.2199999997178,0.0002992842,443.2199999997178,0.0001254156,443.2199999997178,1.598979e-05,443.2199999997178,1.09102e-05
443.2349999997178,0.0003195898,443.2349999997178,0.0001240458,443.2349999997178,1.556841e-05,443.2349999997178,1.054649e-05
443.2499999997178,0.0003211231,443.2499999997178,0.0001209115,443.2499999997178,1.545672e-05,443.2499999997178,1.075153e-05
443.26499999971776,0.0003207656,443.26499999971776,0.0001285552,443.26499999971776,1.557113e-05,443.26499999971776,1.006536e-05
443.27999999971775,0.0003317299,443.27999999971775,0.0001295235,443.27999999971775,1.353868e-05,443.27999999971775,1.001485e-05
443.29499999971773,0.0003508958,443.29499999971773,0.0001413906,443.29499999971773,1.06197e-05,443.29499999971773,9.420515e-06
443.3099999997177,0.0003596705,443.3099999997177,0.0001833316,443.3099999997177,1.013092e-05,443.3099999997177,9.761266e-06
443.3249999997177,0.0003589405,443.3249999997177,0.0002146308,443.3249999997177,1.019883e-05,443.3249999997177,9.969736e-06
443.3399999997177,0.0004216335,443.3399999997177,0.0002250729,443.3399999997177,1.02333e-05,443.3399999997177,1.021677e-05
443.3549999997177,0.0007172696,443.3549999997177,0.0002236095,443.3549999997177,1.036732e-05,443.3549999997177,1.084805e-05
443.36999999971766,0.0007656543,443.36999999971766,0.0002377751,443.36999999971766,1.030873e-05,443.36999999971766,1.350326e-05
443.38499999971765,0.0007702211,443.38499999971765,0.0002727964,443.38499999971765,1.159254e-05,443.38499999971765,1.534146e-05
443.39999999971764,0.0008759119,443.39999999971764,0.0002937064,443.39999999971764,1.628138e-05,443.39999999971764,1.620593e-05
443.4149999997176,0.001027622,443.4149999997176,0.0003046021,443.4149999997176,1.859418e-05,443.4149999997176,1.726564e-05
443.4299999997176,0.00105231,443.4299999997176,0.0003588777,443.4299999997176,1.679583e-05,443.4299999997176,1.740298e-05
443.4449999997176,0.00106419,443.4449999997176,0.0003791362,443.4449999997176,1.683855e-05,443.4449999997176,1.867808e-05
443.4599999997176,0.001247306,443.4599999997176,0.0003980614,443.4599999997176,1.687532e-05,443.4599999997176,2.083901e-05
443.47499999971757,0.001352725,443.47499999971757,0.00042465,443.47499999971757,1.839769e-05,443.47499999971757,2.117097e-05
443.48999999971755,0.001372516,443.48999999971755,0.0004604454,443.48999999971755,1.912524e-05,443.48999999971755,2.173178e-05
443.50499999971754,0.001517814,443.50499999971754,0.0004649248,443.50499999971754,2.047898e-05,443.50499999971754,2.24008e-05
443.5199999997175,0.001659413,443.5199999997175,0.0004734954,443.5199999997175,2.037347e-05,443.5199999997175,2.253185e-05
443.5349999997175,0.0016624,443.5349999997175,0.0004912717,443.5349999997175,2.035618e-05,443.5349999997175,2.269443e-05
443.5499999997175,0.00168492,443.5499999997175,0.00049335,443.5499999997175,2.035548e-05,443.5499999997175,2.323242e-05
443.5649999997175,0.001718563,443.5649999997175,0.0004913149,443.5649999997175,2.045971e-05,443.5649999997175,2.331957e-05
443.5799999997175,0.001721173,443.5799999997175,0.0004867426,443.5799999997175,2.114834e-05,443.5799999997175,2.417845e-05
443.59499999971746,0.001691536,443.59499999971746,0.0004835409,443.59499999971746,2.306752e-05,443.59499999971746,2.411953e-05
443.60999999971745,0.001607565,443.60999999971745,0.0004876323,443.60999999971745,2.331474e-05,443.60999999971745,2.403294e-05
443.62499999971743,0.001622682,443.62499999971743,0.0004729705,443.62499999971743,2.34755e-05,443.62499999971743,2.25687e-05
443.6399999997174,0.001626272,443.6399999997174,0.0004550781,443.6399999997174,2.291987e-05,443.6399999997174,2.224367e-05
443.6549999997174,0.001583112,443.6549999997174,0.0004442898,443.6549999997174,1.788284e-05,443.6549999997174,2.247238e-05
443.6699999997174,0.001531491,443.6699999997174,0.0004319214,443.6699999997174,1.795438e-05,443.6699999997174,2.378845e-05
443.6849999997174,0.001531722,443.6849999997174,0.0004244608,443.6849999997174,1.783551e-05,443.6849999997174,2.32603e-05
443.69999999971736,0.001501992,443.69999999971736,0.000407434,443.69999999971736,1.824159e-05,443.69999999971736,2.288974e-05
443.71499999971735,0.001377926,443.71499999971735,0.0004094826,443.71499999971735,1.9846e-05,443.71499999971735,2.127717e-05
443.72999999971734,0.00128359,443.72999999971734,0.0003828892,443.72999999971734,1.869844e-05,443.72999999971734,2.148798e-05
443.7449999997173,0.001254204,443.7449999997173,0.0003433451,443.7449999997173,1.841299e-05,443.7449999997173,2.032016e-05
443.7599999997173,0.001072067,443.7599999997173,0.0003891751,443.7599999997173,1.840687e-05,443.7599999997173,2.159001e-05
443.7749999997173,0.0009197548,443.7749999997173,0.0004568443,443.7749999997173,1.861084e-05,443.7749999997173,2.237689e-05
443.7899999997173,0.0009203851,443.7899999997173,0.0004726858,443.7899999997173,1.874809e-05,443.7899999997173,2.252434e-05
443.80499999971727,0.0008523529,443.80499999971727,0.0005493929,443.80499999971727,1.884552e-05,443.80499999971727,2.221642e-05
443.81999999971725,0.0008170735,443.81999999971725,0.000539724,443.81999999971725,1.850457e-05,443.81999999971725,2.182492e-05
443.83499999971724,0.000797234,443.83499999971724,0.0005934675,443.83499999971724,1.772539e-05,443.83499999971724,2.084239e-05
443.8499999997172,0.0007892833,443.8499999997172,0.0006887704,443.8499999997172,1.596863e-05,443.8499999997172,2.072105e-05
443.8649999997172,0.0007492736,443.8649999997172,0.0007443788,443.8649999997172,1.649455e-05,443.8649999997172,2.024306e-05
443.8799999997172,0.0006816584,443.8799999997172,0.0007471674,443.8799999997172,1.671849e-05,443.8799999997172,2.013072e-05
443.8949999997172,0.0006755037,443.8949999997172,0.0007455843,443.8949999997172,1.669657e-05,443.8949999997172,1.95593e-05
443.9099999997172,0.000593183,443.9099999997172,0.0007519255,443.9099999997172,1.64012e-05,443.9099999997172,1.746923e-05
443.92499999971716,0.000531126,443.92499999971716,0.0007535642,443.92499999971716,1.633752e-05,443.92499999971716,1.610391e-05
443.93999999971714,0.0005324894,443.93999999971714,0.0007478375,443.93999999971714,1.609778e-05,443.93999999971714,1.577961e-05
443.95499999971713,0.0004970511,443.95499999971713,0.0007490331,443.95499999971713,1.540834e-05,443.95499999971713,1.589967e-05
443.9699999997171,0.0004711642,443.9699999997171,0.0007397159,443.9699999997171,1.493009e-05,443.9699999997171,1.619028e-05
443.9849999997171,0.0004822451,443.9849999997171,0.000743144,443.9849999997171,1.422368e-05,443.9849999997171,1.614933e-05
443.9999999997171,0.0004514487,443.9999999997171,0.0007521053,443.9999999997171,1.292003e-05,443.9999999997171,1.60329e-05
444.0149999997171,0.0004218146,444.0149999997171,0.000717701,444.0149999997171,1.274992e-05,444.0149999997171,1.437734e-05
444.02999999971706,0.0004227155,444.02999999971706,0.0006501889,444.02999999971706,1.28654e-05,444.02999999971706,1.342479e-05
444.04499999971705,0.0004070281,444.04499999971705,0.000636344,444.04499999971705,1.269677e-05,444.04499999971705,1.299938e-05
444.05999999971704,0.0003960963,444.05999999971704,0.0005429948,444.05999999971704,1.55004e-05,444.05999999971704,1.226449e-05
444.074999999717,0.000395828,444.074999999717,0.0005478301,444.074999999717,1.71272e-05,444.074999999717,1.224149e-05
444.089999999717,0.0003986229,444.089999999717,0.0004877085,444.089999999717,1.70555e-05,444.089999999717,1.195153e-05
444.104999999717,0.0003982619,444.104999999717,0.0003840206,444.104999999717,1.720107e-05,444.104999999717,1.208864e-05
444.119999999717,0.0003975515,444.119999999717,0.000320482,444.119999999717,1.67387e-05,444.119999999717,1.228744e-05
444.13499999971697,0.0003876514,444.13499999971697,0.000318947,444.13499999971697,1.72958e-05,444.13499999971697,1.234805e-05
444.14999999971695,0.0003866435,444.14999999971695,0.0003190746,444.14999999971695,2.442365e-05,444.14999999971695,1.243218e-05
444.16499999971694,0.0003911955,444.16499999971694,0.0003009626,444.16499999971694,2.453816e-05,444.16499999971694,1.22484e-05
444.1799999997169,0.0003859768,444.1799999997169,0.0002877993,444.1799999997169,2.456627e-05,444.1799999997169,1.247403e-05
444.1949999997169,0.0003682232,444.1949999997169,0.0002785347,444.1949999997169,2.573628e-05,444.1949999997169,1.1705e-05
444.2099999997169,0.000447005,444.2099999997169,0.0002698449,444.2099999997169,2.663943e-05,444.2099999997169,1.135559e-05
444.2249999997169,0.0004331056,444.2249999997169,0.0002675127,444.2249999997169,2.922506e-05,444.2249999997169,1.095401e-05
444.2399999997169,0.0004629243,444.2399999997169,0.0002587878,444.2399999997169,2.931986e-05,444.2399999997169,1.082725e-05
444.25499999971686,0.0005077063,444.25499999971686,0.0002189045,444.25499999971686,2.933811e-05,444.25499999971686,1.079207e-05
444.26999999971684,0.0005062008,444.26999999971684,0.0002381432,444.26999999971684,2.915121e-05,444.26999999971684,1.055317e-05
444.28499999971683,0.0005152224,444.28499999971683,0.0002497964,444.28499999971683,3.185379e-05,444.28499999971683,1.138038e-05
444.2999999997168,0.000579356,444.2999999997168,0.0002428869,444.2999999997168,3.389931e-05,444.2999999997168,1.223574e-05
444.3149999997168,0.0005902959,444.3149999997168,0.0002068116,444.3149999997168,3.306161e-05,444.3149999997168,1.258981e-05
444.3299999997168,0.0006594475,444.3299999997168,0.0002067131,444.3299999997168,3.243575e-05,444.3299999997168,1.262222e-05
444.3449999997168,0.0006885178,444.3449999997168,0.0002034143,444.3449999997168,3.38086e-05,444.3449999997168,1.678828e-05
444.35999999971676,0.0007388711,444.35999999971676,0.0002042029,444.35999999971676,3.452639e-05,444.35999999971676,1.726646e-05
444.37499999971675,0.0007391068,444.37499999971675,0.0002139479,444.37499999971675,3.85973e-05,444.37499999971675,2.050854e-05
444.38999999971674,0.000744711,444.38999999971674,0.0002212766,444.38999999971674,3.835052e-05,444.38999999971674,2.264286e-05
444.4049999997167,0.00076016,444.4049999997167,0.0002260268,444.4049999997167,3.598634e-05,444.4049999997167,2.299657e-05
444.4199999997167,0.0007628593,444.4199999997167,0.0002303637,444.4199999997167,3.595462e-05,444.4199999997167,2.322454e-05
444.4349999997167,0.0007562126,444.4349999997167,0.0002320129,444.4349999997167,3.573849e-05,444.4349999997167,2.329298e-05
444.4499999997167,0.0007271743,444.4499999997167,0.0002593681,444.4499999997167,3.52815e-05,444.4499999997167,2.35982e-05
444.46499999971667,0.0006817523,444.46499999971667,0.0002585252,444.46499999971667,3.699962e-05,444.46499999971667,2.334553e-05
444.47999999971665,0.0006813567,444.47999999971665,0.0002936322,444.47999999971665,3.761883e-05,444.47999999971665,2.343406e-05
444.49499999971664,0.0006377493,444.49499999971664,0.0003158045,444.49499999971664,3.817786e-05,444.49499999971664,2.337809e-05
444.5099999997166,0.0006252314,444.5099999997166,0.0003310425,444.5099999997166,3.857612e-05,444.5099999997166,2.362385e-05
444.5249999997166,0.0006527263,444.5249999997166,0.0003151176,444.5249999997166,3.910707e-05,444.5249999997166,2.409967e-05
444.5399999997166,0.0006415296,444.5399999997166,0.0003116594,444.5399999997166,3.771195e-05,444.5399999997166,2.439191e-05
444.5549999997166,0.0006107767,444.5549999997166,0.0003130922,444.5549999997166,3.719139e-05,444.5549999997166,2.419126e-05
444.5699999997166,0.000607845,444.5699999997166,0.0003159235,444.5699999997166,3.96675e-05,444.5699999997166,2.570615e-05
444.58499999971656,0.0005593974,444.58499999971656,0.0003165429,444.58499999971656,4.030095e-05,444.58499999971656,2.587711e-05
444.59999999971654,0.0005319983,444.59999999971654,0.0003246127,444.59999999971654,3.968632e-05,444.59999999971654,2.287743e-05
444.61499999971653,0.0004748449,444.61499999971653,0.0003546026,444.61499999971653,3.998266e-05,444.61499999971653,2.286696e-05
444.6299999997165,0.0004835127,444.6299999997165,0.0003645809,444.6299999997165,3.876918e-05,444.6299999997165,1.947196e-05
444.6449999997165,0.0005269755,444.6449999997165,0.0003695498,444.6449999997165,3.896489e-05,444.6449999997165,1.839922e-05
444.6599999997165,0.0005276894,444.6599999997165,0.0003668229,444.6599999997165,3.979266e-05,444.6599999997165,1.831173e-05
444.6749999997165,0.0005519912,444.6749999997165,0.0003863628,444.6749999997165,3.992978e-05,444.6749999997165,1.823e-05
444.68999999971646,0.0005901355,444.68999999971646,0.000382337,444.68999999971646,4.358783e-05,444.68999999971646,1.840534e-05
444.70499999971645,0.0006008634,444.70499999971645,0.0003609078,444.70499999971645,4.285089e-05,444.70499999971645,1.821841e-05
444.71999999971644,0.0006276012,444.71999999971644,0.0003596273,444.71999999971644,4.187359e-05,444.71999999971644,1.857523e-05
444.7349999997164,0.0006456723,444.7349999997164,0.0003234108,444.7349999997164,4.034392e-05,444.7349999997164,1.925956e-05
444.7499999997164,0.0006566698,444.7499999997164,0.0003140541,444.7499999997164,4.028417e-05,444.7499999997164,1.94227e-05
444.7649999997164,0.0006518767,444.7649999997164,0.0003139058,444.7649999997164,3.98846e-05,444.7649999997164,1.909502e-05
444.7799999997164,0.0006185181,444.7799999997164,0.0003820785,444.7799999997164,4.012545e-05,444.7799999997164,1.766489e-05
444.79499999971637,0.0006075872,444.79499999971637,0.0004021614,444.79499999971637,4.050317e-05,444.79499999971637,1.748535e-05
444.80999999971635,0.0005990135,444.80999999971635,0.000410172,444.80999999971635,4.111656e-05,444.80999999971635,1.660351e-05
444.82499999971634,0.0005821968,444.82499999971634,0.0004175405,444.82499999971634,3.884686e-05,444.82499999971634,1.466065e-05
444.8399999997163,0.0005610336,444.8399999997163,0.0004492162,444.8399999997163,3.825269e-05,444.8399999997163,1.498096e-05
444.8549999997163,0.0005436629,444.8549999997163,0.0004430318,444.8549999997163,3.781342e-05,444.8549999997163,1.502227e-05
444.8699999997163,0.000544061,444.8699999997163,0.0004480955,444.8699999997163,3.407298e-05,444.8699999997163,1.51381e-05
444.8849999997163,0.00053481,444.8849999997163,0.0004630442,444.8849999997163,3.334121e-05,444.8849999997163,1.504102e-05
444.8999999997163,0.0004577263,444.8999999997163,0.0004676474,444.8999999997163,3.687148e-05,444.8999999997163,1.403023e-05
444.91499999971626,0.0004415847,444.91499999971626,0.0004595012,444.91499999971626,3.602625e-05,444.91499999971626,1.421674e-05
444.92999999971624,0.0004045972,444.92999999971624,0.0004616305,444.92999999971624,3.718192e-05,444.92999999971624,1.424545e-05
444.94499999971623,0.0003617574,444.94499999971623,0.0004894303,444.94499999971623,3.09949e-05,444.94499999971623,1.418003e-05
444.9599999997162,0.0003595784,444.9599999997162,0.0004994281,444.9599999997162,3.278436e-05,444.9599999997162,1.385951e-05
444.9749999997162,0.0002812133,444.9749999997162,0.0005191586,444.9749999997162,3.435501e-05,444.9749999997162,1.285554e-05
444.9899999997162,0.0002577142,444.9899999997162,0.0005204873,444.9899999997162,3.511501e-05,444.9899999997162,1.233435e-05
445.0049999997162,0.0002495389,445.0049999997162,0.0005097759,445.0049999997162,3.525793e-05,445.0049999997162,1.17985e-05
445.01999999971616,0.0002449459,445.01999999971616,0.0005018987,445.01999999971616,3.493765e-05,445.01999999971616,1.113892e-05
445.03499999971615,0.0002690754,445.03499999971615,0.0004709306,445.03499999971615,3.456513e-05,445.03499999971615,1.105514e-05
445.04999999971614,0.0002929373,445.04999999971614,0.0004750271,445.04999999971614,3.368003e-05,445.04999999971614,1.122584e-05
445.0649999997161,0.000292722,445.0649999997161,0.0004728104,445.0649999997161,3.677354e-05,445.0649999997161,1.139646e-05
445.0799999997161,0.000302581,445.0799999997161,0.0005231968,445.0799999997161,3.696344e-05,445.0799999997161,1.222652e-05
445.0949999997161,0.0003062168,445.0949999997161,0.0005273322,445.0949999997161,3.708253e-05,445.0949999997161,1.169055e-05
445.1099999997161,0.000320259,445.1099999997161,0.0005296121,445.1099999997161,3.708443e-05,445.1099999997161,1.131334e-05
445.12499999971607,0.0003269532,445.12499999971607,0.0005332797,445.12499999971607,3.731051e-05,445.12499999971607,1.113639e-05
445.13999999971605,0.0003244306,445.13999999971605,0.0005283803,445.13999999971605,3.586676e-05,445.13999999971605,1.136675e-05
445.15499999971604,0.0003387742,445.15499999971604,0.000523411,445.15499999971604,3.54472e-05,445.15499999971604,1.153406e-05
445.169999999716,0.0003645414,445.169999999716,0.0005186929,445.169999999716,3.643759e-05,445.169999999716,1.14544e-05
445.184999999716,0.0003717817,445.184999999716,0.0005133793,445.184999999716,3.646271e-05,445.184999999716,1.13407e-05
445.199999999716,0.0004230934,445.199999999716,0.0004679426,445.199999999716,3.644648e-05,445.199999999716,1.139522e-05
445.214999999716,0.0004317445,445.214999999716,0.0004636896,445.214999999716,3.411017e-05,445.214999999716,1.147529e-05
445.229999999716,0.0004317682,445.229999999716,0.0004838369,445.229999999716,3.289503e-05,445.229999999716,1.144579e-05
445.24499999971596,0.0004302098,445.24499999971596,0.0004885072,445.24499999971596,3.418814e-05,445.24499999971596,1.157308e-05
445.25999999971594,0.0004461702,445.25999999971594,0.0004878641,445.25999999971594,3.444633e-05,445.25999999971594,1.203726e-05
445.27499999971593,0.0004706851,445.27499999971593,0.0004873904,445.27499999971593,3.558523e-05,445.27499999971593,1.217225e-05
445.2899999997159,0.0004675373,445.2899999997159,0.0004671218,445.2899999997159,3.619127e-05,445.2899999997159,1.277861e-05
445.3049999997159,0.0004712563,445.3049999997159,0.0004567083,445.3049999997159,3.106118e-05,445.3049999997159,1.281384e-05
445.3199999997159,0.0004920125,445.3199999997159,0.0004573389,445.3199999997159,3.111556e-05,445.3199999997159,1.297552e-05
445.3349999997159,0.0004884769,445.3349999997159,0.0003360106,445.3349999997159,3.120236e-05,445.3349999997159,1.305129e-05
445.34999999971586,0.0004933642,445.34999999971586,0.0003249464,445.34999999971586,3.355642e-05,445.34999999971586,1.305129e-05
445.36499999971585,0.0004918244,445.36499999971585,0.0003118269,445.36499999971585,3.566036e-05,445.36499999971585,1.308148e-05
445.37999999971584,0.0005087123,445.37999999971584,0.0002639175,445.37999999971584,3.581015e-05,445.37999999971584,1.35314e-05
445.3949999997158,0.000513449,445.3949999997158,0.0002549881,445.3949999997158,3.523675e-05,445.3949999997158,1.390213e-05
445.4099999997158,0.0005342906,445.4099999997158,0.0002481273,445.4099999997158,3.375064e-05,445.4099999997158,1.414323e-05
445.4249999997158,0.0005327133,445.4249999997158,0.0002490373,445.4249999997158,3.631289e-05,445.4249999997158,1.440964e-05
445.4399999997158,0.0005221968,445.4399999997158,0.00023373,445.4399999997158,3.622356e-05,445.4399999997158,1.439105e-05
445.45499999971577,0.000508164,445.45499999971577,0.0002252327,445.45499999971577,3.80448e-05,445.45499999971577,1.414622e-05
445.46999999971575,0.0005126752,445.46999999971575,0.0002094318,445.46999999971575,3.834281e-05,445.46999999971575,1.401214e-05
445.48499999971574,0.000518709,445.48499999971574,0.0001493539,445.48499999971574,3.790755e-05,445.48499999971574,1.404027e-05
445.4999999997157,0.0005289179,445.4999999997157,0.0001477512,445.4999999997157,3.856151e-05,445.4999999997157,1.39628e-05
445.5149999997157,0.0005359073,445.5149999997157,0.0001431513,445.5149999997157,3.91348e-05,445.5149999997157,1.363304e-05
445.5299999997157,0.0005077875,445.5299999997157,0.0001281947,445.5299999997157,3.963766e-05,445.5299999997157,1.390619e-05
445.5449999997157,0.000501813,445.5449999997157,0.0001496067,445.5449999997157,4.004357e-05,445.5449999997157,1.344367e-05
445.55999999971567,0.00048581,445.55999999971567,0.0001578975,445.55999999971567,4.083431e-05,445.55999999971567,1.349596e-05
445.57499999971566,0.0004652373,445.57499999971566,0.0001619767,445.57499999971566,3.970974e-05,445.57499999971566,1.324627e-05
445.58999999971564,0.0004658622,445.58999999971564,0.000178345,445.58999999971564,3.941742e-05,445.58999999971564,1.29342e-05
445.60499999971563,0.0004725617,445.60499999971563,0.0001859573,445.60499999971563,3.793764e-05,445.60499999971563,1.326752e-05
445.6199999997156,0.0004432314,445.6199999997156,0.0001836473,445.6199999997156,3.69337e-05,445.6199999997156,1.282592e-05
445.6349999997156,0.0004360988,445.6349999997156,0.0001873355,445.6349999997156,3.695734e-05,445.6349999997156,1.261105e-05
445.6499999997156,0.0004248287,445.6499999997156,0.0001920494,445.6499999997156,3.791796e-05,445.6499999997156,1.176263e-05
445.6649999997156,0.0003872003,445.6649999997156,0.000191505,445.6649999997156,3.762969e-05,445.6649999997156,1.151451e-05
445.67999999971556,0.0003651791,445.67999999971556,0.0001909416,445.67999999971556,3.393005e-05,445.67999999971556,1.136179e-05
445.69499999971555,0.000355567,445.69499999971555,0.0001896678,445.69499999971555,3.463637e-05,445.69499999971555,1.123337e-05
445.70999999971554,0.0003302244,445.70999999971554,0.0001889951,445.70999999971554,3.247785e-05,445.70999999971554,1.131956e-05
445.7249999997155,0.000295219,445.7249999997155,0.0001885581,445.7249999997155,3.24149e-05,445.7249999997155,1.164346e-05
445.7399999997155,0.0002865233,445.7399999997155,0.0001955405,445.7399999997155,3.055778e-05,445.7399999997155,1.101812e-05
445.7549999997155,0.0002533295,445.7549999997155,0.00019663,445.7549999997155,2.884322e-05,445.7549999997155,1.089082e-05
445.7699999997155,0.000228659,445.7699999997155,0.0001977217,445.7699999997155,3.053334e-05,445.7699999997155,1.093342e-05
445.78499999971547,0.0002258704,445.78499999971547,0.0001985882,445.78499999971547,2.851165e-05,445.78499999971547,1.032512e-05
445.79999999971545,0.0002066245,445.79999999971545,0.0001808816,445.79999999971545,2.741241e-05,445.79999999971545,9.848904e-06
445.81499999971544,0.0002037121,445.81499999971544,0.0001754569,445.81499999971544,2.993228e-05,445.81499999971544,9.404052e-06
445.8299999997154,0.0001926892,445.8299999997154,0.0001636873,445.8299999997154,3.130107e-05,445.8299999997154,9.031162e-06
445.8449999997154,0.0001878351,445.8449999997154,0.0001412686,445.8449999997154,3.23949e-05,445.8449999997154,8.420948e-06
445.8599999997154,0.0001624369,445.8599999997154,0.0001316357,445.8599999997154,3.245225e-05,445.8599999997154,8.673113e-06
445.8749999997154,0.000153575,445.8749999997154,0.0001309364,445.8749999997154,3.23209e-05,445.8749999997154,8.694202e-06
445.88999999971537,0.0001563664,445.88999999971537,0.0001178638,445.88999999971537,3.25017e-05,445.88999999971537,8.819675e-06
445.90499999971536,0.0001555188,445.90499999971536,0.0001175127,445.90499999971536,3.266167e-05,445.90499999971536,8.781259e-06
445.91999999971534,0.0001558008,445.91999999971534,0.0001358471,445.91999999971534,3.247525e-05,445.91999999971534,8.712006e-06
445.93499999971533,0.0001702941,445.93499999971533,0.0001541562,445.93499999971533,3.09899e-05,445.93499999971533,8.687718e-06
445.9499999997153,0.000182746,445.9499999997153,0.0001541155,445.9499999997153,3.05195e-05,445.9499999997153,8.634045e-06
445.9649999997153,0.0001857412,445.9649999997153,0.0001718499,445.9649999997153,3.049595e-05,445.9649999997153,8.742674e-06
445.9799999997153,0.0001913653,445.9799999997153,0.0002006436,445.9799999997153,3.049918e-05,445.9799999997153,8.734614e-06
445.9949999997153,0.0001890489,445.9949999997153,0.0001988287,445.9949999997153,3.050195e-05,445.9949999997153,9.003043e-06
446.00999999971526,0.000206422,446.00999999971526,0.0002029906,446.00999999971526,2.875518e-05,446.00999999971526,9.614407e-06
446.02499999971525,0.0002109302,446.02499999971525,0.0002039086,446.02499999971525,2.672759e-05,446.02499999971525,1.075677e-05
446.03999999971523,0.000206116,446.03999999971523,0.0002003014,446.03999999971523,2.75416e-05,446.03999999971523,1.091407e-05
446.0549999997152,0.0002382009,446.0549999997152,0.0002005223,446.0549999997152,2.765848e-05,446.0549999997152,1.106915e-05
446.0699999997152,0.0003029493,446.0699999997152,0.0002013726,446.0699999997152,2.29002e-05,446.0699999997152,1.277751e-05
446.0849999997152,0.000327547,446.0849999997152,0.000201551,446.0849999997152,2.196582e-05,446.0849999997152,1.334903e-05
446.0999999997152,0.000345843,446.0999999997152,0.0002015472,446.0999999997152,2.006694e-05,446.0999999997152,1.406633e-05
446.11499999971517,0.0003634209,446.11499999971517,0.000201744,446.11499999971517,1.832019e-05,446.11499999971517,1.449736e-05
446.12999999971515,0.0003781749,446.12999999971515,0.0003664704,446.12999999971515,1.67488e-05,446.12999999971515,1.536348e-05
446.14499999971514,0.0003850507,446.14499999971514,0.000394964,446.14499999971514,1.38849e-05,446.14499999971514,1.546219e-05
446.1599999997151,0.0004036424,446.1599999997151,0.0004105989,446.1599999997151,1.42948e-05,446.1599999997151,1.556932e-05
446.1749999997151,0.0003980549,446.1749999997151,0.0004099943,446.1749999997151,1.4185e-05,446.1749999997151,1.565683e-05
446.1899999997151,0.0004075953,446.1899999997151,0.0004111605,446.1899999997151,1.404729e-05,446.1899999997151,1.62554e-05
446.2049999997151,0.0004116795,446.2049999997151,0.0004125058,446.2049999997151,1.400108e-05,446.2049999997151,1.628051e-05
446.21999999971507,0.0004348948,446.21999999971507,0.0004050668,446.21999999971507,1.528534e-05,446.21999999971507,1.622851e-05
446.23499999971506,0.0004433049,446.23499999971506,0.0003914173,446.23499999971506,1.577247e-05,446.23499999971506,1.616241e-05
446.24999999971504,0.0004627994,446.24999999971504,0.0003928809,446.24999999971504,1.66086e-05,446.24999999971504,1.575281e-05
446.26499999971503,0.0004627771,446.26499999971503,0.0003936669,446.26499999971503,1.879387e-05,446.26499999971503,1.571969e-05
446.279999999715,0.0004640644,446.279999999715,0.0003925916,446.279999999715,1.912082e-05,446.279999999715,1.511669e-05
446.294999999715,0.000467003,446.294999999715,0.0003920745,446.294999999715,1.998957e-05,446.294999999715,1.536531e-05
446.309999999715,0.0004544285,446.309999999715,0.0003919117,446.309999999715,1.972068e-05,446.309999999715,1.543118e-05
446.324999999715,0.0003937467,446.324999999715,0.0003914003,446.324999999715,1.968278e-05,446.324999999715,1.393856e-05
446.33999999971496,0.0003857198,446.33999999971496,0.0003913471,446.33999999971496,2.086671e-05,446.33999999971496,1.366503e-05
446.35499999971495,0.0003822884,446.35499999971495,0.0003909452,446.35499999971495,2.300331e-05,446.35499999971495,1.315343e-05
446.36999999971493,0.0003643214,446.36999999971493,0.0002851438,446.36999999971493,2.512922e-05,446.36999999971493,1.252812e-05
446.3849999997149,0.0003469759,446.3849999997149,0.0002214118,446.3849999997149,2.577238e-05,446.3849999997149,1.133697e-05
446.3999999997149,0.0003502441,446.3999999997149,0.0001827225,446.3999999997149,2.483999e-05,446.3999999997149,1.119694e-05
446.4149999997149,0.0003327696,446.4149999997149,0.0001420627,446.4149999997149,2.455079e-05,446.4149999997149,1.140758e-05
446.4299999997149,0.0003222953,446.4299999997149,0.0001254724,446.4299999997149,2.47377e-05,446.4299999997149,1.081423e-05
446.44499999971487,0.0003089708,446.44499999971487,9.928321e-05,446.44499999971487,2.554674e-05,446.44499999971487,1.036596e-05
446.45999999971485,0.0002988378,446.45999999971485,9.443366e-05,446.45999999971485,2.857532e-05,446.45999999971485,1.00289e-05
446.47499999971484,0.0002663797,446.47499999971484,9.828716e-05,446.47499999971484,2.778197e-05,446.47499999971484,1.014759e-05
446.4899999997148,0.0002323556,446.4899999997148,0.0001005085,446.4899999997148,2.758402e-05,446.4899999997148,1.008493e-05
446.5049999997148,0.0002141439,446.5049999997148,9.642117e-05,446.5049999997148,2.704874e-05,446.5049999997148,1.037819e-05
446.5199999997148,0.0002142587,446.5199999997148,0.0001001661,446.5199999997148,2.573737e-05,446.5199999997148,1.028958e-05
446.5349999997148,0.0002112028,446.5349999997148,0.0001030588,446.5349999997148,2.493677e-05,446.5349999997148,1.011283e-05
446.54999999971477,0.0002219701,446.54999999971477,0.0001058675,446.54999999971477,2.362981e-05,446.54999999971477,9.512773e-06
446.56499999971476,0.0002330345,446.56499999971476,0.0001068267,446.56499999971476,2.357849e-05,446.56499999971476,9.09334e-06
446.57999999971474,0.0002336373,446.57999999971474,0.0001076881,446.57999999971474,2.361073e-05,446.57999999971474,9.168933e-06
446.59499999971473,0.0002320104,446.59499999971473,0.0001096125,446.59499999971473,2.178163e-05,446.59499999971473,8.625883e-06
446.6099999997147,0.000227261,446.6099999997147,0.0001125613,446.6099999997147,2.176999e-05,446.6099999997147,9.051417e-06
446.6249999997147,0.0002378379,446.6249999997147,0.0001150827,446.6249999997147,1.922075e-05,446.6249999997147,9.283444e-06
446.6399999997147,0.000238148,446.6399999997147,0.000114925,446.6399999997147,1.899962e-05,446.6399999997147,9.529049e-06
446.6549999997147,0.0002169084,446.6549999997147,0.0001151975,446.6549999997147,1.891714e-05,446.6549999997147,9.383058e-06
446.66999999971466,0.0002228074,446.66999999971466,0.0001136843,446.66999999971466,1.884178e-05,446.66999999971466,9.207261e-06
446.68499999971465,0.0002452937,446.68499999971465,0.000110761,446.68499999971465,1.847791e-05,446.68499999971465,9.484596e-06
446.69999999971463,0.0002479032,446.69999999971463,0.0001098777,446.69999999971463,1.521144e-05,446.69999999971463,9.558568e-06
446.7149999997146,0.0002603921,446.7149999997146,0.0001073154,446.7149999997146,1.191493e-05,446.7149999997146,1.022779e-05
446.7299999997146,0.000264201,446.7299999997146,0.000101565,446.7299999997146,1.332368e-05,446.7299999997146,1.010586e-05
446.7449999997146,0.0002591552,446.7449999997146,0.0001007019,446.7449999997146,1.345309e-05,446.7449999997146,9.986677e-06
446.7599999997146,0.0002523113,446.7599999997146,9.618376e-05,446.7599999997146,1.345937e-05,446.7599999997146,1.019192e-05
446.77499999971457,0.0002526804,446.77499999971457,8.446303e-05,446.77499999971457,1.400913e-05,446.77499999971457,1.058915e-05
446.78999999971455,0.0002561981,446.78999999971455,8.097921e-05,446.78999999971455,1.665095e-05,446.78999999971455,1.083376e-05
446.80499999971454,0.000249443,446.80499999971454,7.724932e-05,446.80499999971454,1.636595e-05,446.80499999971454,1.168694e-05
446.8199999997145,0.0003029876,446.8199999997145,7.619653e-05,446.8199999997145,1.637885e-05,446.8199999997145,1.331945e-05
446.8349999997145,0.0003436618,446.8349999997145,7.38239e-05,446.8349999997145,1.799121e-05,446.8349999997145,1.423358e-05
446.8499999997145,0.0004084804,446.8499999997145,6.917812e-05,446.8499999997145,1.933475e-05,446.8499999997145,1.505786e-05
446.8649999997145,0.0005354097,446.8649999997145,6.187766e-05,446.8649999997145,2.162261e-05,446.8649999997145,1.623719e-05
446.87999999971447,0.0005514449,446.87999999971447,5.205357e-05,446.87999999971447,2.1978e-05,446.87999999971447,1.662131e-05
446.89499999971446,0.0005614393,446.89499999971446,5.056916e-05,446.89499999971446,2.199402e-05,446.89499999971446,1.697519e-05
446.90999999971444,0.0005853162,446.90999999971444,5.260568e-05,446.90999999971444,2.202602e-05,446.90999999971444,1.905662e-05
446.92499999971443,0.0005793868,446.92499999971443,5.281386e-05,446.92499999971443,2.206116e-05,446.92499999971443,1.905292e-05
446.9399999997144,0.0005927808,446.9399999997144,6.046721e-05,446.9399999997144,2.20784e-05,446.9399999997144,1.943938e-05
446.9549999997144,0.0005921657,446.9549999997144,6.252063e-05,446.9549999997144,2.204583e-05,446.9549999997144,1.925956e-05
446.9699999997144,0.0005944145,446.9699999997144,6.599571e-05,446.9699999997144,2.147421e-05,446.9699999997144,1.922588e-05
446.9849999997144,0.0006184688,446.9849999997144,6.99724e-05,446.9849999997144,2.124338e-05,446.9849999997144,1.946255e-05
446.99999999971436,0.000622003,446.99999999971436,7.435684e-05,446.99999999971436,2.120023e-05,446.99999999971436,1.958521e-05
447.01499999971435,0.000622767,447.01499999971435,0.0001042713,447.01499999971435,2.116898e-05,447.01499999971435,1.952253e-05
447.02999999971433,0.0006267111,447.02999999971433,0.0001088743,447.02999999971433,2.068159e-05,447.02999999971433,1.936169e-05
447.0449999997143,0.0006289863,447.0449999997143,0.0001112519,447.0449999997143,1.874283e-05,447.0449999997143,1.911493e-05
447.0599999997143,0.0006295739,447.0599999997143,0.0001165376,447.0599999997143,1.959671e-05,447.0599999997143,1.865167e-05
447.0749999997143,0.0005940799,447.0749999997143,0.0001179887,447.0749999997143,1.970424e-05,447.0749999997143,1.750628e-05
447.0899999997143,0.0005890314,447.0899999997143,0.0001245145,447.0899999997143,1.760418e-05,447.0899999997143,1.68017e-05
447.10499999971427,0.0005178339,447.10499999971427,0.0001372185,447.10499999971427,1.465873e-05,447.10499999971427,1.552855e-05
447.11999999971425,0.0004318307,447.11999999971425,0.0001383835,447.11999999971425,1.01337e-05,447.11999999971425,1.468561e-05
447.13499999971424,0.0004095608,447.13499999971424,0.0001410536,447.13499999971424,1.400913e-05,447.13499999971424,1.458937e-05
447.1499999997142,0.0004172661,447.1499999997142,0.000150883,447.1499999997142,1.479741e-05,447.1499999997142,1.371648e-05
447.1649999997142,0.0003932796,447.1649999997142,0.0001557105,447.1649999997142,1.484114e-05,447.1649999997142,1.146792e-05
447.1799999997142,0.0003883016,447.1799999997142,0.0001547514,447.1799999997142,1.48942e-05,447.1799999997142,1.13096e-05
447.1949999997142,0.000375222,447.1949999997142,0.0001565343,447.1949999997142,1.487527e-05,447.1949999997142,1.104876e-05
447.20999999971417,0.0003768062,447.20999999971417,0.0001662006,447.20999999971417,1.49433e-05,447.20999999971417,1.118561e-05
447.22499999971416,0.0003698113,447.22499999971416,0.0001645027,447.22499999971416,1.469807e-05,447.22499999971416,1.11174e-05
447.23999999971414,0.0003625474,447.23999999971414,0.000164902,447.23999999971414,1.52207e-05,447.23999999971414,1.042694e-05
447.25499999971413,0.0003574296,447.25499999971413,0.0001613578,447.25499999971413,1.514741e-05,447.25499999971413,1.036325e-05
447.2699999997141,0.0003861081,447.2699999997141,0.0001627574,447.2699999997141,1.523827e-05,447.2699999997141,1.052242e-05
447.2849999997141,0.00042928,447.2849999997141,0.0001625264,447.2849999997141,1.540926e-05,447.2849999997141,1.045527e-05
447.2999999997141,0.0004122883,447.2999999997141,0.0001742609,447.2999999997141,1.604783e-05,447.2999999997141,1.059447e-05
447.3149999997141,0.0004144796,447.3149999997141,0.0001738135,447.3149999997141,1.560998e-05,447.3149999997141,1.098098e-05
447.32999999971406,0.0003968428,447.32999999971406,0.0001816597,447.32999999971406,1.551766e-05,447.32999999971406,1.085065e-05
447.34499999971405,0.0003961013,447.34499999971405,0.0001823938,447.34499999971405,1.544487e-05,447.34499999971405,1.027451e-05
447.35999999971403,0.000394202,447.35999999971403,0.0001899585,447.35999999971403,1.544852e-05,447.35999999971403,1.101557e-05
447.374999999714,0.0003898544,447.374999999714,0.0001984637,447.374999999714,1.631163e-05,447.374999999714,1.106151e-05
447.389999999714,0.0003890282,447.389999999714,0.0002013382,447.389999999714,1.326009e-05,447.389999999714,1.116671e-05
447.404999999714,0.0003776479,447.404999999714,0.0001892772,447.404999999714,1.261664e-05,447.404999999714,1.192557e-05
447.419999999714,0.0003975414,447.419999999714,0.0001915099,447.419999999714,1.267234e-05,447.419999999714,1.194681e-05
447.43499999971397,0.0003986211,447.43499999971397,0.0001935005,447.43499999971397,1.256069e-05,447.43499999971397,1.194327e-05
447.44999999971395,0.0003937437,447.44999999971395,0.0001890154,447.44999999971395,1.260658e-05,447.44999999971395,1.168091e-05
447.46499999971394,0.0003926017,447.46499999971394,0.0002469125,447.46499999971394,1.244124e-05,447.46499999971394,1.195388e-05
447.4799999997139,0.000386352,447.4799999997139,0.0002637956,447.4799999997139,1.171583e-05,447.4799999997139,1.203024e-05
447.4949999997139,0.0003488893,447.4949999997139,0.0003118019,447.4949999997139,1.151206e-05,447.4949999997139,1.180447e-05
447.5099999997139,0.000360121,447.5099999997139,0.0003193238,447.5099999997139,1.162045e-05,447.5099999997139,1.287197e-05
447.5249999997139,0.0003177898,447.5249999997139,0.0003174789,447.5249999997139,1.140881e-05,447.5249999997139,1.375237e-05
447.53999999971387,0.000310287,447.53999999971387,0.0003354015,447.53999999971387,1.10194e-05,447.53999999971387,1.422467e-05
447.55499999971386,0.0003150442,447.55499999971386,0.0003546693,447.55499999971386,9.352983e-06,447.55499999971386,1.436754e-05
447.56999999971384,0.0003135393,447.56999999971384,0.0003743818,447.56999999971384,9.167396e-06,447.56999999971384,1.495743e-05
447.58499999971383,0.0003329942,447.58499999971383,0.0004154374,447.58499999971383,9.560042e-06,447.58499999971383,1.567212e-05
447.5999999997138,0.0003977585,447.5999999997138,0.0004474146,447.5999999997138,9.590935e-06,447.5999999997138,1.572954e-05
447.6149999997138,0.0004355454,447.6149999997138,0.0004544601,447.6149999997138,9.25609e-06,447.6149999997138,1.545398e-05
447.6299999997138,0.0005309584,447.6299999997138,0.0004462576,447.6299999997138,6.196798e-06,447.6299999997138,1.562712e-05
447.6449999997138,0.000539735,447.6449999997138,0.0004579647,447.6449999997138,6.273611e-06,447.6449999997138,1.511669e-05
447.65999999971376,0.0005293038,447.65999999971376,0.0004626097,447.65999999971376,6.224016e-06,447.65999999971376,1.439203e-05
447.67499999971375,0.0005270847,447.67499999971375,0.0004645419,447.67499999971375,6.160319e-06,447.67499999971375,1.436852e-05
447.68999999971373,0.000529206,447.68999999971373,0.0004784554,447.68999999971373,6.19907e-06,447.68999999971373,1.429875e-05
447.7049999997137,0.0005318655,447.7049999997137,0.0004861844,447.7049999997137,6.228541e-06,447.7049999997137,1.40513e-05
447.7199999997137,0.0005228323,447.7199999997137,0.0004808141,447.7199999997137,6.25337e-06,447.7199999997137,1.392036e-05
447.7349999997137,0.0005209584,447.7349999997137,0.0004718181,447.7349999997137,6.659195e-06,447.7349999997137,1.421872e-05
447.7499999997137,0.0005268904,447.7499999997137,0.0004514715,447.7499999997137,7.34712e-06,447.7499999997137,1.419294e-05
447.76499999971367,0.0005277699,447.76499999971367,0.0004519125,447.76499999971367,7.372003e-06,447.76499999971367,1.302536e-05
447.77999999971365,0.0005381308,447.77999999971365,0.0004574804,447.77999999971365,7.36818e-06,447.77999999971365,1.214677e-05
447.79499999971364,0.0005378471,447.79499999971364,0.00042218,447.79499999971364,7.423416e-06,447.79499999971364,1.176861e-05
447.8099999997136,0.0005476756,447.8099999997136,0.0004204885,447.8099999997136,7.483893e-06,447.8099999997136,1.117553e-05
447.8249999997136,0.0005591944,447.8249999997136,0.0004300096,447.8249999997136,7.530803e-06,447.8249999997136,1.070162e-05
447.8399999997136,0.0005334901,447.8399999997136,0.0003786046,447.8399999997136,8.241723e-06,447.8399999997136,9.992318e-06
447.8549999997136,0.0005012055,447.8549999997136,0.000338151,447.8549999997136,8.357139e-06,447.8549999997136,9.634898e-06
447.86999999971357,0.0004544989,447.86999999971357,0.0003233111,447.86999999971357,8.296236e-06,447.86999999971357,9.18275e-06
447.88499999971356,0.0003614863,447.88499999971356,0.0003207651,447.88499999971356,9.298606e-06,447.88499999971356,9.096438e-06
447.89999999971354,0.000366126,447.89999999971354,0.0003185244,447.89999999971354,1.029916e-05,447.89999999971354,9.565934e-06
447.91499999971353,0.0003729923,447.91499999971353,0.0003184052,447.91499999971353,1.194681e-05,447.91499999971353,9.957012e-06
447.9299999997135,0.000370826,447.9299999997135,0.0003136287,447.9299999997135,1.345519e-05,447.9299999997135,9.814517e-06
447.9449999997135,0.0003771543,447.9449999997135,0.0003033757,447.9449999997135,1.528903e-05,447.9449999997135,1.001344e-05
447.9599999997135,0.0004295893,447.9599999997135,0.000276279,447.9599999997135,1.576622e-05,447.9599999997135,1.043369e-05
447.9749999997135,0.0005068565,447.9749999997135,0.0002395408,447.9749999997135,1.76872e-05,447.9749999997135,1.096301e-05
447.98999999971346,0.0005255794,447.98999999971346,0.0002428455,447.98999999971346,1.74934e-05,447.98999999971346,1.138409e-05
448.00499999971345,0.000595605,448.00499999971345,0.0002468344,448.00499999971345,1.765292e-05,448.00499999971345,1.171463e-05
448.01999999971343,0.0006059313,448.01999999971343,0.0002431577,448.01999999971343,1.82817e-05,448.01999999971343,1.194327e-05
448.0349999997134,0.000619955,448.0349999997134,0.0002323881,448.0349999997134,2.104083e-05,448.0349999997134,1.211658e-05
448.0499999997134,0.0006663908,448.0499999997134,0.0002379922,448.0499999997134,2.277808e-05,448.0499999997134,1.215836e-05
448.0649999997134,0.0006644158,448.0649999997134,0.0002236436,448.0649999997134,2.298248e-05,448.0649999997134,1.239814e-05
448.0799999997134,0.0006968315,448.0799999997134,0.0001600243,448.0799999997134,2.300759e-05,448.0799999997134,1.287087e-05
448.09499999971337,0.0006945116,448.09499999971337,0.0001606574,448.09499999971337,2.353783e-05,448.09499999971337,1.284239e-05
448.10999999971335,0.0006933977,448.10999999971335,0.0001577833,448.10999999971335,2.555997e-05,448.10999999971335,1.283471e-05
448.12499999971334,0.0006925632,448.12499999971334,0.0002023607,448.12499999971334,2.621405e-05,448.12499999971334,1.279623e-05
448.1399999997133,0.0006901784,448.1399999997133,0.0002205436,448.1399999997133,2.598413e-05,448.1399999997133,1.290148e-05
448.1549999997133,0.000684434,448.1549999997133,0.0002265555,448.1549999997133,2.559962e-05,448.1549999997133,1.261329e-05
448.1699999997133,0.0006807977,448.1699999997133,0.0002363444,448.1699999997133,2.715477e-05,448.1699999997133,1.227367e-05
448.1849999997133,0.00067234,448.1849999997133,0.0002382395,448.1849999997133,2.663467e-05,448.1849999997133,1.230004e-05
448.19999999971327,0.0006737947,448.19999999971327,0.0002414013,448.19999999971327,2.93693e-05,448.19999999971327,1.230004e-05
448.21499999971326,0.000618946,448.21499999971326,0.0002415345,448.21499999971326,2.869191e-05,448.21499999971326,1.138656e-05
448.22999999971324,0.0005975291,448.22999999971324,0.0002397454,448.22999999971324,2.839531e-05,448.22999999971324,1.249434e-05
448.24499999971323,0.0005778183,448.24499999971323,0.0002296276,448.24499999971323,2.825606e-05,448.24499999971323,1.231378e-05
448.2599999997132,0.0005208633,448.2599999997132,0.0002249002,448.2599999997132,2.81046e-05,448.2599999997132,1.226219e-05
448.2749999997132,0.0004994079,448.2749999997132,0.0002221218,448.2749999997132,2.787814e-05,448.2749999997132,1.225529e-05
448.2899999997132,0.0004733503,448.2899999997132,0.0002310598,448.2899999997132,2.598087e-05,448.2899999997132,1.259764e-05
448.3049999997132,0.0004877684,448.3049999997132,0.0002291429,448.3049999997132,2.534412e-05,448.3049999997132,1.275654e-05
448.31999999971316,0.0004907083,448.31999999971316,0.0002269342,448.31999999971316,2.591464e-05,448.31999999971316,1.250899e-05
448.33499999971315,0.0004894651,448.33499999971315,0.0002256933,448.33499999971315,2.579641e-05,448.33499999971315,1.439497e-05
448.34999999971313,0.000512293,448.34999999971313,0.00022094,448.34999999971313,2.663837e-05,448.34999999971313,1.467889e-05
448.3649999997131,0.000526669,448.3649999997131,0.000216531,448.3649999997131,2.561063e-05,448.3649999997131,1.467313e-05
448.3799999997131,0.0005580843,448.3799999997131,0.0001755002,448.3799999997131,2.567709e-05,448.3799999997131,1.596422e-05
448.3949999997131,0.000589926,448.3949999997131,0.0001654551,448.3949999997131,2.632398e-05,448.3949999997131,1.615195e-05
448.4099999997131,0.0006092354,448.4099999997131,0.0001493344,448.4099999997131,2.573135e-05,448.4099999997131,1.626753e-05
