X[s],a: EMG RMS 1-1,X[s].1,a: EMG RMS 1-2,X[s].2,a: EMG RMS 1-3,X[s].3,a: EMG RMS 1-4
449.00999999971253,0.0009135437,449.00999999971253,0.0002479071,449.00999999971253,2.597816e-05,449.00999999971253,1.030463e-05
449.0249999997125,0.0008089823,449.0249999997125,0.0002666244,449.0249999997125,2.593257e-05,449.0249999997125,1.07476e-05
449.0399999997125,0.0006291907,449.0399999997125,0.0003035374,449.0399999997125,2.593257e-05,449.0399999997125,1.098611e-05
449.0549999997125,0.0004659266,449.0549999997125,0.0003064647,449.0549999997125,2.395897e-05,449.0549999997125,1.113259e-05
449.0699999997125,0.0003507539,449.0699999997125,0.0003025598,449.0699999997125,2.136438e-05,449.0699999997125,1.126967e-05
449.08499999971247,0.0003163934,449.08499999971247,0.00030706,449.08499999971247,1.626233e-05,449.08499999971247,1.247968e-05
449.09999999971245,0.0003069528,449.09999999971245,0.0003151836,449.09999999971245,1.654571e-05,449.09999999971245,1.26278e-05
449.11499999971244,0.0003109159,449.11499999971244,0.0003141792,449.11499999971244,1.655337e-05,449.11499999971244,1.262445e-05
449.1299999997124,0.0002862336,449.1299999997124,0.0003118593,449.1299999997124,1.35116e-05,449.1299999997124,1.437538e-05
449.1449999997124,0.0002699083,449.1449999997124,0.0003102854,449.1449999997124,1.280834e-05,449.1449999997124,1.424149e-05
449.1599999997124,0.0002785851,449.1599999997124,0.000306646,449.1599999997124,1.285226e-05,449.1599999997124,1.450318e-05
449.1749999997124,0.0002834077,449.1749999997124,0.0003062193,449.1749999997124,1.457585e-05,449.1749999997124,1.465969e-05
449.18999999971237,0.0003095997,449.18999999971237,0.0003066408,449.18999999971237,1.461253e-05,449.18999999971237,1.547038e-05
449.20499999971236,0.0003225573,449.20499999971236,0.0003170008,449.20499999971236,1.462313e-05,449.20499999971236,1.623372e-05
449.21999999971234,0.0003359471,449.21999999971234,0.0003124686,449.21999999971234,1.594833e-05,449.21999999971234,1.630472e-05
449.23499999971233,0.0003469494,449.23499999971233,0.0002809636,449.23499999971233,2.126591e-05,449.23499999971233,1.687615e-05
449.2499999997123,0.0003594734,449.2499999997123,0.0002776918,449.2499999997123,2.147224e-05,449.2499999997123,1.694114e-05
449.2649999997123,0.0003894133,449.2649999997123,0.0002756564,449.2649999997123,2.177775e-05,449.2649999997123,1.705385e-05
449.2799999997123,0.0004252931,449.2799999997123,0.0002385088,449.2799999997123,2.174474e-05,449.2799999997123,1.704806e-05
449.2949999997123,0.0004239063,449.2949999997123,0.0001910397,449.2949999997123,2.184234e-05,449.2949999997123,1.689034e-05
449.30999999971226,0.0005111544,449.30999999971226,0.0001867406,449.30999999971226,2.086063e-05,449.30999999971226,1.66501e-05
449.32499999971225,0.0005356173,449.32499999971225,0.0001800921,449.32499999971225,2.136174e-05,449.32499999971225,1.622244e-05
449.33999999971223,0.0005345496,449.33999999971223,0.0001584285,449.33999999971223,2.072785e-05,449.33999999971223,1.537356e-05
449.3549999997122,0.0005498361,449.3549999997122,0.0001336254,449.3549999997122,2.054765e-05,449.3549999997122,1.549768e-05
449.3699999997122,0.0005471724,449.3699999997122,0.0001324844,449.3699999997122,2.055793e-05,449.3699999997122,1.496779e-05
449.3849999997122,0.0005461331,449.3849999997122,0.0001314716,449.3849999997122,2.045558e-05,449.3849999997122,1.409234e-05
449.3999999997122,0.0005440009,449.3999999997122,0.0001361114,449.3999999997122,2.045489e-05,449.3999999997122,1.424545e-05
449.41499999971217,0.0005450101,449.41499999971217,0.000133382,449.41499999971217,1.924932e-05,449.41499999971217,1.386561e-05
449.42999999971215,0.0005559606,449.42999999971215,0.0001387174,449.42999999971215,1.888882e-05,449.42999999971215,1.381268e-05
449.44499999971214,0.0005346342,449.44499999971214,0.0001311789,449.44499999971214,1.893872e-05,449.44499999971214,1.27001e-05
449.4599999997121,0.0005356245,449.4599999997121,0.0001064565,449.4599999997121,1.884701e-05,449.4599999997121,1.176383e-05
449.4749999997121,0.0005369748,449.4749999997121,0.000103519,449.4749999997121,1.747729e-05,449.4749999997121,1.168935e-05
449.4899999997121,0.0005816286,449.4899999997121,0.0001038617,449.4899999997121,1.100149e-05,449.4899999997121,1.380452e-05
449.5049999997121,0.0006132657,449.5049999997121,0.0001057413,449.5049999997121,1.073448e-05,449.5049999997121,1.383917e-05
449.51999999971207,0.0005738548,449.51999999971207,0.0001052737,449.51999999971207,1.026079e-05,449.51999999971207,1.351681e-05
449.53499999971206,0.0005509156,449.53499999971206,9.859811e-05,449.53499999971206,1.015869e-05,449.53499999971206,1.375545e-05
449.54999999971204,0.0005613702,449.54999999971204,9.597425e-05,449.54999999971204,9.988088e-06,449.54999999971204,1.369901e-05
449.56499999971203,0.0004923927,449.56499999971203,0.0001066172,449.56499999971203,1.014621e-05,449.56499999971203,1.361029e-05
449.579999999712,0.0004812355,449.579999999712,0.0001235068,449.579999999712,1.011422e-05,449.579999999712,1.367225e-05
449.594999999712,0.000477757,449.594999999712,0.0001314838,449.594999999712,1.117049e-05,449.594999999712,1.359372e-05
449.609999999712,0.0004617424,449.609999999712,0.0001313714,449.609999999712,1.121203e-05,449.609999999712,1.347925e-05
449.624999999712,0.0004642745,449.624999999712,0.0001345723,449.624999999712,1.125842e-05,449.624999999712,1.353868e-05
449.63999999971196,0.0004568631,449.63999999971196,0.0001381622,449.63999999971196,1.109965e-05,449.63999999971196,1.331945e-05
449.65499999971195,0.0004594188,449.65499999971195,0.0001311294,449.65499999971195,1.115408e-05,449.65499999971195,1.344367e-05
449.66999999971193,0.0004787482,449.66999999971193,0.0001298599,449.66999999971193,1.107042e-05,449.66999999971193,1.381778e-05
449.6849999997119,0.0005125248,449.6849999997119,0.0001273901,449.6849999997119,1.115787e-05,449.6849999997119,1.36196e-05
449.6999999997119,0.0005230794,449.6999999997119,0.0001325997,449.6999999997119,1.14667e-05,449.6999999997119,1.413227e-05
449.7149999997119,0.000539099,449.7149999997119,0.0001329692,449.7149999997119,1.202087e-05,449.7149999997119,1.402922e-05
449.7299999997119,0.0005234827,449.7299999997119,0.0001328976,449.7299999997119,1.214909e-05,449.7299999997119,1.350013e-05
449.74499999971187,0.0004441566,449.74499999971187,0.0001336544,449.74499999971187,1.212006e-05,449.74499999971187,1.125091e-05
449.75999999971185,0.0004202424,449.75999999971185,0.000137042,449.75999999971185,1.204077e-05,449.75999999971185,1.15194e-05
449.77499999971184,0.000427044,449.77499999971184,0.0001385944,449.77499999971184,1.225874e-05,449.77499999971184,1.135435e-05
449.7899999997118,0.000420615,449.7899999997118,0.0001421592,449.7899999997118,1.438714e-05,449.7899999997118,1.134194e-05
449.8049999997118,0.0003876039,449.8049999997118,0.0001410337,449.8049999997118,1.502321e-05,449.8049999997118,1.143471e-05
449.8199999997118,0.0003891535,449.8199999997118,0.0001271462,449.8199999997118,1.50775e-05,449.8199999997118,1.140511e-05
449.8349999997118,0.000392948,449.8349999997118,0.0001070189,449.8349999997118,1.230691e-05,449.8349999997118,1.150716e-05
449.84999999971177,0.0003959379,449.84999999971177,0.0001216585,449.84999999971177,1.224494e-05,449.84999999971177,1.152551e-05
449.86499999971176,0.000393923,449.86499999971176,0.0001325659,449.86499999971176,1.234576e-05,449.86499999971176,1.147775e-05
449.87999999971174,0.0004016431,449.87999999971174,0.0001324823,449.87999999971174,1.23754e-05,449.87999999971174,1.190192e-05
449.89499999971173,0.0004179117,449.89499999971173,0.000151469,449.89499999971173,1.257638e-05,449.89499999971173,1.171823e-05
449.9099999997117,0.0004135553,449.9099999997117,0.0001593564,449.9099999997117,1.260994e-05,449.9099999997117,1.175184e-05
449.9249999997117,0.0003644266,449.9249999997117,0.0001632749,449.9249999997117,1.304373e-05,449.9249999997117,1.122458e-05
449.9399999997117,0.0003220145,449.9399999997117,0.0001659061,449.9399999997117,1.830634e-05,449.9399999997117,1.186161e-05
449.9549999997117,0.0002899856,449.9549999997117,0.0001621809,449.9549999997117,1.809427e-05,449.9549999997117,1.253599e-05
449.96999999971166,0.0002823832,449.96999999971166,0.0001727569,449.96999999971166,1.757935e-05,449.96999999971166,1.264786e-05
449.98499999971165,0.0002829597,449.98499999971165,0.0001925968,449.98499999971165,1.774127e-05,449.98499999971165,1.348447e-05
449.99999999971163,0.000278812,449.99999999971163,0.0001933684,449.99999999971163,1.789307e-05,449.99999999971163,1.390517e-05
450.0149999997116,0.0002922755,450.0149999997116,0.0001992404,450.0149999997116,1.893128e-05,450.0149999997116,1.579211e-05
450.0299999997116,0.0003033462,450.0299999997116,0.0002015349,450.0299999997116,1.893649e-05,450.0299999997116,1.662301e-05
450.0449999997116,0.0004640148,450.0449999997116,0.0002036067,450.0449999997116,1.749582e-05,450.0449999997116,1.949293e-05
450.0599999997116,0.0005039065,450.0599999997116,0.0002097623,450.0599999997116,1.799748e-05,450.0599999997116,2.032917e-05
450.07499999971157,0.0006428699,450.07499999971157,0.0002348686,450.07499999971157,2.075977e-05,450.07499999971157,2.36721e-05
450.08999999971155,0.0007110871,450.08999999971155,0.0002589858,450.08999999971155,2.774594e-05,450.08999999971155,2.888226e-05
450.10499999971154,0.0007211443,450.10499999971154,0.0002549954,450.10499999971154,2.772258e-05,450.10499999971154,3.085734e-05
450.1199999997115,0.0007456335,450.1199999997115,0.0002712816,450.1199999997115,2.950377e-05,450.1199999997115,3.139948e-05
450.1349999997115,0.0007406933,450.1349999997115,0.0003327366,450.1349999997115,2.95243e-05,450.1349999997115,3.217193e-05
450.1499999997115,0.0007445032,450.1499999997115,0.000361627,450.1499999997115,2.950377e-05,450.1499999997115,3.31841e-05
450.1649999997115,0.0007495877,450.1649999997115,0.0003651411,450.1649999997115,2.985594e-05,450.1649999997115,3.3375e-05
450.17999999971147,0.0007584754,450.17999999971147,0.0003634946,450.17999999971147,2.944881e-05,450.17999999971147,3.403161e-05
450.19499999971146,0.0008728192,450.19499999971146,0.0003622474,450.19499999971146,2.740675e-05,450.19499999971146,3.84536e-05
450.20999999971144,0.0008878447,450.20999999971144,0.0003619064,450.20999999971144,2.841564e-05,450.20999999971144,3.869607e-05
450.22499999971143,0.0008967909,450.22499999971143,0.0003539314,450.22499999971143,2.845527e-05,450.22499999971143,3.921894e-05
450.2399999997114,0.001018899,450.2399999997114,0.0003478934,450.2399999997114,2.858862e-05,450.2399999997114,4.154328e-05
450.2549999997114,0.001067688,450.2549999997114,0.0003519916,450.2549999997114,2.864769e-05,450.2549999997114,4.285122e-05
450.2699999997114,0.001081292,450.2699999997114,0.0003662616,450.2699999997114,2.78938e-05,450.2699999997114,4.198178e-05
450.2849999997114,0.001113069,450.2849999997114,0.0003713427,450.2849999997114,2.766001e-05,450.2849999997114,4.351959e-05
450.29999999971136,0.001045381,450.29999999971136,0.0003740362,450.29999999971136,2.761872e-05,450.29999999971136,4.239348e-05
450.31499999971135,0.001034218,450.31499999971135,0.0003808793,450.31499999971135,2.859257e-05,450.31499999971135,4.184196e-05
450.32999999971133,0.0009742275,450.32999999971133,0.0003573593,450.32999999971133,2.684696e-05,450.32999999971133,4.067462e-05
450.3449999997113,0.0009364387,450.3449999997113,0.0003388628,450.3449999997113,2.117563e-05,450.3449999997113,3.832554e-05
450.3599999997113,0.0009340033,450.3599999997113,0.0003475465,450.3599999997113,2.114234e-05,450.3599999997113,3.742925e-05
450.3749999997113,0.0009867129,450.3749999997113,0.0003381254,450.3749999997113,2.255184e-05,450.3749999997113,3.802147e-05
450.3899999997113,0.0009879393,450.3899999997113,0.0002704072,450.3899999997113,2.24498e-05,450.3899999997113,3.733655e-05
450.40499999971126,0.0009881486,450.40499999971126,0.0002350639,450.40499999971126,2.265032e-05,450.40499999971126,3.732033e-05
450.41999999971125,0.001214138,450.41999999971125,0.0002304735,450.41999999971125,2.213256e-05,450.41999999971125,4.314966e-05
450.43499999971124,0.001305642,450.43499999971124,0.0002302966,450.43499999971124,2.194015e-05,450.43499999971124,4.228469e-05
450.4499999997112,0.001268564,450.4499999997112,0.0002335046,450.4499999997112,2.166816e-05,450.4499999997112,4.131479e-05
450.4649999997112,0.001348216,450.4649999997112,0.0002323408,450.4649999997112,2.035756e-05,450.4649999997112,4.278411e-05
450.4799999997112,0.001410015,450.4799999997112,0.0002309915,450.4799999997112,2.022984e-05,450.4799999997112,4.202806e-05
450.4949999997112,0.001335162,450.4949999997112,0.0002293466,450.4949999997112,2.028408e-05,450.4949999997112,3.933872e-05
450.50999999971117,0.001327079,450.50999999971117,0.0002266748,450.50999999971117,2.00564e-05,450.50999999971117,3.943564e-05
450.52499999971116,0.001329552,450.52499999971116,0.0002227483,450.52499999971116,2.005851e-05,450.52499999971116,3.911464e-05
450.53999999971114,0.001309991,450.53999999971114,0.0002862556,450.53999999971114,2.003884e-05,450.53999999971114,3.784879e-05
450.55499999971113,0.001317865,450.55499999971113,0.0002914902,450.55499999971113,2.228289e-05,450.55499999971113,3.746687e-05
450.5699999997111,0.001323704,450.5699999997111,0.0002905604,450.5699999997111,2.490116e-05,450.5699999997111,3.739649e-05
450.5849999997111,0.001319545,450.5849999997111,0.0002969892,450.5849999997111,2.488192e-05,450.5849999997111,3.656841e-05
450.5999999997111,0.001312002,450.5999999997111,0.0002983327,450.5999999997111,2.478605e-05,450.5999999997111,3.569313e-05
450.6149999997111,0.001297522,450.6149999997111,0.0002902682,450.6149999997111,2.466013e-05,450.6149999997111,3.462742e-05
450.62999999971106,0.001261505,450.62999999971106,0.0002913736,450.62999999971106,2.127584e-05,450.62999999971106,3.432671e-05
450.64499999971105,0.001259864,450.64499999971105,0.0002954609,450.64499999971105,2.103882e-05,450.64499999971105,3.414814e-05
450.65999999971103,0.00123647,450.65999999971103,0.0002948737,450.65999999971103,2.101336e-05,450.65999999971103,3.21925e-05
450.674999999711,0.0009801155,450.674999999711,0.0002969929,450.674999999711,2.089234e-05,450.674999999711,2.334794e-05
450.689999999711,0.0008761757,450.689999999711,0.0002957068,450.689999999711,2.060311e-05,450.689999999711,2.224367e-05
450.704999999711,0.0008572971,450.704999999711,0.0002958012,450.704999999711,2.091323e-05,450.704999999711,1.978486e-05
450.719999999711,0.0007081957,450.719999999711,0.0002972963,450.719999999711,2.190545e-05,450.719999999711,1.654486e-05
450.73499999971096,0.0005750682,450.73499999971096,0.000295084,450.73499999971096,2.172205e-05,450.73499999971096,1.603026e-05
450.74999999971095,0.0005601152,450.74999999971095,0.0002947443,450.74999999971095,2.153971e-05,450.74999999971095,1.416413e-05
450.76499999971094,0.0005170963,450.76499999971094,0.000291795,450.76499999971094,2.156716e-05,450.76499999971094,1.3664e-05
450.7799999997109,0.0004753951,450.7799999997109,0.0002177985,450.7799999997109,2.151942e-05,450.7799999997109,1.331839e-05
450.7949999997109,0.0004679748,450.7949999997109,0.000178676,450.7949999997109,2.155344e-05,450.7949999997109,1.3209e-05
450.8099999997109,0.0004365195,450.8099999997109,0.0001626221,450.8099999997109,1.011144e-05,450.8099999997109,1.265565e-05
450.8249999997109,0.0004115219,450.8249999997109,0.0001342562,450.8249999997109,1.008493e-05,450.8249999997109,1.259541e-05
450.83999999971087,0.0004193153,450.83999999971087,0.0001177392,450.83999999971087,9.537914e-06,450.83999999971087,1.165676e-05
450.85499999971086,0.000391104,450.85499999971086,0.0001100269,450.85499999971086,9.577708e-06,450.85499999971086,1.104111e-05
450.86999999971084,0.000364818,450.86999999971084,0.0001169819,450.86999999971084,9.511293e-06,450.86999999971084,1.102451e-05
450.88499999971083,0.0003732811,450.88499999971083,0.0001084296,450.88499999971083,9.840318e-06,450.88499999971083,1.17746e-05
450.8999999997108,0.0003663413,450.8999999997108,0.0001040055,450.8999999997108,1.118057e-05,450.8999999997108,1.120826e-05
450.9149999997108,0.0003605294,450.9149999997108,0.0001023795,450.9149999997108,1.133324e-05,450.9149999997108,1.054382e-05
450.9299999997108,0.0003397041,450.9299999997108,0.0001064201,450.9299999997108,1.16785e-05,450.9299999997108,1.049024e-05
450.9449999997108,0.0003195501,450.9449999997108,0.0001227912,450.9449999997108,1.164951e-05,450.9449999997108,1.04647e-05
450.95999999971076,0.0003350235,450.95999999971076,0.0001269873,450.95999999971076,9.334893e-06,450.95999999971076,1.131707e-05
450.97499999971075,0.0003324273,450.97499999971075,0.0001675685,450.97499999971075,9.138154e-06,450.97499999971075,1.150961e-05
450.98999999971073,0.0003538228,450.98999999971073,0.0001808208,450.98999999971073,9.207261e-06,450.98999999971073,1.173025e-05
451.0049999997107,0.0003703545,451.0049999997107,0.0002222284,451.0049999997107,9.224075e-06,451.0049999997107,1.273223e-05
451.0199999997107,0.0003742751,451.0199999997107,0.0002420179,451.0199999997107,9.393561e-06,451.0199999997107,1.341114e-05
451.0349999997107,0.0003838789,451.0349999997107,0.0002423931,451.0349999997107,9.564462e-06,451.0349999997107,1.379635e-05
451.0499999997107,0.0004466197,451.0499999997107,0.00027496,451.0499999997107,1.017532e-05,451.0499999997107,1.432729e-05
451.06499999971066,0.0004825547,451.06499999971066,0.001217483,451.06499999971066,1.019606e-05,451.06499999971066,1.751593e-05
451.07999999971065,0.0004825912,451.07999999971065,0.001408118,451.07999999971065,1.016978e-05,451.07999999971065,1.77508e-05
451.09499999971064,0.0005080934,451.09499999971064,0.001786888,451.09499999971064,1.012953e-05,451.09499999971064,1.88111e-05
451.1099999997106,0.0005235844,451.1099999997106,0.001987322,451.1099999997106,9.985267e-06,451.1099999997106,1.995007e-05
451.1249999997106,0.0005164559,451.1249999997106,0.002009322,451.1249999997106,1.014065e-05,451.1249999997106,2.038315e-05
451.1399999997106,0.0005104447,451.1399999997106,0.002009357,451.1399999997106,1.034147e-05,451.1399999997106,2.073261e-05
451.1549999997106,0.0005233476,451.1549999997106,0.002017982,451.1549999997106,9.145859e-06,451.1549999997106,2.154625e-05
451.16999999971057,0.00055768,451.16999999971057,0.002030586,451.16999999971057,9.178147e-06,451.16999999971057,2.161479e-05
451.18499999971056,0.000553022,451.18499999971056,0.002040227,451.18499999971056,8.715239e-06,451.18499999971056,2.198761e-05
451.19999999971054,0.0005517565,451.19999999971054,0.002043799,451.19999999971054,8.859515e-06,451.19999999971054,2.191702e-05
451.2149999997105,0.0005440914,451.2149999997105,0.002042927,451.2149999997105,8.914992e-06,451.2149999997105,2.126061e-05
451.2299999997105,0.0005389774,451.2299999997105,0.002040787,451.2299999997105,8.642199e-06,451.2299999997105,2.091795e-05
451.2449999997105,0.0005340343,451.2449999997105,0.002036941,451.2449999997105,8.681231e-06,451.2449999997105,2.095092e-05
451.2599999997105,0.0005488096,451.2599999997105,0.002032097,451.2599999997105,8.497549e-06,451.2599999997105,2.04018e-05
451.2749999997105,0.000547991,451.2749999997105,0.002029171,451.2749999997105,8.682853e-06,451.2749999997105,2.007957e-05
451.28999999971046,0.0005408383,451.28999999971046,0.00202795,451.28999999971046,8.304722e-06,451.28999999971046,2.002618e-05
451.30499999971045,0.0004992637,451.30499999971045,0.001911476,451.30499999971045,7.844146e-06,451.30499999971045,1.933912e-05
451.31999999971043,0.0004458639,451.31999999971043,0.001486795,451.31999999971043,7.827967e-06,451.31999999971043,1.782445e-05
451.3349999997104,0.0004384145,451.3349999997104,0.001298148,451.3349999997104,7.872827e-06,451.3349999997104,1.752639e-05
451.3499999997104,0.0004130799,451.3499999997104,0.0007993001,451.3499999997104,7.963557e-06,451.3499999997104,1.653379e-05
451.3649999997104,0.0003957209,451.3649999997104,0.0003862234,451.3649999997104,7.98652e-06,451.3649999997104,1.524474e-05
451.3799999997104,0.0003912,451.3799999997104,0.0002988365,451.3799999997104,7.752019e-06,451.3799999997104,1.43017e-05
451.39499999971036,0.0003904594,451.39499999971036,0.0002945797,451.39499999971036,6.885912e-06,451.39499999971036,1.380962e-05
451.40999999971035,0.0003537417,451.40999999971035,0.00026276,451.40999999971035,6.618881e-06,451.40999999971035,1.279513e-05
451.42499999971034,0.0002702056,451.42499999971034,0.0002155378,451.42499999971034,6.629514e-06,451.42499999971034,1.246047e-05
451.4399999997103,0.0002514132,451.4399999997103,0.0001694318,451.4399999997103,7.04567e-06,451.4399999997103,1.199271e-05
451.4549999997103,0.0002459069,451.4549999997103,0.0001624214,451.4549999997103,6.881819e-06,451.4549999997103,1.200562e-05
451.4699999997103,0.0002500619,451.4699999997103,0.0001742607,451.4699999997103,6.805661e-06,451.4699999997103,1.188534e-05
451.4849999997103,0.0002548635,451.4849999997103,0.0001803919,451.4849999997103,6.805661e-06,451.4849999997103,1.195153e-05
451.49999999971027,0.0002196632,451.49999999971027,0.0001847638,451.49999999971027,6.659195e-06,451.49999999971027,1.151695e-05
451.51499999971026,0.000182912,451.51499999971026,0.0001872032,451.51499999971026,6.380479e-06,451.51499999971026,1.122709e-05
451.52999999971024,0.0001767167,451.52999999971024,0.0001869639,451.52999999971024,6.221753e-06,451.52999999971024,1.16362e-05
451.5449999997102,0.0001684937,451.5449999997102,0.0001834713,451.5449999997102,6.100575e-06,451.5449999997102,1.088046e-05
451.5599999997102,0.0001381372,451.5599999997102,0.0001835475,451.5599999997102,6.19225e-06,451.5599999997102,9.94427e-06
451.5749999997102,0.0001288703,451.5749999997102,0.0001866093,451.5749999997102,6.393712e-06,451.5749999997102,9.788648e-06
451.5899999997102,0.0001271403,451.5899999997102,0.0001888765,451.5899999997102,6.322817e-06,451.5899999997102,9.764152e-06
451.6049999997102,0.0001204965,451.6049999997102,0.0001895086,451.6049999997102,6.280343e-06,451.6049999997102,9.94002e-06
451.61999999971016,0.0001231399,451.61999999971016,0.0001887361,451.61999999971016,7.144938e-06,451.61999999971016,9.537914e-06
451.63499999971015,0.0001327543,451.63499999971015,0.0001887338,451.63499999971015,7.252564e-06,451.63499999971015,9.607078e-06
451.64999999971013,0.0001330516,451.64999999971013,0.0001880315,451.64999999971013,7.270023e-06,451.64999999971013,9.759823e-06
451.6649999997101,0.0001424989,451.6649999997101,0.0001830956,451.6649999997101,7.197973e-06,451.6649999997101,9.930095e-06
451.6799999997101,0.0001551836,451.6799999997101,0.0002228463,451.6799999997101,7.38918e-06,451.6799999997101,1.012258e-05
451.6949999997101,0.000156274,451.6949999997101,0.0002536037,451.6949999997101,6.969281e-06,451.6949999997101,1.009331e-05
451.7099999997101,0.0001613471,451.7099999997101,0.0002995973,451.7099999997101,7.077588e-06,451.7099999997101,1.036868e-05
451.72499999971006,0.0001701259,451.72499999971006,0.0003384706,451.72499999971006,7.137048e-06,451.72499999971006,1.072529e-05
451.73999999971005,0.0001717985,451.73999999971005,0.0003482898,451.73999999971005,7.16266e-06,451.73999999971005,1.072923e-05
451.75499999971004,0.0001767697,451.75499999971004,0.0003455617,451.75499999971004,7.105398e-06,451.75499999971004,1.044583e-05
451.76999999971,0.0001829165,451.76999999971,0.0003442707,451.76999999971,7.067629e-06,451.76999999971,1.047546e-05
451.78499999971,0.0001839285,451.78499999971,0.00034803,451.78499999971,7.30096e-06,451.78499999971,1.034556e-05
451.79999999971,0.0001838741,451.79999999971,0.0003499792,451.79999999971,7.713764e-06,451.79999999971,1.016701e-05
451.81499999971,0.0001868287,451.81499999971,0.0003527934,451.81499999971,8.186846e-06,451.81499999971,1.024018e-05
451.82999999970997,0.0001927854,451.82999999970997,0.0003568494,451.82999999970997,8.253678e-06,451.82999999970997,1.096172e-05
451.84499999970996,0.0001945188,451.84499999970996,0.0003581596,451.84499999970996,8.26732e-06,451.84499999970996,1.076331e-05
451.85999999970994,0.0001965855,451.85999999970994,0.0003631819,451.85999999970994,8.757163e-06,451.85999999970994,1.162409e-05
451.8749999997099,0.0001998984,451.8749999997099,0.0003714077,451.8749999997099,1.004855e-05,451.8749999997099,1.183783e-05
451.8899999997099,0.0002044258,451.8899999997099,0.000394313,451.8899999997099,1.044179e-05,451.8899999997099,1.211309e-05
451.9049999997099,0.0002020875,451.9049999997099,0.0003963482,451.9049999997099,1.034556e-05,451.9049999997099,1.214445e-05
451.9199999997099,0.0001944569,451.9199999997099,0.0004002778,451.9199999997099,1.015731e-05,451.9199999997099,1.187467e-05
451.9349999997099,0.0001832443,451.9349999997099,0.0003588743,451.9349999997099,1.042559e-05,451.9349999997099,1.158403e-05
451.94999999970986,0.0001900328,451.94999999970986,0.0003592874,451.94999999970986,1.040801e-05,451.94999999970986,1.188178e-05
451.96499999970985,0.0002220441,451.96499999970985,0.0003065981,451.96499999970985,1.056251e-05,451.96499999970985,1.361443e-05
451.97999999970983,0.0002321931,451.97999999970983,0.0002812403,451.97999999970983,1.119946e-05,451.97999999970983,1.428593e-05
451.9949999997098,0.0002738608,451.9949999997098,0.0002742504,451.9949999997098,1.311589e-05,451.9949999997098,1.604695e-05
452.0099999997098,0.0003102041,452.0099999997098,0.0002747774,452.0099999997098,1.317162e-05,452.0099999997098,1.691784e-05
452.0249999997098,0.0003136178,452.0249999997098,0.0002737983,452.0249999997098,1.330887e-05,452.0249999997098,1.722316e-05
452.0399999997098,0.0003139866,452.0399999997098,0.0002729069,452.0399999997098,1.305345e-05,452.0399999997098,1.723052e-05
452.05499999970976,0.0003237095,452.05499999970976,0.0002687571,452.05499999970976,1.325584e-05,452.05499999970976,1.766728e-05
452.06999999970975,0.0003976537,452.06999999970975,0.0002638296,452.06999999970975,1.316413e-05,452.06999999970975,2.340399e-05
452.08499999970974,0.0004160675,452.08499999970974,0.0002576567,452.08499999970974,1.312233e-05,452.08499999970974,2.46327e-05
452.0999999997097,0.0004367183,452.0999999997097,0.0002539794,452.0999999997097,1.307717e-05,452.0999999997097,2.65223e-05
452.1149999997097,0.0004936043,452.1149999997097,0.0002519442,452.1149999997097,1.19173e-05,452.1149999997097,2.938273e-05
452.1299999997097,0.0005183992,452.1299999997097,0.0002345934,452.1299999997097,1.089599e-05,452.1299999997097,3.014425e-05
452.1449999997097,0.0005628401,452.1449999997097,0.0001969001,452.1449999997097,1.094243e-05,452.1449999997097,3.329005e-05
452.15999999970967,0.0005888141,452.15999999970967,0.000200074,452.15999999970967,1.091924e-05,452.15999999970967,3.356019e-05
452.17499999970966,0.0005962495,452.17499999970966,0.0002139115,452.17499999970966,1.0972e-05,452.17499999970966,3.393379e-05
452.18999999970964,0.0006153798,452.18999999970964,0.0002070417,452.18999999970964,1.078162e-05,452.18999999970964,3.418978e-05
452.2049999997096,0.0006228999,452.2049999997096,0.0002376031,452.2049999997096,1.092439e-05,452.2049999997096,3.430002e-05
452.2199999997096,0.0006055558,452.2199999997096,0.0003772085,452.2199999997096,1.113133e-05,452.2199999997096,3.371096e-05
452.2349999997096,0.0006160286,452.2349999997096,0.0004031513,452.2349999997096,8.193725e-06,452.2349999997096,3.400636e-05
452.2499999997096,0.0005915818,452.2499999997096,0.0004257962,452.2499999997096,7.851327e-06,452.2499999997096,3.311993e-05
452.2649999997096,0.0005794786,452.2649999997096,0.000534139,452.2649999997096,9.340927e-06,452.2649999997096,3.292413e-05
452.27999999970956,0.000581314,452.27999999970956,0.0005822955,452.27999999970956,9.979622e-06,452.27999999970956,3.281785e-05
452.29499999970955,0.0005805892,452.29499999970955,0.0005937566,452.29499999970955,9.804465e-06,452.29499999970955,3.278564e-05
452.30999999970953,0.0005754165,452.30999999970953,0.0006015943,452.30999999970953,9.181215e-06,452.30999999970953,3.270865e-05
452.3249999997095,0.0005181907,452.3249999997095,0.0006196485,452.3249999997095,9.06075e-06,452.3249999997095,2.848644e-05
452.3399999997095,0.0004979193,452.3399999997095,0.0006343884,452.3399999997095,9.266738e-06,452.3399999997095,2.712778e-05
452.3549999997095,0.0005042471,452.3549999997095,0.0006377739,452.3549999997095,9.713527e-06,452.3549999997095,2.998635e-05
452.3699999997095,0.0004580624,452.3699999997095,0.0006401489,452.3699999997095,9.712076e-06,452.3699999997095,3.037561e-05
452.38499999970946,0.0004592788,452.38499999970946,0.0006440611,452.38499999970946,9.517214e-06,452.38499999970946,3.174481e-05
452.39999999970945,0.0004287055,452.39999999970945,0.0006466332,452.39999999970945,9.524612e-06,452.39999999970945,3.146894e-05
452.41499999970944,0.0004034626,452.41499999970944,0.0006478775,452.41499999970944,1.135187e-05,452.41499999970944,3.18993e-05
452.4299999997094,0.0004001847,452.4299999997094,0.0006409692,452.4299999997094,1.130586e-05,452.4299999997094,3.176566e-05
452.4449999997094,0.0003973787,452.4449999997094,0.0006360544,452.4449999997094,1.174705e-05,452.4449999997094,3.394665e-05
452.4599999997094,0.0004204867,452.4599999997094,0.0006038093,452.4599999997094,1.175664e-05,452.4599999997094,3.627486e-05
452.4749999997094,0.0004246257,452.4749999997094,0.0005295926,452.4749999997094,1.160468e-05,452.4749999997094,3.659075e-05
452.48999999970937,0.0004441036,452.48999999970937,0.0005193127,452.48999999970937,1.157916e-05,452.48999999970937,3.812174e-05
452.50499999970936,0.0004551192,452.50499999970936,0.0004972757,452.50499999970936,1.120574e-05,452.50499999970936,3.878044e-05
452.51999999970934,0.0004671413,452.51999999970934,0.0003299346,452.51999999970934,1.113386e-05,452.51999999970934,4.05876e-05
452.5349999997093,0.0004701298,452.5349999997093,0.0002933822,452.5349999997093,1.141498e-05,452.5349999997093,4.09332e-05
452.5499999997093,0.0004714247,452.5499999997093,0.0002825409,452.5499999997093,1.143471e-05,452.5499999997093,4.129842e-05
452.5649999997093,0.0004738503,452.5649999997093,0.0002763792,452.5649999997093,1.147775e-05,452.5649999997093,4.173915e-05
452.5799999997093,0.0004743407,452.5799999997093,0.000239221,452.5799999997093,1.164951e-05,452.5799999997093,4.171788e-05
452.5949999997093,0.0004711639,452.5949999997093,0.0002090646,452.5949999997093,1.158889e-05,452.5949999997093,4.099028e-05
452.60999999970926,0.0004365929,452.60999999970926,0.0001961466,452.60999999970926,1.149614e-05,452.60999999970926,3.689707e-05
452.62499999970925,0.0004173805,452.62499999970925,0.0001896178,452.62499999970925,1.280504e-05,452.62499999970925,3.49316e-05
452.63999999970923,0.0003857751,452.63999999970923,0.0001892571,452.63999999970923,1.349909e-05,452.63999999970923,3.289245e-05
452.6549999997092,0.0003527491,452.6549999997092,0.0001862712,452.6549999997092,1.409434e-05,452.6549999997092,3.091891e-05
452.6699999997092,0.0003504459,452.6699999997092,0.0001701538,452.6699999997092,1.427212e-05,452.6699999997092,3.034499e-05
452.6849999997092,0.0003486766,452.6849999997092,0.0001680334,452.6849999997092,1.449055e-05,452.6849999997092,2.9984e-05
452.6999999997092,0.00028735,452.6999999997092,0.0001645441,452.6999999997092,1.445844e-05,452.6999999997092,2.628007e-05
452.71499999970916,0.0002557411,452.71499999970916,0.0001633997,452.71499999970916,1.548767e-05,452.71499999970916,2.378726e-05
452.72999999970915,0.0002346368,452.72999999970915,0.0001550342,452.72999999970915,1.585265e-05,452.72999999970915,2.283614e-05
452.74499999970914,0.0001838428,452.74499999970914,0.0001507488,452.74499999970914,1.592888e-05,452.74499999970914,2.031739e-05
452.7599999997091,0.000172229,452.7599999997091,0.0001467444,452.7599999997091,1.590145e-05,452.7599999997091,1.923101e-05
452.7749999997091,0.0001887473,452.7749999997091,0.000140639,452.7749999997091,1.464527e-05,452.7749999997091,1.976135e-05
452.7899999997091,0.0001977054,452.7899999997091,0.0001350993,452.7899999997091,1.469136e-05,452.7899999997091,2.048861e-05
452.8049999997091,0.0002175498,452.8049999997091,0.00013596,452.8049999997091,1.465008e-05,452.8049999997091,2.065296e-05
452.81999999970907,0.000232676,452.81999999970907,0.0001286414,452.81999999970907,1.486011e-05,452.81999999970907,2.197415e-05
452.83499999970905,0.0002399465,452.83499999970905,0.0001023977,452.83499999970905,1.521514e-05,452.83499999970905,2.239703e-05
452.84999999970904,0.0002508085,452.84999999970904,8.585156e-05,452.84999999970904,1.525675e-05,452.84999999970904,2.284662e-05
452.864999999709,0.0005485402,452.864999999709,8.949026e-05,452.864999999709,1.443113e-05,452.864999999709,4.477487e-05
452.879999999709,0.0006286503,452.879999999709,0.0001289116,452.879999999709,1.399303e-05,452.879999999709,4.95633e-05
452.894999999709,0.0009476574,452.894999999709,0.0001728055,452.894999999709,1.283141e-05,452.894999999709,7.183496e-05
452.909999999709,0.001067975,452.909999999709,0.0002038653,452.909999999709,1.151451e-05,452.909999999709,7.689163e-05
452.924999999709,0.001099883,452.924999999709,0.0003522949,452.924999999709,1.081684e-05,452.924999999709,7.927354e-05
452.93999999970896,0.001139707,452.93999999970896,0.000381577,452.93999999970896,1.036732e-05,452.93999999970896,8.149682e-05
452.95499999970895,0.001171516,452.95499999970895,0.0004006351,452.95499999970895,9.949936e-06,452.95499999970895,8.633555e-05
452.96999999970893,0.001175732,452.96999999970893,0.0004310936,452.96999999970893,7.47636e-06,452.96999999970893,8.665964e-05
452.9849999997089,0.001187732,452.9849999997089,0.0004504247,452.9849999997089,7.444261e-06,452.9849999997089,8.782638e-05
452.9999999997089,0.001213367,452.9999999997089,0.0004598365,452.9999999997089,7.42721e-06,452.9999999997089,9.276036e-05
453.0149999997089,0.001265798,453.0149999997089,0.0004643424,453.0149999997089,7.314453e-06,453.0149999997089,0.000101583
453.0299999997089,0.001271548,453.0299999997089,0.0004695881,453.0299999997089,7.949394e-06,453.0299999997089,0.0001023433
453.04499999970886,0.001286537,453.04499999970886,0.0004705047,453.04499999970886,1.997194e-05,453.04499999970886,0.0001067745
453.05999999970885,0.001283597,453.05999999970885,0.000486524,453.05999999970885,2.144533e-05,453.05999999970885,0.0001068024
453.07499999970884,0.00128551,453.07499999970884,0.0004869821,453.07499999970884,2.134789e-05,453.07499999970884,0.0001073418
453.0899999997088,0.001288761,453.0899999997088,0.0004901006,453.0899999997088,2.141575e-05,453.0899999997088,0.0001073129
453.1049999997088,0.001285402,453.1049999997088,0.0004948404,453.1049999997088,2.131024e-05,453.1049999997088,0.0001083108
453.1199999997088,0.001163141,453.1199999997088,0.0004980708,453.1199999997088,2.141312e-05,453.1199999997088,0.0001021088
453.1349999997088,0.001145669,453.1349999997088,0.0005148991,453.1349999997088,2.165841e-05,453.1349999997088,0.0001004621
453.14999999970877,0.0007965473,453.14999999970877,0.0005091232,453.14999999970877,2.169025e-05,453.14999999970877,8.307418e-05
453.16499999970875,0.0007980453,453.16499999970875,0.0006870119,453.16499999970875,2.166231e-05,453.16499999970875,8.950457e-05
453.17999999970874,0.001306956,453.17999999970874,0.0009663061,453.17999999970874,2.167271e-05,453.17999999970874,0.0001084202
453.1949999997087,0.00138113,453.1949999997087,0.001125124,453.1949999997087,2.167856e-05,453.1949999997087,0.0001309405
453.2099999997087,0.001685052,453.2099999997087,0.001431988,453.2099999997087,2.174474e-05,453.2099999997087,0.0001376256
453.2249999997087,0.002001715,453.2249999997087,0.001545696,453.2249999997087,2.170778e-05,453.2249999997087,0.0001374487
453.2399999997087,0.002083348,453.2399999997087,0.001589985,453.2399999997087,2.214529e-05,453.2399999997087,0.0001380274
453.2549999997087,0.002281769,453.2549999997087,0.001865914,453.2549999997087,2.295058e-05,453.2549999997087,0.000131258
453.26999999970866,0.002407069,453.26999999970866,0.00198986,453.26999999970866,2.302596e-05,453.26999999970866,0.0001342215
453.28499999970865,0.002495791,453.28499999970865,0.002421404,453.28499999970865,2.183073e-05,453.28499999970865,0.0001326627
453.29999999970863,0.002516352,453.29999999970863,0.002772328,453.29999999970863,1.422764e-05,453.29999999970863,0.0001318525
453.3149999997086,0.002513588,453.3149999997086,0.002968538,453.3149999997086,1.406132e-05,453.3149999997086,0.0001316852
453.3299999997086,0.002516712,453.3299999997086,0.002986562,453.3299999997086,1.391429e-05,453.3299999997086,0.0001339611
453.3449999997086,0.002722515,453.3449999997086,0.002999576,453.3449999997086,1.503071e-05,453.3449999997086,0.0001360054
453.3599999997086,0.003016733,453.3599999997086,0.003112121,453.3599999997086,1.71937e-05,453.3599999997086,0.0001360912
453.37499999970856,0.003109837,453.37499999970856,0.003194934,453.37499999970856,2.169739e-05,453.37499999970856,0.000139205
453.38999999970855,0.003124277,453.38999999970855,0.003452792,453.38999999970855,2.257619e-05,453.38999999970855,0.0001401256
453.40499999970854,0.003126313,453.40499999970854,0.003730333,453.40499999970854,3.288817e-05,453.40499999970854,0.0001451978
453.4199999997085,0.003129672,453.4199999997085,0.003900102,453.4199999997085,3.766449e-05,453.4199999997085,0.0001333562
453.4349999997085,0.002894856,453.4349999997085,0.004002613,453.4349999997085,4.090462e-05,453.4349999997085,0.0001266835
453.4499999997085,0.002872947,453.4499999997085,0.004097448,453.4499999997085,4.488328e-05,453.4499999997085,0.0001023447
453.4649999997085,0.002665617,453.4649999997085,0.004069235,453.4649999997085,4.66811e-05,453.4649999997085,9.689918e-05
453.47999999970847,0.002536892,453.47999999970847,0.004146953,453.47999999970847,5.42727e-05,453.47999999970847,9.649872e-05
453.49499999970845,0.002401838,453.49499999970845,0.004253223,453.49499999970845,5.614174e-05,453.49499999970845,9.660216e-05
453.50999999970844,0.002078386,453.50999999970844,0.004173211,453.50999999970844,5.973853e-05,453.50999999970844,9.160233e-05
453.5249999997084,0.001937555,453.5249999997084,0.004167174,453.5249999997084,6.056079e-05,453.5249999997084,8.914138e-05
453.5399999997084,0.001882852,453.5399999997084,0.004013592,453.5399999997084,6.376571e-05,453.5399999997084,8.908685e-05
453.5549999997084,0.001871661,453.5549999997084,0.003831225,453.5549999997084,6.369055e-05,453.5549999997084,8.635905e-05
453.5699999997084,0.001860283,453.5699999997084,0.003756056,453.5699999997084,6.471889e-05,453.5699999997084,8.780794e-05
453.5849999997084,0.001828114,453.5849999997084,0.00375857,453.5849999997084,6.568934e-05,453.5849999997084,8.359533e-05
453.59999999970836,0.001473367,453.59999999970836,0.003743202,453.59999999970836,6.526962e-05,453.59999999970836,8.173414e-05
453.61499999970835,0.001030131,453.61499999970835,0.00361256,453.61499999970835,6.463482e-05,453.61499999970835,7.475625e-05
453.62999999970833,0.0006651789,453.62999999970833,0.003510274,453.62999999970833,6.385709e-05,453.62999999970833,7.304432e-05
453.6449999997083,0.0006162676,453.6449999997083,0.003236495,453.6449999997083,6.262262e-05,453.6449999997083,6.859368e-05
453.6599999997083,0.0006377642,453.6599999997083,0.002893257,453.6599999997083,5.710995e-05,453.6599999997083,5.685904e-05
453.6749999997083,0.0006079642,453.6749999997083,0.002454131,453.6749999997083,5.474047e-05,453.6749999997083,5.632286e-05
453.6899999997083,0.0005244892,453.6899999997083,0.00185404,453.6899999997083,5.27669e-05,453.6899999997083,4.807086e-05
453.70499999970826,0.000507876,453.70499999970826,0.001342654,453.70499999970826,5.038945e-05,453.70499999970826,4.439826e-05
453.71999999970825,0.0005067674,453.71999999970825,0.001879608,453.71999999970825,4.436144e-05,453.71999999970825,5.179339e-05
453.73499999970824,0.0007952072,453.73499999970824,0.002052846,453.73499999970824,3.934123e-05,453.73499999970824,7.33167e-05
453.7499999997082,0.0009613752,453.7499999997082,0.002047781,453.7499999997082,3.491466e-05,453.7499999997082,7.420322e-05
453.7649999997082,0.00161397,453.7649999997082,0.002000093,453.7649999997082,2.937985e-05,453.7649999997082,7.854179e-05
453.7799999997082,0.001897881,453.7799999997082,0.001993879,453.7799999997082,2.610042e-05,453.7799999997082,0.0001175876
453.7949999997082,0.002331726,453.7949999997082,0.001981279,453.7949999997082,2.076655e-05,453.7949999997082,0.000155974
453.80999999970817,0.002665607,453.80999999970817,0.001963806,453.80999999970817,2.095159e-05,453.80999999970817,0.0001814418
453.82499999970815,0.00274893,453.82499999970815,0.00194911,453.82499999970815,1.544031e-05,453.82499999970815,0.0001812433
453.83999999970814,0.002873658,453.83999999970814,0.001939196,453.83999999970814,2.20209e-05,453.83999999970814,0.0001817134
453.8549999997081,0.003133735,453.8549999997081,0.001933213,453.8549999997081,2.492886e-05,453.8549999997081,0.000181912
453.8699999997081,0.003453188,453.8699999997081,0.001929589,453.8699999997081,2.612901e-05,453.8699999997081,0.000182101
453.8849999997081,0.003704204,453.8849999997081,0.001927413,453.8849999997081,2.729912e-05,453.8849999997081,0.0001858166
453.8999999997081,0.003737772,453.8999999997081,0.001926147,453.8999999997081,2.741189e-05,453.8999999997081,0.0001867822
453.9149999997081,0.003781742,453.9149999997081,0.001925459,453.9149999997081,2.733676e-05,453.9149999997081,0.0001875671
453.92999999970806,0.003843863,453.92999999970806,0.001925119,453.92999999970806,2.814817e-05,453.92999999970806,0.0001898176
453.94499999970805,0.004033394,453.94499999970805,0.001924909,453.94499999970805,2.821715e-05,453.94499999970805,0.0001909831
453.95999999970803,0.004184966,453.95999999970803,0.00174297,453.95999999970803,2.823711e-05,453.95999999970803,0.000191074
453.974999999708,0.004166379,453.974999999708,0.001410151,453.974999999708,2.820716e-05,453.974999999708,0.0001827223
453.989999999708,0.004188045,453.989999999708,0.000571117,453.989999999708,2.872724e-05,453.989999999708,0.0001826148
454.004999999708,0.004243356,454.004999999708,0.0004063897,454.004999999708,3.106572e-05,454.004999999708,0.0001822435
454.019999999708,0.004178642,454.019999999708,0.0003309019,454.019999999708,3.304201e-05,454.019999999708,0.0001792083
454.03499999970796,0.004075537,454.03499999970796,0.0001899726,454.03499999970796,3.454719e-05,454.03499999970796,0.0001397035
454.04999999970795,0.003903999,454.04999999970795,8.770054e-05,454.04999999970795,4.413701e-05,454.04999999970795,9.541945e-05
454.06499999970794,0.00378861,454.06499999970794,5.459411e-05,454.06499999970794,5.770768e-05,454.06499999970794,8.735533e-05
454.0799999997079,0.003687607,454.0799999997079,5.230544e-05,454.0799999997079,5.820933e-05,454.0799999997079,0.000110229
454.0949999997079,0.003564003,454.0949999997079,3.922863e-05,454.0949999997079,5.788147e-05,454.0949999997079,0.000114735
454.1099999997079,0.003321856,454.1099999997079,3.124116e-05,454.1099999997079,6.641614e-05,454.1099999997079,0.00011752
454.1249999997079,0.003014317,454.1249999997079,2.683856e-05,454.1249999997079,6.729289e-05,454.1249999997079,0.0001262365
454.13999999970787,0.00273346,454.13999999970787,2.401828e-05,454.13999999970787,6.887425e-05,454.13999999970787,0.0001300866
454.15499999970785,0.002710751,454.15499999970785,2.184363e-05,454.15499999970785,7.059872e-05,454.15499999970785,0.0001405791
454.16999999970784,0.00269194,454.16999999970784,2.086063e-05,454.16999999970784,7.08622e-05,454.16999999970784,0.000141797
454.1849999997078,0.002531337,454.1849999997078,2.073533e-05,454.1849999997078,7.222941e-05,454.1849999997078,0.0001415883
454.1999999997078,0.002181666,454.1999999997078,2.111367e-05,454.1999999997078,7.243915e-05,454.1999999997078,0.0001428724
454.2149999997078,0.001887318,454.2149999997078,1.961037e-05,454.2149999997078,7.264227e-05,454.2149999997078,0.0001418024
454.2299999997078,0.001902223,454.2299999997078,1.890075e-05,454.2299999997078,7.280982e-05,454.2299999997078,0.000142085
454.2449999997078,0.00182692,454.2449999997078,1.835706e-05,454.2449999997078,7.262579e-05,454.2449999997078,0.0001472911
454.25999999970776,0.001325122,454.25999999970776,1.817196e-05,454.25999999970776,7.195683e-05,454.25999999970776,0.0001676777
454.27499999970775,0.001107984,454.27499999970775,0.0002413413,454.27499999970775,7.395183e-05,454.27499999970775,0.0001850593
454.28999999970773,0.00109562,454.28999999970773,0.001327047,454.28999999970773,7.310793e-05,454.28999999970773,0.0001905728
454.3049999997077,0.0009413905,454.3049999997077,0.00180678,454.3049999997077,6.722629e-05,454.3049999997077,0.0001908419
454.3199999997077,0.0007804339,454.3199999997077,0.002281663,454.3199999997077,5.972368e-05,454.3199999997077,0.0001913165
454.3349999997077,0.0007956904,454.3349999997077,0.002632831,454.3349999997077,5.997951e-05,454.3349999997077,0.0001824077
454.3499999997077,0.0008014005,454.3499999997077,0.002816109,454.3499999997077,5.684615e-05,454.3499999997077,0.0001880748
454.36499999970766,0.0008177821,454.36499999970766,0.00295447,454.36499999970766,4.623751e-05,454.36499999970766,0.0001918051
454.37999999970765,0.0008349239,454.37999999970765,0.003133939,454.37999999970765,4.555523e-05,454.37999999970765,0.0001932304
454.39499999970764,0.001101974,454.39499999970764,0.003437488,454.39499999970764,4.258147e-05,454.39499999970764,0.0002026233
454.4099999997076,0.001596288,454.4099999997076,0.0035745,454.4099999997076,4.04454e-05,454.4099999997076,0.0002039951
454.4249999997076,0.001972592,454.4249999997076,0.003597068,454.4249999997076,3.971719e-05,454.4249999997076,0.000203417
454.4399999997076,0.002419727,454.4399999997076,0.003597725,454.4399999997076,3.715312e-05,454.4399999997076,0.0002021245
454.4549999997076,0.002756543,454.4549999997076,0.003602603,454.4549999997076,3.69398e-05,454.4549999997076,0.0002053167
454.46999999970757,0.002907568,454.46999999970757,0.003609338,454.46999999970757,3.68256e-05,454.46999999970757,0.000206281
454.48499999970755,0.003115903,454.48499999970755,0.003614304,454.48499999970755,4.134819e-05,454.48499999970755,0.0002050041
454.49999999970754,0.00335494,454.49999999970754,0.003617032,454.49999999970754,4.202068e-05,454.49999999970754,0.0002007115
454.5149999997075,0.003379088,454.5149999997075,0.003618358,454.5149999997075,4.334802e-05,454.5149999997075,0.0001749848
454.5299999997075,0.00338576,454.5299999997075,0.003523167,454.5299999997075,3.64631e-05,454.5299999997075,0.0001678175
454.5449999997075,0.003401023,454.5449999997075,0.003221601,454.5449999997075,3.581251e-05,454.5449999997075,0.0001644324
454.5599999997075,0.003416785,454.5599999997075,0.002998195,454.5599999997075,3.357656e-05,454.5599999997075,0.0001625874
454.5749999997075,0.00364511,454.5749999997075,0.002700765,454.5749999997075,3.235879e-05,454.5749999997075,0.0001614274
454.58999999970746,0.003786781,454.58999999970746,0.002337158,454.58999999970746,2.965901e-05,454.58999999970746,0.0001589156
454.60499999970745,0.003939129,454.60499999970745,0.002072423,454.60499999970745,2.895436e-05,454.60499999970745,0.0001469083
454.61999999970743,0.003974691,454.61999999970743,0.001859505,454.61999999970743,2.865408e-05,454.61999999970743,0.0001367334
454.6349999997074,0.003964782,454.6349999997074,0.001528347,454.6349999997074,2.844438e-05,454.6349999997074,0.0001316724
454.6499999997074,0.003817922,454.6499999997074,0.001274149,454.6499999997074,2.88808e-05,454.6499999997074,0.0001049176
454.6649999997074,0.00360416,454.6649999997074,0.001220793,454.6649999997074,3.124026e-05,454.6649999997074,0.0001022997
454.6799999997074,0.003401021,454.6799999997074,0.001319925,454.6799999997074,3.190725e-05,454.6799999997074,0.000104071
454.69499999970736,0.003131962,454.69499999970736,0.001347434,454.69499999970736,3.506724e-05,454.69499999970736,0.0001066203
454.70999999970735,0.002821679,454.70999999970735,0.001358085,454.70999999970735,3.498761e-05,454.70999999970735,0.0001021987
454.72499999970734,0.002697494,454.72499999970734,0.001366273,454.72499999970734,3.639504e-05,454.72499999970734,0.0001028232
454.7399999997073,0.002448935,454.7399999997073,0.001369393,454.7399999997073,3.506322e-05,454.7399999997073,0.0001055526
454.7549999997073,0.00223965,454.7549999997073,0.001369056,454.7549999997073,3.875319e-05,454.7549999997073,0.0001030656
454.7699999997073,0.002213642,454.7699999997073,0.001367986,454.7699999997073,4.655873e-05,454.7699999997073,0.0001054772
454.7849999997073,0.00222058,454.7849999997073,0.001367355,454.7849999997073,4.884211e-05,454.7849999997073,0.0001193835
454.79999999970727,0.00222062,454.79999999970727,0.00136707,454.79999999970727,5.868006e-05,454.79999999970727,0.0001291816
454.81499999970725,0.00212554,454.81499999970725,0.001366963,454.81499999970725,6.368435e-05,454.81499999970725,0.0001429908
454.82999999970724,0.001675076,454.82999999970724,0.001366953,454.82999999970724,6.626028e-05,454.82999999970724,0.0001524044
454.8449999997072,0.001479342,454.8449999997072,0.001366978,454.8449999997072,6.67808e-05,454.8449999997072,0.0001515271
454.8599999997072,0.0008782702,454.8599999997072,0.001367022,454.8599999997072,6.700507e-05,454.8599999997072,0.0001497108
454.8749999997072,0.0008760522,454.8749999997072,0.001367076,454.8749999997072,6.734751e-05,454.8749999997072,0.0001504546
454.8899999997072,0.0009106781,454.8899999997072,0.001337971,454.8899999997072,6.850696e-05,454.8899999997072,0.0001499335
454.9049999997072,0.0009292696,454.9049999997072,0.0009700239,454.9049999997072,6.870121e-05,454.9049999997072,0.0001463274
454.91999999970716,0.000948908,454.91999999970716,0.0005258783,454.91999999970716,6.818585e-05,454.91999999970716,0.0001454431
454.93499999970714,0.0009660175,454.93499999970714,0.0002701814,454.93499999970714,6.737846e-05,454.93499999970714,0.0001432069
454.94999999970713,0.0009951155,454.94999999970713,0.0001915939,454.94999999970713,6.659322e-05,454.94999999970713,0.00014007
454.9649999997071,0.001195856,454.9649999997071,0.000155882,454.9649999997071,6.697668e-05,454.9649999997071,0.0001402351
454.9799999997071,0.001320888,454.9799999997071,9.99649e-05,454.9799999997071,6.58243e-05,454.9799999997071,0.0001396581
454.9949999997071,0.001496176,454.9949999997071,4.667959e-05,454.9949999997071,6.360689e-05,454.9949999997071,0.0001370342
455.0099999997071,0.001562732,455.0099999997071,2.944259e-05,455.0099999997071,5.797703e-05,455.0099999997071,0.0001391371
455.02499999970706,0.001612424,455.02499999970706,2.940861e-05,455.02499999970706,5.350548e-05,455.02499999970706,0.000133726
455.03999999970705,0.001614905,455.03999999970705,2.625594e-05,455.03999999970705,5.07252e-05,455.03999999970705,0.000132354
455.05499999970704,0.001616108,455.05499999970704,1.697436e-05,455.05499999970704,4.147914e-05,455.05499999970704,0.0001508257
455.069999999707,0.001637015,455.069999999707,1.146055e-05,455.069999999707,3.388019e-05,455.069999999707,0.0001944459
455.084999999707,0.001718883,455.084999999707,1.124465e-05,455.084999999707,2.910769e-05,455.084999999707,0.0002965887
455.099999999707,0.001744171,455.099999999707,1.130088e-05,455.099999999707,2.785438e-05,455.099999999707,0.0003205344
455.114999999707,0.002102583,455.114999999707,1.139275e-05,455.114999999707,2.733316e-05,455.114999999707,0.0003631004
455.12999999970697,0.00243176,455.12999999970697,1.143471e-05,455.12999999970697,2.721902e-05,455.12999999970697,0.0003677553
455.14499999970695,0.002816746,455.14499999970695,1.186873e-05,455.14499999970695,2.463384e-05,455.14499999970695,0.0003711105
455.15999999970694,0.003124092,455.15999999970694,1.174105e-05,455.15999999970694,2.48031e-05,455.15999999970694,0.0003833999
455.1749999997069,0.00331225,455.1749999997069,0.0007306482,455.1749999997069,2.898597e-05,455.1749999997069,0.0004750901
455.1899999997069,0.003322006,455.1899999997069,0.001381764,455.1899999997069,2.970505e-05,455.1899999997069,0.0004782617
455.2049999997069,0.003312817,455.2049999997069,0.001762564,455.2049999997069,2.985688e-05,455.2049999997069,0.000485454
455.2199999997069,0.003378756,455.2199999997069,0.002218995,455.2199999997069,2.840275e-05,455.2199999997069,0.0004898853
455.2349999997069,0.00358145,455.2349999997069,0.002310082,455.2349999997069,3.597891e-05,455.2349999997069,0.000489989
455.24999999970686,0.003689791,455.24999999970686,0.002388139,455.24999999970686,3.712012e-05,455.24999999970686,0.0004896055
455.26499999970684,0.003664625,455.26499999970684,0.002445961,455.26499999970684,3.873428e-05,455.26499999970684,0.0004891204
455.27999999970683,0.003692533,455.27999999970683,0.002458128,455.27999999970683,3.87241e-05,455.27999999970683,0.0004877322
455.2949999997068,0.003842027,455.2949999997068,0.002458445,455.2949999997068,3.866986e-05,455.2949999997068,0.0004834766
455.3099999997068,0.004051822,455.3099999997068,0.002460455,455.3099999997068,3.812839e-05,455.3099999997068,0.00047332
455.3249999997068,0.004190006,455.3249999997068,0.002463524,455.3249999997068,3.794618e-05,455.3249999997068,0.0004285261
455.3399999997068,0.004210186,455.3399999997068,0.002465836,455.3399999997068,3.795843e-05,455.3399999997068,0.0003902161
455.35499999970676,0.004353175,455.35499999970676,0.002467134,455.35499999970676,3.79187e-05,455.35499999970676,0.0003571612
455.36999999970675,0.004353186,455.36999999970675,0.002467781,455.36999999970675,3.778957e-05,455.36999999970675,0.0003308238
455.38499999970674,0.004356198,455.38499999970674,0.002468092,455.38499999970674,3.707303e-05,455.38499999970674,0.000377162
455.3999999997067,0.004287639,455.3999999997067,0.00246826,455.3999999997067,3.673867e-05,455.3999999997067,0.0003879908
455.4149999997067,0.004158515,455.4149999997067,0.002468347,455.4149999997067,3.352912e-05,455.4149999997067,0.0003476949
455.4299999997067,0.004044959,455.4299999997067,0.002211429,455.4299999997067,3.182592e-05,455.4299999997067,0.0002758855
455.4449999997067,0.004010973,455.4449999997067,0.001950971,455.4449999997067,3.077094e-05,455.4449999997067,0.0002733574
455.45999999970667,0.004008118,455.45999999970667,0.001530039,455.45999999970667,3.036587e-05,455.45999999970667,0.0002662147
455.47499999970665,0.003853417,455.47499999970665,0.0008429233,455.47499999970665,2.360476e-05,455.47499999970665,0.0002717782
455.48999999970664,0.003621128,455.48999999970664,0.0007779186,455.48999999970664,1.790409e-05,455.48999999970664,0.0002783306
455.5049999997066,0.003456559,455.5049999997066,0.0005141826,455.5049999997066,1.313521e-05,455.5049999997066,0.0002786782
455.5199999997066,0.003457982,455.5199999997066,0.0002491988,455.5199999997066,9.827426e-06,455.5199999997066,0.0002797395
455.5349999997066,0.003407183,455.5349999997066,0.0001424225,455.5349999997066,1.167246e-05,455.5349999997066,0.0002826878
455.5499999997066,0.003222102,455.5499999997066,0.0001390562,455.5499999997066,1.125967e-05,455.5499999997066,0.0002878709
455.5649999997066,0.002921411,455.5649999997066,0.0001258118,455.5649999997066,1.12296e-05,455.5649999997066,0.0002879103
455.57999999970656,0.00269946,455.57999999970656,9.905794e-05,455.57999999970656,1.25562e-05,455.57999999970656,0.0002891901
455.59499999970654,0.002538729,455.59499999970654,7.185261e-05,455.59499999970654,1.29983e-05,455.59499999970654,0.0002901772
455.60999999970653,0.002183456,455.60999999970653,5.100435e-05,455.60999999970653,1.303941e-05,455.60999999970653,0.0002897411
455.6249999997065,0.001794109,455.6249999997065,3.7349e-05,455.6249999997065,1.300263e-05,455.6249999997065,0.0002893447
455.6399999997065,0.001472954,455.6399999997065,2.864031e-05,455.6399999997065,1.292112e-05,455.6399999997065,0.0002111176
455.6549999997065,0.0009864658,455.6549999997065,2.147552e-05,455.6549999997065,1.297552e-05,455.6549999997065,0.000174576
455.6699999997065,0.0008829306,455.6699999997065,1.585887e-05,455.6699999997065,1.297226e-05,455.6699999997065,0.0001544463
455.68499999970646,0.0008859744,455.68499999970646,1.174345e-05,455.68499999970646,1.300805e-05,455.68499999970646,0.0001375857
455.69999999970645,0.0008893489,455.69999999970645,1.004855e-05,455.69999999970645,1.300263e-05,455.69999999970645,0.0001353792
455.71499999970644,0.0008833907,455.71499999970644,8.800488e-06,455.71499999970644,1.307394e-05,455.71499999970644,0.0001341632
455.7299999997064,0.0008717985,455.7299999997064,8.075974e-06,455.7299999997064,1.299613e-05,455.7299999997064,0.0001105165
455.7449999997064,0.0008354507,455.7449999997064,7.938755e-06,455.7449999997064,1.282263e-05,455.7449999997064,0.0001010459
455.7599999997064,0.0007939786,455.7599999997064,7.97063e-06,455.7599999997064,1.309009e-05,455.7599999997064,9.842523e-05
455.7749999997064,0.0007833719,455.7749999997064,7.95825e-06,455.7749999997064,1.183902e-05,455.7749999997064,0.0001088581
455.78999999970637,0.000822293,455.78999999970637,7.256447e-06,455.78999999970637,1.042829e-05,455.78999999970637,0.0001013277
455.80499999970635,0.0008701071,455.80499999970635,6.072803e-06,455.80499999970635,1.064355e-05,455.80499999970635,0.0001164003
455.81999999970634,0.0009171514,455.81999999970634,5.955692e-06,455.81999999970634,1.186636e-05,455.81999999970634,0.0001308364
455.8349999997063,0.001026811,455.8349999997063,5.889093e-06,455.8349999997063,1.026903e-05,455.8349999997063,0.0001932032
455.8499999997063,0.001078698,455.8499999997063,5.358047e-06,455.8499999997063,1.02333e-05,455.8499999997063,0.0002141187
455.8649999997063,0.001459578,455.8649999997063,5.446701e-06,455.8649999997063,1.056651e-05,455.8649999997063,0.000224619
455.8799999997063,0.001737427,455.8799999997063,5.622323e-06,455.8799999997063,1.031829e-05,455.8799999997063,0.0002250771
455.8949999997063,0.002250364,455.8949999997063,5.619817e-06,455.8949999997063,1.02841e-05,455.8949999997063,0.0002252818
455.90999999970626,0.002621095,455.90999999970626,5.00461e-06,455.90999999970626,1.031556e-05,455.90999999970626,0.0002257376
455.92499999970624,0.002796938,455.92499999970624,4.95937e-06,455.92499999970624,1.024843e-05,455.92499999970624,0.000225532
455.93999999970623,0.002827431,455.93999999970623,4.910845e-06,455.93999999970623,1.018501e-05,455.93999999970623,0.0002309935
455.9549999997062,0.002978466,455.9549999997062,4.928026e-06,455.9549999997062,1.010029e-05,455.9549999997062,0.0002312861
455.9699999997062,0.003286599,455.9699999997062,4.815255e-06,455.9699999997062,1.012814e-05,455.9699999997062,0.0002358739
455.9849999997062,0.003370879,455.9849999997062,4.756387e-06,455.9849999997062,1.005836e-05,455.9849999997062,0.0002378209
455.9999999997062,0.003381125,455.9999999997062,4.48192e-06,455.9999999997062,9.924419e-06,455.9999999997062,0.000242926
456.01499999970616,0.003402108,456.01499999970616,4.4377e-06,456.01499999970616,9.517214e-06,456.01499999970616,0.0002540433
456.02999999970615,0.003455273,456.02999999970615,4.556728e-06,456.02999999970615,9.512773e-06,456.02999999970615,0.0002546322
456.04499999970614,0.003498099,456.04499999970614,4.569077e-06,456.04499999970614,9.433964e-06,456.04499999970614,0.0002542342
456.0599999997061,0.003739326,456.0599999997061,3.961384e-06,456.0599999997061,9.265217e-06,456.0599999997061,0.0002406241
456.0749999997061,0.003921124,456.0749999997061,6.026232e-06,456.0749999997061,7.811755e-06,456.0749999997061,0.0002282978
456.0899999997061,0.004009925,456.0899999997061,6.11211e-06,456.0899999997061,6.614623e-06,456.0899999997061,0.0001858406
456.1049999997061,0.004011136,456.1049999997061,6.116717e-06,456.1049999997061,6.569749e-06,456.1049999997061,0.0001578658
456.11999999970607,0.004004385,456.11999999970607,6.178585e-06,456.11999999970607,7.935205e-06,456.11999999970607,0.000156258
456.13499999970605,0.004120939,456.13499999970605,9.804465e-06,456.13499999970605,1.381676e-05,456.13499999970605,0.0001592345
456.14999999970604,0.004170014,456.14999999970604,1.041612e-05,456.14999999970604,1.407734e-05,456.14999999970604,0.0001605704
456.164999999706,0.003967989,456.164999999706,1.224494e-05,456.164999999706,1.725095e-05,456.164999999706,0.0001602479
456.179999999706,0.004022258,456.179999999706,1.247516e-05,456.179999999706,2.41528e-05,456.179999999706,0.0001708407
456.194999999706,0.004143524,456.194999999706,1.250111e-05,456.194999999706,2.645903e-05,456.194999999706,0.0001667255
456.209999999706,0.004061767,456.209999999706,1.253936e-05,456.209999999706,3.342266e-05,456.209999999706,0.0001640972
456.224999999706,0.00380622,456.224999999706,1.257078e-05,456.224999999706,3.859803e-05,456.224999999706,0.0001605279
456.23999999970596,0.003784154,456.23999999970596,1.748857e-05,456.23999999970596,4.33321e-05,456.23999999970596,0.000158435
456.25499999970594,0.003790427,456.25499999970594,1.827862e-05,456.25499999970594,4.620917e-05,456.25499999970594,0.0001546077
456.26999999970593,0.003864322,456.26999999970593,1.960318e-05,456.26999999970593,4.702026e-05,456.26999999970593,0.0001284267
456.2849999997059,0.003866766,456.2849999997059,2.017545e-05,456.2849999997059,4.780463e-05,456.2849999997059,0.0001246228
456.2999999997059,0.003867972,456.2999999997059,2.020685e-05,456.2999999997059,4.802043e-05,456.2999999997059,0.0001255951
456.3149999997059,0.003866208,456.3149999997059,2.021869e-05,456.3149999997059,4.825542e-05,456.3149999997059,0.0001267496
456.3299999997059,0.003748463,456.3299999997059,1.96118e-05,456.3299999997059,4.828314e-05,456.3299999997059,0.0001264142
456.34499999970586,0.003723562,456.34499999970586,1.963262e-05,456.34499999970586,4.846311e-05,456.34499999970586,0.000121861
456.35999999970585,0.003630502,456.35999999970585,1.971639e-05,456.35999999970585,4.842007e-05,456.35999999970585,0.0001194905
456.37499999970584,0.003376598,456.37499999970584,1.985948e-05,456.37499999970584,4.759762e-05,456.37499999970584,0.0001177211
456.3899999997058,0.003172377,456.3899999997058,1.891714e-05,456.3899999997058,4.699509e-05,456.3899999997058,0.0001128384
456.4049999997058,0.003023706,456.4049999997058,0.001143638,456.4049999997058,4.691739e-05,456.4049999997058,0.0001181238
456.4199999997058,0.003016927,456.4199999997058,0.00168804,456.4199999997058,4.511493e-05,456.4199999997058,0.0001131657
456.4349999997058,0.00291485,456.4349999997058,0.002158448,456.4349999997058,4.280156e-05,456.4349999997058,0.0001018128
456.44999999970577,0.002798384,456.44999999970577,0.002563091,456.44999999970577,4.143871e-05,456.44999999970577,0.0001074513
456.46499999970575,0.002760984,456.46499999970575,0.002866588,456.46499999970575,3.162388e-05,456.46499999970575,0.0001050251
456.47999999970574,0.00290776,456.47999999970574,0.002918988,456.47999999970574,2.945599e-05,456.47999999970574,0.0001117034
456.4949999997057,0.002950216,456.4949999997057,0.002930693,456.4949999997057,2.052296e-05,456.4949999997057,0.0001180459
456.5099999997057,0.003034537,456.5099999997057,0.002980713,456.5099999997057,1.644494e-05,456.5099999997057,0.0001443716
456.5249999997057,0.002953694,456.5249999997057,0.003221168,456.5249999997057,1.402018e-05,456.5249999997057,0.0003088836
456.5399999997057,0.002948659,456.5399999997057,0.003386315,456.5399999997057,1.340589e-05,456.5399999997057,0.0003755193
456.5549999997057,0.002878649,456.5549999997057,0.003425647,456.5549999997057,2.111367e-05,456.5549999997057,0.0004251751
456.56999999970566,0.002761401,456.56999999970566,0.003427129,456.56999999970566,2.320087e-05,456.56999999970566,0.0004650005
456.58499999970564,0.003064394,456.58499999970564,0.003431096,456.58499999970564,2.776218e-05,456.58499999970564,0.0004711421
456.59999999970563,0.00332554,456.59999999970563,0.003439163,456.59999999970563,2.847358e-05,456.59999999970563,0.0005002048
456.6149999997056,0.003558681,456.6149999997056,0.003446601,456.6149999997056,2.861226e-05,456.6149999997056,0.0006703782
456.6299999997056,0.003670184,456.6299999997056,0.003451481,456.6299999997056,2.859207e-05,456.6299999997056,0.0007000784
456.6449999997056,0.00376698,456.6449999997056,0.003431255,456.6449999997056,2.846517e-05,456.6449999997056,0.0007059114
456.6599999997056,0.003877541,456.6599999997056,0.003136871,456.6599999997056,2.855263e-05,456.6599999997056,0.0007160794
456.67499999970556,0.0040395,456.67499999970556,0.002839771,456.67499999970556,2.838936e-05,456.67499999970556,0.0007181579
456.68999999970555,0.004204085,456.68999999970555,0.002553202,456.68999999970555,2.876399e-05,456.68999999970555,0.0007179982
456.70499999970554,0.004307798,456.70499999970554,0.002184049,456.70499999970554,2.865703e-05,456.70499999970554,0.0007166371
456.7199999997055,0.00452103,456.7199999997055,0.001781641,456.7199999997055,2.855115e-05,456.7199999997055,0.0007177016
456.7349999997055,0.004504337,456.7349999997055,0.00175277,456.7349999997055,2.854276e-05,456.7349999997055,0.0007161388
456.7499999997055,0.004621726,456.7499999997055,0.001671565,456.7499999997055,2.857285e-05,456.7499999997055,0.0007120727
456.7649999997055,0.004690525,456.7649999997055,0.001550645,456.7649999997055,2.857877e-05,456.7649999997055,0.0007089814
456.77999999970547,0.00487516,456.77999999970547,0.001041684,456.77999999970547,2.826055e-05,456.77999999970547,0.0006357859
456.79499999970545,0.004994239,456.79499999970545,0.00116572,456.79499999970545,2.79498e-05,456.79499999970545,0.0006293435
456.80999999970544,0.004948403,456.80999999970544,0.001259584,456.80999999970544,2.093814e-05,456.80999999970544,0.0005961446
456.8249999997054,0.005001585,456.8249999997054,0.001423174,456.8249999997054,1.709015e-05,456.8249999997054,0.0005820672
456.8399999997054,0.004822716,456.8399999997054,0.001477203,456.8399999997054,1.082465e-05,456.8399999997054,0.0005765763
456.8549999997054,0.004611826,456.8549999997054,0.001559568,456.8549999997054,9.342435e-06,456.8549999997054,0.0005479752
456.8699999997054,0.004432357,456.8699999997054,0.001625871,456.8699999997054,9.656803e-06,456.8699999997054,0.0003318414
456.88499999970537,0.004446747,456.88499999970537,0.001702043,456.88499999970537,9.592404e-06,456.88499999970537,0.0003836668
456.89999999970536,0.004369239,456.89999999970536,0.001731824,456.89999999970536,9.536437e-06,456.89999999970536,0.0003724402
456.91499999970534,0.004212343,456.91499999970534,0.001737838,456.91499999970534,1.099637e-05,456.91499999970534,0.0003739593
456.92999999970533,0.003995496,456.92999999970533,0.001738102,456.92999999970533,1.246047e-05,456.92999999970533,0.0003854203
456.9449999997053,0.003758976,456.9449999997053,0.001738098,456.9449999997053,1.190429e-05,456.9449999997053,0.0003875513
456.9599999997053,0.003747766,456.9599999997053,0.001738203,456.9599999997053,1.200093e-05,456.9599999997053,0.0003869393
456.9749999997053,0.00368262,456.9749999997053,0.001738224,456.9749999997053,1.211076e-05,456.9749999997053,0.0003873095
456.9899999997053,0.003735695,456.9899999997053,0.001738237,456.9899999997053,1.208748e-05,456.9899999997053,0.0003881841
457.00499999970526,0.003554904,457.00499999970526,0.001738274,457.00499999970526,1.204662e-05,457.00499999970526,0.0003885031
457.01999999970525,0.00342321,457.01999999970525,0.001738292,457.01999999970525,1.19786e-05,457.01999999970525,0.0003767263
457.03499999970524,0.003200567,457.03499999970524,0.001726855,457.03499999970524,1.232978e-05,457.03499999970524,0.0003687748
457.0499999997052,0.003079291,457.0499999997052,0.001357315,457.0499999997052,1.217688e-05,457.0499999997052,0.000349988
457.0649999997052,0.002764524,457.0649999997052,0.001111982,457.0649999997052,1.207348e-05,457.0649999997052,0.0003432744
457.0799999997052,0.002457317,457.0799999997052,0.000990725,457.0799999997052,1.204194e-05,457.0799999997052,0.0003442735
457.0949999997052,0.002430464,457.0949999997052,0.0006760852,457.0949999997052,1.209796e-05,457.0949999997052,0.0003426692
457.10999999970517,0.002421043,457.10999999970517,0.0005842874,457.10999999970517,1.181043e-05,457.10999999970517,0.0003287298
457.12499999970515,0.0023602,457.12499999970515,0.0007339771,457.12499999970515,1.166401e-05,457.12499999970515,0.0002634679
457.13999999970514,0.002242298,457.13999999970514,0.001177349,457.13999999970514,1.163136e-05,457.13999999970514,0.0001865836
457.1549999997051,0.002201179,457.1549999997051,0.00137854,457.1549999997051,1.094243e-05,457.1549999997051,0.0001810518
457.1699999997051,0.002327132,457.1699999997051,0.001771664,457.1699999997051,9.844612e-06,457.1699999997051,0.0001306365
457.1849999997051,0.002460108,457.1849999997051,0.002128833,457.1849999997051,7.560672e-06,457.1849999997051,0.0001120015
457.1999999997051,0.002497547,457.1999999997051,0.002508816,457.1999999997051,7.453716e-06,457.1999999997051,0.0001156869
457.21499999970507,0.002209289,457.21499999970507,0.002862959,457.21499999970507,7.379642e-06,457.21499999970507,0.0001143733
457.22999999970506,0.00202633,457.22999999970506,0.003141455,457.22999999970506,7.318304e-06,457.22999999970506,0.0001141743
457.24499999970504,0.001615825,457.24499999970504,0.003226736,457.24499999970504,7.547619e-06,457.24499999970504,0.0001093896
457.25999999970503,0.001503901,457.25999999970503,0.003315753,457.25999999970503,7.60896e-06,457.25999999970503,0.0001078508
457.274999999705,0.001563465,457.274999999705,0.003476124,457.274999999705,7.515824e-06,457.274999999705,0.000128698
457.289999999705,0.001650309,457.289999999705,0.003583561,457.289999999705,7.38918e-06,457.289999999705,0.0001316934
457.304999999705,0.001672335,457.304999999705,0.003592912,457.304999999705,7.822567e-06,457.304999999705,0.0001310804
457.319999999705,0.001690172,457.319999999705,0.003759742,457.319999999705,7.897837e-06,457.319999999705,0.0001326786
457.33499999970496,0.001689082,457.33499999970496,0.003959988,457.33499999970496,8.102095e-06,457.33499999970496,0.0001404369
457.34999999970495,0.001728102,457.34999999970495,0.003968327,457.34999999970495,8.286042e-06,457.34999999970495,0.0001388611
457.36499999970493,0.001962975,457.36499999970493,0.004029581,457.36499999970493,8.76681e-06,457.36499999970493,0.000154596
457.3799999997049,0.002322877,457.3799999997049,0.003994165,457.3799999997049,8.774839e-06,457.3799999997049,0.0001519117
457.3949999997049,0.002574212,457.3949999997049,0.003917982,457.3949999997049,8.902342e-06,457.3949999997049,0.0001506948
457.4099999997049,0.002947117,457.4099999997049,0.003925066,457.4099999997049,8.694202e-06,457.4099999997049,0.0001503168
457.4249999997049,0.003156658,457.4249999997049,0.003714336,457.4249999997049,8.229749e-06,457.4249999997049,0.0001585819
457.43999999970487,0.003260295,457.43999999970487,0.003562128,457.43999999970487,8.311504e-06,457.43999999970487,0.0001707804
457.45499999970485,0.003430056,457.45499999970485,0.003427594,457.45499999970485,8.509145e-06,457.45499999970485,0.0001686973
457.46999999970484,0.003651951,457.46999999970484,0.003186078,457.46999999970484,8.41258e-06,457.46999999970484,0.0001728983
457.4849999997048,0.003723224,457.4849999997048,0.002889303,457.4849999997048,8.589881e-06,457.4849999997048,0.0001750283
457.4999999997048,0.00372518,457.4999999997048,0.002860476,457.4999999997048,8.499207e-06,457.4999999997048,0.0001775935
457.5149999997048,0.003884924,457.5149999997048,0.002765657,457.5149999997048,8.733001e-06,457.5149999997048,0.000177787
457.5299999997048,0.004085177,457.5299999997048,0.002560978,457.5299999997048,9.071627e-06,457.5299999997048,0.0001625206
457.54499999970477,0.004206274,457.54499999970477,0.002449569,457.54499999970477,8.557019e-06,457.54499999970477,0.0001624899
457.55999999970476,0.004221699,457.55999999970476,0.002431162,457.55999999970476,8.485937e-06,457.55999999970476,0.0001603718
457.57499999970474,0.004293589,457.57499999970474,0.002066852,457.57499999970474,8.29284e-06,457.57499999970474,0.0001591391
457.58999999970473,0.004356144,457.58999999970473,0.001798639,457.58999999970473,8.114256e-06,457.58999999970473,0.00015272
457.6049999997047,0.004350489,457.6049999997047,0.001781115,457.6049999997047,7.569982e-06,457.6049999997047,0.0001567245
457.6199999997047,0.004369252,457.6199999997047,0.00158719,457.6199999997047,7.599698e-06,457.6199999997047,0.0001431439
457.6349999997047,0.004193368,457.6349999997047,0.001912917,457.6349999997047,7.406318e-06,457.6349999997047,0.0001415531
457.6499999997047,0.004087748,457.6499999997047,0.002140616,457.6499999997047,7.417721e-06,457.6499999997047,0.0001411069
457.66499999970466,0.003972674,457.66499999970466,0.002414879,457.66499999970466,7.373913e-06,457.66499999970466,0.000137928
457.67999999970465,0.003731863,457.67999999970465,0.002664387,457.67999999970465,7.40061e-06,457.67999999970465,0.0001162386
457.69499999970463,0.003585993,457.69499999970463,0.002739293,457.69499999970463,7.1921e-06,457.69499999970463,0.0001032222
457.7099999997046,0.003405293,457.7099999997046,0.002689742,457.7099999997046,7.3567e-06,457.7099999997046,0.0001037729
457.7249999997046,0.003172972,457.7249999997046,0.002900956,457.7249999997046,7.172487e-06,457.7249999997046,9.520278e-05
457.7399999997046,0.003064294,457.7399999997046,0.003117432,457.7399999997046,6.96726e-06,457.7399999997046,8.895012e-05
457.7549999997046,0.003019719,457.7549999997046,0.003190762,457.7549999997046,6.838698e-06,457.7549999997046,8.466443e-05
457.76999999970457,0.002808586,457.76999999970457,0.003200018,457.76999999970457,6.224016e-06,457.76999999970457,8.358521e-05
457.78499999970455,0.002466478,457.78499999970455,0.003200667,457.78499999970455,6.040241e-06,457.78499999970455,8.063667e-05
457.79999999970454,0.002362629,457.79999999970454,0.003204081,457.79999999970454,7.207752e-06,457.79999999970454,7.971319e-05
457.8149999997045,0.002317447,457.8149999997045,0.003207481,457.8149999997045,8.190286e-06,457.8149999997045,7.451372e-05
457.8299999997045,0.002063738,457.8299999997045,0.003209449,457.8299999997045,8.957552e-06,457.8299999997045,6.57802e-05
457.8449999997045,0.001930849,457.8449999997045,0.003210325,457.8449999997045,9.333384e-06,457.8449999997045,6.313541e-05
457.8599999997045,0.001861533,457.8599999997045,0.003210647,457.8599999997045,9.073179e-06,457.8599999997045,4.349271e-05
457.87499999970447,0.001360995,457.87499999970447,0.003131324,457.87499999970447,9.085591e-06,457.87499999970447,4.328949e-05
457.88999999970446,0.001264594,457.88999999970446,0.002841857,457.88999999970446,9.33791e-06,457.88999999970446,4.779019e-05
457.90499999970444,0.0009955888,457.90499999970444,0.002603841,457.90499999970444,9.484596e-06,457.90499999970444,4.861083e-05
457.91999999970443,0.0006834963,457.91999999970443,0.002234377,457.91999999970443,9.611476e-06,457.91999999970443,4.930084e-05
457.9349999997044,0.0006601079,457.9349999997044,0.001810118,457.9349999997044,9.599744e-06,457.9349999997044,5.036065e-05
457.9499999997044,0.0006684641,457.9499999997044,0.001632749,457.9499999997044,9.592404e-06,457.9499999997044,5.097314e-05
457.9649999997044,0.000536423,457.9649999997044,0.001558556,457.9649999997044,9.68157e-06,457.9649999997044,4.869972e-05
457.9799999997044,0.0003824199,457.9799999997044,0.001153054,457.9799999997044,1.006116e-05,457.9799999997044,4.744644e-05
457.99499999970436,0.0003764684,457.99499999970436,0.0006210647,457.99499999970436,1.008074e-05,457.99499999970436,4.977119e-05
458.00999999970435,0.000434313,458.00999999970435,0.0002800592,458.00999999970435,1.009889e-05,458.00999999970435,5.101402e-05
458.02499999970433,0.0004606254,458.02499999970433,0.0002123577,458.02499999970433,1.00975e-05,458.02499999970433,5.119264e-05
458.0399999997043,0.0004555975,458.0399999997043,0.0002076081,458.0399999997043,1.028547e-05,458.0399999997043,5.411544e-05
458.0549999997043,0.000425947,458.0549999997043,0.0001702739,458.0549999997043,9.152018e-06,458.0549999997043,5.663712e-05
458.0699999997043,0.000430254,458.0699999997043,0.0001247296,458.0699999997043,9.709175e-06,458.0699999997043,5.722822e-05
458.0849999997043,0.0004278561,458.0849999997043,8.644578e-05,458.0849999997043,9.798716e-06,458.0849999997043,5.726759e-05
458.09999999970427,0.0004313443,458.09999999970427,6.107453e-05,458.09999999970427,9.589467e-06,458.09999999970427,6.074473e-05
458.11499999970425,0.000439084,458.11499999970425,4.387035e-05,458.11499999970425,1.060908e-05,458.11499999970425,6.16738e-05
458.12999999970424,0.0004319445,458.12999999970424,0.000735452,458.12999999970424,1.074235e-05,458.12999999970424,6.255847e-05
458.1449999997042,0.0004258406,458.1449999997042,0.00136068,458.1449999997042,1.061439e-05,458.1449999997042,5.764907e-05
458.1599999997042,0.0004223553,458.1599999997042,0.00185702,458.1599999997042,1.055183e-05,458.1599999997042,5.799938e-05
458.1749999997042,0.000416836,458.1749999997042,0.002275868,458.1749999997042,1.069241e-05,458.1749999997042,6.059381e-05
458.1899999997042,0.0003960981,458.1899999997042,0.002420068,458.1899999997042,1.107551e-05,458.1899999997042,5.953847e-05
458.20499999970417,0.0003862554,458.20499999970417,0.002483797,458.20499999970417,1.088952e-05,458.20499999970417,6.291145e-05
458.21999999970416,0.0003900655,458.21999999970416,0.002557382,458.21999999970416,1.063958e-05,458.21999999970416,6.440404e-05
458.23499999970414,0.0003927296,458.23499999970414,0.002732938,458.23499999970414,1.062898e-05,458.23499999970414,6.864296e-05
458.24999999970413,0.0003938193,458.24999999970413,0.002810796,458.24999999970413,1.054649e-05,458.24999999970413,6.813645e-05
458.2649999997041,0.0003284542,458.2649999997041,0.002837516,458.2649999997041,1.225414e-05,458.2649999997041,6.807461e-05
458.2799999997041,0.0003431938,458.2799999997041,0.002924613,458.2799999997041,1.815024e-05,458.2799999997041,6.869875e-05
458.2949999997041,0.0003881833,458.2949999997041,0.002977464,458.2949999997041,2.524667e-05,458.2949999997041,6.583286e-05
458.3099999997041,0.0005838518,458.3099999997041,0.002988943,458.3099999997041,2.836652e-05,458.3099999997041,9.231419e-05
458.32499999970406,0.001388644,458.32499999970406,0.002989423,458.32499999970406,2.845379e-05,458.32499999970406,9.656249e-05
458.33999999970405,0.001642843,458.33999999970405,0.002990343,458.33999999970405,2.848793e-05,458.33999999970405,0.0001082677
458.35499999970403,0.002132728,458.35499999970403,0.002991897,458.35499999970403,2.849534e-05,458.35499999970403,0.0001157876
458.369999999704,0.002378437,458.369999999704,0.002993047,458.369999999704,2.825806e-05,458.369999999704,0.0001180904
458.384999999704,0.002411681,458.384999999704,0.002783496,458.384999999704,2.819617e-05,458.384999999704,0.0001190045
458.399999999704,0.002627001,458.399999999704,0.002566732,458.399999999704,2.829293e-05,458.399999999704,0.0001275101
458.414999999704,0.002923527,458.414999999704,0.002404973,458.414999999704,2.870811e-05,458.414999999704,0.0001436142
458.42999999970397,0.003022814,458.42999999970397,0.002099944,458.42999999970397,2.970695e-05,458.42999999970397,0.0001747951
458.44499999970395,0.003120071,458.44499999970395,0.002201593,458.44499999970395,2.995486e-05,458.44499999970395,0.0001786024
458.45999999970394,0.003123104,458.45999999970394,0.002154668,458.45999999970394,3.035566e-05,458.45999999970394,0.0001892877
458.4749999997039,0.003129339,458.4749999997039,0.001960396,458.4749999997039,3.042612e-05,458.4749999997039,0.0001968444
458.4899999997039,0.003151292,458.4899999997039,0.001862126,458.4899999997039,3.043862e-05,458.4899999997039,0.0001963173
458.5049999997039,0.003158003,458.5049999997039,0.001723399,458.5049999997039,3.038535e-05,458.5049999997039,0.000198656
458.5199999997039,0.003153643,458.5199999997039,0.001680966,458.5199999997039,2.954194e-05,458.5199999997039,0.0002021085
458.53499999970387,0.003155463,458.53499999970387,0.001561368,458.53499999970387,2.752625e-05,458.53499999970387,0.0002017456
458.54999999970386,0.003161074,458.54999999970386,0.001496471,458.54999999970386,2.546113e-05,458.54999999970386,0.000200334
458.56499999970384,0.003041632,458.56499999970384,0.00148317,458.56499999970384,2.473314e-05,458.56499999970384,0.0001912762
458.57999999970383,0.002871157,458.57999999970383,0.001482839,458.57999999970383,2.554399e-05,458.57999999970383,0.0001924049
458.5949999997038,0.002688762,458.5949999997038,0.001481685,458.5949999997038,2.571328e-05,458.5949999997038,0.0001940752
458.6099999997038,0.002387712,458.6099999997038,0.001479833,458.6099999997038,2.590159e-05,458.6099999997038,0.0002200235
458.6249999997038,0.002372104,458.6249999997038,0.001478447,458.6249999997038,5.628559e-05,458.6249999997038,0.0002328001
458.6399999997038,0.002437863,458.6399999997038,0.001477715,458.6399999997038,5.80916e-05,458.6399999997038,0.0002788517
458.65499999970376,0.002557107,458.65499999970376,0.00139115,458.65499999970376,6.80682e-05,458.65499999970376,0.0002887986
458.66999999970375,0.002323484,458.66999999970375,0.001087812,458.66999999970375,6.952809e-05,458.66999999970375,0.0002957676
458.68499999970373,0.002363078,458.68499999970373,0.0007487259,458.68499999970373,7.509373e-05,458.68499999970373,0.000286752
458.6999999997037,0.00252823,458.6999999997037,0.0003502559,458.6999999997037,9.788144e-05,458.6999999997037,0.0002859803
458.7149999997037,0.002578758,458.7149999997037,0.0003245813,458.7149999997037,9.863768e-05,458.7149999997037,0.0002796255
458.7299999997037,0.002558676,458.7299999997037,0.0002129566,458.7299999997037,0.0001001097,458.7299999997037,0.0002777132
458.7449999997037,0.002533537,458.7449999997037,0.0001003626,458.7449999997037,0.0001000883,458.7449999997037,0.000279779
458.75999999970367,0.002538193,458.75999999970367,4.131308e-05,458.75999999970367,0.0001002774,458.75999999970367,0.0002776303
458.77499999970365,0.00257196,458.77499999970365,3.417247e-05,458.77499999970365,9.989484e-05,458.77499999970365,0.0002754767
458.78999999970364,0.002580187,458.78999999970364,3.409117e-05,458.78999999970364,9.883812e-05,458.78999999970364,0.0002757633
458.8049999997036,0.002562667,458.8049999997036,3.227728e-05,458.8049999997036,9.914421e-05,458.8049999997036,0.0002966844
458.8199999997036,0.002549657,458.8199999997036,3.001452e-05,458.8199999997036,9.942429e-05,458.8199999997036,0.000298881
458.8349999997036,0.002506099,458.8349999997036,2.766204e-05,458.8349999997036,9.909888e-05,458.8349999997036,0.0003008861
458.8499999997036,0.00279564,458.8499999997036,1.98389e-05,458.8499999997036,9.911523e-05,458.8499999997036,0.0003035842
458.86499999970357,0.002984414,458.86499999970357,1.315878e-05,458.86499999970357,9.670739e-05,458.86499999970357,0.0002887899
458.87999999970356,0.003133649,458.87999999970356,8.842007e-06,458.87999999970356,8.497333e-05,458.87999999970356,0.0002594671
458.89499999970354,0.003191099,458.89499999970354,7.956479e-06,458.89499999970354,8.315824e-05,458.89499999970354,0.0002260645
458.90999999970353,0.003075629,458.90999999970353,7.753835e-06,458.90999999970353,7.56315e-05,458.90999999970353,0.0002022143
458.9249999997035,0.00324146,458.9249999997035,7.784659e-06,458.9249999997035,7.282665e-05,458.9249999997035,0.0001914587
458.9399999997035,0.003221396,458.9399999997035,6.640129e-06,458.9399999997035,5.834494e-05,458.9399999997035,0.0001942155
458.9549999997035,0.003145346,458.9549999997035,5.00461e-06,458.9549999997035,2.619793e-05,458.9549999997035,0.0001920147
458.9699999997035,0.003185112,458.9699999997035,4.873412e-06,458.9699999997035,2.219421e-05,458.9699999997035,0.0001991493
458.98499999970346,0.003225643,458.98499999970346,5.321112e-06,458.98499999970346,1.820062e-05,458.98499999970346,0.0001995745
458.99999999970345,0.003231683,458.99999999970345,5.027078e-06,458.99999999970345,1.846418e-05,458.99999999970345,0.0002255647
459.01499999970343,0.003224868,459.01499999970343,5.066156e-06,459.01499999970343,1.783788e-05,459.01499999970343,0.0002291131
459.0299999997034,0.003198229,459.0299999997034,5.176183e-06,459.0299999997034,2.24799e-05,459.0299999997034,0.0002409156
459.0449999997034,0.003200608,459.0449999997034,5.709342e-06,459.0449999997034,2.593475e-05,459.0449999997034,0.0002458672
459.0599999997034,0.003199366,459.0599999997034,6.148874e-06,459.0599999997034,2.279909e-05,459.0599999997034,0.0002231465
459.0749999997034,0.003201947,459.0749999997034,6.167175e-06,459.0749999997034,3.253376e-05,459.0749999997034,0.0002283965
459.08999999970337,0.003088672,459.08999999970337,6.753716e-06,459.08999999970337,3.539192e-05,459.08999999970337,0.0002324608
459.10499999970335,0.002893717,459.10499999970335,6.861319e-06,459.10499999970335,3.680035e-05,459.10499999970335,0.0002367857
459.11999999970334,0.002663096,459.11999999970334,6.896133e-06,459.11999999970334,4.347814e-05,459.11999999970334,0.0002546792
459.1349999997033,0.002323062,459.1349999997033,7.154789e-06,459.1349999997033,5.302336e-05,459.1349999997033,0.0002647682
459.1499999997033,0.002136551,459.1499999997033,8.760379e-06,459.1499999997033,7.316167e-05,459.1499999997033,0.0002645024
459.1649999997033,0.001759557,459.1649999997033,8.891258e-06,459.1649999997033,7.835845e-05,459.1649999997033,0.000265317
459.1799999997033,0.00128871,459.1799999997033,9.890295e-06,459.1799999997033,8.097469e-05,459.1799999997033,0.000263048
459.19499999970327,0.00115376,459.19499999970327,1.099252e-05,459.19499999970327,8.212186e-05,459.19499999970327,0.0002625324
459.20999999970326,0.001138876,459.20999999970326,1.110091e-05,459.20999999970326,8.693813e-05,459.20999999970326,0.0002614503
459.22499999970324,0.001025314,459.22499999970324,1.097072e-05,459.22499999970324,8.983056e-05,459.22499999970324,0.0002557747
459.23999999970323,0.0009617396,459.23999999970323,1.153406e-05,459.23999999970323,9.019597e-05,459.23999999970323,0.0002543578
459.2549999997032,0.0009610256,459.2549999997032,1.163015e-05,459.2549999997032,9.017348e-05,459.2549999997032,0.0002314669
459.2699999997032,0.001443389,459.2699999997032,1.225299e-05,459.2699999997032,8.991441e-05,459.2699999997032,0.0002293406
459.2849999997032,0.001881031,459.2849999997032,1.288072e-05,459.2849999997032,8.894901e-05,459.2849999997032,0.0002147559
459.2999999997032,0.002217174,459.2999999997032,1.26278e-05,459.2999999997032,8.886377e-05,459.2999999997032,0.0002050508
459.31499999970316,0.002250434,459.31499999970316,1.252925e-05,459.31499999970316,8.875686e-05,459.31499999970316,0.0001975467
459.32999999970315,0.002244717,459.32999999970315,1.272891e-05,459.32999999970315,8.535014e-05,459.32999999970315,0.0001963248
459.34499999970313,0.002237458,459.34499999970313,1.257302e-05,459.34499999970313,8.456621e-05,459.34499999970313,0.0001916371
459.3599999997031,0.002171205,459.3599999997031,1.253711e-05,459.3599999997031,8.315045e-05,459.3599999997031,0.0001767254
459.3749999997031,0.002223019,459.3749999997031,1.267456e-05,459.3749999997031,7.73765e-05,459.3749999997031,0.0001420101
459.3899999997031,0.00225391,459.3899999997031,1.224954e-05,459.3899999997031,6.596497e-05,459.3899999997031,0.0001420959
459.4049999997031,0.002258022,459.4049999997031,1.142978e-05,459.4049999997031,5.173243e-05,459.4049999997031,0.0001420354
459.41999999970307,0.002279363,459.41999999970307,1.129714e-05,459.41999999970307,4.668804e-05,459.41999999970307,0.0001394432
459.43499999970305,0.002297716,459.43499999970305,1.020711e-05,459.43499999970305,4.336557e-05,459.43499999970305,0.0001351912
459.44999999970304,0.002307067,459.44999999970304,9.122726e-06,459.44999999970304,4.213584e-05,459.44999999970304,0.0001318737
459.464999999703,0.002400705,459.464999999703,9.520175e-06,459.464999999703,2.626076e-05,459.464999999703,0.0001315727
459.479999999703,0.0024688,459.479999999703,1.10666e-05,459.479999999703,2.194528e-05,459.479999999703,0.0001274332
459.494999999703,0.002483698,459.494999999703,1.037819e-05,459.494999999703,2.116365e-05,459.494999999703,0.0001173971
459.509999999703,0.002500619,459.509999999703,1.046604e-05,459.509999999703,2.0573e-05,459.509999999703,0.0001245196
459.52499999970297,0.002218759,459.52499999970297,9.851764e-06,459.52499999970297,1.871877e-05,459.52499999970297,0.0001343873
459.53999999970296,0.001791589,459.53999999970296,1.056251e-05,459.53999999970296,1.584109e-05,459.53999999970296,0.0001631916
459.55499999970294,0.001980437,459.55499999970294,1.102962e-05,459.55499999970294,1.596863e-05,459.55499999970294,0.0002493681
459.56999999970293,0.00227009,459.56999999970293,1.218844e-05,459.56999999970293,1.595892e-05,459.56999999970293,0.0002704443
459.5849999997029,0.002601285,459.5849999997029,1.341534e-05,459.5849999997029,1.673028e-05,459.5849999997029,0.000282244
459.5999999997029,0.002805084,459.5999999997029,1.378307e-05,459.5999999997029,1.612052e-05,459.5999999997029,0.0002738137
459.6149999997029,0.002799956,459.6149999997029,1.375647e-05,459.6149999997029,2.313033e-05,459.6149999997029,0.0002737429
459.6299999997029,0.002842384,459.6299999997029,1.35989e-05,459.6299999997029,2.292418e-05,459.6299999997029,0.0002707308
459.64499999970286,0.00289936,459.64499999970286,1.35522e-05,459.64499999970286,2.34911e-05,459.64499999970286,0.000268185
459.65999999970285,0.002906073,459.65999999970285,1.354804e-05,459.65999999970285,2.326998e-05,459.65999999970285,0.0002680488
459.67499999970283,0.002894889,459.67499999970283,1.351577e-05,459.67499999970283,2.265903e-05,459.67499999970283,0.0002679479
459.6899999997028,0.002907083,459.6899999997028,1.335536e-05,459.6899999997028,2.258493e-05,459.6899999997028,0.0002678443
459.7049999997028,0.002942217,459.7049999997028,1.330887e-05,459.7049999997028,2.255684e-05,459.7049999997028,0.0002677726
459.7199999997028,0.003032107,459.7199999997028,1.281603e-05,459.7199999997028,2.251308e-05,459.7199999997028,0.0002678486
459.7349999997028,0.003149583,459.7349999997028,1.174465e-05,459.7349999997028,2.251183e-05,459.7349999997028,0.0002680816
459.74999999970277,0.003427246,459.74999999970277,1.165435e-05,459.74999999970277,2.230691e-05,459.74999999970277,0.000268959
459.76499999970275,0.003667036,459.76499999970275,1.123963e-05,459.76499999970275,2.220373e-05,459.76499999970275,0.0002600189
459.77999999970274,0.003895772,459.77999999970274,1.079859e-05,459.77999999970274,2.218342e-05,459.77999999970274,0.0002557543
459.7949999997027,0.003860699,459.7949999997027,8.960697e-06,459.7949999997027,2.217072e-05,459.7949999997027,0.0001658232
459.8099999997027,0.003807668,459.8099999997027,8.43432e-06,459.8099999997027,2.183008e-05,459.8099999997027,0.0001482053
459.8249999997027,0.003773022,459.8249999997027,6.671875e-06,459.8249999997027,2.101403e-05,459.8249999997027,0.0001041927
459.8399999997027,0.003525513,459.8399999997027,4.35115e-06,459.8399999997027,2.082481e-05,459.8399999997027,9.38019e-05
459.85499999970267,0.003339523,459.85499999970267,3.184716e-06,459.85499999970267,2.003321e-05,459.85499999970267,9.400756e-05
459.86999999970266,0.003341147,459.86999999970266,3.306247e-06,459.86999999970266,8.306418e-06,459.86999999970266,9.142608e-05
459.88499999970264,0.003589229,459.88499999970264,3.448066e-06,459.88499999970264,7.575563e-06,459.88499999970264,9.038335e-05
459.89999999970263,0.003834789,459.89999999970263,3.386231e-06,459.89999999970263,6.151165e-06,459.89999999970263,9.066827e-05
459.9149999997026,0.003968583,459.9149999997026,3.276286e-06,459.9149999997026,6.016875e-06,459.9149999997026,9.153079e-05
459.9299999997026,0.003946084,459.9299999997026,3.237359e-06,459.9299999997026,5.874723e-06,459.9299999997026,9.219325e-05
459.9449999997026,0.003921586,459.9449999997026,3.219907e-06,459.9449999997026,5.795054e-06,459.9449999997026,9.115064e-05
459.9599999997026,0.004027154,459.9599999997026,3.171418e-06,459.9599999997026,5.790191e-06,459.9599999997026,9.182504e-05
459.97499999970256,0.004084819,459.97499999970256,3.067557e-06,459.97499999970256,5.879517e-06,459.97499999970256,9.184391e-05
459.98999999970255,0.004184728,459.98999999970255,3.007266e-06,459.98999999970255,5.917727e-06,459.98999999970255,9.077401e-05
460.00499999970253,0.003982249,460.00499999970253,3.254718e-06,460.00499999970253,5.910582e-06,460.00499999970253,8.756712e-05
460.0199999997025,0.003785148,460.0199999997025,3.386231e-06,460.0199999997025,5.972226e-06,460.0199999997025,8.810726e-05
460.0349999997025,0.003666409,460.0349999997025,3.443979e-06,460.0349999997025,6.135114e-06,460.0349999997025,8.833767e-05
460.0499999997025,0.003607881,460.0499999997025,3.448066e-06,460.0499999997025,6.481242e-06,460.0499999997025,8.825758e-05
460.0649999997025,0.003493126,460.0649999997025,3.488681e-06,460.0649999997025,6.426676e-06,460.0649999997025,7.523298e-05
460.07999999970247,0.00336516,460.07999999970247,3.627253e-06,460.07999999970247,6.938897e-06,460.07999999970247,6.387783e-05
460.09499999970245,0.00330835,460.09499999970245,4.179412e-06,460.09499999970245,7.019631e-06,460.09499999970245,5.880116e-05
460.10999999970244,0.003266587,460.10999999970244,4.389827e-06,460.10999999970244,7.063642e-06,460.10999999970244,5.923985e-05
460.1249999997024,0.003226026,460.1249999997024,4.950841e-06,460.1249999997024,8.462665e-06,460.1249999997024,6.07445e-05
460.1399999997024,0.002984274,460.1399999997024,5.151632e-06,460.1399999997024,9.46378e-06,460.1399999997024,6.268444e-05
460.1549999997024,0.002691436,460.1549999997024,5.227635e-06,460.1549999997024,1.113512e-05,460.1549999997024,6.297054e-05
460.1699999997024,0.002567331,460.1699999997024,5.379038e-06,460.1699999997024,1.176263e-05,460.1699999997024,6.375046e-05
460.18499999970237,0.002511626,460.18499999970237,5.612292e-06,460.18499999970237,1.18164e-05,460.18499999970237,6.406918e-05
460.19999999970236,0.00244738,460.19999999970236,5.733962e-06,460.19999999970236,1.197272e-05,460.19999999970236,6.49711e-05
460.21499999970234,0.002067247,460.21499999970234,6.904299e-06,460.21499999970234,1.218498e-05,460.21499999970234,6.515643e-05
460.22999999970233,0.001511804,460.22999999970233,7.254505e-06,460.22999999970233,1.222537e-05,460.22999999970233,6.564515e-05
460.2449999997023,0.001022586,460.2449999997023,7.293238e-06,460.2449999997023,1.231263e-05,460.2449999997023,6.581232e-05
460.2599999997023,0.001014347,460.2599999997023,7.68449e-06,460.2599999997023,1.236856e-05,460.2599999997023,6.637159e-05
460.2749999997023,0.0008921886,460.2749999997023,7.770169e-06,460.2749999997023,1.237198e-05,460.2749999997023,6.427333e-05
460.2899999997023,0.0007903363,460.2899999997023,7.757469e-06,460.2899999997023,1.237198e-05,460.2899999997023,6.206247e-05
460.30499999970226,0.0007261584,460.30499999970226,7.867457e-06,460.30499999970226,1.220461e-05,460.30499999970226,6.413269e-05
460.31999999970225,0.0005086999,460.31999999970225,7.856707e-06,460.31999999970225,1.218498e-05,460.31999999970225,5.996096e-05
460.33499999970223,0.0003824712,460.33499999970223,7.549485e-06,460.33499999970223,1.177699e-05,460.33499999970223,6.040054e-05
460.3499999997022,0.0003635876,460.3499999997022,7.209706e-06,460.3499999997022,1.176143e-05,460.3499999997022,5.960563e-05
460.3649999997022,0.000345523,460.3649999997022,7.099447e-06,460.3649999997022,1.155115e-05,460.3649999997022,5.943119e-05
460.3799999997022,0.0003390978,460.3799999997022,6.80152e-06,460.3799999997022,1.057184e-05,460.3799999997022,5.745031e-05
460.3949999997022,0.0003386215,460.3949999997022,6.743279e-06,460.3949999997022,9.136613e-06,460.3949999997022,5.627632e-05
460.40999999970217,0.0003406195,460.40999999970217,6.699267e-06,460.40999999970217,8.018206e-06,460.40999999970217,5.580274e-05
460.42499999970215,0.0003437659,460.42499999970215,6.513761e-06,460.42499999970215,7.075597e-06,460.42499999970215,5.500924e-05
460.43999999970214,0.0003637003,460.43999999970214,6.420096e-06,460.43999999970214,7.316379e-06,460.43999999970214,5.436891e-05
460.4549999997021,0.0003838417,460.4549999997021,6.11902e-06,460.4549999997021,7.398706e-06,460.4549999997021,5.422907e-05
460.4699999997021,0.0004233514,460.4699999997021,4.516361e-06,460.4699999997021,7.115304e-06,460.4699999997021,5.386444e-05
460.4849999997021,0.0004057498,460.4849999997021,3.986198e-06,460.4849999997021,7.289374e-06,460.4849999997021,5.433262e-05
460.4999999997021,0.0004112381,460.4999999997021,3.82387e-06,460.4999999997021,7.349037e-06,460.4999999997021,5.423972e-05
460.51499999970207,0.0005245506,460.51499999970207,3.11314e-06,460.51499999970207,7.190141e-06,460.51499999970207,5.522929e-05
460.52999999970206,0.001382669,460.52999999970206,3.122176e-06,460.52999999970206,7.083556e-06,460.52999999970206,5.534522e-05
460.54499999970204,0.001845485,460.54499999970204,3.572469e-06,460.54499999970204,7.105398e-06,460.54499999970204,5.564398e-05
460.55999999970203,0.002293269,460.55999999970203,3.516832e-06,460.55999999970203,7.325999e-06,460.55999999970203,5.800302e-05
460.574999999702,0.002604219,460.574999999702,4.182782e-06,460.574999999702,7.394897e-06,460.574999999702,5.616733e-05
460.589999999702,0.002637287,460.589999999702,4.79767e-06,460.589999999702,7.306746e-06,460.589999999702,5.903428e-05
460.604999999702,0.002655723,460.604999999702,4.910845e-06,460.604999999702,7.203842e-06,460.604999999702,6.046208e-05
460.619999999702,0.00271112,460.619999999702,4.913713e-06,460.619999999702,7.172487e-06,460.619999999702,6.32943e-05
460.63499999970196,0.003039741,460.63499999970196,4.916579e-06,460.63499999970196,6.832516e-06,460.63499999970196,6.481437e-05
460.64999999970195,0.003233006,460.64999999970195,4.936594e-06,460.64999999970195,6.896133e-06,460.64999999970195,6.46651e-05
460.66499999970193,0.003253444,460.66499999970193,4.979213e-06,460.66499999970193,6.96726e-06,460.66499999970193,6.38518e-05
460.6799999997019,0.003259951,460.6799999997019,4.979213e-06,460.6799999997019,6.597564e-06,460.6799999997019,6.28124e-05
460.6949999997019,0.00327195,460.6949999997019,4.970719e-06,460.6949999997019,6.42229e-06,460.6949999997019,6.316954e-05
460.7099999997019,0.003276327,460.7099999997019,4.928026e-06,460.7099999997019,6.244353e-06,460.7099999997019,6.354418e-05
460.7249999997019,0.003282146,460.7249999997019,4.910845e-06,460.7249999997019,6.282586e-06,460.7249999997019,6.247556e-05
460.73999999970187,0.003284997,460.73999999970187,4.928026e-06,460.73999999970187,6.139704e-06,460.73999999970187,6.139038e-05
460.75499999970185,0.003299142,460.75499999970185,4.916579e-06,460.75499999970185,5.912964e-06,460.75499999970185,6.153775e-05
460.76999999970184,0.00321822,460.76999999970184,4.861837e-06,460.76999999970184,5.988714e-06,460.76999999970184,5.949445e-05
460.7849999997018,0.002997468,460.7849999997018,4.569077e-06,460.7849999997018,5.988714e-06,460.7849999997018,5.832344e-05
460.7999999997018,0.002773135,460.7999999997018,7.644054e-06,460.7999999997018,5.733962e-06,460.7999999997018,5.942622e-05
460.8149999997018,0.002641637,460.8149999997018,8.432649e-06,460.8149999997018,5.597212e-06,460.8149999997018,5.657864e-05
460.8299999997018,0.002666913,460.8299999997018,9.399558e-06,460.8299999997018,5.2679e-06,460.8299999997018,5.775526e-05
460.84499999970177,0.002816867,460.84499999970177,1.020987e-05,460.84499999970177,5.216845e-06,460.84499999970177,5.151085e-05
460.85999999970176,0.002850902,460.85999999970176,1.037547e-05,460.85999999970176,5.344885e-06,460.85999999970176,4.910214e-05
460.87499999970174,0.00275977,460.87499999970174,1.041748e-05,460.87499999970174,5.310512e-06,460.87499999970174,4.36308e-05
460.88999999970173,0.002377216,460.88999999970173,1.040936e-05,460.88999999970173,5.336972e-06,460.88999999970173,4.220732e-05
460.9049999997017,0.002375422,460.9049999997017,1.044179e-05,460.9049999997017,5.423375e-06,460.9049999997017,4.354645e-05
460.9199999997017,0.002797881,460.9199999997017,1.058515e-05,460.9199999997017,5.544109e-06,460.9199999997017,4.422947e-05
460.9349999997017,0.003134906,460.9349999997017,1.063031e-05,460.9349999997017,5.582091e-06,460.9349999997017,4.936452e-05
460.9499999997017,0.003324762,460.9499999997017,1.092955e-05,460.9499999997017,5.599728e-06,460.9499999997017,5.057947e-05
460.96499999970166,0.003338218,460.96499999970166,1.108822e-05,460.96499999970166,6.264623e-06,460.96499999970166,6.616412e-05
460.97999999970165,0.003323683,460.97999999970165,1.124465e-05,460.97999999970165,6.144291e-06,460.97999999970165,7.010193e-05
460.99499999970163,0.003344586,460.99499999970163,1.353036e-05,460.99499999970163,6.262374e-06,460.99499999970163,7.227639e-05
461.0099999997016,0.003431458,461.0099999997016,1.394564e-05,461.0099999997016,6.228541e-06,461.0099999997016,7.44829e-05
461.0249999997016,0.003557489,461.0249999997016,1.445064e-05,461.0249999997016,6.327271e-06,461.0249999997016,7.955063e-05
461.0399999997016,0.003576616,461.0399999997016,1.44818e-05,461.0399999997016,6.500773e-06,461.0399999997016,7.99692e-05
461.0549999997016,0.003535736,461.0549999997016,1.230119e-05,461.0549999997016,6.690851e-06,461.0549999997016,8.283917e-05
461.06999999970157,0.003405129,461.06999999970157,1.228629e-05,461.06999999970157,1.034964e-05,461.06999999970157,8.223105e-05
461.08499999970155,0.003236313,461.08499999970155,1.177699e-05,461.08499999970155,1.103728e-05,461.08499999970155,8.578048e-05
461.09999999970154,0.003096534,461.09999999970154,1.246161e-05,461.09999999970154,1.224379e-05,461.09999999970154,8.885172e-05
461.1149999997015,0.003072483,461.1149999997015,0.0009450577,461.1149999997015,1.257638e-05,461.1149999997015,8.885362e-05
461.1299999997015,0.003005583,461.1299999997015,0.00155495,461.1299999997015,1.277089e-05,461.1299999997015,8.953542e-05
461.1449999997015,0.002916879,461.1449999997015,0.00166718,461.1449999997015,1.280394e-05,461.1449999997015,8.869161e-05
461.1599999997015,0.002704148,461.1599999997015,0.002150588,461.1599999997015,1.2669e-05,461.1599999997015,8.722736e-05
461.17499999970147,0.002334549,461.17499999970147,0.002530003,461.17499999970147,1.2689e-05,461.17499999970147,8.458985e-05
461.18999999970146,0.00183377,461.18999999970146,0.002705772,461.18999999970146,1.273333e-05,461.18999999970146,8.52461e-05
461.20499999970144,0.001564758,461.20499999970144,0.002850282,461.20499999970144,1.264452e-05,461.20499999970144,7.961169e-05
461.21999999970143,0.001550947,461.21999999970143,0.002957903,461.21999999970143,1.245143e-05,461.21999999970143,7.086419e-05
461.2349999997014,0.001557594,461.2349999997014,0.003277233,461.2349999997014,1.240723e-05,461.2349999997014,6.869218e-05
461.2499999997014,0.00150239,461.2499999997014,0.003507623,461.2499999997014,1.241744e-05,461.2499999997014,6.651936e-05
461.2649999997014,0.001214638,461.2649999997014,0.003569799,461.2649999997014,1.24095e-05,461.2649999997014,6.652762e-05
461.2799999997014,0.0006179372,461.2799999997014,0.003574318,461.2799999997014,1.226334e-05,461.2799999997014,5.900086e-05
461.29499999970136,0.0004788385,461.29499999970136,0.00357642,461.29499999970136,1.23412e-05,461.29499999970136,5.79041e-05
461.30999999970135,0.0004604271,461.30999999970135,0.003581965,461.30999999970135,1.23412e-05,461.30999999970135,5.234125e-05
461.32499999970133,0.0003636573,461.32499999970133,0.003586825,461.32499999970133,9.351477e-06,461.32499999970133,5.105046e-05
461.3399999997013,0.0002680273,461.3399999997013,0.00358969,461.3399999997013,8.331817e-06,461.3399999997013,4.442491e-05
461.3549999997013,0.0002285381,461.3549999997013,0.003591064,461.3549999997013,7.069622e-06,461.3549999997013,4.136249e-05
461.3699999997013,0.0001784826,461.3699999997013,0.003358435,461.3699999997013,7.04567e-06,461.3699999997013,4.373141e-05
461.3849999997013,0.0001705209,461.3849999997013,0.003139311,461.3849999997013,7.528932e-06,461.3849999997013,4.403476e-05
461.39999999970127,0.0001600125,461.39999999970127,0.003053284,461.39999999970127,7.675319e-06,461.39999999970127,4.517016e-05
461.41499999970125,0.0001459428,461.41499999970125,0.002767821,461.41499999970125,8.159269e-06,461.41499999970125,4.621466e-05
461.42999999970124,0.0001348889,461.42999999970124,0.002414414,461.42999999970124,8.782863e-06,461.42999999970124,4.503993e-05
461.4449999997012,0.0001327772,461.4449999997012,0.002196661,461.4449999997012,8.763595e-06,461.4449999997012,4.330901e-05
461.4599999997012,0.0001354604,461.4599999997012,0.001906867,461.4599999997012,8.729774e-06,461.4599999997012,4.436494e-05
461.4749999997012,0.0002035786,461.4749999997012,0.001735129,461.4749999997012,8.846786e-06,461.4749999997012,4.329242e-05
461.4899999997012,0.0002070138,461.4899999997012,0.001195151,461.4899999997012,8.952834e-06,461.4899999997012,4.036102e-05
461.50499999970117,0.0002452376,461.50499999970117,0.0005974621,461.50499999970117,8.865873e-06,461.50499999970117,3.93312e-05
461.51999999970116,0.0003175308,461.51999999970116,0.0002757921,461.51999999970116,8.907087e-06,461.51999999970116,3.894717e-05
461.53499999970114,0.0003338836,461.53499999970114,0.0003861072,461.53499999970114,8.872225e-06,461.53499999970114,4.151377e-05
461.54999999970113,0.0003390968,461.54999999970113,0.0003944651,461.54999999970113,8.757163e-06,461.54999999970113,4.178536e-05
461.5649999997011,0.0005614212,461.5649999997011,0.0004103491,461.5649999997011,8.741063e-06,461.5649999997011,4.067254e-05
461.5799999997011,0.001333767,461.5799999997011,0.0004165886,461.5799999997011,8.5866e-06,461.5799999997011,4.069851e-05
461.5949999997011,0.001787352,461.5949999997011,0.0004085839,461.5949999997011,8.43432e-06,461.5949999997011,4.11922e-05
461.6099999997011,0.002272435,461.6099999997011,0.000408426,461.6099999997011,8.43599e-06,461.6099999997011,4.262908e-05
461.62499999970106,0.002627729,461.62499999970106,0.0004107399,461.62499999970106,7.827967e-06,461.62499999970106,4.581669e-05
461.63999999970105,0.002807224,461.63999999970105,0.0004115081,461.63999999970105,7.242846e-06,461.63999999970105,5.556114e-05
461.65499999970103,0.002899178,461.65499999970103,0.0004111229,461.65499999970103,7.053663e-06,461.65499999970103,7.631513e-05
461.669999999701,0.00322038,461.669999999701,0.0004107893,461.669999999701,6.269119e-06,461.669999999701,8.765042e-05
461.684999999701,0.003373431,461.684999999701,0.0004105956,461.684999999701,5.941484e-06,461.684999999701,0.0001119223
461.699999999701,0.003402027,461.699999999701,0.0004105487,461.699999999701,6.13052e-06,461.699999999701,0.0001242867
461.714999999701,0.003436622,461.714999999701,0.0004104789,461.714999999701,5.984008e-06,461.714999999701,0.0001248408
461.72999999970096,0.003443596,461.72999999970096,0.0004102975,461.72999999970096,5.881913e-06,461.72999999970096,0.000127551
461.74499999970095,0.003467123,461.74499999970095,0.0004101017,461.74499999970095,5.609782e-06,461.74499999970095,0.0001285884
461.75999999970094,0.003631623,461.75999999970094,0.0004466997,461.75999999970094,5.850696e-06,461.75999999970094,0.000128732
461.7749999997009,0.003809532,461.7749999997009,0.0003972232,461.7749999997009,5.860319e-06,461.7749999997009,0.0001285908
461.7899999997009,0.003898517,461.7899999997009,0.0005028077,461.7899999997009,5.760922e-06,461.7899999997009,0.0001279694
461.8049999997009,0.004145782,461.8049999997009,0.0005498395,461.8049999997009,5.677176e-06,461.8049999997009,0.0001282053
461.8199999997009,0.004269967,461.8199999997009,0.0005412731,461.8199999997009,6.000464e-06,461.8199999997009,0.0001283207
461.83499999970087,0.004153806,461.83499999970087,0.0005321087,461.83499999970087,6.014533e-06,461.83499999970087,0.0001282957
461.84999999970086,0.004266908,461.84999999970086,0.0005372313,461.84999999970086,5.931993e-06,461.84999999970086,0.0001281265
461.86499999970084,0.004249523,461.86499999970084,0.0005366895,461.86499999970084,5.536481e-06,461.86499999970084,0.0001273768
461.87999999970083,0.00408538,461.87999999970083,0.0005353669,461.87999999970083,5.634837e-06,461.87999999970083,0.0001249981
461.8949999997008,0.003966734,461.8949999997008,0.0005349729,461.8949999997008,5.733962e-06,461.8949999997008,0.0001222037
461.9099999997008,0.004028563,461.9099999997008,0.0005350194,461.9099999997008,5.415577e-06,461.9099999997008,0.0001077201
461.9249999997008,0.003981276,461.9249999997008,0.0005350561,461.9249999997008,5.355417e-06,461.9249999997008,9.898168e-05
461.9399999997008,0.004004569,461.9399999997008,0.0005350344,461.9399999997008,5.644828e-06,461.9399999997008,6.884806e-05
461.95499999970076,0.004046942,461.95499999970076,0.0005350176,461.95499999970076,5.457037e-06,461.95499999970076,5.731062e-05
461.96999999970075,0.004066295,461.96999999970075,0.0005350214,461.96999999970075,5.738873e-06,461.96999999970075,5.757131e-05
461.98499999970073,0.004062924,461.98499999970073,0.000535019,461.98499999970073,5.946224e-06,461.98499999970073,5.178278e-05
461.9999999997007,0.004006129,461.9999999997007,0.0005345996,461.9999999997007,6.021555e-06,461.9999999997007,4.972022e-05
462.0149999997007,0.00380241,462.0149999997007,0.000483539,462.0149999997007,5.797484e-06,462.0149999997007,4.928569e-05
462.0299999997007,0.003536246,462.0299999997007,0.0004612432,462.0299999997007,5.891484e-06,462.0299999997007,4.897115e-05
462.0449999997007,0.003436828,462.0449999997007,0.0002067184,462.0449999997007,6.026232e-06,462.0449999997007,4.865746e-05
462.05999999970066,0.003220962,462.05999999970066,0.0001584315,462.05999999970066,6.146583e-06,462.05999999970066,4.773179e-05
462.07499999970065,0.00297271,462.07499999970065,0.0001254683,462.07499999970065,9.286478e-06,462.07499999970065,4.707296e-05
462.08999999970064,0.002722822,462.08999999970064,6.923512e-05,462.08999999970064,1.037004e-05,462.08999999970064,4.724054e-05
462.1049999997006,0.00230682,462.1049999997006,3.040064e-05,462.1049999997006,1.180327e-05,462.1049999997006,4.367694e-05
462.1199999997006,0.001719857,462.1199999997006,1.593949e-05,462.1199999997006,1.215604e-05,462.1199999997006,4.382408e-05
462.1349999997006,0.001418779,462.1349999997006,1.501946e-05,462.1349999997006,1.22023e-05,462.1349999997006,3.948134e-05
462.1499999997006,0.001442235,462.1499999997006,1.402822e-05,462.1499999997006,1.229889e-05,462.1499999997006,3.717245e-05
462.16499999970057,0.001297795,462.16499999970057,1.209912e-05,462.16499999970057,1.232864e-05,462.16499999970057,3.712922e-05
462.17999999970056,0.001071061,462.17999999970056,1.079729e-05,462.17999999970056,1.241063e-05,462.17999999970056,3.667996e-05
462.19499999970054,0.0009063238,462.19499999970054,1.045123e-05,462.19499999970054,1.232635e-05,462.19499999970054,3.531661e-05
462.2099999997005,0.000524807,462.2099999997005,1.030736e-05,462.2099999997005,1.231378e-05,462.2099999997005,2.708673e-05
462.2249999997005,0.0003218794,462.2249999997005,9.94002e-06,462.2249999997005,1.222652e-05,462.2249999997005,2.711428e-05
462.2399999997005,0.000312891,462.2399999997005,9.75838e-06,462.2399999997005,1.213632e-05,462.2399999997005,2.699087e-05
462.2549999997005,0.0003039602,462.2549999997005,5.399948e-06,462.2549999997005,1.207815e-05,462.2549999997005,2.604099e-05
462.2699999997005,0.0003020185,462.2699999997005,4.266145e-06,462.2699999997005,1.210727e-05,462.2699999997005,2.416679e-05
462.28499999970046,0.0002986735,462.28499999970046,6.100575e-06,462.28499999970046,1.209447e-05,462.28499999970046,2.42285e-05
462.29999999970045,0.0002922108,462.29999999970045,6.187698e-06,462.29999999970045,1.239814e-05,462.29999999970045,2.385173e-05
462.31499999970043,0.0002893216,462.31499999970043,6.621009e-06,462.31499999970043,1.24966e-05,462.31499999970043,2.5938e-05
462.3299999997004,0.0002897033,462.3299999997004,6.955118e-06,462.3299999997004,9.231709e-06,462.3299999997004,2.635714e-05
462.3449999997004,0.0002877708,462.3449999997004,6.985433e-06,462.3449999997004,8.798887e-06,462.3449999997004,2.635981e-05
462.3599999997004,0.0002795222,462.3599999997004,6.896133e-06,462.3599999997004,7.160693e-06,462.3599999997004,2.731769e-05
462.3749999997004,0.0002152999,462.3749999997004,6.896133e-06,462.3749999997004,6.830453e-06,462.3749999997004,3.053611e-05
462.38999999970036,0.0001969972,462.38999999970036,6.892046e-06,462.38999999970036,6.69506e-06,462.38999999970036,3.063053e-05
462.40499999970035,0.0001570122,462.40499999970035,6.908378e-06,462.40499999970035,6.697164e-06,462.40499999970035,3.243401e-05
462.41999999970034,0.0001484729,462.41999999970034,6.910417e-06,462.41999999970034,7.013608e-06,462.41999999970034,3.231785e-05
462.4349999997003,0.0001523462,462.4349999997003,6.918566e-06,462.4349999997003,7.011599e-06,462.4349999997003,3.735956e-05
462.4499999997003,0.0001624952,462.4499999997003,6.922637e-06,462.4499999997003,7.103415e-06,462.4499999997003,3.865237e-05
462.4649999997003,0.0001648926,462.4649999997003,6.896133e-06,462.4649999997003,7.053663e-06,462.4649999997003,3.735051e-05
462.4799999997003,0.0001718279,462.4799999997003,6.887957e-06,462.4799999997003,7.079578e-06,462.4799999997003,4.138701e-05
462.49499999970027,0.0001742206,462.49499999970027,6.928738e-06,462.49499999970027,7.12124e-06,462.49499999970027,5.219841e-05
462.50999999970026,0.0002398782,462.50999999970026,6.940926e-06,462.50999999970026,7.459384e-06,462.50999999970026,5.396634e-05
462.52499999970024,0.0002609474,462.52499999970024,6.844875e-06,462.52499999970024,7.438582e-06,462.52499999970024,5.859549e-05
462.5399999997002,0.0002603438,462.5399999997002,4.182782e-06,462.5399999997002,7.372003e-06,462.5399999997002,6.150501e-05
462.5549999997002,0.0003059769,462.5549999997002,3.816494e-06,462.5549999997002,6.699267e-06,462.5549999997002,6.249089e-05
462.5699999997002,0.0003217105,462.5699999997002,3.233005e-06,462.5699999997002,6.264623e-06,462.5699999997002,6.258009e-05
462.5849999997002,0.000473235,462.5849999997002,2.773325e-06,462.5849999997002,6.282586e-06,462.5849999997002,6.267523e-05
462.5999999997002,0.0007255856,462.5999999997002,2.768241e-06,462.5999999997002,6.378271e-06,462.5999999997002,6.261541e-05
462.61499999970016,0.001117652,462.61499999970016,2.926552e-06,462.61499999970016,6.389304e-06,462.61499999970016,6.466271e-05
462.62999999970015,0.001612706,462.62999999970015,2.988471e-06,462.62999999970015,6.351713e-06,462.62999999970015,6.390274e-05
462.64499999970013,0.0020945,462.64499999970013,3.007266e-06,462.64499999970013,6.57832e-06,462.64499999970013,6.629535e-05
462.6599999997001,0.002520415,462.6599999997001,2.863294e-06,462.6599999997001,6.665538e-06,462.6599999997001,7.135903e-05
462.6749999997001,0.002840786,462.6749999997001,2.838588e-06,462.6749999997001,6.389304e-06,462.6749999997001,7.15284e-05
462.6899999997001,0.00291116,462.6899999997001,2.798606e-06,462.6899999997001,6.158032e-06,462.6899999997001,7.03094e-05
462.7049999997001,0.003029132,462.7049999997001,2.798606e-06,462.7049999997001,6.257873e-06,462.7049999997001,7.393069e-05
462.71999999970006,0.003156169,462.71999999970006,2.838588e-06,462.71999999970006,6.224016e-06,462.71999999970006,7.556013e-05
462.73499999970005,0.003221835,462.73499999970005,2.828646e-06,462.73499999970005,6.221753e-06,462.73499999970005,7.175118e-05
462.74999999970004,0.003302199,462.74999999970004,2.737538e-06,462.74999999970004,6.365006e-06,462.74999999970004,6.690029e-05
462.7649999997,0.003325955,462.7649999997,2.685588e-06,462.7649999997,5.889093e-06,462.7649999997,6.774376e-05
462.7799999997,0.003476995,462.7799999997,2.701278e-06,462.7799999997,5.915346e-06,462.7799999997,6.465661e-05
462.7949999997,0.003557671,462.7949999997,2.768241e-06,462.7949999997,5.884307e-06,462.7949999997,6.430729e-05
462.8099999997,0.003593829,462.8099999997,2.798606e-06,462.8099999997,5.812045e-06,462.8099999997,6.626028e-05
462.82499999969997,0.003598039,462.82499999969997,2.523327e-06,462.82499999969997,5.972226e-06,462.82499999969997,6.626389e-05
462.83999999969996,0.003591191,462.83999999969996,2.379674e-06,462.83999999969996,5.993417e-06,462.83999999969996,6.776537e-05
462.85499999969994,0.003565259,462.85499999969994,2.397367e-06,462.85499999969994,5.8867e-06,462.85499999969994,6.688976e-05
462.8699999996999,0.003378588,462.8699999996999,2.325787e-06,462.8699999996999,6.262374e-06,462.8699999996999,6.733496e-05
462.8849999996999,0.003167748,462.8849999996999,2.149519e-06,462.8849999996999,6.409116e-06,462.8849999996999,6.707673e-05
462.8999999996999,0.002951107,462.8999999996999,2.16909e-06,462.8999999996999,6.187698e-06,462.8999999996999,6.487151e-05
462.9149999996999,0.002682781,462.9149999996999,2.194914e-06,462.9149999996999,5.845879e-06,462.9149999996999,5.98316e-05
462.9299999996999,0.002574372,462.9299999996999,2.233089e-06,462.9299999996999,6.070483e-06,462.9299999996999,5.930021e-05
462.94499999969986,0.002629729,462.94499999969986,2.258181e-06,462.94499999969986,6.11211e-06,462.94499999969986,5.767325e-05
462.95999999969985,0.002820505,462.95999999969985,2.162586e-06,462.95999999969985,6.58688e-06,462.95999999969985,5.368631e-05
462.97499999969983,0.003015105,462.97499999969983,2.258181e-06,462.97499999969983,6.474718e-06,462.97499999969983,5.274527e-05
462.9899999996998,0.003123206,462.9899999996998,2.301433e-06,462.9899999996998,6.550423e-06,462.9899999996998,6.356901e-05
463.0049999996998,0.003122438,463.0049999996998,2.40909e-06,463.0049999996998,6.565459e-06,463.0049999996998,7.616953e-05
463.0199999996998,0.003185105,463.0199999996998,2.993181e-06,463.0199999996998,6.659195e-06,463.0199999996998,8.160132e-05
463.0349999996998,0.003061946,463.0349999996998,8.251971e-06,463.0349999996998,6.730734e-06,463.0349999996998,9.387545e-05
463.04999999969976,0.003149905,463.04999999969976,8.862694e-06,463.04999999969976,6.772462e-06,463.04999999969976,9.901782e-05
463.06499999969975,0.003230902,463.06499999969975,9.066966e-06,463.06499999969975,6.591156e-06,463.06499999969975,9.872104e-05
463.07999999969974,0.003245375,463.07999999969974,9.21185e-06,463.07999999969974,1.006816e-05,463.07999999969974,9.853923e-05
463.0949999996997,0.003283231,463.0949999996997,9.23781e-06,463.0949999996997,1.078946e-05,463.0949999996997,9.93547e-05
463.1099999996997,0.003307605,463.1099999996997,9.245431e-06,463.1099999996997,1.298854e-05,463.1099999996997,0.0001006008
463.1249999996997,0.003351855,463.1249999996997,9.254569e-06,463.1249999996997,1.346879e-05,463.1249999996997,9.945461e-05
463.1399999996997,0.003394282,463.1399999996997,9.322813e-06,463.1399999996997,1.353244e-05,463.1399999996997,0.0001003225
463.15499999969967,0.003559311,463.15499999969967,9.374045e-06,463.15499999969967,1.387678e-05,463.15499999969967,0.0001002115
463.16999999969966,0.00357886,463.16999999969966,9.374045e-06,463.16999999969966,1.43695e-05,463.16999999969966,0.0001001271
463.18499999969964,0.003420879,463.18499999969964,9.383058e-06,463.18499999969964,1.506254e-05,463.18499999969964,0.000103117
463.1999999996996,0.003335948,463.1999999996996,9.392062e-06,463.1999999996996,1.499881e-05,463.1999999996996,0.0001030451
463.2149999996996,0.003069871,463.2149999996996,9.390561e-06,463.2149999996996,1.492066e-05,463.2149999996996,0.0001023971
463.2299999996996,0.002717755,463.2299999996996,9.445902e-06,463.2299999996996,1.511482e-05,463.2299999996996,0.0001018131
463.2449999996996,0.002552852,463.2449999996996,9.410042e-06,463.2449999996996,1.506348e-05,463.2449999996996,9.39509e-05
463.2599999996996,0.002466597,463.2599999996996,9.283444e-06,463.2599999996996,1.505225e-05,463.2599999996996,7.56423e-05
463.27499999969956,0.00239486,463.27499999969956,7.618211e-06,463.27499999969956,1.502227e-05,463.27499999969956,7.460044e-05
463.28999999969955,0.002366851,463.28999999969955,4.987693e-06,463.28999999969955,1.492443e-05,463.28999999969955,5.335653e-05
463.30499999969953,0.002167536,463.30499999969953,3.423466e-06,463.30499999969953,1.498472e-05,463.30499999969953,4.731086e-05
463.3199999996995,0.001987358,463.3199999996995,5.08004e-06,463.3199999996995,1.501383e-05,463.3199999996995,4.619759e-05
463.3349999996995,0.001964541,463.3349999996995,5.227635e-06,463.3349999996995,1.264786e-05,463.3349999996995,4.538856e-05
463.3499999996995,0.001792959,463.3499999996995,6.496438e-06,463.3499999996995,1.153651e-05,463.3499999996995,4.458538e-05
463.3649999996995,0.001709822,463.3649999996995,8.093397e-06,463.3649999996995,9.602679e-06,463.3649999996995,5.532103e-05
463.37999999969946,0.001460021,463.37999999969946,0.0002548882,463.37999999969946,9.362016e-06,463.37999999969946,6.213596e-05
463.39499999969945,0.00123716,463.39499999969945,0.0004787469,463.39499999969945,9.877468e-06,463.39499999969945,6.305974e-05
463.40999999969944,0.0007634086,463.40999999969944,0.0006032686,463.40999999969944,1.060111e-05,463.40999999969944,6.409226e-05
463.4249999996994,0.0005903663,463.4249999996994,0.0006854386,463.4249999996994,1.071872e-05,463.4249999996994,6.436378e-05
463.4399999996994,0.0008839424,463.4399999996994,0.0007420274,463.4399999996994,1.099765e-05,463.4399999996994,6.416628e-05
463.4549999996994,0.0009930134,463.4549999996994,0.0007530402,463.4549999996994,1.111106e-05,463.4549999996994,6.497674e-05
463.4699999996994,0.001118705,463.4699999996994,0.0007701459,463.4699999996994,1.119694e-05,463.4699999996994,6.788625e-05
463.48499999969937,0.001115116,463.48499999969937,0.0007763486,463.48499999969937,1.215372e-05,463.48499999969937,7.068148e-05
