X[s],a: EMG RMS 1-1,X[s].1,a: EMG RMS 1-2,X[s].2,a: EMG RMS 1-3,X[s].3,a: EMG RMS 1-4
359.0099999997944,0.0003139302,359.0099999997944,0.0007707714,359.0099999997944,7.737468e-06,359.0099999997944,2.311023e-05
359.0249999997944,0.0003137036,359.0249999997944,0.0007430559,359.0249999997944,7.730182e-06,359.0249999997944,2.360655e-05
359.03999999979436,0.000313976,359.03999999979436,0.000743309,359.03999999979436,7.784659e-06,359.03999999979436,2.521987e-05
359.05499999979435,0.0003131681,359.05499999979435,0.0007541568,359.05499999979435,7.949394e-06,359.05499999979435,2.551309e-05
359.06999999979433,0.0003140022,359.06999999979433,0.0007672334,359.06999999979433,9.172005e-06,359.06999999979433,2.618072e-05
359.0849999997943,0.0003151296,359.0849999997943,0.0007705959,359.0849999997943,1.188178e-05,359.0849999997943,2.650318e-05
359.0999999997943,0.0003210774,359.0999999997943,0.0007674322,359.0999999997943,1.263114e-05,359.0999999997943,2.719779e-05
359.1149999997943,0.0003084067,359.1149999997943,0.000751042,359.1149999997943,1.278742e-05,359.1149999997943,2.677603e-05
359.1299999997943,0.0003070816,359.1299999997943,0.0007337001,359.1299999997943,1.598362e-05,359.1299999997943,2.681966e-05
359.14499999979427,0.0002860034,359.14499999979427,0.0006890108,359.14499999979427,1.806467e-05,359.14499999979427,2.639453e-05
359.15999999979425,0.0002537111,359.15999999979425,0.0005364563,359.15999999979425,1.997829e-05,359.15999999979425,2.625218e-05
359.17499999979424,0.0002375341,359.17499999979424,0.0004032157,359.17499999979424,2.104149e-05,359.17499999979424,2.589126e-05
359.1899999997942,0.0002300474,359.1899999997942,0.0003600195,359.1899999997942,2.434624e-05,359.1899999997942,2.581552e-05
359.2049999997942,0.0001759924,359.2049999997942,0.0003257511,359.2049999997942,2.603017e-05,359.2049999997942,2.263415e-05
359.2199999997942,0.0001396392,359.2199999997942,0.0002788547,359.2199999997942,2.699609e-05,359.2199999997942,2.384345e-05
359.2349999997942,0.0001472074,359.2349999997942,0.0002787074,359.2349999997942,2.852005e-05,359.2349999997942,2.135713e-05
359.24999999979417,0.000158742,359.24999999979417,0.0002683294,359.24999999979417,2.883443e-05,359.24999999979417,2.166296e-05
359.26499999979416,0.0001573664,359.26499999979416,0.0002856696,359.26499999979416,3.3271e-05,359.26499999979416,2.18958e-05
359.27999999979414,0.000161229,359.27999999979414,0.0003217718,359.27999999979414,3.637607e-05,359.27999999979414,2.143087e-05
359.29499999979413,0.000169685,359.29499999979413,0.0003359382,359.29499999979413,4.044818e-05,359.29499999979413,2.04418e-05
359.3099999997941,0.0001714263,359.3099999997941,0.0003183606,359.3099999997941,5.357626e-05,359.3099999997941,2.006623e-05
359.3249999997941,0.0001746309,359.3249999997941,0.000294354,359.3249999997941,5.361989e-05,359.3249999997941,1.957082e-05
359.3399999997941,0.0001850771,359.3399999997941,0.0002888486,359.3399999997941,5.355969e-05,359.3399999997941,1.948787e-05
359.3549999997941,0.0001776453,359.3549999997941,0.0002921582,359.3549999997941,5.354312e-05,359.3549999997941,1.855854e-05
359.36999999979406,0.0001982346,359.36999999979406,0.0002981861,359.36999999979406,5.342486e-05,359.36999999979406,1.938423e-05
359.38499999979405,0.0001988144,359.38499999979405,0.0002875322,359.38499999979405,5.257916e-05,359.38499999979405,1.910977e-05
359.39999999979403,0.000200753,359.39999999979403,0.000290046,359.39999999979403,5.144271e-05,359.39999999979403,1.919509e-05
359.414999999794,0.0002102542,359.414999999794,0.0002972223,359.414999999794,5.1369e-05,359.414999999794,1.949799e-05
359.429999999794,0.0002120568,359.429999999794,0.0003144211,359.429999999794,5.090206e-05,359.429999999794,1.945097e-05
359.444999999794,0.0002133857,359.444999999794,0.0003160288,359.444999999794,4.929655e-05,359.444999999794,1.923833e-05
359.459999999794,0.0002159976,359.459999999794,0.000321198,359.459999999794,4.824082e-05,359.459999999794,1.864034e-05
359.47499999979397,0.0002208634,359.47499999979397,0.0003128858,359.47499999979397,4.818033e-05,359.47499999979397,1.701746e-05
359.48999999979395,0.0002216387,359.48999999979395,0.0003155313,359.48999999979395,4.930027e-05,359.48999999979395,1.699344e-05
359.50499999979394,0.0002306845,359.50499999979394,0.0003195075,359.50499999979394,4.979439e-05,359.50499999979394,1.611702e-05
359.5199999997939,0.0002421004,359.5199999997939,0.0003024767,359.5199999997939,4.739565e-05,359.5199999997939,1.556208e-05
359.5349999997939,0.0002409772,359.5349999997939,0.0002750645,359.5349999997939,4.580224e-05,359.5349999997939,1.547312e-05
359.5499999997939,0.0003835084,359.5499999997939,0.0002544475,359.5499999997939,3.926345e-05,359.5499999997939,1.495084e-05
359.5649999997939,0.001145248,359.5649999997939,0.0002382869,359.5649999997939,2.35462e-05,359.5649999997939,1.555212e-05
359.57999999979387,0.001605561,359.57999999979387,0.000261214,359.57999999979387,2.640573e-05,359.57999999979387,1.546128e-05
359.59499999979386,0.002007336,359.59499999979386,0.0003088085,359.59499999979386,2.681704e-05,359.59499999979386,1.538913e-05
359.60999999979384,0.002059272,359.60999999979384,0.0003101839,359.60999999979384,2.720815e-05,359.60999999979384,1.549586e-05
359.62499999979383,0.002425876,359.62499999979383,0.0003085735,359.62499999979383,2.69381e-05,359.62499999979383,1.614759e-05
359.6399999997938,0.002738932,359.6399999997938,0.0003134164,359.6399999997938,2.704092e-05,359.6399999997938,1.687448e-05
359.6549999997938,0.002998131,359.6549999997938,0.0003026149,359.6549999997938,2.704405e-05,359.6549999997938,1.800374e-05
359.6699999997938,0.003295876,359.6699999997938,0.0002921072,359.6699999997938,2.842109e-05,359.6699999997938,1.786077e-05
359.6849999997938,0.003465826,359.6849999997938,0.0002818128,359.6849999997938,2.878162e-05,359.6849999997938,1.908764e-05
359.69999999979376,0.003538587,359.69999999979376,0.0002791448,359.69999999979376,2.881097e-05,359.69999999979376,1.956002e-05
359.71499999979375,0.003713715,359.71499999979375,0.0002643591,359.71499999979375,3.052181e-05,359.71499999979375,2.004235e-05
359.72999999979373,0.003778089,359.72999999979373,0.000301302,359.72999999979373,3.090478e-05,359.72999999979373,2.255122e-05
359.7449999997937,0.003824815,359.7449999997937,0.0003567737,359.7449999997937,2.816718e-05,359.7449999997937,2.352286e-05
359.7599999997937,0.003829465,359.7599999997937,0.0003720619,359.7599999997937,3.332854e-05,359.7599999997937,2.468126e-05
359.7749999997937,0.003875979,359.7749999997937,0.0003577107,359.7749999997937,3.503629e-05,359.7749999997937,2.516171e-05
359.7899999997937,0.003968033,359.7899999997937,0.0003483347,359.7899999997937,3.98687e-05,359.7899999997937,2.708361e-05
359.80499999979367,0.004101623,359.80499999979367,0.0003521976,359.80499999979367,4.831493e-05,359.80499999979367,3.129477e-05
359.81999999979365,0.004043308,359.81999999979365,0.0003646873,359.81999999979365,5.14564e-05,359.81999999979365,3.226069e-05
359.83499999979364,0.003893404,359.83499999979364,0.0003608301,359.83499999979364,5.137969e-05,359.83499999979364,3.281571e-05
359.8499999997936,0.003829245,359.8499999997936,0.0003496527,359.8499999997936,5.292391e-05,359.8499999997936,3.249173e-05
359.8649999997936,0.003752749,359.8649999997936,0.0003513957,359.8649999997936,5.53961e-05,359.8649999997936,3.181573e-05
359.8799999997936,0.00348823,359.8799999997936,0.0003530626,359.8799999997936,5.73519e-05,359.8799999997936,3.159001e-05
359.8949999997936,0.003257024,359.8949999997936,0.0003476942,359.8949999997936,5.824828e-05,359.8949999997936,3.123394e-05
359.90999999979357,0.003021083,359.90999999979357,0.0003421397,359.90999999979357,5.894592e-05,359.90999999979357,3.057115e-05
359.92499999979356,0.002723773,359.92499999979356,0.0003405434,359.92499999979356,6.034034e-05,359.92499999979356,3.024548e-05
359.93999999979354,0.002594405,359.93999999979354,0.0003377431,359.93999999979354,6.196184e-05,359.93999999979354,2.932802e-05
359.95499999979353,0.002400576,359.95499999979353,0.0003454524,359.95499999979353,6.242142e-05,359.95499999979353,2.904665e-05
359.9699999997935,0.002264996,359.9699999997935,0.0003564968,359.9699999997935,6.201502e-05,359.9699999997935,2.79775e-05
359.9849999997935,0.002092307,359.9849999997935,0.000317627,359.9849999997935,6.197071e-05,359.9849999997935,2.635447e-05
359.9999999997935,0.00207767,359.9999999997935,0.0002519017,359.9999999997935,6.05859e-05,359.9999999997935,2.499883e-05
360.0149999997935,0.002020856,360.0149999997935,0.0002311683,360.0149999997935,6.293406e-05,360.0149999997935,2.325848e-05
360.02999999979346,0.001954602,360.02999999979346,0.0002324699,360.02999999979346,6.681707e-05,360.02999999979346,2.33093e-05
360.04499999979345,0.001633458,360.04499999979345,0.0002345219,360.04499999979345,6.163976e-05,360.04499999979345,1.952109e-05
360.05999999979343,0.001163194,360.05999999979343,0.0002361576,360.05999999979343,5.94601e-05,360.05999999979343,1.384426e-05
360.0749999997934,0.001098456,360.0749999997934,0.0002427947,360.0749999997934,5.54576e-05,360.0749999997934,1.277861e-05
360.0899999997934,0.0008438423,360.0899999997934,0.000230829,360.0899999997934,5.56098e-05,360.0899999997934,1.209097e-05
360.1049999997934,0.0006970965,360.1049999997934,0.0002290458,360.1049999997934,5.578835e-05,360.1049999997934,1.203141e-05
360.1199999997934,0.0007099876,360.1199999997934,0.0002381179,360.1199999997934,5.322409e-05,360.1199999997934,1.200445e-05
360.13499999979337,0.0006883863,360.13499999979337,0.0002323523,360.13499999979337,5.172372e-05,360.13499999979337,1.225529e-05
360.14999999979335,0.0006699488,360.14999999979335,0.0002564793,360.14999999979335,5.176727e-05,360.14999999979335,1.27455e-05
360.16499999979334,0.0006525916,360.16499999979334,0.0002792505,360.16499999979334,5.479706e-05,360.16499999979334,1.257414e-05
360.1799999997933,0.0006219642,360.1799999997933,0.0002882881,360.1799999997933,5.286452e-05,360.1799999997933,1.316413e-05
360.1949999997933,0.0006122658,360.1949999997933,0.0002877796,360.1949999997933,5.256362e-05,360.1949999997933,1.42583e-05
360.2099999997933,0.0006013418,360.2099999997933,0.0002771913,360.2099999997933,5.553603e-05,360.2099999997933,1.450318e-05
360.2249999997933,0.0005850329,360.2249999997933,0.0002665475,360.2249999997933,5.755492e-05,360.2249999997933,1.422368e-05
360.23999999979327,0.0005715875,360.23999999979327,0.0002598602,360.23999999979327,6.117523e-05,360.23999999979327,1.421674e-05
360.25499999979326,0.0005427951,360.25499999979326,0.0002580473,360.25499999979326,7.09232e-05,360.25499999979326,1.451095e-05
360.26999999979324,0.0005277559,360.26999999979324,0.0002590693,360.26999999979324,7.304104e-05,360.26999999979324,1.501383e-05
360.28499999979323,0.0006160468,360.28499999979323,0.0002585047,360.28499999979323,7.064858e-05,360.28499999979323,1.947775e-05
360.2999999997932,0.000686764,360.2999999997932,0.000258834,360.2999999997932,7.076572e-05,360.2999999997932,2.032016e-05
360.3149999997932,0.0006123619,360.3149999997932,0.0002493552,360.3149999997932,7.544483e-05,360.3149999997932,2.022148e-05
360.3299999997932,0.0007256648,360.3299999997932,0.0002315824,360.3299999997932,7.836834e-05,360.3299999997932,2.315711e-05
360.3449999997932,0.0007246295,360.3449999997932,0.0002304847,360.3449999997932,7.763259e-05,360.3449999997932,2.361073e-05
360.35999999979316,0.0006976402,360.35999999979316,0.0002139723,360.35999999979316,7.720591e-05,360.35999999979316,2.317657e-05
360.37499999979315,0.0006992833,360.37499999979315,0.0001994343,360.37499999979315,7.695443e-05,360.37499999979315,2.362087e-05
360.38999999979313,0.000709048,360.38999999979313,0.0001893751,360.38999999979313,7.653613e-05,360.38999999979313,2.403939e-05
360.4049999997931,0.000711602,360.4049999997931,0.0001607513,360.4049999997931,7.50973e-05,360.4049999997931,2.411661e-05
360.4199999997931,0.0007108276,360.4199999997931,0.0001225378,360.4199999997931,7.262482e-05,360.4199999997931,2.402649e-05
360.4349999997931,0.0007106629,360.4349999997931,0.0001152249,360.4349999997931,7.233815e-05,360.4349999997931,2.364292e-05
360.4499999997931,0.0007110438,360.4499999997931,0.0001237369,360.4499999997931,7.075677e-05,360.4499999997931,2.364411e-05
360.46499999979306,0.0007105911,360.46499999979306,0.0001296999,360.46499999979306,6.742736e-05,360.46499999979306,2.336785e-05
360.47999999979305,0.0007105653,360.47999999979305,0.00014855,360.47999999979305,6.57847e-05,360.47999999979305,2.344548e-05
360.49499999979304,0.0007057209,360.49499999979304,0.0001519503,360.49499999979304,5.730374e-05,360.49499999979304,2.36602e-05
360.509999999793,0.0006983856,360.509999999793,0.0001523702,360.509999999793,4.825863e-05,360.509999999793,2.376712e-05
360.524999999793,0.0006932945,360.524999999793,0.0001517085,360.524999999793,3.932404e-05,360.524999999793,2.362385e-05
360.539999999793,0.0005286263,360.539999999793,0.0001486884,360.539999999793,3.742662e-05,360.539999999793,1.926102e-05
360.554999999793,0.0004808564,360.554999999793,0.0001510425,360.554999999793,3.351441e-05,360.554999999793,1.877137e-05
360.56999999979297,0.0004139521,360.56999999979297,0.0001528095,360.56999999979297,2.234413e-05,360.56999999979297,1.741754e-05
360.58499999979296,0.0002567866,360.58499999979296,0.000153921,360.58499999979296,1.043369e-05,360.58499999979296,1.430761e-05
360.59999999979294,0.0002333604,360.59999999979294,0.000160821,360.59999999979294,5.619817e-06,360.59999999979294,1.456328e-05
360.61499999979293,0.0002519542,360.61499999979293,0.0001706459,360.61499999979293,5.967507e-06,360.61499999979293,1.488852e-05
360.6299999997929,0.0002836906,360.6299999997929,0.0001958683,360.6299999997929,6.282586e-06,360.6299999997929,1.542022e-05
360.6449999997929,0.0003204444,360.6449999997929,0.0001988243,360.6449999997929,6.271365e-06,360.6449999997929,1.681846e-05
360.6599999997929,0.0003283959,360.6599999997929,0.0002024178,360.6599999997929,6.135114e-06,360.6599999997929,1.657718e-05
360.6749999997929,0.000327424,360.6749999997929,0.0002074783,360.6749999997929,6.114414e-06,360.6749999997929,1.718058e-05
360.68999999979286,0.0003253696,360.68999999979286,0.0002160821,360.68999999979286,6.05887e-06,360.68999999979286,1.680505e-05
360.70499999979285,0.0003317913,360.70499999979285,0.0002197064,360.70499999979285,5.943854e-06,360.70499999979285,1.671933e-05
360.71999999979283,0.0003295558,360.71999999979283,0.0002094074,360.71999999979283,5.701935e-06,360.71999999979283,1.673028e-05
360.7349999997928,0.0003289108,360.7349999997928,0.0002255936,360.7349999997928,6.000464e-06,360.7349999997928,1.661453e-05
360.7499999997928,0.0003286754,360.7499999997928,0.0002304415,360.7499999997928,6.040241e-06,360.7499999997928,1.642094e-05
360.7649999997928,0.0003294747,360.7649999997928,0.0002367802,360.7649999997928,6.360578e-06,360.7649999997928,1.572865e-05
360.7799999997928,0.0003273854,360.7799999997928,0.0002505302,360.7799999997928,6.291548e-06,360.7799999997928,1.603026e-05
360.79499999979276,0.0003233773,360.79499999979276,0.0002536178,360.79499999979276,6.13052e-06,360.79499999979276,1.611877e-05
360.80999999979275,0.0003225997,360.80999999979275,0.0002508981,360.80999999979275,6.214957e-06,360.80999999979275,1.601092e-05
360.82499999979274,0.0003185921,360.82499999979274,0.0002514776,360.82499999979274,6.513761e-06,360.82499999979274,1.617286e-05
360.8399999997927,0.0003181642,360.8399999997927,0.0002509285,360.8399999997927,6.384893e-06,360.8399999997927,1.621288e-05
360.8549999997927,0.0003122081,360.8549999997927,0.0002445899,360.8549999997927,6.351713e-06,360.8549999997927,1.578943e-05
360.8699999997927,0.0002450041,360.8699999997927,0.0002403169,360.8699999997927,6.042573e-06,360.8699999997927,1.4281e-05
360.8849999997927,0.0002074909,360.8849999997927,0.0002161705,360.8849999997927,5.988714e-06,360.8849999997927,1.269788e-05
360.89999999979267,0.0001436062,360.89999999979267,0.0002146407,360.89999999979267,6.287069e-06,360.89999999979267,1.134194e-05
360.91499999979266,0.0001304956,360.91499999979266,0.0002223684,360.91499999979266,6.284828e-06,360.91499999979266,1.124715e-05
360.92999999979264,0.0001321043,360.92999999979264,0.0002189083,360.92999999979264,6.318359e-06,360.92999999979264,1.072529e-05
360.9449999997926,0.0001219145,360.9449999997926,0.0002065592,360.9449999997926,6.293787e-06,360.9449999997926,1.059048e-05
360.9599999997926,0.000106111,360.9599999997926,0.000194675,360.9599999997926,6.246608e-06,360.9599999997926,1.056917e-05
360.9749999997926,0.0001081676,360.9749999997926,0.0001857685,360.9749999997926,6.11902e-06,360.9749999997926,1.0462e-05
360.9899999997926,0.0001086332,360.9899999997926,0.0001476572,360.9899999997926,6.072803e-06,360.9899999997926,1.039311e-05
361.0049999997926,0.0001050303,361.0049999997926,0.0001398648,361.0049999997926,5.948592e-06,361.0049999997926,1.019192e-05
361.01999999979256,0.0001036246,361.01999999979256,0.0001266416,361.01999999979256,5.649817e-06,361.01999999979256,1.022917e-05
361.03499999979255,0.0001027069,361.03499999979255,0.0001069784,361.03499999979255,5.838645e-06,361.03499999979255,1.067658e-05
361.04999999979253,8.913632e-05,361.04999999979253,0.0001059843,361.04999999979253,5.855509e-06,361.04999999979253,1.074628e-05
361.0649999997925,8.988182e-05,361.0649999997925,0.0001053382,361.0649999997925,5.807196e-06,361.0649999997925,1.119946e-05
361.0799999997925,9.135132e-05,361.0799999997925,0.0001033383,361.0799999997925,5.516089e-06,361.0799999997925,1.055984e-05
361.0949999997925,8.952204e-05,361.0949999997925,0.0001061723,361.0949999997925,5.326404e-06,361.0949999997925,1.05745e-05
361.1099999997925,9.153664e-05,361.1099999997925,9.713397e-05,361.1099999997925,5.841057e-06,361.1099999997925,1.046604e-05
361.12499999979246,8.511148e-05,361.12499999979246,0.0001031645,361.12499999979246,6.446372e-06,361.12499999979246,1.014204e-05
361.13999999979245,8.641612e-05,361.13999999979245,0.0001111017,361.13999999979245,7.304818e-06,361.13999999979245,1.000641e-05
361.15499999979244,8.215239e-05,361.15499999979244,0.0001094909,361.15499999979244,7.186222e-06,361.15499999979244,1.011979e-05
361.1699999997924,8.281128e-05,361.1699999997924,9.63728e-05,361.1699999997924,7.41962e-06,361.1699999997924,1.002328e-05
361.1849999997924,9.712164e-05,361.1849999997924,9.211912e-05,361.1849999997924,1.343738e-05,361.1849999997924,1.035237e-05
361.1999999997924,0.0001025752,361.1999999997924,9.447929e-05,361.1999999997924,2.202282e-05,361.1999999997924,1.035101e-05
361.2149999997924,9.991641e-05,361.2149999997924,9.411255e-05,361.2149999997924,2.499151e-05,361.2149999997924,1.041883e-05
361.22999999979237,0.000124622,361.22999999979237,8.77959e-05,361.22999999979237,2.53469e-05,361.22999999979237,1.080772e-05
361.24499999979236,0.0001547244,361.24499999979236,8.746959e-05,361.24499999979236,2.664947e-05,361.24499999979236,1.158403e-05
361.25999999979234,0.0001853889,361.25999999979234,8.54829e-05,361.25999999979234,2.774036e-05,361.25999999979234,1.150594e-05
361.2749999997923,0.0001910669,361.2749999997923,8.733759e-05,361.2749999997923,3.234486e-05,361.2749999997923,1.113006e-05
361.2899999997923,0.0001983413,361.2899999997923,8.806137e-05,361.2899999997923,3.546468e-05,361.2899999997923,1.105514e-05
361.3049999997923,0.000213993,361.3049999997923,9.030289e-05,361.3049999997923,3.551192e-05,361.3049999997923,1.134194e-05
361.3199999997923,0.0002169264,361.3199999997923,9.259636e-05,361.3199999997923,3.586558e-05,361.3199999997923,1.12484e-05
361.3349999997923,0.0002221981,361.3349999997923,9.209709e-05,361.3349999997923,3.639427e-05,361.3349999997923,1.259652e-05
361.34999999979226,0.000253059,361.34999999979226,9.073319e-05,361.34999999979226,3.762669e-05,361.34999999979226,1.32569e-05
361.36499999979225,0.0003011557,361.36499999979225,9.335179e-05,361.36499999979225,4.312746e-05,361.36499999979225,1.437342e-05
361.37999999979223,0.0003646257,361.37999999979223,0.0001353609,361.37999999979223,4.46217e-05,361.37999999979223,1.455264e-05
361.3949999997922,0.0004007966,361.3949999997922,0.0001756486,361.3949999997922,4.465831e-05,361.3949999997922,1.590765e-05
361.4099999997922,0.0004233887,361.4099999997922,0.0001939084,361.4099999997922,4.469362e-05,361.4099999997922,1.654401e-05
361.4249999997922,0.0005206296,361.4249999997922,0.0002263818,361.4249999997922,4.463149e-05,361.4249999997922,1.912156e-05
361.4399999997922,0.0005261141,361.4399999997922,0.0002477198,361.4399999997922,4.224102e-05,361.4399999997922,2.075773e-05
361.45499999979216,0.0005511814,361.45499999979216,0.0002587817,361.45499999979216,3.791833e-05,361.45499999979216,2.091121e-05
361.46999999979215,0.0005755907,361.46999999979215,0.0002592147,361.46999999979215,3.874483e-05,361.46999999979215,2.123542e-05
361.48499999979214,0.0005777424,361.48499999979214,0.0002904779,361.48499999979214,3.926381e-05,361.48499999979214,2.150895e-05
361.4999999997921,0.0005799873,361.4999999997921,0.0003040662,361.4999999997921,3.835015e-05,361.4999999997921,2.122613e-05
361.5149999997921,0.0005711908,361.5149999997921,0.0003068642,361.5149999997921,3.667189e-05,361.5149999997921,2.381153e-05
361.5299999997921,0.0006021601,361.5299999997921,0.0003104321,361.5299999997921,3.2574e-05,361.5299999997921,2.52595e-05
361.5449999997921,0.0006158517,361.5449999997921,0.000317313,361.5449999997921,3.053611e-05,361.5449999997921,2.690671e-05
361.55999999979207,0.0006214813,361.55999999979207,0.0003190628,361.55999999979207,3.051303e-05,361.55999999979207,3.27349e-05
361.57499999979206,0.0006214489,361.57499999979206,0.000319705,361.57499999979206,2.968655e-05,361.57499999979206,3.382485e-05
361.58999999979204,0.0006209957,361.58999999979204,0.0003193696,361.58999999979204,2.955053e-05,361.58999999979204,4.129262e-05
361.604999999792,0.0005949571,361.604999999792,0.0003200143,361.604999999792,2.371431e-05,361.604999999792,4.467155e-05
361.619999999792,0.0005806566,361.619999999792,0.0003188756,361.619999999792,1.422169e-05,361.619999999792,4.616709e-05
361.634999999792,0.0005396365,361.634999999792,0.00028378,361.634999999792,1.35418e-05,361.634999999792,4.941956e-05
361.649999999792,0.0005273311,361.649999999792,0.0002708252,361.649999999792,1.303185e-05,361.649999999792,4.96448e-05
361.664999999792,0.000462622,361.664999999792,0.0002616838,361.664999999792,1.478789e-05,361.664999999792,4.962834e-05
361.67999999979196,0.0004506734,361.67999999979196,0.0002459002,361.67999999979196,1.969852e-05,361.67999999979196,4.93785e-05
361.69499999979195,0.0004634817,361.69499999979195,0.0002180669,361.69499999979195,1.970138e-05,361.69499999979195,5.047408e-05
361.70999999979193,0.0004409471,361.70999999979193,0.0002076252,361.70999999979193,1.971282e-05,361.70999999979193,5.053377e-05
361.7249999997919,0.0004050797,361.7249999997919,0.0002075379,361.7249999997919,1.623372e-05,361.7249999997919,5.063987e-05
361.7399999997919,0.0004034484,361.7399999997919,0.0001651864,361.7399999997919,1.608203e-05,361.7399999997919,5.110396e-05
361.7549999997919,0.0003975378,361.7549999997919,0.0001545398,361.7549999997919,1.594921e-05,361.7549999997919,5.219545e-05
361.7699999997919,0.0003816656,361.7699999997919,0.0001471252,361.7699999997919,1.593773e-05,361.7699999997919,5.1721e-05
361.78499999979186,0.0003461526,361.78499999979186,0.0001335135,361.78499999979186,2.385763e-05,361.78499999979186,5.286345e-05
361.79999999979185,0.0003061485,361.79999999979185,0.0001485382,361.79999999979185,2.382986e-05,361.79999999979185,5.111058e-05
361.81499999979184,0.0002997468,361.81499999979184,0.0001635537,361.81499999979184,2.380206e-05,361.81499999979184,4.900451e-05
361.8299999997918,0.0002976647,361.8299999997918,0.0001839615,361.8299999997918,2.379141e-05,361.8299999997918,4.851976e-05
361.8449999997918,0.0002932551,361.8449999997918,0.0001960625,361.8449999997918,2.380798e-05,361.8449999997918,3.939704e-05
361.8599999997918,0.0002891089,361.8599999997918,0.0001964901,361.8599999997918,2.378608e-05,361.8599999997918,3.849643e-05
361.8749999997918,0.000290841,361.8749999997918,0.0001933934,361.8749999997918,2.379733e-05,361.8749999997918,3.641826e-05
361.88999999979177,0.0003066423,361.88999999979177,0.0001928282,361.88999999979177,2.379792e-05,361.88999999979177,3.264657e-05
361.90499999979176,0.0003258126,361.90499999979176,0.0001884189,361.90499999979176,2.379259e-05,361.90499999979176,3.151724e-05
361.91999999979174,0.0003008722,361.91999999979174,0.0001892838,361.91999999979174,1.891416e-05,361.91999999979174,3.15083e-05
361.9349999997917,0.0002422628,361.9349999997917,0.0001879086,361.9349999997917,1.868713e-05,361.9349999997917,2.986019e-05
361.9499999997917,0.0002096853,361.9499999997917,0.000188202,361.9499999997917,1.866073e-05,361.9499999997917,2.797499e-05
361.9649999997917,0.0002062148,361.9649999997917,0.0001832764,361.9649999997917,1.860478e-05,361.9649999997917,2.779869e-05
361.9799999997917,0.0002015348,361.9799999997917,0.00017624,361.9799999997917,1.860327e-05,361.9799999997917,2.770174e-05
361.9949999997917,0.0003109702,361.9949999997917,0.0001778801,361.9949999997917,1.868864e-05,361.9949999997917,2.627042e-05
362.00999999979166,0.0004376934,362.00999999979166,0.0001831044,362.00999999979166,1.885e-05,362.00999999979166,2.561173e-05
362.02499999979165,0.0004459614,362.02499999979165,0.0001854209,362.02499999979165,1.450804e-05,362.02499999979165,2.248303e-05
362.03999999979163,0.0004497739,362.03999999979163,0.0001844096,362.03999999979163,6.472542e-06,362.03999999979163,2.035272e-05
362.0549999997916,0.0004525753,362.0549999997916,0.0001532367,362.0549999997916,7.079578e-06,362.0549999997916,2.000999e-05
362.0699999997916,0.00045416,362.0699999997916,0.0001379985,362.0699999997916,1.461253e-05,362.0699999997916,1.857902e-05
362.0849999997916,0.00047056,362.0849999997916,0.0001183186,362.0849999997916,1.460964e-05,362.0849999997916,2.108764e-05
362.0999999997916,0.0005059349,362.0999999997916,0.0001186955,362.0999999997916,1.458454e-05,362.0999999997916,2.53102e-05
362.11499999979156,0.000507367,362.11499999979156,0.0002379928,362.11499999979156,1.461253e-05,362.11499999979156,2.613063e-05
362.12999999979155,0.000514914,362.12999999979155,0.0003199126,362.12999999979155,1.466737e-05,362.12999999979155,2.801625e-05
362.14499999979154,0.0005033255,362.14499999979154,0.0003724595,362.14499999979154,1.47421e-05,362.14499999979154,3.195622e-05
362.1599999997915,0.0004856632,362.1599999997915,0.0003756649,362.1599999997915,1.474401e-05,362.1599999997915,3.357069e-05
362.1749999997915,0.0004855293,362.1749999997915,0.0003696447,362.1749999997915,1.47421e-05,362.1749999997915,3.6079e-05
362.1899999997915,0.0004857633,362.1899999997915,0.000369706,362.1899999997915,1.462794e-05,362.1899999997915,3.733165e-05
362.2049999997915,0.0004858922,362.2049999997915,0.0003698166,362.2049999997915,1.464238e-05,362.2049999997915,3.917689e-05
362.21999999979147,0.0004860487,362.21999999979147,0.0003700815,362.21999999979147,1.468849e-05,362.21999999979147,3.961882e-05
362.23499999979146,0.000477165,362.23499999979146,0.0003724884,362.23499999979146,1.466545e-05,362.23499999979146,4.020611e-05
362.24999999979144,0.0004008345,362.24999999979144,0.0003716084,362.24999999979144,1.454683e-05,362.24999999979144,4.151614e-05
362.2649999997914,0.0002757258,362.2649999997914,0.0003723652,362.2649999997914,1.43204e-05,362.2649999997914,4.306895e-05
362.2799999997914,0.0002712987,362.2799999997914,0.0003720681,362.2799999997914,1.431745e-05,362.2799999997914,4.346226e-05
362.2949999997914,0.0002603123,362.2949999997914,0.0003726296,362.2949999997914,1.395775e-05,362.2949999997914,4.487292e-05
362.3099999997914,0.0002581767,362.3099999997914,0.0003736337,362.3099999997914,1.412529e-05,362.3099999997914,4.737483e-05
362.3249999997914,0.0002463597,362.3249999997914,0.000374885,362.3249999997914,5.8867e-06,362.3249999997914,4.641479e-05
362.33999999979136,0.0001853443,362.33999999979136,0.0003740806,362.33999999979136,5.860319e-06,362.33999999979136,4.536279e-05
362.35499999979135,0.0001176893,362.35499999979135,0.0003324374,362.35499999979135,5.912964e-06,362.35499999979135,4.542455e-05
362.36999999979133,9.091961e-05,362.36999999979133,0.0002903151,362.36999999979133,5.958057e-06,362.36999999979133,4.580839e-05
362.3849999997913,5.847011e-05,362.3849999997913,0.0001769485,362.3849999997913,5.561867e-06,362.3849999997913,4.431665e-05
362.3999999997913,5.887682e-05,362.3999999997913,0.000113758,362.3999999997913,5.867525e-06,362.3999999997913,4.318654e-05
362.4149999997913,5.691203e-05,362.4149999997913,0.000108443,362.4149999997913,6.047233e-06,362.4149999997913,4.412711e-05
362.4299999997913,5.355601e-05,362.4299999997913,0.0001082503,362.4299999997913,6.079758e-06,362.4299999997913,4.254374e-05
362.44499999979126,5.404589e-05,362.44499999979126,0.0001091627,362.44499999979126,6.114414e-06,362.44499999979126,4.148763e-05
362.45999999979125,5.140272e-05,362.45999999979125,0.0001096734,362.45999999979125,6.061194e-06,362.45999999979125,4.060391e-05
362.47499999979124,4.83502e-05,362.47499999979124,0.0001129498,362.47499999979124,6.079758e-06,362.47499999979124,4.042693e-05
362.4899999997912,4.621984e-05,362.4899999997912,0.0001094456,362.4899999997912,6.269119e-06,362.4899999997912,3.87877e-05
362.5049999997912,4.711782e-05,362.5049999997912,0.0001140703,362.5049999997912,6.280343e-06,362.5049999997912,3.837696e-05
362.5199999997912,4.829364e-05,362.5199999997912,0.0001080631,362.5199999997912,6.457289e-06,362.5199999997912,3.702778e-05
362.5349999997912,4.745446e-05,362.5349999997912,0.0001083942,362.5349999997912,8.747506e-06,362.5349999997912,3.735353e-05
362.54999999979117,4.844915e-05,362.54999999979117,0.0001087531,362.54999999979117,9.910215e-06,362.54999999979117,3.509936e-05
362.56499999979116,4.883952e-05,362.56499999979116,0.0001028747,362.56499999979116,9.935768e-06,362.56499999979116,3.389391e-05
362.57999999979114,4.907373e-05,362.57999999979114,0.0001034409,362.57999999979114,9.908794e-06,362.57999999979114,3.408042e-05
362.5949999997911,4.886028e-05,362.5949999997911,0.0001039881,362.5949999997911,9.925839e-06,362.5949999997911,3.313227e-05
362.6099999997911,4.98402e-05,362.6099999997911,9.647784e-05,362.6099999997911,1.004995e-05,362.6099999997911,3.226419e-05
362.6249999997911,4.959398e-05,362.6249999997911,9.935782e-05,362.6249999997911,1.409934e-05,362.6249999997911,3.225065e-05
362.6399999997911,5.140655e-05,362.6399999997911,9.900459e-05,362.6399999997911,1.508404e-05,362.6399999997911,3.287661e-05
362.6549999997911,5.065795e-05,362.6549999997911,0.0001008288,362.6549999997911,2.205989e-05,362.6549999997911,3.103714e-05
362.66999999979106,5.710156e-05,362.66999999979106,0.0001069989,362.66999999979106,2.573463e-05,362.66999999979106,2.838985e-05
362.68499999979105,6.137157e-05,362.68499999979105,0.0001099143,362.68499999979105,2.586676e-05,362.68499999979105,2.953622e-05
362.69999999979103,6.143741e-05,362.69999999979103,0.0001097802,362.69999999979103,2.759321e-05,362.69999999979103,3.019094e-05
362.714999999791,6.114483e-05,362.714999999791,0.0001109155,362.714999999791,2.772664e-05,362.714999999791,2.965284e-05
362.729999999791,6.096695e-05,362.729999999791,0.0001075611,362.729999999791,2.783009e-05,362.729999999791,2.976521e-05
362.744999999791,6.186264e-05,362.744999999791,0.000110298,362.744999999791,2.828994e-05,362.744999999791,3.271209e-05
362.759999999791,6.094892e-05,362.759999999791,0.0001030753,362.759999999791,3.476749e-05,362.759999999791,3.239664e-05
362.77499999979096,6.054916e-05,362.77499999979096,0.0001036939,362.77499999979096,3.480394e-05,362.77499999979096,3.233484e-05
362.78999999979095,6.022958e-05,362.78999999979095,0.0001050181,362.78999999979095,3.494168e-05,362.78999999979095,3.243445e-05
362.80499999979094,5.976446e-05,362.80499999979094,0.0001052089,362.80499999979094,3.482174e-05,362.80499999979094,3.176566e-05
362.8199999997909,5.769352e-05,362.8199999997909,0.0001058799,362.8199999997909,3.508812e-05,362.8199999997909,3.134874e-05
362.8349999997909,5.813669e-05,362.8349999997909,0.000104641,362.8349999997909,3.520876e-05,362.8349999997909,3.143086e-05
362.8499999997909,5.838331e-05,362.8499999997909,0.0001102672,362.8499999997909,3.521716e-05,362.8499999997909,3.159937e-05
362.8649999997909,5.803119e-05,362.8649999997909,0.0001072751,362.8649999997909,3.520395e-05,362.8649999997909,3.12371e-05
362.87999999979087,5.692292e-05,362.87999999979087,0.0001042356,362.87999999979087,3.341254e-05,362.87999999979087,3.152216e-05
362.89499999979085,5.551675e-05,362.89499999979085,0.0001049883,362.89499999979085,3.276157e-05,362.89499999979085,3.234399e-05
362.90999999979084,5.790361e-05,362.90999999979084,0.0001019763,362.90999999979084,2.858419e-05,362.90999999979084,3.371639e-05
362.9249999997908,4.833825e-05,362.9249999997908,0.0001195496,362.9249999997908,2.623715e-05,362.9249999997908,3.375731e-05
362.9399999997908,4.318817e-05,362.9399999997908,0.0001221488,362.9399999997908,2.565239e-05,362.9399999997908,3.287704e-05
362.9549999997908,4.70553e-05,362.9549999997908,0.0001269332,362.9549999997908,2.442019e-05,362.9549999997908,3.263664e-05
362.9699999997908,5.591899e-05,362.9699999997908,0.0001264062,362.9699999997908,2.431672e-05,362.9699999997908,3.446064e-05
362.9849999997908,7.295246e-05,362.9849999997908,0.0001274294,362.9849999997908,2.420989e-05,362.9849999997908,3.432137e-05
362.99999999979076,7.712796e-05,362.99999999979076,0.0001451557,362.99999999979076,2.129967e-05,362.99999999979076,3.1833e-05
363.01499999979075,7.928385e-05,363.01499999979075,0.0001826114,363.01499999979075,1.378716e-05,363.01499999979075,3.164971e-05
363.02999999979073,8.110714e-05,363.02999999979073,0.0001853855,363.02999999979073,1.360097e-05,363.02999999979073,3.156012e-05
363.0449999997907,9.081931e-05,363.0449999997907,0.0001872761,363.0449999997907,1.150472e-05,363.0449999997907,3.152931e-05
363.0599999997907,9.44532e-05,363.0599999997907,0.0002086358,363.0599999997907,1.076069e-05,363.0599999997907,3.17275e-05
363.0749999997907,9.554766e-05,363.0749999997907,0.0002394918,363.0749999997907,1.002609e-05,363.0749999997907,3.142818e-05
363.0899999997907,9.560528e-05,363.0899999997907,0.0002403535,363.0899999997907,9.749715e-06,363.0899999997907,3.093121e-05
363.10499999979066,9.64181e-05,363.10499999979066,0.0002392374,363.10499999979066,9.72657e-06,363.10499999979066,3.070311e-05
363.11999999979065,9.810268e-05,363.11999999979065,0.00024157,363.11999999979065,9.399558e-06,363.11999999979065,3.02883e-05
363.13499999979064,9.944072e-05,363.13499999979064,0.0002435719,363.13499999979064,9.500919e-06,363.13499999979064,2.93064e-05
363.1499999997906,0.0001022973,363.1499999997906,0.0002434868,363.1499999997906,9.413036e-06,363.1499999997906,2.943685e-05
363.1649999997906,0.0001017308,363.1649999997906,0.0002438555,363.1649999997906,9.184283e-06,363.1649999997906,2.736149e-05
363.1799999997906,0.0001069155,363.1799999997906,0.0002391882,363.1799999997906,8.357139e-06,363.1799999997906,2.8072e-05
363.1949999997906,0.0001082496,363.1949999997906,0.0002372299,363.1949999997906,8.520726e-06,363.1949999997906,2.779109e-05
363.20999999979057,0.0001058175,363.20999999979057,0.0002389874,363.20999999979057,9.08404e-06,363.20999999979057,2.743552e-05
363.22499999979055,0.0001006753,363.22499999979055,0.0002540268,363.22499999979055,9.070073e-06,363.22499999979055,2.50039e-05
363.23999999979054,0.0001067924,363.23999999979054,0.0002766025,363.23999999979054,9.079387e-06,363.23999999979054,2.518242e-05
363.2549999997905,0.0001172655,363.2549999997905,0.0002965255,363.2549999997905,9.185817e-06,363.2549999997905,2.480083e-05
363.2699999997905,0.000116807,363.2699999997905,0.0002873232,363.2699999997905,6.663425e-06,363.2699999997905,2.498023e-05
363.2849999997905,0.0001213925,363.2849999997905,0.0002860409,363.2849999997905,6.74119e-06,363.2849999997905,2.392779e-05
363.2999999997905,0.0001196057,363.2999999997905,0.0002877113,363.2999999997905,6.789081e-06,363.2999999997905,2.496726e-05
363.3149999997905,0.0001180807,363.3149999997905,0.0002827975,363.3149999997905,7.997096e-06,363.3149999997905,2.516507e-05
363.32999999979046,0.0001192234,363.32999999979046,0.0002714063,363.32999999979046,1.305884e-05,363.32999999979046,2.515444e-05
363.34499999979045,0.0001184363,363.34499999979045,0.0002732028,363.34499999979045,1.308255e-05,363.34499999979045,2.497233e-05
363.35999999979043,0.0001210364,363.35999999979043,0.0002776376,363.35999999979043,1.506722e-05,363.35999999979043,2.524276e-05
363.3749999997904,0.0001219677,363.3749999997904,0.0002930562,363.3749999997904,1.819597e-05,363.3749999997904,2.480537e-05
363.3899999997904,0.000122082,363.3899999997904,0.0002929205,363.3899999997904,2.270312e-05,363.3899999997904,2.489607e-05
363.4049999997904,0.0001200579,363.4049999997904,0.0002955042,363.4049999997904,2.282441e-05,363.4049999997904,2.336121e-05
363.4199999997904,0.0001192077,363.4199999997904,0.0002956913,363.4199999997904,2.282132e-05,363.4199999997904,2.280712e-05
363.43499999979036,0.0001183549,363.43499999979036,0.00030901,363.43499999979036,2.288051e-05,363.43499999979036,2.418253e-05
363.44999999979035,0.0001175979,363.44999999979035,0.0003086215,363.44999999979035,2.51813e-05,363.44999999979035,2.493621e-05
363.46499999979034,0.0001174708,363.46499999979034,0.0003610165,363.46499999979034,2.533801e-05,363.46499999979034,2.504106e-05
363.4799999997903,0.0001159057,363.4799999997903,0.0004506616,363.4799999997903,2.636462e-05,363.4799999997903,2.488871e-05
363.4949999997903,9.865309e-05,363.4949999997903,0.0004411145,363.4949999997903,2.633415e-05,363.4949999997903,2.487172e-05
363.5099999997903,8.237602e-05,363.5099999997903,0.0004241463,363.5099999997903,2.630418e-05,363.5099999997903,2.886665e-05
363.5249999997903,8.025757e-05,363.5249999997903,0.0004235311,363.5249999997903,2.651593e-05,363.5249999997903,2.894657e-05
363.53999999979027,8.112295e-05,363.53999999979027,0.0004354517,363.53999999979027,2.90122e-05,363.53999999979027,2.806297e-05
363.55499999979025,8.420111e-05,363.55499999979025,0.0004422879,363.55499999979025,3.082765e-05,363.55499999979025,2.777487e-05
363.56999999979024,8.491895e-05,363.56999999979024,0.0004358056,363.56999999979024,2.978035e-05,363.56999999979024,2.87341e-05
363.5849999997902,8.459701e-05,363.5849999997902,0.0004345471,363.5849999997902,2.883931e-05,363.5849999997902,2.895436e-05
363.5999999997902,8.548834e-05,363.5999999997902,0.0004331266,363.5999999997902,2.886373e-05,363.5999999997902,2.89198e-05
363.6149999997902,7.967678e-05,363.6149999997902,0.0004251397,363.6149999997902,2.79629e-05,363.6149999997902,2.882417e-05
363.6299999997902,7.54409e-05,363.6299999997902,0.0004273693,363.6299999997902,2.280095e-05,363.6299999997902,2.906507e-05
363.6449999997902,7.394326e-05,363.6449999997902,0.0004269014,363.6449999997902,2.499602e-05,363.6449999997902,3.041917e-05
363.65999999979016,7.228555e-05,363.65999999979016,0.0004239366,363.65999999979016,2.517795e-05,363.65999999979016,3.110197e-05
363.67499999979015,6.870551e-05,363.67499999979015,0.0004161441,363.67499999979015,2.517179e-05,363.67499999979015,3.22572e-05
363.68999999979013,6.580289e-05,363.68999999979013,0.0004074759,363.68999999979013,2.363041e-05,363.68999999979013,3.160205e-05
363.7049999997901,6.110289e-05,363.7049999997901,0.0003871301,363.7049999997901,2.459092e-05,363.7049999997901,3.114678e-05
363.7199999997901,6.105376e-05,363.7199999997901,0.0004470134,363.7199999997901,2.518242e-05,363.7199999997901,3.151143e-05
363.7349999997901,6.039914e-05,363.7349999997901,0.0003686812,363.7349999997901,2.685745e-05,363.7349999997901,3.199851e-05
363.7499999997901,5.347599e-05,363.7499999997901,0.0003857494,363.7499999997901,2.720038e-05,363.7499999997901,3.129612e-05
363.76499999979006,5.169184e-05,363.76499999979006,0.0004053146,363.76499999979006,2.72304e-05,363.76499999979006,2.79765e-05
363.77999999979005,5.016671e-05,363.77999999979005,0.0004197936,363.77999999979005,2.707112e-05,363.77999999979005,2.740778e-05
363.79499999979004,4.514396e-05,363.79499999979004,0.0004168873,363.79499999979004,2.243034e-05,363.79499999979004,2.757125e-05
363.80999999979,4.267565e-05,363.80999999979,0.0004317756,363.80999999979,2.221134e-05,363.80999999979,2.812314e-05
363.82499999979,4.689757e-05,363.82499999979,0.0004392692,363.82499999979,2.212747e-05,363.82499999979,2.815768e-05
363.83999999979,5.07574e-05,363.83999999979,0.0004401371,363.83999999979,2.289035e-05,363.83999999979,2.814617e-05
363.85499999979,5.226961e-05,363.85499999979,0.000441314,363.85499999979,2.81041e-05,363.85499999979,3.067189e-05
363.86999999978997,6.350116e-05,363.86999999978997,0.000435909,363.86999999978997,3.10512e-05,363.86999999978997,3.130692e-05
363.88499999978995,6.500752e-05,363.88499999978995,0.0004382888,363.88499999978995,3.114271e-05,363.88499999978995,3.044417e-05
363.89999999978994,6.778201e-05,363.89999999978994,0.0004395341,363.89999999978994,2.897235e-05,363.89999999978994,3.068705e-05
363.9149999997899,7.120785e-05,363.9149999997899,0.0004397718,363.9149999997899,2.893927e-05,363.9149999997899,2.962575e-05
363.9299999997899,7.337911e-05,363.9299999997899,0.0004392165,363.9299999997899,2.983281e-05,363.9299999997899,2.994592e-05
363.9449999997899,7.3625e-05,363.9449999997899,0.0004399449,363.9449999997899,3.214653e-05,363.9449999997899,3.017881e-05
363.9599999997899,7.334724e-05,363.9599999997899,0.0004382633,363.9599999997899,3.158957e-05,363.9599999997899,3.057161e-05
363.9749999997899,7.372136e-05,363.9749999997899,0.0003083172,363.9749999997899,3.024269e-05,363.9749999997899,3.028132e-05
363.98999999978986,7.425674e-05,363.98999999978986,0.0002863022,363.98999999978986,2.891687e-05,363.98999999978986,3.118023e-05
364.00499999978985,7.817108e-05,364.00499999978985,0.0002499572,364.00499999978985,2.859995e-05,364.00499999978985,3.263362e-05
364.01999999978983,8.177446e-05,364.01999999978983,0.0002069806,364.01999999978983,2.963763e-05,364.01999999978983,3.372141e-05
364.0349999997898,8.363491e-05,364.0349999997898,0.0001700129,364.0349999997898,3.127135e-05,364.0349999997898,3.595188e-05
364.0499999997898,8.796533e-05,364.0499999997898,0.000160762,364.0499999997898,3.411058e-05,364.0499999997898,3.559829e-05
364.0649999997898,9.360888e-05,364.0649999997898,0.0001314884,364.0649999997898,3.676205e-05,364.0649999997898,3.681374e-05
364.0799999997898,9.3281e-05,364.0799999997898,0.0001287137,364.0799999997898,3.695353e-05,364.0799999997898,3.990861e-05
364.09499999978976,9.154387e-05,364.09499999978976,0.0001388644,364.09499999978976,3.285561e-05,364.09499999978976,4.026318e-05
364.10999999978975,9.711482e-05,364.10999999978975,0.000139106,364.10999999978975,3.345383e-05,364.10999999978975,3.891244e-05
364.12499999978974,0.0001025075,364.12499999978974,0.0001463286,364.12499999978974,3.40829e-05,364.12499999978974,4.048543e-05
364.1399999997897,0.0001058893,364.1399999997897,0.000170308,364.1399999997897,3.464207e-05,364.1399999997897,4.115422e-05
364.1549999997897,0.0001057526,364.1549999997897,0.0001734327,364.1549999997897,3.473628e-05,364.1549999997897,4.108365e-05
364.1699999997897,0.0001058992,364.1699999997897,0.0001728428,364.1699999997897,3.534851e-05,364.1699999997897,4.042693e-05
364.1849999997897,0.0001067338,364.1849999997897,0.0001733274,364.1849999997897,3.463556e-05,364.1849999997897,4.086948e-05
364.19999999978967,0.0001089592,364.19999999978967,0.00017305,364.19999999978967,3.163947e-05,364.19999999978967,4.152055e-05
364.21499999978965,0.0001108165,364.21499999978965,0.0001738616,364.21499999978965,3.538993e-05,364.21499999978965,4.317871e-05
364.22999999978964,0.0001106361,364.22999999978964,0.0001744148,364.22999999978964,3.684587e-05,364.22999999978964,4.452816e-05
364.2449999997896,0.0001096739,364.2449999997896,0.0001778116,364.2449999997896,4.050804e-05,364.2449999997896,4.552429e-05
364.2599999997896,0.0001088186,364.2599999997896,0.0001780571,364.2599999997896,4.069678e-05,364.2599999997896,4.497608e-05
364.2749999997896,0.0001061471,364.2749999997896,0.0001782308,364.2749999997896,4.092562e-05,364.2749999997896,4.366759e-05
364.2899999997896,0.0001064654,364.2899999997896,0.0001710423,364.2899999997896,3.827773e-05,364.2899999997896,4.431411e-05
364.3049999997896,9.915814e-05,364.3049999997896,0.0001731796,364.3049999997896,3.784507e-05,364.3049999997896,4.483272e-05
364.31999999978956,9.750654e-05,364.31999999978956,0.0001714641,364.31999999978956,3.594483e-05,364.31999999978956,4.166652e-05
364.33499999978955,9.098373e-05,364.33499999978955,0.0001641326,364.33499999978955,3.932224e-05,364.33499999978955,4.214453e-05
364.34999999978953,9.116408e-05,364.34999999978953,0.0001613092,364.34999999978953,4.150427e-05,364.34999999978953,4.23968e-05
364.3649999997895,8.332527e-05,364.3649999997895,0.0001825241,364.3649999997895,4.08781e-05,364.3649999997895,4.198211e-05
364.3799999997895,6.891289e-05,364.3799999997895,0.0001879516,364.3799999997895,3.778808e-05,364.3799999997895,4.05435e-05
364.3949999997895,6.769196e-05,364.3949999997895,0.0001794303,364.3949999997895,3.769141e-05,364.3949999997895,4.048682e-05
364.4099999997895,6.365714e-05,364.4099999997895,0.0002669143,364.4099999997895,3.831377e-05,364.4099999997895,4.007064e-05
364.42499999978946,6.305437e-05,364.42499999978946,0.0003007303,364.42499999978946,3.8169e-05,364.42499999978946,4.023798e-05
364.43999999978945,6.432219e-05,364.43999999978945,0.0003040317,364.43999999978945,3.814243e-05,364.43999999978945,4.025968e-05
364.45499999978944,6.199411e-05,364.45499999978944,0.0003322694,364.45499999978944,3.452312e-05,364.45499999978944,3.880041e-05
364.4699999997894,5.900754e-05,364.4699999997894,0.0003520903,364.4699999997894,3.40796e-05,364.4699999997894,3.655108e-05
364.4849999997894,5.966232e-05,364.4849999997894,0.0003543059,364.4849999997894,3.979124e-05,364.4849999997894,3.720995e-05
364.4999999997894,5.978073e-05,364.4999999997894,0.0003522881,364.4999999997894,3.713833e-05,364.4999999997894,3.627097e-05
364.5149999997894,5.760116e-05,364.5149999997894,0.0003568223,364.5149999997894,3.882582e-05,364.5149999997894,3.595188e-05
364.52999999978937,5.55614e-05,364.52999999978937,0.0003605998,364.52999999978937,3.816532e-05,364.52999999978937,3.71842e-05
364.54499999978935,5.786492e-05,364.54499999978935,0.0003578303,364.54499999978935,3.819041e-05,364.54499999978935,3.667842e-05
364.55999999978934,5.429527e-05,364.55999999978934,0.0003567177,364.55999999978934,3.740629e-05,364.55999999978934,3.533775e-05
364.5749999997893,5.581132e-05,364.5749999997893,0.0003569902,364.5749999997893,3.708405e-05,364.5749999997893,3.841841e-05
364.5899999997893,5.557939e-05,364.5899999997893,0.000357204,364.5899999997893,3.517753e-05,364.5899999997893,3.801146e-05
364.6049999997893,5.585396e-05,364.6049999997893,0.0003527325,364.6049999997893,3.293141e-05,364.6049999997893,3.937308e-05
364.6199999997893,5.676482e-05,364.6199999997893,0.0003393323,364.6199999997893,3.272759e-05,364.6199999997893,4.161849e-05
364.6349999997893,5.6863e-05,364.6349999997893,0.0003315044,364.6349999997893,3.27052e-05,364.6349999997893,4.154565e-05
364.64999999978926,5.781718e-05,364.64999999978926,0.0003125535,364.64999999978926,3.495015e-05,364.64999999978926,4.309282e-05
364.66499999978925,5.855052e-05,364.66499999978925,0.000238848,364.66499999978925,3.513546e-05,364.66499999978925,4.57684e-05
364.67999999978923,5.672286e-05,364.67999999978923,0.0002216922,364.67999999978923,3.547977e-05,364.67999999978923,4.545679e-05
364.6949999997892,5.757865e-05,364.6949999997892,0.0002275899,364.6949999997892,3.64909e-05,364.6949999997892,4.632213e-05
364.7099999997892,5.73492e-05,364.7099999997892,0.000207826,364.7099999997892,3.671834e-05,364.7099999997892,4.733706e-05
364.7249999997892,5.720065e-05,364.7249999997892,0.0001987738,364.7249999997892,3.707873e-05,364.7249999997892,4.672032e-05
364.7399999997892,5.640234e-05,364.7399999997892,0.0002123944,364.7399999997892,2.867718e-05,364.7399999997892,4.729955e-05
364.75499999978916,5.689396e-05,364.75499999978916,0.0002444185,364.75499999978916,3.012228e-05,364.75499999978916,4.752239e-05
364.76999999978915,5.624002e-05,364.76999999978915,0.0002400718,364.76999999978915,3.355138e-05,364.76999999978915,4.716862e-05
364.78499999978914,5.730374e-05,364.78499999978914,0.0002357871,364.78499999978914,3.512022e-05,364.78499999978914,4.530406e-05
364.7999999997891,5.764785e-05,364.7999999997891,0.000246425,364.7999999997891,3.523675e-05,364.7999999997891,4.607668e-05
364.8149999997891,5.681666e-05,364.8149999997891,0.0002664451,364.8149999997891,3.419885e-05,364.8149999997891,4.415297e-05
364.8299999997891,5.567714e-05,364.8299999997891,0.0002789537,364.8299999997891,3.427537e-05,364.8299999997891,4.298645e-05
364.8449999997891,5.651262e-05,364.8449999997891,0.0002774243,364.8449999997891,3.355306e-05,364.8449999997891,4.314738e-05
364.85999999978907,6.010643e-05,364.85999999978907,0.0002934246,364.85999999978907,3.51134e-05,364.85999999978907,4.232298e-05
364.87499999978905,5.934747e-05,364.87499999978905,0.0003096056,364.87499999978905,3.617453e-05,364.87499999978905,3.938989e-05
364.88999999978904,5.786272e-05,364.88999999978904,0.0003096642,364.88999999978904,3.570024e-05,364.88999999978904,4.128921e-05
364.904999999789,5.744345e-05,364.904999999789,0.0003099601,364.904999999789,3.424083e-05,364.904999999789,3.923043e-05
364.919999999789,5.493519e-05,364.919999999789,0.0003080678,364.919999999789,3.319216e-05,364.919999999789,3.743791e-05
364.934999999789,5.568701e-05,364.934999999789,0.0003050485,364.934999999789,3.46026e-05,364.934999999789,3.657034e-05
364.949999999789,5.293375e-05,364.949999999789,0.0003056249,364.949999999789,3.507125e-05,364.949999999789,3.645808e-05
364.964999999789,5.360097e-05,364.964999999789,0.0002784582,364.964999999789,3.553175e-05,364.964999999789,3.527431e-05
364.97999999978896,5.390993e-05,364.97999999978896,0.0002722724,364.97999999978896,3.45321e-05,364.97999999978896,3.863451e-05
364.99499999978894,5.540449e-05,364.99499999978894,0.0002540857,364.99499999978894,3.408745e-05,364.99499999978894,3.623212e-05
365.00999999978893,5.443675e-05,365.00999999978893,0.0002357988,365.00999999978893,3.366078e-05,365.00999999978893,3.622123e-05
365.0249999997889,5.532867e-05,365.0249999997889,0.0002355131,365.0249999997889,2.749502e-05,365.0249999997889,3.571877e-05
365.0399999997889,5.338635e-05,365.0399999997889,0.0002342071,365.0399999997889,2.71309e-05,365.0399999997889,3.617142e-05
365.0549999997889,5.320503e-05,365.0549999997889,0.0002138681,365.0549999997889,2.939854e-05,365.0549999997889,3.560383e-05
365.0699999997889,5.359965e-05,365.0699999997889,0.000189665,365.0699999997889,2.931745e-05,365.0699999997889,3.553967e-05
365.08499999978886,5.499875e-05,365.08499999978886,0.000176796,365.08499999978886,2.870271e-05,365.08499999978886,3.54309e-05
365.09999999978885,5.125067e-05,365.09999999978885,0.0001676106,365.09999999978885,2.874734e-05,365.09999999978885,3.462417e-05
365.11499999978884,5.23886e-05,365.11499999978884,0.000136565,365.11499999978884,2.793972e-05,365.11499999978884,3.4371e-05
365.1299999997888,5.640509e-05,365.1299999997888,8.903781e-05,365.1299999997888,2.708673e-05,365.1299999997888,3.417701e-05
365.1449999997888,5.639784e-05,365.1449999997888,8.179289e-05,365.1449999997888,2.875518e-05,365.1449999997888,3.243879e-05
365.1599999997888,6.027377e-05,365.1599999997888,8.431781e-05,365.1599999997888,3.067741e-05,365.1599999997888,3.248653e-05
365.1749999997888,5.940203e-05,365.1749999997888,8.212375e-05,365.1749999997888,2.984839e-05,365.1749999997888,3.305565e-05
365.18999999978877,6.16089e-05,365.18999999978877,6.494074e-05,365.18999999978877,2.983423e-05,365.18999999978877,3.404982e-05
365.20499999978875,6.242751e-05,365.20499999978875,6.25596e-05,365.20499999978875,2.763606e-05,365.20499999978875,3.39479e-05
365.21999999978874,6.21303e-05,365.21999999978874,6.267321e-05,365.21999999978874,2.72273e-05,365.21999999978874,2.950282e-05
365.2349999997887,6.253685e-05,365.2349999997887,6.322861e-05,365.2349999997887,2.717707e-05,365.2349999997887,2.966376e-05
365.2499999997887,6.200479e-05,365.2499999997887,6.569534e-05,365.2499999997887,2.709713e-05,365.2499999997887,2.879532e-05
365.2649999997887,6.386636e-05,365.2649999997887,6.528408e-05,365.2649999997887,3.226855e-05,365.2649999997887,3.02385e-05
365.2799999997887,6.571056e-05,365.2799999997887,6.725876e-05,365.2799999997887,3.239099e-05,365.2799999997887,3.040806e-05
365.2949999997887,6.542569e-05,365.2949999997887,6.715186e-05,365.2949999997887,3.01349e-05,365.2949999997887,2.96856e-05
365.30999999978866,6.560286e-05,365.30999999978866,6.858054e-05,365.30999999978866,2.970173e-05,365.30999999978866,3.226637e-05
365.32499999978864,6.686491e-05,365.32499999978864,6.688682e-05,365.32499999978864,2.968085e-05,365.32499999978864,3.183919e-05
365.33999999978863,6.635864e-05,365.33999999978863,6.514518e-05,365.33999999978863,3.298526e-05,365.33999999978863,3.185467e-05
365.3549999997886,6.974616e-05,365.3549999997886,6.588676e-05,365.3549999997886,3.411884e-05,365.3549999997886,3.307397e-05
365.3699999997886,6.962224e-05,365.3699999997886,6.875696e-05,365.3699999997886,3.450966e-05,365.3699999997886,3.254674e-05
365.3849999997886,6.894703e-05,365.3849999997886,6.906236e-05,365.3849999997886,3.335389e-05,365.3849999997886,3.381027e-05
365.3999999997886,7.050867e-05,365.3999999997886,7.44812e-05,365.3999999997886,3.275512e-05,365.3999999997886,3.501981e-05
365.41499999978856,6.847817e-05,365.41499999978856,7.484665e-05,365.41499999978856,3.09799e-05,365.41499999978856,3.430208e-05
365.42999999978855,6.767801e-05,365.42999999978855,7.522811e-05,365.42999999978855,3.030783e-05,365.42999999978855,3.383568e-05
365.44499999978854,6.774146e-05,365.44499999978854,7.515636e-05,365.44499999978854,3.032456e-05,365.44499999978854,3.37961e-05
365.4599999997885,6.790907e-05,365.4599999997885,6.706602e-05,365.4599999997885,3.291771e-05,365.4599999997885,3.333488e-05
365.4749999997885,7.068447e-05,365.4749999997885,6.976353e-05,365.4749999997885,3.313269e-05,365.4749999997885,3.313227e-05
365.4899999997885,7.025388e-05,365.4899999997885,6.913739e-05,365.4899999997885,3.394707e-05,365.4899999997885,3.45692e-05
365.5049999997885,7.233446e-05,365.5049999997885,6.867434e-05,365.5049999997885,3.312886e-05,365.5049999997885,3.517793e-05
365.51999999978847,7.169383e-05,365.51999999978847,7.391258e-05,365.51999999978847,2.766459e-05,365.51999999978847,3.550279e-05
365.53499999978845,7.083039e-05,365.53499999978845,7.81646e-05,365.53499999978845,2.770682e-05,365.53499999978845,3.552976e-05
365.54999999978844,7.068087e-05,365.54999999978844,7.734791e-05,365.54999999978844,3.206096e-05,365.54999999978844,3.541102e-05
365.5649999997884,6.912679e-05,365.5649999997884,8.120383e-05,365.5649999997884,3.340622e-05,365.5649999997884,3.34976e-05
365.5799999997884,6.878584e-05,365.5799999997884,8.613807e-05,365.5799999997884,3.339061e-05,365.5799999997884,3.355432e-05
365.5949999997884,6.994119e-05,365.5949999997884,8.479311e-05,365.5949999997884,2.860291e-05,365.5949999997884,3.510056e-05
365.6099999997884,6.674197e-05,365.6099999997884,8.550334e-05,365.6099999997884,2.812514e-05,365.6099999997884,3.404817e-05
365.6249999997884,6.7924e-05,365.6249999997884,8.312029e-05,365.6249999997884,2.877917e-05,365.6249999997884,3.332093e-05
365.63999999978836,6.740668e-05,365.63999999978836,8.952425e-05,365.63999999978836,2.890615e-05,365.63999999978836,3.179314e-05
365.65499999978834,6.905604e-05,365.65499999978834,8.556921e-05,365.65499999978834,3.322058e-05,365.65499999978834,3.193726e-05
365.66999999978833,6.911314e-05,365.66999999978833,8.609341e-05,365.66999999978833,3.446759e-05,365.66999999978833,3.183388e-05
365.6849999997883,6.7766e-05,365.6849999997883,8.86128e-05,365.6849999997883,3.446432e-05,365.6849999997883,3.15628e-05
365.6999999997883,6.742423e-05,365.6999999997883,8.882889e-05,365.6999999997883,3.348077e-05,365.6999999997883,3.129702e-05
365.7149999997883,6.580482e-05,365.7149999997883,9.046981e-05,365.7149999997883,3.184494e-05,365.7149999997883,3.145864e-05
365.7299999997883,6.16754e-05,365.7299999997883,8.739064e-05,365.7299999997883,3.152305e-05,365.7299999997883,3.041037e-05
365.74499999978826,6.013034e-05,365.74499999978826,8.708481e-05,365.74499999978826,3.092528e-05,365.74499999978826,2.918985e-05
365.75999999978825,5.950439e-05,365.75999999978825,8.560739e-05,365.75999999978825,3.500532e-05,365.75999999978825,2.91164e-05
365.77499999978824,5.970032e-05,365.77499999978824,8.068941e-05,365.77499999978824,3.585772e-05,365.77499999978824,2.780275e-05
365.7899999997882,5.929689e-05,365.7899999997882,8.095399e-05,365.7899999997882,3.572469e-05,365.7899999997882,2.796995e-05
365.8049999997882,5.935245e-05,365.8049999997882,8.192848e-05,365.8049999997882,3.181839e-05,365.8049999997882,2.716929e-05
365.8199999997882,5.847035e-05,365.8199999997882,8.182474e-05,365.8199999997882,2.999105e-05,365.8199999997882,2.729602e-05
365.8349999997882,5.951244e-05,365.8349999997882,8.377392e-05,365.8349999997882,3.600161e-05,365.8349999997882,2.640413e-05
365.84999999978817,5.745399e-05,365.84999999978817,8.797798e-05,365.84999999978817,3.859182e-05,365.84999999978817,2.691613e-05
365.86499999978815,5.588598e-05,365.86499999978815,9.151725e-05,365.86499999978815,3.849643e-05,365.86499999978815,2.639933e-05
365.87999999978814,5.387333e-05,365.87999999978814,0.0001053465,365.87999999978814,3.807552e-05,365.87999999978814,2.854622e-05
365.8949999997881,5.311149e-05,365.8949999997881,0.0001169695,365.8949999997881,3.491143e-05,365.8949999997881,2.863835e-05
365.9099999997881,6.779738e-05,365.9099999997881,0.0001316367,365.9099999997881,3.598869e-05,365.9099999997881,2.859355e-05
365.9249999997881,7.553216e-05,365.9249999997881,0.0001548033,365.9249999997881,3.609149e-05,365.9249999997881,3.095806e-05
365.9399999997881,0.0001191615,365.9399999997881,0.0002431618,365.9399999997881,3.930397e-05,365.9399999997881,3.186529e-05
365.9549999997881,0.0001269463,365.9549999997881,0.0002642557,365.9549999997881,3.933048e-05,365.9549999997881,3.186573e-05
365.96999999978806,0.0001297234,365.96999999978806,0.0002655211,365.96999999978806,3.935555e-05,365.96999999978806,3.204954e-05
365.98499999978804,0.0001318204,365.98499999978804,0.0002712398,365.98499999978804,3.977956e-05,365.98499999978804,3.224847e-05
365.99999999978803,0.000140074,365.99999999978803,0.000272461,365.99999999978803,3.979549e-05,365.99999999978803,3.309909e-05
366.014999999788,0.0001402084,366.014999999788,0.0002722831,366.014999999788,4.109839e-05,366.014999999788,3.274652e-05
366.029999999788,0.0001400511,366.029999999788,0.0002721148,366.029999999788,4.086638e-05,366.029999999788,3.328878e-05
366.044999999788,0.0001418348,366.044999999788,0.0002719,366.044999999788,4.080946e-05,366.044999999788,3.426592e-05
366.059999999788,0.0001422285,366.059999999788,0.000273371,366.059999999788,4.078529e-05,366.059999999788,3.525394e-05
366.07499999978796,0.000141755,366.07499999978796,0.0002726892,366.07499999978796,3.985421e-05,366.07499999978796,3.530903e-05
366.08999999978795,0.0001418325,366.08999999978795,0.0002714588,366.08999999978795,3.499083e-05,366.08999999978795,3.54472e-05
366.10499999978794,0.000141814,366.10499999978794,0.0002760334,366.10499999978794,3.372475e-05,366.10499999978794,3.541897e-05
366.1199999997879,0.0001419341,366.1199999997879,0.000282711,366.1199999997879,3.500653e-05,366.1199999997879,3.518634e-05
366.1349999997879,0.0001419721,366.1349999997879,0.0002761591,366.1349999997879,3.486177e-05,366.1349999997879,3.401174e-05
366.1499999997879,0.0001398869,366.1499999997879,0.0002677997,366.1499999997879,3.439722e-05,366.1499999997879,3.385773e-05
366.1649999997879,0.0001322076,366.1649999997879,0.0002528771,366.1649999997879,3.274437e-05,366.1649999997879,3.376858e-05
366.17999999978787,0.0001248672,366.17999999978787,0.0002265287,366.17999999978787,3.041501e-05,366.17999999978787,3.00042e-05
366.19499999978785,8.369553e-05,366.19499999978785,0.0001485102,366.19499999978785,3.182459e-05,366.19499999978785,3.108249e-05
366.20999999978784,7.88134e-05,366.20999999978784,0.0001340598,366.20999999978784,3.358034e-05,366.20999999978784,3.126099e-05
366.2249999997878,7.586322e-05,366.2249999997878,0.0001344357,366.2249999997878,3.361095e-05,366.2249999997878,3.047978e-05
366.2399999997878,7.29148e-05,366.2399999997878,0.0001266905,366.2399999997878,3.369843e-05,366.2399999997878,3.239316e-05
366.2549999997878,6.211828e-05,366.2549999997878,0.0001271958,366.2549999997878,3.223143e-05,366.2549999997878,3.154628e-05
366.2699999997878,6.17432e-05,366.2699999997878,0.000129171,366.2699999997878,2.723971e-05,366.2699999997878,3.20148e-05
366.2849999997878,6.134126e-05,366.2849999997878,0.0001296226,366.2849999997878,2.889202e-05,366.2849999997878,3.108294e-05
366.29999999978776,6.113147e-05,366.29999999978776,0.000126207,366.29999999978776,2.915073e-05,366.29999999978776,3.029574e-05
366.31499999978774,6.113193e-05,366.31499999978774,0.0001231526,366.31499999978774,2.924818e-05,366.31499999978774,3.030922e-05
366.32999999978773,6.20241e-05,366.32999999978773,0.0001230657,366.32999999978773,2.923951e-05,366.32999999978773,3.122267e-05
366.3449999997877,6.080546e-05,366.3449999997877,0.0001175911,366.3449999997877,2.822913e-05,366.3449999997877,3.06976e-05
366.3599999997877,6.038235e-05,366.3599999997877,9.78741e-05,366.3599999997877,3.239273e-05,366.3599999997877,2.99158e-05
366.3749999997877,6.258616e-05,366.3749999997877,7.821091e-05,366.3749999997877,3.29237e-05,366.3749999997877,3.077826e-05
366.3899999997877,6.262891e-05,366.3899999997877,7.633543e-05,366.3899999997877,3.307312e-05,366.3899999997877,3.088608e-05
366.40499999978766,5.919726e-05,366.40499999978766,7.391849e-05,366.40499999978766,3.297458e-05,366.40499999978766,3.140575e-05
366.41999999978765,5.901829e-05,366.41999999978765,7.273142e-05,366.41999999978765,3.26103e-05,366.41999999978765,3.229473e-05
366.43499999978764,5.733692e-05,366.43499999978764,7.139002e-05,366.43499999978764,3.128442e-05,366.43499999978764,3.302452e-05
366.4499999997876,5.668485e-05,366.4499999997876,7.83412e-05,366.4499999997876,2.622641e-05,366.4499999997876,3.253938e-05
366.4649999997876,5.690238e-05,366.4649999997876,8.623221e-05,366.4649999997876,2.672442e-05,366.4649999997876,3.271941e-05
366.4799999997876,5.818222e-05,366.4799999997876,8.261934e-05,366.4799999997876,2.658437e-05,366.4799999997876,3.406926e-05
366.4949999997876,5.511516e-05,366.4949999997876,0.0001013844,366.4949999997876,2.597057e-05,366.4949999997876,3.241968e-05
366.50999999978757,5.036848e-05,366.50999999978757,0.000102645,366.50999999978757,2.705447e-05,366.50999999978757,3.347362e-05
366.52499999978755,5.063208e-05,366.52499999978755,0.0001018026,366.52499999978755,2.700443e-05,366.52499999978755,3.406885e-05
366.53999999978754,4.836185e-05,366.53999999978754,0.0001050565,366.53999999978754,2.881733e-05,366.53999999978754,3.454474e-05
366.5549999997875,4.647424e-05,366.5549999997875,0.0001078077,366.5549999997875,2.882563e-05,366.5549999997875,3.45692e-05
366.5699999997875,4.662645e-05,366.5699999997875,0.0001133654,366.5699999997875,2.875371e-05,366.5699999997875,3.427866e-05
366.5849999997875,4.790001e-05,366.5849999997875,0.0001144038,366.5849999997875,2.87826e-05,366.5849999997875,3.506282e-05
366.5999999997875,4.678028e-05,366.5999999997875,0.0001154023,366.5999999997875,2.822114e-05,366.5999999997875,3.649052e-05
366.61499999978747,4.694771e-05,366.61499999978747,0.0001153359,366.61499999978747,2.339616e-05,366.61499999978747,3.596559e-05
366.62999999978746,4.550572e-05,366.62999999978746,0.0001148886,366.62999999978746,2.334553e-05,366.62999999978746,3.647121e-05
366.64499999978744,4.473773e-05,366.64499999978744,0.0001237428,366.64499999978744,2.516619e-05,366.64499999978744,3.642212e-05
366.65999999978743,4.563926e-05,366.65999999978743,0.0001336274,366.65999999978743,2.553075e-05,366.65999999978743,3.773623e-05
366.6749999997874,4.535316e-05,366.6749999997874,0.0001352443,366.6749999997874,2.556218e-05,366.6749999997874,3.663576e-05
366.6899999997874,4.529753e-05,366.6899999997874,0.0001423536,366.6899999997874,2.547441e-05,366.6899999997874,3.604189e-05
366.7049999997874,4.815226e-05,366.7049999997874,0.0001426995,366.7049999997874,2.498249e-05,366.7049999997874,3.611256e-05
366.7199999997874,4.672725e-05,366.7199999997874,0.000141619,366.7199999997874,2.434856e-05,366.7199999997874,3.605713e-05
366.73499999978736,4.714891e-05,366.73499999978736,0.0001424477,366.73499999978736,2.672917e-05,366.73499999978736,3.572272e-05
366.74999999978735,5.075518e-05,366.74999999978735,0.0001306169,366.74999999978735,2.774696e-05,366.74999999978735,3.658074e-05
366.76499999978734,5.273753e-05,366.76499999978734,0.0001284903,366.76499999978734,2.578494e-05,366.76499999978734,3.643566e-05
366.7799999997873,5.76366e-05,366.7799999997873,0.0001290321,366.7799999997873,2.48065e-05,366.7799999997873,3.699886e-05
366.7949999997873,5.973782e-05,366.7949999997873,0.0001269678,366.7949999997873,2.240457e-05,366.7949999997873,4.106548e-05
366.8099999997873,6.151784e-05,366.8099999997873,0.0001225249,366.8099999997873,2.73867e-05,366.8099999997873,4.121784e-05
366.8249999997873,6.015493e-05,366.8249999997873,0.0001167865,366.8249999997873,2.767274e-05,366.8249999997873,4.09122e-05
366.83999999978727,6.144062e-05,366.83999999978727,0.0001168876,366.83999999978727,2.796945e-05,366.83999999978727,3.956189e-05
366.85499999978725,6.144474e-05,366.85499999978725,0.0001178114,366.85499999978725,2.669384e-05,366.85499999978725,4.106273e-05
366.86999999978724,6.128589e-05,366.86999999978724,0.0001178283,366.86999999978724,2.680075e-05,366.86999999978724,4.176547e-05
366.8849999997872,6.087168e-05,366.8849999997872,0.0001169619,366.8849999997872,2.582316e-05,366.8849999997872,4.149782e-05
366.8999999997872,6.035201e-05,366.8999999997872,0.0001017645,366.8999999997872,2.632934e-05,366.8999999997872,4.183893e-05
366.9149999997872,6.41777e-05,366.9149999997872,9.826939e-05,366.9149999997872,2.983329e-05,366.9149999997872,4.156532e-05
366.9299999997872,6.375201e-05,366.9299999997872,9.471056e-05,366.9299999997872,3.006798e-05,366.9299999997872,4.217427e-05
366.94499999978717,6.787193e-05,366.94499999978717,8.124406e-05,366.94499999978717,3.022359e-05,366.94499999978717,4.297236e-05
366.95999999978716,6.813314e-05,366.95999999978716,7.277053e-05,366.95999999978716,3.019467e-05,366.95999999978716,4.391592e-05
366.97499999978714,7.147008e-05,366.97499999978714,6.719213e-05,366.97499999978714,3.027388e-05,366.97499999978714,4.372433e-05
366.98999999978713,7.136179e-05,366.98999999978713,6.541966e-05,366.98999999978713,3.260555e-05,366.98999999978713,4.223469e-05
367.0049999997871,6.918525e-05,367.0049999997871,6.512226e-05,367.0049999997871,3.195093e-05,367.0049999997871,4.290838e-05
367.0199999997871,6.780175e-05,367.0199999997871,6.555582e-05,367.0199999997871,3.225371e-05,367.0199999997871,4.199654e-05
367.0349999997871,6.460038e-05,367.0349999997871,7.717105e-05,367.0349999997871,3.215047e-05,367.0349999997871,4.127931e-05
367.0499999997871,6.400671e-05,367.0499999997871,8.37529e-05,367.0499999997871,3.113004e-05,367.0499999997871,3.694514e-05
367.06499999978706,6.384783e-05,367.06499999978706,9.105755e-05,367.06499999978706,2.970789e-05,367.06499999978706,3.728143e-05
367.07999999978705,6.427705e-05,367.07999999978705,0.0001095788,367.07999999978705,3.000326e-05,367.07999999978705,3.702626e-05
367.09499999978703,6.457703e-05,367.09499999978703,0.0001116635,367.09499999978703,3.322186e-05,367.09499999978703,3.645228e-05
367.109999999787,6.4735e-05,367.109999999787,0.0001175214,367.109999999787,3.340031e-05,367.109999999787,3.436362e-05
367.124999999787,6.587029e-05,367.124999999787,0.0001176251,367.124999999787,3.289032e-05,367.124999999787,3.437428e-05
367.139999999787,6.595386e-05,367.139999999787,0.0001194157,367.139999999787,3.223405e-05,367.139999999787,3.478248e-05
367.154999999787,6.668412e-05,367.154999999787,0.0001191364,367.154999999787,3.035984e-05,367.154999999787,3.412049e-05
367.16999999978697,6.774376e-05,367.16999999978697,0.0001203664,367.16999999978697,2.887056e-05,367.16999999978697,3.354928e-05
367.18499999978695,6.655259e-05,367.18499999978695,0.00012317,367.18499999978695,2.831881e-05,367.18499999978695,3.305096e-05
367.19999999978694,6.863269e-05,367.19999999978694,0.000122901,367.19999999978694,3.673905e-05,367.19999999978694,3.251426e-05
367.2149999997869,6.484849e-05,367.2149999997869,0.0001279212,367.2149999997869,3.687186e-05,367.2149999997869,3.198222e-05
367.2299999997869,6.2926e-05,367.2299999997869,0.0001280921,367.2299999997869,3.702208e-05,367.2299999997869,3.2262e-05
367.2449999997869,6.313095e-05,367.2449999997869,0.0001312848,367.2449999997869,3.318707e-05,367.2449999997869,3.272673e-05
367.2599999997869,6.382554e-05,367.2599999997869,0.0001322794,367.2599999997869,3.318919e-05,367.2599999997869,3.230346e-05
367.27499999978687,6.629599e-05,367.27499999978687,0.0001283144,367.27499999978687,3.559908e-05,367.27499999978687,3.283931e-05
367.28999999978686,6.649245e-05,367.28999999978686,0.0001227521,367.28999999978686,3.896634e-05,367.28999999978686,3.265649e-05
367.30499999978684,6.592544e-05,367.30499999978684,0.0001192531,367.30499999978684,3.866075e-05,367.30499999978684,3.29844e-05
367.31999999978683,6.292242e-05,367.31999999978683,0.0001242653,367.31999999978683,3.802147e-05,367.31999999978683,3.369257e-05
367.3349999997868,6.340637e-05,367.3349999997868,0.0001144587,367.3349999997868,3.734712e-05,367.3349999997868,3.27108e-05
367.3499999997868,6.334636e-05,367.3499999997868,0.0001233127,367.3499999997868,3.422067e-05,367.3499999997868,3.24657e-05
367.3649999997868,6.325734e-05,367.3649999997868,0.0001247055,367.3649999997868,3.411843e-05,367.3649999997868,3.195975e-05
367.3799999997868,6.351913e-05,367.3799999997868,0.0001258592,367.3799999997868,3.414649e-05,367.3799999997868,3.372099e-05
367.39499999978676,6.299626e-05,367.39499999978676,0.0001296345,367.39499999978676,3.631018e-05,367.39499999978676,3.199939e-05
367.40999999978675,6.194842e-05,367.40999999978675,0.0001306723,367.40999999978675,3.851802e-05,367.40999999978675,3.19024e-05
367.42499999978673,6.203409e-05,367.42499999978673,0.0001250831,367.42499999978673,3.951736e-05,367.42499999978673,3.162478e-05
367.4399999997867,6.340637e-05,367.4399999997867,0.0001232246,367.4399999997867,3.90768e-05,367.4399999997867,3.166795e-05
367.4549999997867,6.498476e-05,367.4549999997867,0.0001209058,367.4549999997867,3.170174e-05,367.4549999997867,3.182414e-05
367.4699999997867,6.998609e-05,367.4699999997867,0.0001147335,367.4699999997867,3.152439e-05,367.4699999997867,3.115221e-05
367.4849999997867,7.110075e-05,367.4849999997867,0.0001160761,367.4849999997867,3.416794e-05,367.4849999997867,3.213732e-05
367.49999999978667,7.246345e-05,367.49999999978667,0.0001125857,367.49999999978667,3.854324e-05,367.49999999978667,3.097853e-05
367.51499999978665,7.423454e-05,367.51499999978665,0.0001200954,367.51499999978665,3.852204e-05,367.51499999978665,3.090842e-05
367.52999999978664,7.455057e-05,367.52999999978664,0.0001210588,367.52999999978664,3.452149e-05,367.52999999978664,3.020027e-05
367.5449999997866,7.598141e-05,367.5449999997866,0.000123645,367.5449999997866,3.251816e-05,367.5449999997866,3.009327e-05
367.5599999997866,7.59445e-05,367.5599999997866,0.0001227917,367.5599999997866,3.238707e-05,367.5599999997866,3.013256e-05
367.5749999997866,8.14235e-05,367.5749999997866,0.0001078334,367.5749999997866,3.414278e-05,367.5749999997866,2.884371e-05
367.5899999997866,8.382671e-05,367.5899999997866,0.0001037327,367.5899999997866,3.689096e-05,367.5899999997866,2.898597e-05
367.60499999978657,8.546807e-05,367.60499999978657,8.691171e-05,367.60499999978657,3.733655e-05,367.60499999978657,3.010871e-05
367.61999999978656,9.061822e-05,367.61999999978656,8.0994e-05,367.61999999978656,3.79447e-05,367.61999999978656,2.937458e-05
367.63499999978654,9.276553e-05,367.63499999978654,7.716301e-05,367.63499999978654,3.734787e-05,367.63499999978654,2.897381e-05
367.64999999978653,9.687024e-05,367.64999999978653,7.082164e-05,367.64999999978653,3.609227e-05,367.64999999978653,2.944546e-05
367.6649999997865,0.0001013066,367.6649999997865,6.812136e-05,367.6649999997865,3.23344e-05,367.6649999997865,2.965141e-05
367.6799999997865,0.0001012703,367.6799999997865,7.026891e-05,367.6799999997865,3.200335e-05,367.6799999997865,2.947272e-05
367.6949999997865,0.000101591,367.6949999997865,7.12035e-05,367.6949999997865,3.358663e-05,367.6949999997865,2.910334e-05
367.7099999997865,9.51067e-05,367.7099999997865,7.329383e-05,367.7099999997865,3.65557e-05,367.7099999997865,2.996567e-05
367.72499999978646,9.501928e-05,367.72499999978646,7.310158e-05,367.72499999978646,3.662615e-05,367.72499999978646,2.985453e-05
367.73999999978645,9.428048e-05,367.73999999978645,0.0001001803,367.73999999978645,3.352702e-05,367.73999999978645,2.94134e-05
367.75499999978643,9.402779e-05,367.75499999978643,0.0001016896,367.75499999978643,2.879287e-05,367.75499999978643,2.929871e-05
367.7699999997864,9.485205e-05,367.7699999997864,0.0001005766,367.7699999997864,3.011058e-05,367.7699999997864,2.920673e-05
367.7849999997864,9.537397e-05,367.7849999997864,9.810325e-05,367.7849999997864,3.359627e-05,367.7849999997864,2.916426e-05
367.7999999997864,9.46445e-05,367.7999999997864,9.700801e-05,367.7999999997864,3.724627e-05,367.7999999997864,2.880852e-05
367.8149999997864,9.522438e-05,367.8149999997864,9.694511e-05,367.8149999997864,3.64743e-05,367.8149999997864,2.888324e-05
367.82999999978637,9.198475e-05,367.82999999978637,9.817474e-05,367.82999999978637,3.362226e-05,367.82999999978637,2.91193e-05
367.84499999978635,8.823268e-05,367.84499999978635,9.806045e-05,367.84499999978635,3.368672e-05,367.84499999978635,2.856743e-05
367.85999999978634,8.689502e-05,367.85999999978634,9.854066e-05,367.85999999978634,3.430454e-05,367.85999999978634,2.823262e-05
367.8749999997863,8.25052e-05,367.8749999997863,9.874102e-05,367.8749999997863,3.436075e-05,367.8749999997863,2.874342e-05
367.8899999997863,7.757632e-05,367.8899999997863,9.897229e-05,367.8899999997863,3.583021e-05,367.8899999997863,2.825756e-05
367.9049999997863,7.579467e-05,367.9049999997863,0.0001028483,367.9049999997863,3.79729e-05,367.9049999997863,2.801021e-05
367.9199999997863,6.791115e-05,367.9199999997863,0.0001022363,367.9199999997863,3.869389e-05,367.9199999997863,2.910285e-05
367.93499999978627,6.785595e-05,367.93499999978627,0.0001020006,367.93499999978627,3.898658e-05,367.93499999978627,2.908542e-05
367.94999999978626,6.59671e-05,367.94999999978626,0.0001017751,367.94999999978626,3.642135e-05,367.94999999978626,2.878211e-05
367.96499999978624,6.661098e-05,367.96499999978624,0.000106198,367.96499999978624,3.628845e-05,367.96499999978624,2.7718e-05
367.97999999978623,6.712836e-05,367.97999999978623,0.0001048468,367.97999999978623,3.639156e-05,367.97999999978623,2.692241e-05
367.9949999997862,6.463155e-05,367.9949999997862,7.901386e-05,367.9949999997862,3.767309e-05,367.9949999997862,2.703467e-05
368.0099999997862,6.22173e-05,368.0099999997862,7.22493e-05,368.0099999997862,3.777317e-05,368.0099999997862,2.709245e-05
368.0249999997862,5.952403e-05,368.0249999997862,6.752006e-05,368.0249999997862,3.681872e-05,368.0249999997862,2.876497e-05
368.0399999997862,5.832997e-05,368.0399999997862,6.92054e-05,368.0399999997862,3.391219e-05,368.0399999997862,2.862752e-05
368.05499999978616,5.54736e-05,368.05499999978616,7.236229e-05,368.05499999978616,3.228034e-05,368.05499999978616,2.883443e-05
368.06999999978615,5.374584e-05,368.06999999978615,7.219196e-05,368.06999999978615,3.328328e-05,368.06999999978615,2.865802e-05
368.08499999978613,5.26798e-05,368.08499999978613,7.42757e-05,368.08499999978613,3.370303e-05,368.08499999978613,2.980352e-05
368.0999999997861,5.35418e-05,368.0999999997861,8.265088e-05,368.0999999997861,3.214171e-05,368.0999999997861,2.950664e-05
368.1149999997861,5.326748e-05,368.1149999997861,8.301465e-05,368.1149999997861,3.172484e-05,368.1149999997861,2.857581e-05
368.1299999997861,5.317007e-05,368.1299999997861,8.398402e-05,368.1299999997861,3.169596e-05,368.1299999997861,3.048532e-05
368.1449999997861,5.137037e-05,368.1449999997861,8.200943e-05,368.1449999997861,3.32333e-05,368.1449999997861,2.99746e-05
368.15999999978607,4.89884e-05,368.15999999978607,7.822567e-05,368.15999999978607,3.108521e-05,368.15999999978607,2.924674e-05
368.17499999978605,4.855023e-05,368.17499999978605,7.819379e-05,368.17499999978605,3.040018e-05,368.17499999978605,2.990073e-05
368.18999999978604,4.886143e-05,368.18999999978604,7.865004e-05,368.18999999978604,3.029388e-05,368.18999999978604,3.017928e-05
368.204999999786,5.122043e-05,368.204999999786,8.045899e-05,368.204999999786,3.03436e-05,368.204999999786,2.929198e-05
368.219999999786,4.897287e-05,368.219999999786,7.374047e-05,368.219999999786,3.034917e-05,368.219999999786,2.89563e-05
368.234999999786,4.773769e-05,368.234999999786,7.382104e-05,368.234999999786,3.617375e-05,368.234999999786,2.886812e-05
368.249999999786,4.664971e-05,368.249999999786,7.361294e-05,368.249999999786,3.80122e-05,368.249999999786,2.944642e-05
368.26499999978597,4.596741e-05,368.26499999978597,7.161854e-05,368.26499999978597,3.795286e-05,368.26499999978597,2.981345e-05
368.27999999978596,4.647272e-05,368.27999999978596,7.177336e-05,368.27999999978596,3.791721e-05,368.27999999978596,2.860734e-05
368.29499999978594,4.650787e-05,368.29499999978594,6.839975e-05,368.29499999978594,3.663615e-05,368.29499999978594,2.896166e-05
368.30999999978593,4.680316e-05,368.30999999978593,6.462719e-05,368.30999999978593,3.552342e-05,368.30999999978593,2.961291e-05
368.3249999997859,4.529038e-05,368.3249999997859,6.398404e-05,368.3249999997859,4.084155e-05,368.3249999997859,3.007501e-05
368.3399999997859,4.435573e-05,368.3399999997859,5.616758e-05,368.3399999997859,4.278049e-05,368.3399999997859,3.104939e-05
368.3549999997859,4.614511e-05,368.3549999997859,4.68173e-05,368.3549999997859,4.295137e-05,368.3549999997859,3.253116e-05
368.3699999997859,4.710766e-05,368.3699999997859,4.493221e-05,368.3699999997859,4.2211e-05,368.3699999997859,3.080434e-05
368.38499999978586,5.139011e-05,368.38499999978586,4.839068e-05,368.38499999978586,4.032366e-05,368.38499999978586,3.069393e-05
368.39999999978585,5.183662e-05,368.39999999978585,4.855922e-05,368.39999999978585,3.936592e-05,368.39999999978585,3.191696e-05
368.41499999978583,5.272257e-05,368.41499999978583,4.861779e-05,368.41499999978583,4.143973e-05,368.41499999978583,3.245268e-05
368.4299999997858,5.444089e-05,368.4299999997858,5.654054e-05,368.4299999997858,4.340291e-05,368.4299999997858,3.198574e-05
368.4449999997858,5.433262e-05,368.4449999997858,5.55728e-05,368.4449999997858,4.367694e-05,368.4449999997858,3.20148e-05
368.4599999997858,5.348099e-05,368.4599999997858,5.043193e-05,368.4599999997858,4.350081e-05,368.4599999997858,3.219338e-05
368.4749999997858,5.683451e-05,368.4749999997858,5.054353e-05,368.4749999997858,4.177086e-05,368.4749999997858,3.270907e-05
368.48999999978577,5.71807e-05,368.48999999978577,5.194086e-05,368.48999999978577,3.758024e-05,368.48999999978577,3.310845e-05
368.50499999978575,5.751207e-05,368.50499999978575,5.622524e-05,368.50499999978575,3.545555e-05,368.50499999978575,3.207063e-05
368.51999999978574,5.767081e-05,368.51999999978574,5.99734e-05,368.51999999978574,3.941635e-05,368.51999999978574,3.219775e-05
368.5349999997857,5.835773e-05,368.5349999997857,6.044787e-05,368.5349999997857,4.16699e-05,368.5349999997857,3.196724e-05
368.5499999997857,5.721911e-05,368.5499999997857,6.323351e-05,368.5499999997857,4.171991e-05,368.5499999997857,3.181087e-05
368.5649999997857,5.924936e-05,368.5649999997857,6.38081e-05,368.5649999997857,4.096072e-05,368.5649999997857,3.121906e-05
368.5799999997857,5.957537e-05,368.5799999997857,6.390274e-05,368.5799999997857,3.566391e-05,368.5799999997857,3.00825e-05
368.59499999978567,5.802294e-05,368.59499999978567,9.557684e-05,368.59499999978567,3.402044e-05,368.59499999978567,3.023803e-05
368.60999999978566,5.606667e-05,368.60999999978566,0.0001057296,368.60999999978566,3.435665e-05,368.60999999978566,2.972922e-05
368.62499999978564,5.212226e-05,368.62499999978564,0.0001195629,368.62499999978564,3.743716e-05,368.62499999978564,3.11617e-05
368.63999999978563,4.966551e-05,368.63999999978563,0.0001195814,368.63999999978563,3.753486e-05,368.63999999978563,3.053242e-05
368.6549999997856,4.893576e-05,368.6549999997856,0.0001225234,368.6549999997856,3.59264e-05,368.6549999997856,2.804891e-05
368.6699999997856,4.793059e-05,368.6699999997856,0.000123132,368.6699999997856,3.627447e-05,368.6699999997856,2.803886e-05
368.6849999997856,4.522657e-05,368.6849999997856,0.0001213109,368.6849999997856,3.409654e-05,368.6849999997856,2.926359e-05
368.6999999997856,4.483963e-05,368.6999999997856,0.0001242493,368.6999999997856,3.460993e-05,368.6999999997856,2.929246e-05
368.71499999978556,4.245491e-05,368.71499999978556,0.0001246956,368.71499999978556,3.566944e-05,368.71499999978556,2.918164e-05
368.72999999978555,3.833252e-05,368.72999999978555,0.0001242987,368.72999999978555,3.598204e-05,368.72999999978555,2.922843e-05
368.74499999978553,3.837769e-05,368.74499999978553,0.0001235346,368.74499999978553,3.599926e-05,368.74499999978553,2.903743e-05
368.7599999997855,3.663461e-05,368.7599999997855,0.0001198777,368.7599999997855,3.584397e-05,368.7599999997855,2.922216e-05
368.7749999997855,3.541778e-05,368.7749999997855,0.00011892,368.7749999997855,3.036541e-05,368.7749999997855,2.942967e-05
368.7899999997855,3.592052e-05,368.7899999997855,0.000118553,368.7899999997855,3.024967e-05,368.7899999997855,2.937793e-05
368.8049999997855,3.683861e-05,368.8049999997855,0.0001176767,368.8049999997855,3.265779e-05,368.8049999997855,3.030179e-05
368.81999999978547,3.298483e-05,368.81999999978547,0.0001185206,368.81999999978547,3.400594e-05,368.81999999978547,3.083862e-05
368.83499999978545,3.404155e-05,368.83499999978545,0.0001194471,368.83499999978545,3.287361e-05,368.83499999978545,3.115989e-05
368.84999999978544,3.565325e-05,368.84999999978544,8.958465e-05,368.84999999978544,3.286375e-05,368.84999999978544,3.010122e-05
368.8649999997854,4.032017e-05,368.8649999997854,8.068138e-05,368.8649999997854,2.884029e-05,368.8649999997854,2.886421e-05
368.8799999997854,4.082292e-05,368.8799999997854,6.183644e-05,368.8799999997854,2.867423e-05,368.8799999997854,2.811162e-05
368.8949999997854,4.190218e-05,368.8949999997854,6.056102e-05,368.8949999997854,2.991957e-05,368.8949999997854,2.882661e-05
368.9099999997854,4.198513e-05,368.9099999997854,5.310061e-05,368.9099999997854,3.011807e-05,368.9099999997854,2.91193e-05
368.92499999978537,4.141355e-05,368.92499999978537,5.05647e-05,368.92499999978537,3.02068e-05,368.92499999978537,2.857236e-05
368.93999999978536,4.297662e-05,368.93999999978536,4.904531e-05,368.93999999978536,3.21995e-05,368.93999999978536,2.664313e-05
368.95499999978534,4.291134e-05,368.95499999978534,4.463717e-05,368.95499999978534,3.103441e-05,368.95499999978534,2.699661e-05
368.96999999978533,4.331909e-05,368.96999999978533,4.569663e-05,368.96999999978533,2.991062e-05,368.96999999978533,2.727486e-05
368.9849999997853,4.386168e-05,368.9849999997853,4.532365e-05,368.9849999997853,3.034499e-05,368.9849999997853,2.781541e-05
368.9999999997853,4.577855e-05,368.9999999997853,4.701906e-05,368.9999999997853,3.078421e-05,368.9999999997853,2.762739e-05
369.0149999997853,4.566795e-05,369.0149999997853,4.765441e-05,369.0149999997853,3.260858e-05,369.0149999997853,2.737127e-05
369.0299999997853,4.544284e-05,369.0299999997853,4.826738e-05,369.0299999997853,3.395703e-05,369.0299999997853,2.681126e-05
369.04499999978526,4.412903e-05,369.04499999978526,4.821979e-05,369.04499999978526,3.366497e-05,369.04499999978526,2.895971e-05
369.05999999978525,4.353221e-05,369.05999999978525,4.760028e-05,369.05999999978525,3.183963e-05,369.05999999978525,2.833224e-05
369.07499999978523,4.283544e-05,369.07499999978523,4.543168e-05,369.07499999978523,3.038071e-05,369.07499999978523,2.744681e-05
369.0899999997852,4.331291e-05,369.0899999997852,4.176816e-05,369.0899999997852,3.172573e-05,369.0899999997852,2.679759e-05
369.1049999997852,4.102944e-05,369.1049999997852,4.151614e-05,369.1049999997852,3.193197e-05,369.1049999997852,2.669014e-05
369.1199999997852,3.788562e-05,369.1199999997852,3.847081e-05,369.1199999997852,3.199719e-05,369.1199999997852,2.711532e-05
369.1349999997852,3.791833e-05,369.1349999997852,3.91186e-05,369.1349999997852,3.077139e-05,369.1349999997852,2.666955e-05
369.14999999978517,3.736672e-05,369.14999999978517,4.551408e-05,369.14999999978517,3.100762e-05,369.14999999978517,2.665528e-05
369.16499999978515,3.732221e-05,369.16499999978515,4.641054e-05,369.16499999978515,2.93309e-05,369.16499999978515,2.741857e-05
369.17999999978514,3.688981e-05,369.17999999978514,4.712769e-05,369.17999999978514,2.944259e-05,369.17999999978514,2.750782e-05
369.1949999997851,3.629427e-05,369.1949999997851,5.192649e-05,369.1949999997851,2.929438e-05,369.1949999997851,2.93856e-05
369.2099999997851,3.536644e-05,369.2099999997851,5.065266e-05,369.2099999997851,2.938369e-05,369.2099999997851,2.930784e-05
369.2249999997851,3.55139e-05,369.2249999997851,5.195361e-05,369.2249999997851,2.828148e-05,369.2249999997851,3.028598e-05
369.2399999997851,3.435255e-05,369.2399999997851,5.212874e-05,369.2399999997851,3.000466e-05,369.2399999997851,2.960054e-05
369.25499999978507,3.312674e-05,369.25499999978507,5.130342e-05,369.25499999978507,3.015686e-05,369.25499999978507,3.017881e-05
369.26999999978506,3.315394e-05,369.26999999978506,5.083061e-05,369.26999999978506,2.956673e-05,369.26999999978506,3.026737e-05
369.28499999978504,3.351357e-05,369.28499999978504,5.145613e-05,369.28499999978504,2.580024e-05,369.28499999978504,2.935059e-05
369.29999999978503,3.69047e-05,369.29999999978503,6.610213e-05,369.29999999978503,2.581497e-05,369.29999999978503,2.820367e-05
369.314999999785,3.729049e-05,369.314999999785,6.809903e-05,369.314999999785,2.599117e-05,369.314999999785,2.814317e-05
369.329999999785,4.139892e-05,369.329999999785,0.0001982942,369.329999999785,2.912656e-05,369.329999999785,2.805042e-05
369.344999999785,4.328916e-05,369.344999999785,0.0002118388,369.344999999785,2.917343e-05,369.344999999785,2.98432e-05
369.359999999785,4.350502e-05,369.359999999785,0.0002191238,369.359999999785,3.089475e-05,369.359999999785,2.995345e-05
369.37499999978496,4.316109e-05,369.37499999978496,0.0002220782,369.37499999978496,3.088289e-05,369.37499999978496,2.954004e-05
369.38999999978495,4.312876e-05,369.38999999978495,0.0002222294,369.38999999978495,3.092984e-05,369.38999999978495,2.998353e-05
369.40499999978493,4.381219e-05,369.40499999978493,0.000220761,369.40499999978493,2.986255e-05,369.40499999978493,2.987811e-05
369.4199999997849,4.411722e-05,369.4199999997849,0.0002213924,369.4199999997849,2.842456e-05,369.4199999997849,3.008578e-05
369.4349999997849,4.491904e-05,369.4349999997849,0.0002205409,369.4349999997849,2.84429e-05,369.4349999997849,3.072421e-05
369.4499999997849,4.42508e-05,369.4499999997849,0.0002202859,369.4499999997849,2.851659e-05,369.4499999997849,2.942154e-05
369.4649999997849,4.515706e-05,369.4649999997849,0.0002203945,369.4649999997849,2.896068e-05,369.4649999997849,2.957054e-05
369.47999999978487,4.609472e-05,369.47999999978487,0.0002202262,369.47999999978487,2.813566e-05,369.47999999978487,2.823761e-05
369.49499999978485,4.675076e-05,369.49499999978485,0.0002235223,369.49499999978485,2.731769e-05,369.49499999978485,2.955053e-05
369.50999999978484,4.758726e-05,369.50999999978484,0.0002243237,369.50999999978484,2.654938e-05,369.50999999978484,2.949756e-05
369.5249999997848,4.695281e-05,369.5249999997848,0.0002246942,369.5249999997848,2.817818e-05,369.5249999997848,3.042288e-05
369.5399999997848,4.59481e-05,369.5399999997848,0.0002245564,369.5399999997848,2.942824e-05,369.5399999997848,3.024967e-05
369.5549999997848,4.328591e-05,369.5549999997848,0.0002206776,369.5549999997848,2.916184e-05,369.5549999997848,3.006845e-05
369.5699999997848,4.40114e-05,369.5699999997848,0.00015675,369.5699999997848,2.911785e-05,369.5699999997848,2.998447e-05
369.58499999978477,4.008049e-05,369.58499999978477,0.0001133498,369.58499999978477,2.487852e-05,369.58499999978477,3.08016e-05
369.59999999978476,3.805368e-05,369.59999999978476,8.795845e-05,369.59999999978476,2.19106e-05,369.59999999978476,2.890908e-05
369.61499999978474,4.0097e-05,369.61499999978474,7.637565e-05,369.61499999978474,2.316563e-05,369.61499999978474,2.937937e-05
369.62999999978473,4.236622e-05,369.62999999978473,7.121042e-05,369.62999999978473,2.452438e-05,369.62999999978473,2.965996e-05
369.6449999997847,4.255731e-05,369.6449999997847,7.570745e-05,369.6449999997847,2.743347e-05,369.6449999997847,2.890762e-05
369.6599999997847,4.323152e-05,369.6599999997847,7.643796e-05,369.6599999997847,3.049133e-05,369.6599999997847,2.900297e-05
369.6749999997847,4.423552e-05,369.6749999997847,8.061151e-05,369.6749999997847,2.950807e-05,369.6749999997847,2.907767e-05
369.6899999997847,4.493284e-05,369.6899999997847,8.759029e-05,369.6899999997847,2.925396e-05,369.6899999997847,2.780781e-05
369.70499999978466,4.593614e-05,369.70499999978466,8.723786e-05,369.70499999978466,2.911737e-05,369.70499999978466,2.754723e-05
369.71999999978465,4.296318e-05,369.71999999978465,8.882318e-05,369.71999999978465,2.878358e-05,369.71999999978465,2.713246e-05
369.73499999978463,4.35707e-05,369.73499999978463,8.417719e-05,369.73499999978463,2.903452e-05,369.73499999978463,2.602096e-05
369.7499999997846,4.319534e-05,369.7499999997846,7.940121e-05,369.7499999997846,3.217105e-05,369.7499999997846,2.538744e-05
369.7649999997846,4.266938e-05,369.7649999997846,7.790049e-05,369.7649999997846,3.215879e-05,369.7649999997846,2.494355e-05
369.7799999997846,4.297531e-05,369.7799999997846,7.538337e-05,369.7799999997846,3.114904e-05,369.7799999997846,2.532299e-05
369.7949999997846,4.532551e-05,369.7949999997846,7.529998e-05,369.7949999997846,2.981723e-05,369.7949999997846,2.808605e-05
369.80999999978457,4.614664e-05,369.80999999978457,7.590795e-05,369.80999999978457,2.982431e-05,369.80999999978457,2.900054e-05
369.82499999978455,4.714443e-05,369.82499999978455,7.254933e-05,369.82499999978455,3.07077e-05,369.82499999978455,2.803434e-05
369.83999999978454,4.686061e-05,369.83999999978454,7.119856e-05,369.83999999978454,3.190505e-05,369.83999999978454,2.897235e-05
369.8549999997845,4.818794e-05,369.8549999997845,6.762971e-05,369.8549999997845,3.47164e-05,369.8549999997845,2.996849e-05
369.8699999997845,4.790648e-05,369.8699999997845,6.734165e-05,369.8699999997845,3.43964e-05,369.8699999997845,2.983092e-05
369.8849999997845,4.826388e-05,369.8849999997845,6.887077e-05,369.8849999997845,3.323924e-05,369.8849999997845,3.011807e-05
369.8999999997845,4.847415e-05,369.8999999997845,6.576585e-05,369.8999999997845,3.191961e-05,369.8999999997845,3.047099e-05
369.91499999978447,4.860562e-05,369.91499999978447,6.65581e-05,369.91499999978447,2.895776e-05,369.91499999978447,2.977326e-05
369.92999999978446,4.764909e-05,369.92999999978446,5.700107e-05,369.92999999978446,3.027202e-05,369.92999999978446,3.05564e-05
369.94499999978444,4.676883e-05,369.94499999978444,6.021579e-05,369.94499999978444,3.319344e-05,369.94499999978444,3.079565e-05
369.95999999978443,4.699509e-05,369.95999999978443,6.180477e-05,369.95999999978443,3.321041e-05,369.95999999978443,3.162478e-05
369.9749999997844,4.800136e-05,369.9749999997844,6.423672e-05,369.9749999997844,3.308334e-05,369.9749999997844,3.252683e-05
369.9899999997844,4.900019e-05,369.9899999997844,6.769341e-05,369.9899999997844,2.956387e-05,369.9899999997844,3.188429e-05
370.0049999997844,4.9193e-05,370.0049999997844,6.777078e-05,370.0049999997844,2.83387e-05,370.0049999997844,3.10988e-05
370.0199999997844,4.930398e-05,370.0199999997844,6.736215e-05,370.0199999997844,2.882514e-05,370.0199999997844,3.03872e-05
370.03499999978436,4.916923e-05,370.03499999978436,7.038189e-05,370.03499999978436,3.161319e-05,370.03499999978436,2.814217e-05
370.04999999978435,4.67854e-05,370.04999999978435,7.22914e-05,370.04999999978435,3.324051e-05,370.04999999978435,2.725316e-05
370.06499999978433,4.867136e-05,370.06499999978433,7.283709e-05,370.06499999978433,3.310207e-05,370.06499999978433,2.635768e-05
370.0799999997843,4.815109e-05,370.0799999997843,7.263956e-05,370.0799999997843,3.146894e-05,370.0799999997843,2.619416e-05
370.0949999997843,4.948536e-05,370.0949999997843,7.337661e-05,370.0949999997843,2.942154e-05,370.0949999997843,2.378608e-05
370.1099999997843,4.895446e-05,370.1099999997843,7.931067e-05,370.1099999997843,2.864523e-05,370.1099999997843,2.400772e-05
370.1249999997843,4.939162e-05,370.1249999997843,7.951325e-05,370.1249999997843,3.094077e-05,370.1249999997843,2.44686e-05
370.13999999978427,4.849943e-05,370.13999999978427,7.725752e-05,370.13999999978427,3.360256e-05,370.13999999978427,2.34803e-05
370.15499999978425,4.769961e-05,370.15499999978425,7.640995e-05,370.15499999978425,3.394831e-05,370.15499999978425,2.359223e-05
370.16999999978424,4.836098e-05,370.16999999978424,7.492452e-05,370.16999999978424,3.417412e-05,370.16999999978424,2.497967e-05
370.1849999997842,4.84224e-05,370.1849999997842,7.34712e-05,370.1849999997842,3.334882e-05,370.1849999997842,2.945934e-05
370.1999999997842,4.970832e-05,370.1999999997842,6.796174e-05,370.1999999997842,3.409613e-05,370.1999999997842,2.859946e-05
370.2149999997842,5.443494e-05,370.2149999997842,6.480372e-05,370.2149999997842,3.4111e-05,370.2149999997842,2.87591e-05
370.2299999997842,5.348574e-05,370.2299999997842,6.466946e-05,370.2299999997842,3.541738e-05,370.2299999997842,2.798304e-05
370.24499999978417,5.539966e-05,370.24499999978417,5.986714e-05,370.24499999978417,3.571404e-05,370.24499999978417,2.793972e-05
370.25999999978416,5.91132e-05,370.25999999978416,6.039308e-05,370.25999999978416,3.539749e-05,370.25999999978416,2.804439e-05
370.27499999978414,6.038818e-05,370.27499999978414,6.053589e-05,370.27499999978414,3.526353e-05,370.27499999978414,2.877085e-05
370.28999999978413,6.281308e-05,370.28999999978413,5.864764e-05,370.28999999978413,3.103033e-05,370.28999999978413,2.916136e-05
370.3049999997841,6.200275e-05,370.3049999997841,7.61046e-05,370.3049999997841,3.224016e-05,370.3049999997841,2.925733e-05
370.3199999997841,6.280994e-05,370.3199999997841,7.756633e-05,370.3199999997841,3.465304e-05,370.3199999997841,2.877966e-05
370.3349999997841,6.242908e-05,370.3349999997841,7.844326e-05,370.3349999997841,3.707455e-05,370.3349999997841,2.860537e-05
370.3499999997841,6.277001e-05,370.3499999997841,7.989942e-05,370.3499999997841,3.70061e-05,370.3499999997841,2.852943e-05
370.36499999978406,6.215092e-05,370.36499999978406,9.581354e-05,370.36499999978406,3.538834e-05,370.36499999978406,2.822464e-05
370.37999999978405,6.047885e-05,370.37999999978405,9.609849e-05,370.37999999978405,3.207458e-05,370.37999999978405,2.869633e-05
370.39499999978403,6.161188e-05,370.39499999978403,9.662315e-05,370.39499999978403,3.131322e-05,370.39499999978403,2.845032e-05
370.409999999784,6.441432e-05,370.409999999784,0.0001008627,370.409999999784,3.313737e-05,370.409999999784,2.848546e-05
370.424999999784,6.312292e-05,370.424999999784,0.0001048586,370.424999999784,3.38086e-05,370.424999999784,2.402297e-05
370.439999999784,6.491384e-05,370.439999999784,0.0001049826,370.439999999784,3.281056e-05,370.439999999784,2.167141e-05
370.454999999784,6.782459e-05,370.454999999784,0.0001062067,370.454999999784,3.295535e-05,370.454999999784,2.228163e-05
370.46999999978397,6.609915e-05,370.46999999978397,0.0001081388,370.46999999978397,3.345846e-05,370.46999999978397,2.189902e-05
370.48499999978395,6.765594e-05,370.48499999978395,0.0001085489,370.48499999978395,3.226157e-05,370.48499999978395,2.19363e-05
370.49999999978394,6.872068e-05,370.49999999978394,0.0001089256,370.49999999978394,3.259864e-05,370.49999999978394,2.331836e-05
370.5149999997839,6.449409e-05,370.5149999997839,0.0001086357,370.5149999997839,3.243749e-05,370.5149999997839,2.321301e-05
370.5299999997839,6.459383e-05,370.5299999997839,0.0001083854,370.5299999997839,3.247091e-05,370.5299999997839,2.351927e-05
370.5449999997839,6.312827e-05,370.5449999997839,0.0001052516,370.5449999997839,3.210487e-05,370.5449999997839,2.373687e-05
370.5599999997839,6.295824e-05,370.5599999997839,9.438681e-05,370.5599999997839,3.297928e-05,370.5599999997839,2.438613e-05
370.57499999978387,6.280164e-05,370.57499999978387,9.584692e-05,370.57499999978387,2.989225e-05,370.57499999978387,2.421105e-05
370.58999999978386,6.129486e-05,370.58999999978386,9.376119e-05,370.58999999978386,2.785539e-05,370.58999999978386,2.460123e-05
370.60499999978384,6.239252e-05,370.60499999978384,9.089451e-05,370.60499999978384,2.81026e-05,370.60499999978384,2.516731e-05
370.61999999978383,6.332523e-05,370.61999999978383,6.889839e-05,370.61999999978383,2.875224e-05,370.61999999978383,2.467955e-05
370.6349999997838,6.386305e-05,370.6349999997838,6.906869e-05,370.6349999997838,2.868553e-05,370.6349999997838,2.494976e-05
370.6499999997838,6.365714e-05,370.6499999997838,6.577827e-05,370.6499999997838,2.735737e-05,370.6499999997838,2.531687e-05
370.6649999997838,6.064354e-05,370.6649999997838,5.87561e-05,370.6649999997838,2.784021e-05,370.6649999997838,2.578494e-05
370.6799999997838,6.205997e-05,370.6799999997838,5.099054e-05,370.6799999997838,2.737229e-05,370.6799999997838,2.623715e-05
370.69499999978376,6.024969e-05,370.69499999978376,4.839097e-05,370.69499999978376,2.437573e-05,370.69499999978376,2.632773e-05
370.70999999978375,5.427503e-05,370.70999999978375,4.595055e-05,370.70999999978375,2.420058e-05,370.70999999978375,2.566063e-05
370.72499999978373,5.466683e-05,370.72499999978373,4.145163e-05,370.72499999978373,2.421105e-05,370.72499999978373,2.656794e-05
370.7399999997837,5.053015e-05,370.7399999997837,4.286141e-05,370.7399999997837,2.433351e-05,370.7399999997837,2.635768e-05
370.7549999997837,5.219167e-05,370.7549999997837,4.217661e-05,370.7549999997837,2.432772e-05,370.7549999997837,2.583516e-05
370.7699999997837,5.081814e-05,370.7699999997837,3.9703e-05,370.7699999997837,2.532577e-05,370.7699999997837,2.511969e-05
370.7849999997837,5.1035e-05,370.7849999997837,3.998935e-05,370.7849999997837,3.042056e-05,370.7849999997837,2.485416e-05
370.79999999978367,5.250785e-05,370.79999999978367,4.287521e-05,370.79999999978367,2.857532e-05,370.79999999978367,2.455308e-05
370.81499999978365,5.207521e-05,370.81499999978365,4.167092e-05,370.81499999978365,2.828446e-05,370.81499999978365,2.429411e-05
370.82999999978364,5.217763e-05,370.82999999978364,3.957008e-05,370.82999999978364,2.804439e-05,370.82999999978364,2.391189e-05
370.8449999997836,5.19509e-05,370.8449999997836,4.425813e-05,370.8449999997836,2.864622e-05,370.8449999997836,2.381981e-05
370.8599999997836,4.846572e-05,370.8599999997836,4.714443e-05,370.8599999997836,2.804037e-05,370.8599999997836,2.416446e-05
370.8749999997836,4.775303e-05,370.8749999997836,4.80735e-05,370.8749999997836,2.797549e-05,370.8749999997836,2.37997e-05
370.8899999997836,4.748028e-05,370.8899999997836,4.903554e-05,370.8899999997836,2.797347e-05,370.8899999997836,2.360476e-05
370.90499999978357,4.78226e-05,370.90499999978357,5.006861e-05,370.90499999978357,2.792761e-05,370.90499999978357,2.329116e-05
370.91999999978356,4.603111e-05,370.91999999978356,4.992492e-05,370.91999999978356,2.455021e-05,370.91999999978356,2.330386e-05
370.93499999978354,4.509931e-05,370.93499999978354,5.91837e-05,370.93499999978354,2.702216e-05,370.93499999978354,2.299351e-05
370.94999999978353,4.378453e-05,370.94999999978353,6.239365e-05,370.94999999978353,2.773934e-05,370.94999999978353,2.263228e-05
370.9649999997835,4.447562e-05,370.9649999997835,6.137157e-05,370.9649999997835,2.708569e-05,370.9649999997835,2.256121e-05
370.9799999997835,4.301069e-05,370.9799999997835,6.404851e-05,370.9799999997835,2.696633e-05,370.9799999997835,2.215801e-05
370.9949999997835,4.155142e-05,370.9949999997835,6.545733e-05,370.9949999997835,2.643559e-05,370.9949999997835,2.166101e-05
371.0099999997835,4.053412e-05,371.0099999997835,6.67196e-05,371.0099999997835,2.543068e-05,371.0099999997835,2.164214e-05
371.02499999978346,3.947634e-05,371.02499999978346,6.887016e-05,371.02499999978346,2.522825e-05,371.02499999978346,2.090987e-05
371.03999999978345,3.870481e-05,371.03999999978345,7.244304e-05,371.03999999978345,1.906032e-05,371.03999999978345,2.117563e-05
371.05499999978343,3.684434e-05,371.05499999978343,7.41491e-05,371.05499999978343,1.913555e-05,371.05499999978343,2.258867e-05
371.0699999997834,3.898549e-05,371.0699999997834,7.614456e-05,371.0699999997834,1.948136e-05,371.0699999997834,2.272731e-05
371.0849999997834,3.774556e-05,371.0849999997834,7.784532e-05,371.0849999997834,5.176047e-05,371.0849999997834,2.273474e-05
371.0999999997834,3.78272e-05,371.0999999997834,7.729982e-05,371.0999999997834,8.550613e-05,371.0999999997834,2.170973e-05
371.1149999997834,3.733618e-05,371.1149999997834,7.634465e-05,371.1149999997834,0.0001016312,371.1149999997834,2.156716e-05
371.12999999978337,4.053377e-05,371.12999999978337,7.928207e-05,371.12999999978337,0.0001268343,371.12999999978337,2.243034e-05
371.14499999978335,4.31464e-05,371.14499999978335,7.896428e-05,371.14499999978335,0.0001331601,371.14499999978335,2.255934e-05
371.15999999978334,4.313758e-05,371.15999999978334,7.934175e-05,371.15999999978334,0.0001334146,371.15999999978334,2.193437e-05
371.1749999997833,4.878151e-05,371.1749999997833,8.134024e-05,371.1749999997833,0.0001351032,371.1749999997833,2.204519e-05
371.1899999997833,5.416643e-05,371.1899999997833,7.759066e-05,371.1899999997833,0.000136932,371.1899999997833,2.327361e-05
371.2049999997833,5.433988e-05,371.2049999997833,8.840032e-05,371.2049999997833,0.0001381096,371.2049999997833,2.389008e-05
371.2199999997833,5.859165e-05,371.2199999997833,9.321816e-05,371.2199999997833,0.000138636,371.2199999997833,2.388183e-05
371.23499999978327,6.104938e-05,371.23499999978327,0.0001031526,371.23499999978327,0.0001388035,371.23499999978327,2.359581e-05
371.24999999978326,6.136652e-05,371.24999999978326,0.0001037049,371.24999999978326,0.0001388374,371.24999999978326,2.382277e-05
371.26499999978324,6.11522e-05,371.26499999978324,0.0001005254,371.26499999978324,0.0001388305,371.26499999978324,2.385645e-05
371.27999999978323,6.356413e-05,371.27999999978323,9.641387e-05,371.27999999978323,0.0001387707,371.27999999978323,2.424071e-05
371.2949999997832,6.498498e-05,371.2949999997832,9.182381e-05,371.2949999997832,0.0001387284,371.2949999997832,2.327846e-05
371.3099999997832,6.51294e-05,371.3099999997832,0.0001354583,371.3099999997832,0.0001387514,371.3099999997832,2.265529e-05
371.3249999997832,6.486977e-05,371.3249999997832,0.0001967315,371.3249999997832,0.000138751,371.3249999997832,2.331474e-05
371.3399999997832,6.826968e-05,371.3399999997832,0.000227483,371.3399999997832,0.000113939,371.3399999997832,2.341662e-05
371.35499999978316,6.863433e-05,371.35499999978316,0.0002311332,371.35499999978316,0.0001050325,371.35499999978316,2.339797e-05
371.36999999978315,7.070678e-05,371.36999999978315,0.0002374869,371.36999999978315,8.329974e-05,371.36999999978315,2.289159e-05
371.38499999978313,6.903789e-05,371.38499999978313,0.0002443012,371.38499999978313,4.979666e-05,371.38499999978313,2.183847e-05
371.3999999997831,6.841972e-05,371.3999999997831,0.0002581648,371.3999999997831,3.688637e-05,371.3999999997831,2.1687e-05
371.4149999997831,6.651723e-05,371.4149999997831,0.0002620709,371.4149999997831,3.653257e-05,371.4149999997831,2.107093e-05
371.4299999997831,6.809944e-05,371.4299999997831,0.0002613662,371.4299999997831,3.193241e-05,371.4299999997831,2.030629e-05
371.4449999997831,6.429393e-05,371.4449999997831,0.0002588143,371.4449999997831,2.479742e-05,371.4449999997831,1.807558e-05
371.45999999978307,6.558697e-05,371.45999999978307,0.0002640854,371.45999999978307,1.929171e-05,371.45999999978307,1.755931e-05
371.47499999978305,6.339015e-05,371.47499999978305,0.0002699206,371.47499999978305,1.759377e-05,371.47499999978305,1.680338e-05
371.48999999978304,6.152081e-05,371.48999999978304,0.00027087,371.48999999978304,1.57179e-05,371.48999999978304,1.650992e-05
371.504999999783,6.275788e-05,371.504999999783,0.0002766669,371.504999999783,1.566403e-05,371.504999999783,1.56874e-05
371.519999999783,6.388489e-05,371.519999999783,0.0002784299,371.519999999783,1.54904e-05,371.519999999783,1.509057e-05
371.534999999783,6.1486e-05,371.534999999783,0.0002790948,371.534999999783,1.550767e-05,371.534999999783,1.425632e-05
371.549999999783,6.721624e-05,371.549999999783,0.0002793863,371.549999999783,1.553943e-05,371.549999999783,1.431942e-05
371.56499999978297,0.0001086228,371.56499999978297,0.0002533653,371.56499999978297,1.473636e-05,371.56499999978297,1.407334e-05
371.57999999978296,0.000138778,371.57999999978296,0.0002094917,371.57999999978296,1.42948e-05,371.57999999978296,1.37062e-05
371.59499999978294,0.0001476949,371.59499999978294,0.0001817652,371.59499999978294,1.225184e-05,371.59499999978294,1.341639e-05
371.60999999978293,0.0001857419,371.60999999978293,0.0002338706,371.60999999978293,1.013787e-05,371.60999999978293,1.578586e-05
371.6249999997829,0.0001910215,371.6249999997829,0.0002458202,371.6249999997829,1.017117e-05,371.6249999997829,1.662555e-05
371.6399999997829,0.0001916421,371.6399999997829,0.0002664843,371.6399999997829,1.001626e-05,371.6399999997829,1.650736e-05
371.6549999997829,0.0001985553,371.6549999997829,0.0003264448,371.6549999997829,9.071627e-06,371.6549999997829,1.564333e-05
371.6699999997829,0.0002019711,371.6699999997829,0.0004643447,371.6699999997829,7.93343e-06,371.6699999997829,1.705137e-05
371.68499999978286,0.000202494,371.68499999978286,0.0005750188,371.68499999978286,7.965326e-06,371.68499999978286,1.750628e-05
371.69999999978285,0.0002050339,371.69999999978285,0.0007527703,371.69999999978285,8.096878e-06,371.69999999978285,1.785761e-05
371.71499999978283,0.0002061408,371.71499999978283,0.0007686493,371.71499999978283,7.826167e-06,371.71499999978283,1.79269e-05
371.7299999997828,0.0002119643,371.7299999997828,0.0007882477,371.7299999997828,9.199609e-06,371.7299999997828,1.807402e-05
371.7449999997828,0.0002159395,371.7449999997828,0.0008117947,371.7449999997828,9.833158e-06,371.7449999997828,1.784262e-05
371.7599999997828,0.000217672,371.7599999997828,0.0008260373,371.7599999997828,1.048756e-05,371.7599999997828,1.783393e-05
371.7749999997828,0.0002215394,371.7749999997828,0.0008477648,371.7749999997828,1.289056e-05,371.7749999997828,1.913923e-05
371.78999999978276,0.0002253902,371.78999999978276,0.0008523858,371.78999999978276,1.482499e-05,371.78999999978276,1.908395e-05
371.80499999978275,0.0002226793,371.80499999978275,0.0008650231,371.80499999978275,1.496684e-05,371.80499999978275,2.083631e-05
371.81999999978274,0.0001917957,371.81999999978274,0.0008677635,371.81999999978274,1.514089e-05,371.81999999978274,2.14072e-05
371.8349999997827,0.0001837118,371.8349999997827,0.0008689823,371.8349999997827,1.528534e-05,371.8349999997827,2.120156e-05
371.8499999997827,0.0001884824,371.8499999997827,0.0008758245,371.8499999997827,1.622938e-05,371.8499999997827,2.147683e-05
371.8649999997827,0.0001524125,371.8649999997827,0.0008699277,371.8649999997827,1.704393e-05,371.8649999997827,2.023262e-05
371.8799999997827,0.0001556705,371.8799999997827,0.0008641804,371.8799999997827,1.780785e-05,371.8799999997827,2.016428e-05
371.89499999978267,0.0001562198,371.89499999978267,0.0008643702,371.89499999978267,1.869241e-05,371.89499999978267,2.093411e-05
371.90999999978266,0.0001533179,371.90999999978266,0.0008420028,371.90999999978266,1.910977e-05,371.90999999978266,2.222212e-05
371.92499999978264,0.0001552215,371.92499999978264,0.0007126406,371.92499999978264,2.042871e-05,371.92499999978264,2.163238e-05
371.93999999978263,0.0001563871,371.93999999978263,0.0006368421,371.93999999978263,2.03361e-05,371.93999999978263,2.221388e-05
371.9549999997826,0.000155227,371.9549999997826,0.0005126074,371.9549999997826,2.233341e-05,371.9549999997826,2.253185e-05
371.9699999997826,0.000155405,371.9699999997826,0.0005009845,371.9699999997826,2.451691e-05,371.9699999997826,2.320937e-05
371.9849999997826,0.0001485381,371.9849999997826,0.000468925,371.9849999997826,2.704092e-05,371.9849999997826,2.479117e-05
371.9999999997826,0.0001418541,371.9999999997826,0.0004260629,371.9999999997826,2.843695e-05,371.9999999997826,2.502643e-05
372.01499999978256,0.0001427946,372.01499999978256,0.000410096,372.01499999978256,2.850078e-05,372.01499999978256,2.472232e-05
372.02999999978255,0.0001355463,372.02999999978255,0.0003942326,372.02999999978255,2.948706e-05,372.02999999978255,2.416854e-05
372.04499999978253,0.0001374814,372.04499999978253,0.0003809727,372.04499999978253,2.972496e-05,372.04499999978253,2.357311e-05
372.0599999997825,0.0001377555,372.0599999997825,0.0003626116,372.0599999997825,3.210355e-05,372.0599999997825,2.242217e-05
372.0749999997825,0.0001387465,372.0749999997825,0.0003511932,372.0749999997825,3.32511e-05,372.0749999997825,2.163368e-05
372.0899999997825,0.0001386085,372.0899999997825,0.0003516831,372.0899999997825,3.42042e-05,372.0899999997825,2.146174e-05
372.1049999997825,0.0001261159,372.1049999997825,0.0003284781,372.1049999997825,3.644803e-05,372.1049999997825,2.121351e-05
372.11999999978246,0.000126917,372.11999999978246,0.0003277674,372.11999999978246,3.655108e-05,372.11999999978246,2.063522e-05
372.13499999978245,0.000122278,372.13499999978245,0.0003138703,372.13499999978245,3.624572e-05,372.13499999978245,1.966059e-05
372.14999999978244,0.0001160515,372.14999999978244,0.0002921507,372.14999999978244,3.620178e-05,372.14999999978244,1.936387e-05
372.1649999997824,0.0001092675,372.1649999997824,0.0002884174,372.1649999997824,3.89356e-05,372.1649999997824,1.78442e-05
372.1799999997824,9.778886e-05,372.1799999997824,0.0002869986,372.1799999997824,3.900897e-05,372.1799999997824,1.753924e-05
372.1949999997824,9.955328e-05,372.1949999997824,0.0002733056,372.1949999997824,3.927206e-05,372.1949999997824,1.560095e-05
372.2099999997824,9.993248e-05,372.2099999997824,0.0002249038,372.2099999997824,3.807515e-05,372.2099999997824,1.51027e-05
372.22499999978237,0.0001111494,372.22499999978237,0.0002091138,372.22499999978237,3.787707e-05,372.22499999978237,1.3497e-05
372.23999999978236,0.0001085747,372.23999999978236,0.0002088991,372.23999999978236,3.531741e-05,372.23999999978236,1.206064e-05
372.25499999978234,0.0001083074,372.25499999978234,0.000169958,372.25499999978234,3.51106e-05,372.25499999978234,1.205363e-05
372.2699999997823,0.0001080463,372.2699999997823,0.0001313726,372.2699999997823,3.431932e-05,372.2699999997823,1.178177e-05
372.2849999997823,0.0001066446,372.2849999997823,0.000120478,372.2849999997823,3.344246e-05,372.2849999997823,1.133946e-05
372.2999999997823,0.0001027695,372.2999999997823,0.0001088981,372.2999999997823,3.129567e-05,372.2999999997823,1.121328e-05
372.3149999997823,9.905423e-05,372.3149999997823,0.0001084607,372.3149999997823,3.141786e-05,372.3149999997823,1.090762e-05
372.3299999997823,9.855266e-05,372.3299999997823,9.530482e-05,372.3299999997823,3.103804e-05,372.3299999997823,9.86748e-06
372.34499999978226,9.16861e-05,372.34499999978226,7.155971e-05,372.34499999978226,2.983234e-05,372.34499999978226,9.390561e-06
372.35999999978225,8.896121e-05,372.35999999978225,7.935578e-05,372.35999999978225,2.781136e-05,372.35999999978225,9.185817e-06
372.37499999978223,8.932845e-05,372.37499999978223,9.289906e-05,372.37499999978223,2.734861e-05,372.37499999978223,9.532005e-06
372.3899999997822,8.933507e-05,372.3899999997822,9.807654e-05,372.3899999997822,2.707632e-05,372.3899999997822,9.746825e-06
372.4049999997822,8.823284e-05,372.4049999997822,9.92659e-05,372.4049999997822,2.79155e-05,372.4049999997822,9.791525e-06
372.4199999997822,8.694169e-05,372.4199999997822,0.0001076501,372.4199999997822,2.364292e-05,372.4199999997822,9.710626e-06
372.4349999997822,8.534965e-05,372.4349999997822,0.0001074825,372.4349999997822,2.205222e-05,372.4349999997822,9.665551e-06
372.44999999978216,8.413987e-05,372.44999999978216,0.0001066544,372.44999999978216,2.350009e-05,372.44999999978216,9.494987e-06
372.46499999978215,8.026143e-05,372.46499999978215,0.0001059355,372.46499999978215,2.461096e-05,372.46499999978215,9.125813e-06
372.47999999978214,6.753758e-05,372.47999999978214,0.0001076848,372.47999999978214,2.30779e-05,372.47999999978214,8.684475e-06
372.4949999997821,6.846974e-05,372.4949999997821,0.0001069482,372.4949999997821,2.308705e-05,372.4949999997821,8.140256e-06
372.5099999997821,6.910967e-05,372.5099999997821,0.0001080016,372.5099999997821,2.298861e-05,372.5099999997821,8.128133e-06
372.5249999997821,6.682698e-05,372.5249999997821,0.0001061529,372.5249999997821,2.301372e-05,372.5249999997821,8.241723e-06
372.5399999997821,6.693693e-05,372.5399999997821,0.0001089572,372.5399999997821,2.582316e-05,372.5399999997821,8.188566e-06
372.55499999978207,6.209243e-05,372.55499999978207,0.000112728,372.55499999978207,2.646914e-05,372.55499999978207,8.107309e-06
372.56999999978206,6.124013e-05,372.56999999978206,0.0001146428,372.56999999978206,2.849435e-05,372.56999999978206,8.091657e-06
372.58499999978204,6.057335e-05,372.58499999978204,0.0001168783,372.58499999978204,2.84523e-05,372.58499999978204,8.091657e-06
372.599999999782,6.140805e-05,372.599999999782,0.0001167476,372.599999999782,2.737384e-05,372.599999999782,8.062008e-06
372.614999999782,6.957508e-05,372.614999999782,0.0001096349,372.614999999782,2.839581e-05,372.614999999782,7.885342e-06
372.629999999782,7.393926e-05,372.629999999782,9.894695e-05,372.629999999782,3.260641e-05,372.629999999782,7.434793e-06
372.644999999782,8.832124e-05,372.644999999782,9.254614e-05,372.644999999782,3.290231e-05,372.644999999782,8.505834e-06
372.659999999782,8.96879e-05,372.659999999782,9.272725e-05,372.659999999782,3.420049e-05,372.659999999782,8.707154e-06
372.67499999978196,9.06403e-05,372.67499999978196,0.0001047968,372.67499999978196,3.42688e-05,372.67499999978196,8.699061e-06
372.68999999978195,9.938092e-05,372.68999999978195,0.0001061767,372.68999999978195,3.732938e-05,372.68999999978195,9.085591e-06
372.70499999978193,9.979933e-05,372.70499999978193,0.0001044654,372.70499999978193,3.610515e-05,372.70499999978193,9.52757e-06
372.7199999997819,0.0001029206,372.7199999997819,0.0001068073,372.7199999997819,3.669647e-05,372.7199999997819,9.451865e-06
372.7349999997819,0.0001065228,372.7349999997819,0.0001099812,372.7349999997819,4.388544e-05,372.7349999997819,9.390561e-06
372.7499999997819,0.0001097099,372.7499999997819,0.0001232164,372.7499999997819,4.704542e-05,372.7499999997819,9.601211e-06
372.7649999997819,0.000110159,372.7649999997819,0.0001279928,372.7649999997819,4.716504e-05,372.7649999997819,9.716427e-06
372.77999999978186,0.0001110142,372.77999999978186,0.0001548867,372.77999999978186,4.750667e-05,372.77999999978186,9.823125e-06
372.79499999978185,0.0001122525,372.79499999978185,0.0001552348,372.79499999978185,4.559911e-05,372.79499999978185,9.790087e-06
372.80999999978184,0.0001147214,372.80999999978184,0.0001586135,372.80999999978184,4.431283e-05,372.80999999978184,9.81021e-06
372.8249999997818,0.0001156585,372.8249999997818,0.0001585424,372.8249999997818,4.376361e-05,372.8249999997818,9.876042e-06
372.8399999997818,0.0001187452,372.8399999997818,0.0001569868,372.8399999997818,4.386649e-05,372.8399999997818,9.850334e-06
372.8549999997818,0.0009321538,372.8549999997818,0.0001661315,372.8549999997818,4.324065e-05,372.8549999997818,1.080511e-05
372.8699999997818,0.001353289,372.8699999997818,0.0001734126,372.8699999997818,4.296383e-05,372.8699999997818,2.44023e-05
372.88499999978177,0.001858419,372.88499999978177,0.0001758451,372.88499999978177,4.016124e-05,372.88499999978177,3.489165e-05
372.89999999978176,0.001956227,372.89999999978176,0.000199042,372.89999999978176,4.048369e-05,372.89999999978176,3.901619e-05
372.91499999978174,0.001958098,372.91499999978174,0.0003468531,372.91499999978174,4.123014e-05,372.91499999978174,4.088775e-05
372.9299999997817,0.001992558,372.9299999997817,0.0003940598,372.9299999997817,4.422597e-05,372.9299999997817,4.211913e-05
372.9449999997817,0.00212751,372.9449999997817,0.0004547261,372.9449999997817,4.403028e-05,372.9449999997817,4.241009e-05
372.9599999997817,0.002179991,372.9599999997817,0.0005279588,372.9599999997817,4.422183e-05,372.9599999997817,4.243201e-05
372.9749999997817,0.002181009,372.9749999997817,0.0005455276,372.9749999997817,4.206257e-05,372.9749999997817,4.26664e-05
372.9899999997817,0.002180891,372.9899999997817,0.0005433307,372.9899999997817,3.845177e-05,372.9899999997817,4.425431e-05
373.00499999978166,0.002181691,373.00499999978166,0.0005414081,373.00499999978166,3.539948e-05,373.00499999978166,4.523841e-05
373.01999999978165,0.002182537,373.01999999978165,0.0005424367,373.01999999978165,3.625699e-05,373.01999999978165,4.528571e-05
373.03499999978163,0.002183926,373.03499999978163,0.0005352052,373.03499999978163,3.658959e-05,373.03499999978163,4.530686e-05
373.0499999997816,0.002184834,373.0499999997816,0.0005640711,373.0499999997816,3.740214e-05,373.0499999997816,4.566518e-05
373.0649999997816,0.002185409,373.0649999997816,0.0005858549,373.0649999997816,3.819926e-05,373.0649999997816,4.577394e-05
373.0799999997816,0.002186151,373.0799999997816,0.0005880792,373.0799999997816,3.851144e-05,373.0799999997816,4.594994e-05
373.0949999997816,0.002184624,373.0949999997816,0.0005870146,373.0949999997816,3.921606e-05,373.0949999997816,4.589135e-05
373.10999999978156,0.001837304,373.10999999978156,0.0005857744,373.10999999978156,3.931257e-05,373.10999999978156,4.587385e-05
373.12499999978155,0.001584186,373.12499999978155,0.0005962095,373.12499999978155,3.924156e-05,373.12499999978155,3.94849e-05
373.13999999978154,0.001289495,373.13999999978154,0.0006140771,373.13999999978154,3.912472e-05,373.13999999978154,3.462539e-05
373.1549999997815,0.001534925,373.1549999997815,0.000597359,373.1549999997815,3.606533e-05,373.1549999997815,4.827293e-05
373.1699999997815,0.001606649,373.1699999997815,0.0005564591,373.1699999997815,4.067981e-05,373.1699999997815,5.054158e-05
373.1849999997815,0.001924728,373.1849999997815,0.0005876167,373.1849999997815,3.948419e-05,373.1849999997815,7.441289e-05
373.1999999997815,0.002195044,373.1999999997815,0.0005538143,373.1999999997815,3.723265e-05,373.1999999997815,7.522755e-05
373.21499999978147,0.002262071,373.21499999978147,0.0005146326,373.21499999978147,3.782497e-05,373.21499999978147,7.588493e-05
373.22999999978146,0.002632403,373.22999999978146,0.0005349996,373.22999999978146,3.827846e-05,373.22999999978146,7.732569e-05
373.24499999978144,0.002812976,373.24499999978144,0.0005637127,373.24499999978144,4.047812e-05,373.24499999978144,7.708155e-05
373.2599999997814,0.002861051,373.2599999997814,0.0005738492,373.2599999997814,5.172344e-05,373.2599999997814,7.783718e-05
373.2749999997814,0.002913997,373.2749999997814,0.0005743766,373.2749999997814,5.209225e-05,373.2749999997814,7.807173e-05
373.2899999997814,0.002927715,373.2899999997814,0.0005686079,373.2899999997814,5.299253e-05,373.2899999997814,7.824512e-05
373.3049999997814,0.002937355,373.3049999997814,0.0005396861,373.3049999997814,5.297738e-05,373.3049999997814,7.8201e-05
373.3199999997814,0.002938804,373.3199999997814,0.0005188701,373.3199999997814,5.259389e-05,373.3199999997814,7.811448e-05
373.33499999978136,0.002939507,373.33499999978136,0.0005217571,373.33499999978136,5.158109e-05,373.33499999978136,7.814261e-05
373.34999999978135,0.002947225,373.34999999978135,0.0005280041,373.34999999978135,5.138134e-05,373.34999999978135,7.939482e-05
373.36499999978133,0.002978967,373.36499999978133,0.0005263762,373.36499999978133,5.144162e-05,373.36499999978133,8.241329e-05
373.3799999997813,0.003004838,373.3799999997813,0.000526951,373.3799999997813,5.186623e-05,373.3799999997813,8.423223e-05
