X[s],a: EMG RMS 1-1,X[s].1,a: EMG RMS 1-2,X[s].2,a: EMG RMS 1-3,X[s].3,a: EMG RMS 1-4
784.0049999994079,1.103473e-05,784.0049999994079,5.28392e-06,784.0049999994079,1.202438e-05,784.0049999994079,6.123622e-06
784.0199999994079,1.106787e-05,784.0199999994079,5.302549e-06,784.0199999994079,1.147775e-05,784.0199999994079,6.287069e-06
784.0349999994079,1.129963e-05,784.0349999994079,5.326404e-06,784.0349999994079,1.073054e-05,784.0349999994079,6.494269e-06
784.0499999994079,1.199741e-05,784.0499999994079,5.275916e-06,784.0499999994079,9.325834e-06,784.0499999994079,6.924671e-06
784.0649999994079,1.195624e-05,784.0649999994079,5.178904e-06,784.0649999994079,9.997955e-06,784.0649999994079,7.302889e-06
784.0799999994078,1.244124e-05,784.0799999994078,5.137942e-06,784.0799999994078,1.032512e-05,784.0799999994078,7.27777e-06
784.0949999994078,1.232292e-05,784.0949999994078,4.936594e-06,784.0949999994078,1.05958e-05,784.0949999994078,7.250621e-06
784.1099999994078,1.181163e-05,784.1099999994078,4.762306e-06,784.1099999994078,1.051171e-05,784.1099999994078,6.877724e-06
784.1249999994078,1.226678e-05,784.1249999994078,4.756387e-06,784.1249999994078,1.090504e-05,784.1249999994078,6.928738e-06
784.1399999994078,1.225184e-05,784.1399999994078,4.919443e-06,784.1399999994078,1.087658e-05,784.1399999994078,7.22532e-06
784.1549999994078,1.214793e-05,784.1549999994078,4.899358e-06,784.1549999994078,1.100405e-05,784.1549999994078,7.087532e-06
784.1699999994078,1.227711e-05,784.1699999994078,4.803539e-06,784.1699999994078,1.076985e-05,784.1699999994078,6.922637e-06
784.1849999994078,1.1896e-05,784.1849999994078,4.95937e-06,784.1849999994078,1.049293e-05,784.1849999994078,6.580461e-06
784.1999999994077,1.163257e-05,784.1999999994077,5.687093e-06,784.1999999994077,1.086881e-05,784.1999999994077,6.509435e-06
784.2149999994077,1.160833e-05,784.2149999994077,5.795054e-06,784.2149999994077,1.085584e-05,784.2149999994077,6.720261e-06
784.2299999994077,1.162288e-05,784.2299999994077,6.08439e-06,784.2299999994077,1.095401e-05,784.2299999994077,6.745368e-06
784.2449999994077,1.125091e-05,784.2449999994077,6.021555e-06,784.2449999994077,1.15974e-05,784.2449999994077,6.898175e-06
784.2599999994077,1.088305e-05,784.2599999994077,5.850696e-06,784.2599999994077,1.179253e-05,784.2599999994077,6.928738e-06
784.2749999994077,1.137914e-05,784.2749999994077,6.404719e-06,784.2749999994077,1.21514e-05,784.2749999994077,6.813935e-06
784.2899999994077,1.0762e-05,784.2899999994077,6.826328e-06,784.2899999994077,1.360925e-05,784.2899999994077,6.595429e-06
784.3049999994076,1.106023e-05,784.3049999994076,7.027653e-06,784.3049999994076,1.361546e-05,784.3049999994076,7.394897e-06
784.3199999994076,1.034828e-05,784.3199999994076,7.308674e-06,784.3199999994076,1.309009e-05,784.3199999994076,7.97063e-06
784.3349999994076,1.054248e-05,784.3349999994076,7.573703e-06,784.3349999994076,1.3147e-05,784.3349999994076,8.299631e-06
784.3499999994076,1.221038e-05,784.3499999994076,7.71011e-06,784.3499999994076,1.377591e-05,784.3499999994076,8.968555e-06
784.3649999994076,1.230233e-05,784.3649999994076,7.797315e-06,784.3649999994076,1.413625e-05,784.3649999994076,9.062304e-06
784.3799999994076,1.197625e-05,784.3799999994076,7.800928e-06,784.3799999994076,1.50831e-05,784.3799999994076,9.15971e-06
784.3949999994076,1.210378e-05,784.3949999994076,8.17996e-06,784.3949999994076,1.662386e-05,784.3949999994076,8.966984e-06
784.4099999994075,1.227941e-05,784.4099999994075,8.15236e-06,784.4099999994075,1.694446e-05,784.4099999994075,8.999913e-06
784.4249999994075,1.22461e-05,784.4249999994075,7.967094e-06,784.4249999994075,1.909723e-05,784.4249999994075,9.133529e-06
784.4399999994075,1.273444e-05,784.4399999994075,8.093397e-06,784.4399999994075,1.963693e-05,784.4399999994075,9.20114e-06
784.4549999994075,1.317697e-05,784.4549999994075,1.742967e-05,784.4549999994075,2.438209e-05,784.4549999994075,9.131986e-06
784.4699999994075,1.344052e-05,784.4699999994075,2.594398e-05,784.4699999994075,2.448529e-05,784.4699999994075,8.95598e-06
784.4849999994075,1.367328e-05,784.4849999994075,2.774391e-05,784.4849999994075,2.423955e-05,784.4849999994075,8.918151e-06
784.4999999994075,1.376261e-05,784.4999999994075,3.162656e-05,784.4999999994075,2.459149e-05,784.4999999994075,8.946537e-06
784.5149999994075,1.390517e-05,784.5149999994075,3.320531e-05,784.5149999994075,2.537967e-05,784.5149999994075,8.830848e-06
784.5299999994074,1.334797e-05,784.5299999994074,3.419308e-05,784.5299999994074,2.576308e-05,784.5299999994074,8.914992e-06
784.5449999994074,1.299071e-05,784.5449999994074,3.598908e-05,784.5449999994074,2.69245e-05,784.5449999994074,8.797286e-06
784.5599999994074,1.300046e-05,784.5599999994074,3.629466e-05,784.5599999994074,2.830587e-05,784.5599999994074,7.728359e-06
784.5749999994074,1.320473e-05,784.5749999994074,3.670414e-05,784.5749999994074,2.965759e-05,784.5749999994074,7.50457e-06
784.5899999994074,1.395069e-05,784.5899999994074,3.699315e-05,784.5899999994074,2.96856e-05,784.5899999994074,7.744747e-06
784.6049999994074,1.503258e-05,784.6049999994074,3.703463e-05,784.6049999994074,2.961956e-05,784.6049999994074,7.023643e-06
784.6199999994074,2.262169e-05,784.6199999994074,3.723795e-05,784.6199999994074,3.024176e-05,784.6199999994074,7.013608e-06
784.6349999994073,2.275023e-05,784.6349999994073,3.724211e-05,784.6349999994073,3.068062e-05,784.6349999994073,6.922637e-06
784.6499999994073,2.267953e-05,784.6499999994073,3.743076e-05,784.6499999994073,3.141159e-05,784.6499999994073,7.131124e-06
784.6649999994073,2.274713e-05,784.6649999994073,3.762407e-05,784.6649999994073,3.20082e-05,784.6649999994073,7.095478e-06
784.6799999994073,2.338833e-05,784.6799999994073,3.785661e-05,784.6799999994073,3.186396e-05,784.6799999994073,6.828391e-06
784.6949999994073,2.320208e-05,784.6949999994073,3.918085e-05,784.6949999994073,3.073246e-05,784.6949999994073,6.728641e-06
784.7099999994073,2.297512e-05,784.7099999994073,3.146311e-05,784.7099999994073,2.902142e-05,784.7099999994073,6.887957e-06
784.7249999994073,2.394897e-05,784.7249999994073,3.125648e-05,784.7249999994073,2.905974e-05,784.7249999994073,7.085544e-06
784.7399999994072,2.431208e-05,784.7399999994072,2.684906e-05,784.7399999994072,2.974012e-05,784.7399999994072,7.521444e-06
784.7549999994072,2.569684e-05,784.7549999994072,2.435492e-05,784.7549999994072,3.069026e-05,784.7549999994072,7.887128e-06
784.7699999994072,2.621405e-05,784.7699999994072,2.381271e-05,784.7699999994072,3.314927e-05,784.7699999994072,8.274134e-06
784.7849999994072,2.721281e-05,784.7849999994072,2.383045e-05,784.7849999994072,3.38061e-05,784.7849999994072,8.470984e-06
784.7999999994072,2.873312e-05,784.7999999994072,2.274589e-05,784.7999999994072,3.324898e-05,784.7999999994072,9.221021e-06
784.8149999994072,2.915363e-05,784.8149999994072,2.523774e-05,784.8149999994072,3.253679e-05,784.8149999994072,9.333384e-06
784.8299999994072,2.969461e-05,784.8299999994072,2.556824e-05,784.8299999994072,3.210882e-05,784.8299999994072,9.416029e-06
784.8449999994072,2.947607e-05,784.8449999994072,2.549817e-05,784.8449999994072,3.198002e-05,784.8449999994072,9.680115e-06
784.8599999994071,2.892418e-05,784.8599999994071,2.586567e-05,784.8599999994071,3.389183e-05,784.8599999994071,9.858911e-06
784.8749999994071,2.751806e-05,784.8749999994071,2.587493e-05,784.8749999994071,3.276673e-05,784.8749999994071,1.1705e-05
784.8899999994071,2.807501e-05,784.8899999994071,2.638652e-05,784.8899999994071,3.727727e-05,784.8899999994071,1.2884e-05
784.9049999994071,2.839233e-05,784.9049999994071,2.651221e-05,784.9049999994071,3.756262e-05,784.9049999994071,1.303617e-05
784.9199999994071,2.844636e-05,784.9199999994071,2.669806e-05,784.9199999994071,3.727387e-05,784.9199999994071,1.348551e-05
784.9349999994071,2.798455e-05,784.9349999994071,2.734398e-05,784.9349999994071,3.826999e-05,784.9349999994071,1.493575e-05
784.949999999407,2.902094e-05,784.949999999407,2.755387e-05,784.949999999407,4.121476e-05,784.949999999407,1.628657e-05
784.964999999407,3.094714e-05,784.964999999407,2.808254e-05,784.964999999407,4.246354e-05,784.964999999407,1.754085e-05
784.979999999407,3.118339e-05,784.979999999407,2.844933e-05,784.979999999407,4.272085e-05,784.979999999407,1.9081e-05
784.994999999407,3.09353e-05,784.994999999407,2.880266e-05,784.994999999407,4.390052e-05,784.994999999407,1.94343e-05
785.009999999407,3.046221e-05,785.009999999407,2.865949e-05,785.009999999407,4.419123e-05,785.009999999407,1.950738e-05
785.024999999407,2.981817e-05,785.024999999407,2.821016e-05,785.024999999407,4.228568e-05,785.024999999407,1.940964e-05
785.039999999407,2.926263e-05,785.039999999407,2.704665e-05,785.039999999407,4.126429e-05,785.039999999407,1.920902e-05
785.054999999407,2.900637e-05,785.054999999407,2.603233e-05,785.054999999407,4.1084e-05,785.054999999407,1.896325e-05
785.069999999407,2.835808e-05,785.069999999407,2.427497e-05,785.069999999407,4.154057e-05,785.069999999407,1.881709e-05
785.0849999994069,2.818218e-05,785.0849999994069,2.378726e-05,785.0849999994069,4.190856e-05,785.0849999994069,1.886494e-05
785.0999999994069,2.713713e-05,785.0999999994069,2.403528e-05,785.0999999994069,4.141729e-05,785.0999999994069,1.848096e-05
785.1149999994069,2.615972e-05,785.1149999994069,2.365603e-05,785.1149999994069,4.03844e-05,785.1149999994069,1.850609e-05
785.1299999994069,2.483091e-05,785.1299999994069,2.478321e-05,785.1299999994069,4.027927e-05,785.1299999994069,1.687782e-05
785.1449999994069,2.416679e-05,785.1449999994069,2.462869e-05,785.1449999994069,3.624611e-05,785.1449999994069,1.841758e-05
785.1599999994069,2.42349e-05,785.1599999994069,2.455079e-05,785.1599999994069,3.521636e-05,785.1599999994069,1.858433e-05
785.1749999994069,2.441442e-05,785.1749999994069,2.441327e-05,785.1749999994069,3.535648e-05,785.1749999994069,1.727624e-05
785.1899999994068,2.366139e-05,785.1899999994068,2.225443e-05,785.1899999994068,3.02124e-05,785.1899999994068,1.674375e-05
785.2049999994068,2.281453e-05,785.2049999994068,2.112435e-05,785.2049999994068,2.773223e-05,785.2049999994068,1.590676e-05
785.2199999994068,1.952614e-05,785.2199999994068,2.002618e-05,785.2199999994068,2.72185e-05,785.2199999994068,1.385748e-05
785.2349999994068,2.211728e-05,785.2349999994068,1.904183e-05,785.2349999994068,2.799059e-05,785.2349999994068,1.17722e-05
785.2499999994068,2.205542e-05,785.2499999994068,1.921855e-05,785.2499999994068,2.323788e-05,785.2499999994068,1.129839e-05
785.2649999994068,2.159783e-05,785.2649999994068,1.906844e-05,785.2649999994068,2.287496e-05,785.2649999994068,1.115535e-05
785.2799999994068,2.132809e-05,785.2799999994068,1.964912e-05,785.2799999994068,2.409324e-05,785.2799999994068,1.1207e-05
785.2949999994067,1.99945e-05,785.2949999994067,1.976206e-05,785.2949999994067,2.423955e-05,785.2949999994067,1.119568e-05
785.3099999994067,1.967491e-05,785.3099999994067,1.982967e-05,785.3099999994067,2.365841e-05,785.3099999994067,1.113892e-05
785.3249999994067,1.891267e-05,785.3249999994067,1.909207e-05,785.3249999994067,2.262916e-05,785.3249999994067,1.114271e-05
785.3399999994067,1.874734e-05,785.3399999994067,1.870823e-05,785.3399999994067,2.195234e-05,785.3399999994067,1.095015e-05
785.3549999994067,1.898552e-05,785.3549999994067,1.879537e-05,785.3549999994067,2.161087e-05,785.3549999994067,1.088564e-05
785.3699999994067,1.702243e-05,785.3699999994067,1.724442e-05,785.3699999994067,2.17415e-05,785.3699999994067,1.085843e-05
785.3849999994067,1.699261e-05,785.3849999994067,1.686363e-05,785.3849999994067,2.219675e-05,785.3849999994067,1.008214e-05
785.3999999994066,1.674459e-05,785.3999999994066,1.668053e-05,785.3999999994066,2.09563e-05,785.3999999994066,6.947012e-06
785.4149999994066,1.656783e-05,785.4149999994066,1.623025e-05,785.4149999994066,2.248929e-05,785.4149999994066,5.797484e-06
785.4299999994066,1.617374e-05,785.4299999994066,1.642694e-05,785.4299999994066,2.1155e-05,785.4299999994066,5.799914e-06
785.4449999994066,1.621896e-05,785.4449999994066,1.668813e-05,785.4449999994066,2.150043e-05,785.4449999994066,6.522406e-06
785.4599999994066,1.645864e-05,785.4599999994066,1.610828e-05,785.4599999994066,2.174474e-05,785.4599999994066,6.663425e-06
785.4749999994066,1.67866e-05,785.4749999994066,1.583309e-05,785.4749999994066,2.152139e-05,785.4749999994066,6.709772e-06
785.4899999994066,1.180805e-05,785.4899999994066,1.555846e-05,785.4899999994066,2.05257e-05,785.4899999994066,6.816002e-06
785.5049999994066,1.111486e-05,785.5049999994066,1.528626e-05,785.5049999994066,2.029449e-05,785.5049999994066,6.565459e-06
785.5199999994065,1.098868e-05,785.5199999994065,1.438028e-05,785.5199999994065,2.345689e-05,785.5199999994065,6.526725e-06
785.5349999994065,1.122584e-05,785.5349999994065,1.358231e-05,785.5349999994065,2.237815e-05,785.5349999994065,6.426676e-06
785.5499999994065,1.122458e-05,785.5499999994065,1.313306e-05,785.5499999994065,2.181717e-05,785.5499999994065,6.304968e-06
785.5649999994065,1.141128e-05,785.5649999994065,1.303941e-05,785.5649999994065,2.194143e-05,785.5649999994065,6.362793e-06
785.5799999994065,1.19786e-05,785.5799999994065,1.29842e-05,785.5799999994065,2.355159e-05,785.5799999994065,6.082075e-06
785.5949999994065,1.184497e-05,785.5949999994065,1.327283e-05,785.5949999994065,2.370183e-05,785.5949999994065,6.287069e-06
785.6099999994065,1.156334e-05,785.6099999994065,1.288728e-05,785.6099999994065,2.477241e-05,785.6099999994065,6.298262e-06
785.6249999994064,1.136303e-05,785.6249999994064,1.253262e-05,785.6249999994064,2.559082e-05,785.6249999994064,6.552573e-06
785.6399999994064,1.154139e-05,785.6399999994064,1.236515e-05,785.6399999994064,2.559797e-05,785.6399999994064,6.652846e-06
785.6549999994064,1.149124e-05,785.6549999994064,1.256517e-05,785.6549999994064,2.528458e-05,785.6549999994064,6.487759e-06
785.6699999994064,1.120574e-05,785.6699999994064,1.240496e-05,785.6699999994064,2.380325e-05,785.6699999994064,6.393712e-06
785.6849999994064,1.11212e-05,785.6849999994064,1.131956e-05,785.6849999994064,2.501348e-05,785.6849999994064,6.459471e-06
785.6999999994064,1.09874e-05,785.6999999994064,1.080902e-05,785.6999999994064,2.550038e-05,785.6999999994064,6.139704e-06
785.7149999994064,1.015315e-05,785.7149999994064,1.067922e-05,785.7149999994064,2.762943e-05,785.7149999994064,6.167175e-06
785.7299999994063,9.468245e-06,785.7299999994063,9.846043e-06,785.7299999994063,2.758708e-05,785.7299999994063,6.121322e-06
785.7449999994063,9.509811e-06,785.7449999994063,9.346957e-06,785.7449999994063,2.692817e-05,785.7449999994063,5.869926e-06
785.7599999994063,9.650967e-06,785.7599999994063,9.150478e-06,785.7599999994063,2.659179e-05,785.7599999994063,5.729046e-06
785.7749999994063,1.058116e-05,785.7749999994063,9.518695e-06,785.7749999994063,2.506524e-05,785.7749999994063,5.719203e-06
785.7899999994063,1.027451e-05,785.7899999994063,9.327345e-06,785.7899999994063,2.49475e-05,785.7899999994063,5.853103e-06
785.8049999994063,1.050768e-05,785.8049999994063,9.13507e-06,785.8049999994063,2.481389e-05,785.8049999994063,5.943854e-06
785.8199999994063,1.030053e-05,785.8199999994063,8.763595e-06,785.8199999994063,2.470351e-05,785.8199999994063,5.860319e-06
785.8349999994063,1.024156e-05,785.8349999994063,8.382385e-06,785.8349999994063,2.352046e-05,785.8349999994063,5.785323e-06
785.8499999994062,1.025118e-05,785.8499999994062,7.876405e-06,785.8499999994062,2.378253e-05,785.8499999994062,5.61731e-06
785.8649999994062,1.014898e-05,785.8649999994062,6.420096e-06,785.8649999994062,2.290266e-05,785.8649999994062,5.743781e-06
785.8799999994062,1.011004e-05,785.8799999994062,6.246608e-06,785.8799999994062,2.244666e-05,785.8799999994062,5.677176e-06
785.8949999994062,9.754049e-06,785.8949999994062,6.50294e-06,785.8949999994062,2.200362e-05,785.8949999994062,5.423375e-06
785.9099999994062,9.858911e-06,785.9099999994062,6.273611e-06,785.9099999994062,2.190481e-05,785.9099999994062,5.541568e-06
785.9249999994062,1.006536e-05,785.9249999994062,6.06584e-06,785.9249999994062,2.142364e-05,785.9249999994062,5.365928e-06
785.9399999994062,1.016424e-05,785.9399999994062,6.028569e-06,785.9399999994062,2.00957e-05,785.9399999994062,5.313164e-06
785.9549999994061,1.052911e-05,785.9549999994061,6.376062e-06,785.9549999994061,1.824236e-05,785.9549999994061,4.987693e-06
785.9699999994061,1.116166e-05,785.9699999994061,6.610363e-06,785.9699999994061,1.665856e-05,785.9699999994061,5.132455e-06
785.9849999994061,1.198331e-05,785.9849999994061,6.66131e-06,785.9849999994061,1.705715e-05,785.9849999994061,5.339611e-06
785.9999999994061,1.178775e-05,785.9999999994061,6.795303e-06,785.9999999994061,1.700173e-05,785.9999999994061,5.48279e-06
786.0149999994061,1.203141e-05,786.0149999994061,6.920602e-06,786.0149999994061,1.5301e-05,786.0149999994061,5.629835e-06
786.0299999994061,1.120951e-05,786.0299999994061,6.322817e-06,786.0299999994061,1.505973e-05,786.0299999994061,5.867525e-06
786.0449999994061,1.15743e-05,786.0449999994061,6.439814e-06,786.0449999994061,1.455554e-05,786.0449999994061,5.898653e-06
786.059999999406,1.117553e-05,786.059999999406,6.518086e-06,786.059999999406,1.450027e-05,786.059999999406,5.927241e-06
786.074999999406,1.168694e-05,786.074999999406,6.722357e-06,786.074999999406,1.473827e-05,786.074999999406,6.06584e-06
786.089999999406,1.229087e-05,786.089999999406,6.924671e-06,786.089999999406,1.460674e-05,786.089999999406,6.109804e-06
786.104999999406,1.225759e-05,786.104999999406,7.105398e-06,786.104999999406,1.479551e-05,786.104999999406,5.986361e-06
786.119999999406,1.21282e-05,786.119999999406,7.099447e-06,786.119999999406,1.437146e-05,786.119999999406,5.905813e-06
786.134999999406,1.238791e-05,786.134999999406,7.085544e-06,786.134999999406,1.296683e-05,786.134999999406,5.974584e-06
786.149999999406,1.235147e-05,786.149999999406,6.678206e-06,786.149999999406,1.302103e-05,786.149999999406,6.08439e-06
786.164999999406,1.243898e-05,786.164999999406,6.603967e-06,786.164999999406,1.289056e-05,786.164999999406,6.289309e-06
786.1799999994059,1.299288e-05,786.1799999994059,6.597564e-06,786.1799999994059,1.321966e-05,786.1799999994059,6.470365e-06
786.1949999994059,1.330569e-05,786.1949999994059,7.093493e-06,786.1949999994059,1.256629e-05,786.1949999994059,6.455107e-06
786.2099999994059,1.322179e-05,786.2099999994059,7.545752e-06,786.2099999994059,1.258645e-05,786.2099999994059,6.705572e-06
786.2249999994059,1.242198e-05,786.2249999994059,7.869248e-06,786.2249999994059,1.211658e-05,786.2249999994059,6.591156e-06
786.2399999994059,1.337328e-05,786.2399999994059,8.098617e-06,786.2399999994059,1.15304e-05,786.2399999994059,6.520246e-06
786.2549999994059,1.37134e-05,786.2549999994059,8.352081e-06,786.2549999994059,1.074497e-05,786.2549999994059,6.431058e-06
786.2699999994059,1.37175e-05,786.2699999994059,8.240013e-06,786.2699999994059,1.068186e-05,786.2699999994059,6.167175e-06
786.2849999994058,1.371237e-05,786.2849999994058,8.308113e-06,786.2849999994058,1.053446e-05,786.2849999994058,6.189974e-06
786.2999999994058,1.329616e-05,786.2999999994058,8.321666e-06,786.2999999994058,1.058915e-05,786.2999999994058,5.948592e-06
786.3149999994058,1.31073e-05,786.3149999994058,8.742674e-06,786.3149999994058,1.010586e-05,786.3149999994058,6.178585e-06
786.3299999994058,1.256853e-05,786.3299999994058,8.43599e-06,786.3299999994058,1.00961e-05,786.3299999994058,6.05887e-06
786.3449999994058,1.206064e-05,786.3449999994058,8.545489e-06,786.3449999994058,9.381556e-06,786.3449999994058,6.595429e-06
786.3599999994058,1.22023e-05,786.3599999994058,8.432649e-06,786.3599999994058,9.219493e-06,786.3599999994058,6.481242e-06
786.3749999994058,1.224494e-05,786.3749999994058,8.379024e-06,786.3749999994058,9.37104e-06,786.3749999994058,6.356147e-06
786.3899999994057,1.234919e-05,786.3899999994057,8.41258e-06,786.3899999994057,9.429483e-06,786.3899999994057,6.365006e-06
786.4049999994057,1.269344e-05,786.4049999994057,8.461e-06,786.4049999994057,9.536437e-06,786.4049999994057,6.316129e-06
786.4199999994057,1.210727e-05,786.4199999994057,8.417602e-06,786.4199999994057,9.728018e-06,786.4199999994057,6.194524e-06
786.4349999994057,1.176742e-05,786.4349999994057,8.45767e-06,786.4349999994057,1.015869e-05,786.4349999994057,6.007502e-06
786.4499999994057,1.164225e-05,786.4499999994057,7.793701e-06,786.4499999994057,1.043234e-05,786.4499999994057,5.804769e-06
786.4649999994057,1.132827e-05,786.4649999994057,7.252564e-06,786.4649999994057,1.113639e-05,786.4649999994057,5.604757e-06
786.4799999994057,1.129215e-05,786.4799999994057,6.776621e-06,786.4799999994057,1.116292e-05,786.4799999994057,5.677176e-06
786.4949999994056,9.662636e-06,786.4949999994056,6.239839e-06,786.4949999994056,1.113892e-05,786.4949999994056,5.862722e-06
786.5099999994056,9.339419e-06,786.5099999994056,6.318359e-06,786.5099999994056,1.116797e-05,786.5099999994056,5.833818e-06
786.5249999994056,9.107272e-06,786.5249999994056,6.351713e-06,786.5249999994056,1.155603e-05,786.5249999994056,5.629835e-06
786.5399999994056,9.328855e-06,786.5399999994056,6.333946e-06,786.5399999994056,1.186042e-05,786.5399999994056,5.612292e-06
786.5549999994056,9.526091e-06,786.5549999994056,6.158032e-06,786.5549999994056,1.209214e-05,786.5549999994056,6.233063e-06
786.5699999994056,9.671379e-06,786.5699999994056,6.125922e-06,786.5699999994056,1.20396e-05,786.5699999994056,5.969867e-06
786.5849999994056,1.010447e-05,786.5849999994056,6.318359e-06,786.5849999994056,1.202789e-05,786.5849999994056,5.981653e-06
786.5999999994056,1.006536e-05,786.5999999994056,6.144291e-06,786.5999999994056,1.207115e-05,786.5999999994056,5.738873e-06
786.6149999994055,1.015176e-05,786.6149999994055,6.153455e-06,786.6149999994055,1.190784e-05,786.6149999994055,6.135114e-06
786.6299999994055,9.873189e-06,786.6299999994055,6.160319e-06,786.6299999994055,1.501665e-05,786.6299999994055,6.160319e-06
786.6449999994055,9.589467e-06,786.6449999994055,6.075122e-06,786.6449999994055,1.650053e-05,786.6449999994055,6.056544e-06
786.6599999994055,9.447393e-06,786.6599999994055,5.976941e-06,786.6599999994055,1.644837e-05,786.6599999994055,6.021555e-06
786.6749999994055,1.085194e-05,786.6749999994055,5.986361e-06,786.6749999994055,1.59333e-05,786.6749999994055,6.148874e-06
786.6899999994055,1.183069e-05,786.6899999994055,5.969867e-06,786.6899999994055,1.588461e-05,786.6899999994055,6.19907e-06
786.7049999994055,1.148143e-05,786.7049999994055,6.194524e-06,786.7049999994055,1.580013e-05,786.7049999994055,6.298262e-06
786.7199999994054,1.187941e-05,786.7199999994054,6.237581e-06,786.7199999994054,1.656103e-05,786.7199999994054,6.426676e-06
786.7349999994054,1.179372e-05,786.7349999994054,6.331722e-06,786.7349999994054,1.721253e-05,786.7349999994054,6.601833e-06
786.7499999994054,1.187467e-05,786.7499999994054,6.320588e-06,786.7499999994054,1.74224e-05,786.7499999994054,6.614623e-06
786.7649999994054,1.256293e-05,786.7649999994054,5.931993e-06,786.7649999994054,1.745067e-05,786.7649999994054,6.900217e-06
786.7799999994054,1.248194e-05,786.7799999994054,5.639834e-06,786.7799999994054,1.768003e-05,786.7799999994054,7.001547e-06
786.7949999994054,1.236515e-05,786.7949999994054,5.604757e-06,786.7949999994054,1.753121e-05,786.7949999994054,6.914493e-06
786.8099999994054,1.234234e-05,786.8099999994054,5.853103e-06,786.8099999994054,1.742401e-05,786.8099999994054,6.428867e-06
786.8249999994053,1.23936e-05,786.8249999994053,5.711809e-06,786.8249999994053,1.74926e-05,786.8249999994053,6.406918e-06
786.8399999994053,1.235831e-05,786.8399999994053,5.782887e-06,786.8399999994053,1.872629e-05,786.8399999994053,6.201342e-06
786.8549999994053,1.227138e-05,786.8549999994053,5.733962e-06,786.8549999994053,1.853119e-05,786.8549999994053,5.867525e-06
786.8699999994053,1.232635e-05,786.8699999994053,5.780451e-06,786.8699999994053,1.73129e-05,786.8699999994053,5.795054e-06
786.8849999994053,1.245143e-05,786.8849999994053,5.785323e-06,786.8849999994053,1.563883e-05,786.8849999994053,5.831403e-06
786.8999999994053,1.252137e-05,786.8999999994053,6.171741e-06,786.8999999994053,1.427706e-05,786.8999999994053,5.694519e-06
786.9149999994053,1.128716e-05,786.9149999994053,6.787006e-06,786.9149999994053,1.514089e-05,786.9149999994053,5.843468e-06
786.9299999994053,1.068713e-05,786.9299999994053,7.1823e-06,786.9299999994053,1.624586e-05,786.9299999994053,5.704405e-06
786.9449999994052,9.893143e-06,786.9449999994052,7.28164e-06,786.9449999994052,1.665433e-05,786.9449999994052,5.498184e-06
786.9599999994052,1.006956e-05,786.9599999994052,7.190141e-06,786.9599999994052,1.650053e-05,786.9599999994052,5.831403e-06
786.9749999994052,9.893143e-06,786.9749999994052,7.391086e-06,786.9749999994052,1.515484e-05,786.9749999994052,5.684616e-06
786.9899999994052,1.020297e-05,786.9899999994052,7.289374e-06,786.9899999994052,1.541383e-05,786.9899999994052,5.454455e-06
787.0049999994052,1.147406e-05,787.0049999994052,7.306746e-06,787.0049999994052,1.590587e-05,787.0049999994052,5.088352e-06
787.0199999994052,1.098098e-05,787.0199999994052,7.242846e-06,787.0199999994052,1.651759e-05,787.0199999994052,5.038274e-06
787.0349999994052,1.095787e-05,787.0349999994052,7.201887e-06,787.0349999994052,1.677485e-05,787.0349999994052,4.950841e-06
787.0499999994051,1.082465e-05,787.0499999994051,7.415822e-06,787.0499999994051,1.686697e-05,787.0499999994051,4.930884e-06
787.0649999994051,1.15194e-05,787.0649999994051,7.314453e-06,787.0649999994051,1.680338e-05,787.0649999994051,5.310512e-06
787.0799999994051,1.172905e-05,787.0799999994051,7.262268e-06,787.0799999994051,1.732998e-05,787.0799999994051,5.184341e-06
787.0949999994051,1.116797e-05,787.0949999994051,7.2409e-06,787.0949999994051,1.595274e-05,787.0949999994051,5.582091e-06
787.1099999994051,1.163015e-05,787.1099999994051,7.22727e-06,787.1099999994051,1.590853e-05,787.1099999994051,5.778013e-06
787.1249999994051,1.153162e-05,787.1249999994051,7.387274e-06,787.1249999994051,1.566943e-05,787.1249999994051,6.266871e-06
787.1399999994051,1.292003e-05,787.1399999994051,7.41962e-06,787.1399999994051,1.553852e-05,787.1399999994051,6.219488e-06
787.154999999405,1.328026e-05,787.154999999405,6.673986e-06,787.154999999405,1.5412e-05,787.154999999405,6.098266e-06
787.169999999405,1.492066e-05,787.169999999405,6.640129e-06,787.169999999405,1.326965e-05,787.169999999405,6.137409e-06
787.184999999405,1.700007e-05,787.184999999405,6.431058e-06,787.184999999405,1.698598e-05,787.184999999405,6.121322e-06
787.199999999405,1.730232e-05,787.199999999405,6.338393e-06,787.199999999405,1.697104e-05,787.199999999405,5.979298e-06
787.214999999405,1.798495e-05,787.214999999405,6.137409e-06,787.214999999405,1.700835e-05,787.214999999405,5.592176e-06
787.229999999405,1.857978e-05,787.229999999405,6.093644e-06,787.229999999405,1.81642e-05,787.229999999405,5.642331e-06
787.244999999405,1.916277e-05,787.244999999405,6.898175e-06,787.244999999405,1.787653e-05,787.244999999405,5.773135e-06
787.259999999405,1.96197e-05,787.259999999405,7.00557e-06,787.259999999405,1.732022e-05,787.259999999405,5.787757e-06
787.2749999994049,2.36953e-05,787.2749999994049,7.196016e-06,787.2749999994049,1.692117e-05,787.2749999994049,5.995767e-06
787.2899999994049,2.449564e-05,787.2899999994049,7.629297e-06,787.2899999994049,1.729092e-05,787.2899999994049,6.380479e-06
787.3049999994049,2.57204e-05,787.3049999994049,7.017624e-06,787.3049999994049,1.733242e-05,787.3049999994049,6.373853e-06
787.3199999994049,2.783212e-05,787.3199999994049,7.254505e-06,787.3199999994049,1.796457e-05,787.3199999994049,6.023894e-06
787.3349999994049,3.078696e-05,787.3349999994049,7.788277e-06,787.3349999994049,1.898107e-05,787.3349999994049,5.962784e-06
787.3499999994049,3.554166e-05,787.3499999994049,1.01933e-05,787.3499999994049,1.991756e-05,787.3499999994049,5.56946e-06
787.3649999994049,4.179143e-05,787.3649999994049,1.224724e-05,787.3649999994049,2.059696e-05,787.3649999994049,5.192486e-06
787.3799999994048,4.386168e-05,787.3799999994048,1.2669e-05,787.3799999994048,2.127253e-05,787.3799999994048,4.83569e-06
787.3949999994048,4.578563e-05,787.3949999994048,1.289711e-05,787.3949999994048,2.249618e-05,787.3949999994048,4.826943e-06
787.4099999994048,4.743664e-05,787.4099999994048,1.332791e-05,787.4099999994048,2.264161e-05,787.4099999994048,5.184341e-06
787.4249999994048,4.880778e-05,787.4249999994048,1.341954e-05,787.4249999994048,2.976285e-05,787.4249999994048,5.14616e-06
787.4399999994048,4.880576e-05,787.4399999994048,1.340379e-05,787.4399999994048,3.058543e-05,787.4399999994048,5.579567e-06
787.4549999994048,5.069547e-05,787.4549999994048,1.338065e-05,787.4549999994048,3.394458e-05,787.4549999994048,5.577042e-06
787.4699999994048,5.165068e-05,787.4699999994048,1.329404e-05,787.4699999994048,3.529507e-05,787.4699999994048,6.19907e-06
787.4849999994047,5.335758e-05,787.4849999994047,1.318445e-05,787.4849999994047,3.68753e-05,787.4849999994047,6.178585e-06
787.4999999994047,5.64832e-05,787.4999999994047,1.322925e-05,787.4999999994047,4.106788e-05,787.4999999994047,6.365006e-06
787.5149999994047,6.083487e-05,787.5149999994047,1.331627e-05,787.5149999994047,4.104077e-05,787.5149999994047,6.25337e-06
787.5299999994047,6.062379e-05,787.5299999994047,1.327708e-05,787.5299999994047,4.203643e-05,787.5299999994047,5.976941e-06
787.5449999994047,6.157025e-05,787.5449999994047,1.390619e-05,787.5449999994047,4.28315e-05,787.5449999994047,5.889093e-06
787.5599999994047,6.354352e-05,787.5599999994047,1.708273e-05,787.5599999994047,4.705949e-05,787.5599999994047,6.005157e-06
787.5749999994047,6.338259e-05,787.5749999994047,1.727135e-05,787.5749999994047,4.754106e-05,787.5749999994047,6.105191e-06
787.5899999994047,6.380435e-05,787.5899999994047,1.705385e-05,787.5899999994047,4.852353e-05,787.5899999994047,6.522406e-06
787.6049999994046,6.033591e-05,787.6049999994046,1.936459e-05,787.6049999994046,5.119705e-05,787.6049999994046,6.757886e-06
787.6199999994046,6.092211e-05,787.6199999994046,1.943358e-05,787.6199999994046,5.24187e-05,787.6199999994046,7.071614e-06
787.6349999994046,5.926885e-05,787.6349999994046,2.006062e-05,787.6349999994046,5.905408e-05,787.6349999994046,8.753946e-06
787.6499999994046,5.896456e-05,787.6499999994046,2.100933e-05,787.6499999994046,6.193046e-05,787.6499999994046,9.042074e-06
787.6649999994046,6.068046e-05,787.6649999994046,2.154167e-05,787.6649999994046,6.491709e-05,787.6649999994046,8.946537e-06
787.6799999994046,6.085756e-05,787.6799999994046,2.167271e-05,787.6799999994046,6.224016e-05,787.6799999994046,8.822869e-06
787.6949999994046,6.193751e-05,787.6949999994046,2.18913e-05,787.6949999994046,6.175849e-05,787.6949999994046,9.184283e-06
787.7099999994045,6.164205e-05,787.7099999994045,2.191381e-05,787.7099999994045,6.384452e-05,787.7099999994045,9.286478e-06
787.7249999994045,6.071991e-05,787.7249999994045,2.19517e-05,787.7249999994045,6.628855e-05,787.7249999994045,9.309204e-06
787.7399999994045,6.125761e-05,787.7399999994045,2.198056e-05,787.7399999994045,6.68746e-05,787.7399999994045,9.233234e-06
787.7549999994045,5.92465e-05,787.7549999994045,2.171492e-05,787.7549999994045,8.425028e-05,787.7549999994045,9.283444e-06
787.7699999994045,5.895643e-05,787.7699999994045,2.171038e-05,787.7699999994045,8.763032e-05,787.7699999994045,9.278891e-06
787.7849999994045,5.865292e-05,787.7849999994045,2.149585e-05,787.7849999994045,9.04385e-05,787.7849999994045,9.318279e-06
787.7999999994045,5.925459e-05,787.7999999994045,2.016567e-05,787.7999999994045,9.20665e-05,787.7999999994045,9.295575e-06
787.8149999994044,5.694123e-05,787.8149999994044,1.91407e-05,787.8149999994044,9.309719e-05,787.8149999994044,9.381556e-06
787.8299999994044,5.727374e-05,787.8299999994044,1.95557e-05,787.8299999994044,9.424119e-05,787.8299999994044,1.028821e-05
787.8449999994044,5.784105e-05,787.8449999994044,1.948064e-05,787.8449999994044,9.539273e-05,787.8449999994044,1.058648e-05
787.8599999994044,5.519357e-05,787.8599999994044,1.570086e-05,787.8599999994044,9.801734e-05,787.8599999994044,1.093342e-05
787.8749999994044,5.486129e-05,787.8749999994044,1.37892e-05,787.8749999994044,9.545266e-05,787.8749999994044,1.120574e-05
787.8899999994044,5.491544e-05,787.8899999994044,1.536623e-05,787.8899999994044,9.487091e-05,787.8899999994044,1.026354e-05
787.9049999994044,5.462197e-05,787.9049999994044,1.529179e-05,787.9049999994044,9.465983e-05,787.9049999994044,1.039175e-05
787.9199999994044,5.309823e-05,787.9199999994044,1.458358e-05,787.9199999994044,9.346144e-05,787.9199999994044,1.060377e-05
787.9349999994043,5.231298e-05,787.9349999994043,1.450124e-05,787.9349999994043,9.366439e-05,787.9349999994043,1.056251e-05
787.9499999994043,5.096955e-05,787.9499999994043,1.487527e-05,787.9499999994043,9.503351e-05,787.9499999994043,1.035781e-05
787.9649999994043,5.033574e-05,787.9649999994043,1.49046e-05,787.9649999994043,9.40242e-05,787.9649999994043,1.03019e-05
787.9799999994043,5.056777e-05,787.9799999994043,1.505412e-05,787.9799999994043,9.361264e-05,787.9799999994043,1.00289e-05
787.9949999994043,4.8256e-05,787.9949999994043,1.545945e-05,787.9949999994043,9.780441e-05,787.9949999994043,1.035101e-05
788.0099999994043,4.488045e-05,788.0099999994043,1.562802e-05,788.0099999994043,8.251732e-05,788.0099999994043,1.037819e-05
788.0249999994043,4.409199e-05,788.0249999994043,1.590499e-05,788.0249999994043,8.364822e-05,788.0249999994043,1.04647e-05
788.0399999994042,4.351732e-05,788.0399999994042,1.63263e-05,788.0399999994042,8.287437e-05,788.0399999994042,1.039446e-05
788.0549999994042,4.58545e-05,788.0549999994042,1.684691e-05,788.0549999994042,8.082651e-05,788.0549999994042,1.130836e-05
788.0699999994042,4.547878e-05,788.0699999994042,1.71732e-05,788.0699999994042,8.02207e-05,788.0699999994042,1.131209e-05
788.0849999994042,4.562536e-05,788.0849999994042,1.629953e-05,788.0849999994042,8.055557e-05,788.0849999994042,1.058915e-05
788.0999999994042,4.476008e-05,788.0999999994042,1.711404e-05,788.0999999994042,7.891342e-05,788.0999999994042,1.157551e-05
788.1149999994042,4.517827e-05,788.1149999994042,1.720352e-05,788.1149999994042,7.571303e-05,788.1149999994042,1.132703e-05
788.1299999994042,4.597752e-05,788.1299999994042,1.600388e-05,788.1299999994042,7.525432e-05,788.1299999994042,1.063958e-05
788.1449999994041,4.580439e-05,788.1449999994041,1.457682e-05,788.1449999994041,7.567265e-05,788.1449999994041,1.057983e-05
788.1599999994041,4.575732e-05,788.1599999994041,1.434203e-05,788.1599999994041,7.502936e-05,788.1599999994041,1.017255e-05
788.1749999994041,4.457243e-05,788.1749999994041,1.423259e-05,788.1749999994041,7.498823e-05,788.1749999994041,1.006816e-05
788.1899999994041,5.077128e-05,788.1899999994041,1.409534e-05,788.1899999994041,7.582495e-05,788.1899999994041,1.001204e-05
788.2049999994041,5.394963e-05,788.2049999994041,1.368152e-05,788.2049999994041,8.638416e-05,788.2049999994041,9.995137e-06
788.2199999994041,5.38668e-05,788.2199999994041,1.346251e-05,788.2199999994041,0.0001125968,788.2199999994041,1.022641e-05
788.2349999994041,5.288689e-05,788.2349999994041,1.33796e-05,788.2349999994041,0.0001332685,788.2349999994041,1.019468e-05
788.249999999404,5.243912e-05,788.249999999404,1.289165e-05,788.249999999404,0.0001503418,788.249999999404,9.857482e-06
788.264999999404,5.343093e-05,788.264999999404,1.689451e-05,788.264999999404,0.0001503837,788.264999999404,9.797278e-06
788.279999999404,5.375082e-05,788.279999999404,1.748051e-05,788.279999999404,0.0001526432,788.279999999404,9.931514e-06
788.294999999404,5.544338e-05,788.294999999404,1.760578e-05,788.294999999404,0.0001593327,788.294999999404,1.036325e-05
788.309999999404,5.940867e-05,788.309999999404,1.68193e-05,788.309999999404,0.0001588469,788.309999999404,9.269777e-06
788.324999999404,5.952877e-05,788.324999999404,1.605134e-05,788.324999999404,0.0001587489,788.324999999404,9.012426e-06
788.339999999404,5.888925e-05,788.339999999404,1.6068e-05,788.339999999404,0.0001585788,788.339999999404,6.836638e-06
788.354999999404,6.105192e-05,788.354999999404,1.504663e-05,788.354999999404,0.0001585048,788.354999999404,6.535352e-06
788.369999999404,6.067466e-05,788.369999999404,1.499505e-05,788.369999999404,0.0001585959,788.369999999404,6.734918e-06
788.3849999994039,6.070483e-05,788.3849999994039,1.496496e-05,788.3849999994039,0.0001590435,788.3849999994039,7.264208e-06
788.3999999994039,6.121505e-05,788.3999999994039,1.498754e-05,788.3999999994039,0.0001614043,788.3999999994039,7.2971e-06
788.4149999994039,6.271163e-05,788.4149999994039,1.489609e-05,788.4149999994039,0.0001656778,788.4149999994039,7.656943e-06
788.4299999994039,6.208335e-05,788.4299999994039,1.494047e-05,788.4299999994039,0.0001661762,788.4299999994039,7.52706e-06
788.4449999994039,5.658984e-05,788.4449999994039,1.507376e-05,788.4449999994039,0.0001653021,788.4449999994039,7.451826e-06
788.4599999994039,5.515936e-05,788.4599999994039,1.511482e-05,788.4599999994039,0.0001575445,788.4599999994039,7.425313e-06
788.4749999994038,5.657217e-05,788.4749999994038,1.598891e-05,788.4749999994038,0.0001427948,788.4749999994038,7.160693e-06
788.4899999994038,5.628583e-05,788.4899999994038,1.805296e-05,788.4899999994038,0.000113023,788.4899999994038,7.186222e-06
788.5049999994038,5.568827e-05,788.5049999994038,1.810517e-05,788.5049999994038,0.0001008975,788.5049999994038,8.666614e-06
788.5199999994038,5.468872e-05,788.5199999994038,1.358957e-05,788.5199999994038,0.0001025798,788.5199999994038,8.995216e-06
788.5349999994038,5.409852e-05,788.5349999994038,1.292875e-05,788.5349999994038,9.960548e-05,788.5349999994038,8.537242e-06
788.5499999994038,5.104825e-05,788.5499999994038,1.315343e-05,788.5499999994038,8.877766e-05,788.5499999994038,8.553727e-06
788.5649999994038,4.749007e-05,788.5649999994038,1.348656e-05,788.5649999994038,8.839187e-05,788.5649999994038,8.702299e-06
788.5799999994038,4.768957e-05,788.5799999994038,1.3547e-05,788.5799999994038,9.034875e-05,788.5799999994038,8.712006e-06
788.5949999994037,4.62363e-05,788.5949999994037,1.339433e-05,788.5949999994037,8.956074e-05,788.5949999994037,8.741063e-06
788.6099999994037,4.607913e-05,788.6099999994037,1.337749e-05,788.6099999994037,8.903765e-05,788.6099999994037,8.699061e-06
788.6249999994037,4.679443e-05,788.6249999994037,1.331098e-05,788.6249999994037,9.629515e-05,788.6249999994037,8.555373e-06
788.6399999994037,4.659502e-05,788.6399999994037,1.339433e-05,788.6399999994037,0.0001049728,788.6399999994037,8.492574e-06
788.6549999994037,4.465232e-05,788.6549999994037,1.336274e-05,788.6549999994037,0.0001016819,788.6549999994037,8.703918e-06
788.6699999994037,4.415041e-05,788.6699999994037,1.321753e-05,788.6699999994037,0.0001221298,788.6699999994037,8.982679e-06
788.6849999994037,4.557841e-05,788.6849999994037,1.338802e-05,788.6849999994037,0.0001245398,788.6849999994037,9.208791e-06
788.6999999994036,4.549427e-05,788.6999999994036,1.356986e-05,788.6999999994036,0.0001248886,788.6999999994036,9.349971e-06
788.7149999994036,4.613351e-05,788.7149999994036,1.379941e-05,788.7149999994036,0.0001249828,788.7149999994036,9.392062e-06
788.7299999994036,4.627528e-05,788.7299999994036,1.283361e-05,788.7299999994036,0.0001259157,788.7299999994036,9.792964e-06
788.7449999994036,4.764672e-05,788.7449999994036,1.140758e-05,788.7449999994036,0.0001256163,788.7449999994036,9.788648e-06
788.7599999994036,4.80395e-05,788.7599999994036,1.197743e-05,788.7599999994036,0.0001262337,788.7599999994036,8.637307e-06
788.7749999994036,4.91698e-05,788.7749999994036,1.210145e-05,788.7749999994036,0.0001248038,788.7749999994036,8.128133e-06
788.7899999994036,4.902922e-05,788.7899999994036,1.207115e-05,788.7899999994036,0.0001244958,788.7899999994036,8.157542e-06
788.8049999994035,4.870377e-05,788.8049999994035,1.118939e-05,788.8049999994035,0.0001259178,788.8049999994035,7.876405e-06
788.8199999994035,4.662464e-05,788.8199999994035,1.105896e-05,788.8199999994035,0.0001258323,788.8199999994035,7.771981e-06
788.8349999994035,4.6761e-05,788.8349999994035,1.127217e-05,788.8349999994035,0.0001283318,788.8349999994035,7.728359e-06
788.8499999994035,4.754876e-05,788.8499999994035,1.144702e-05,788.8499999994035,0.0001343479,788.8499999994035,7.656943e-06
788.8649999994035,4.536993e-05,788.8649999994035,1.161924e-05,788.8649999994035,0.0001361989,788.8649999994035,8.007658e-06
788.8799999994035,4.614175e-05,788.8799999994035,1.171703e-05,788.8799999994035,0.0001251639,788.8799999994035,7.844146e-06
788.8949999994035,4.806793e-05,788.8949999994035,1.239814e-05,788.8949999994035,0.0001293773,788.8949999994035,8.671489e-06
788.9099999994035,4.753216e-05,788.9099999994035,1.256405e-05,788.9099999994035,0.0001225516,788.9099999994035,8.596438e-06
788.9249999994034,4.845439e-05,788.9249999994034,1.628397e-05,788.9249999994034,0.0001072236,788.9249999994034,8.46433e-06
788.9399999994034,4.737246e-05,788.9399999994034,1.690868e-05,788.9399999994034,0.000108871,788.9399999994034,8.212614e-06
788.9549999994034,4.63267e-05,788.9549999994034,1.742886e-05,788.9549999994034,0.0001078906,788.9549999994034,8.253678e-06
788.9699999994034,4.504525e-05,788.9699999994034,1.700007e-05,788.9699999994034,0.0001051495,788.9699999994034,7.944076e-06
788.9849999994034,4.29799e-05,788.9849999994034,1.626926e-05,788.9849999994034,0.0001049466,788.9849999994034,7.634834e-06
788.9999999994034,4.205352e-05,788.9999999994034,1.596334e-05,788.9999999994034,0.000104271,788.9999999994034,7.586711e-06
789.0149999994034,4.277785e-05,789.0149999994034,1.57376e-05,789.0149999994034,0.0001026491,789.0149999994034,7.682656e-06
789.0299999994033,4.134751e-05,789.0299999994033,1.575192e-05,789.0299999994033,0.0001063204,789.0299999994033,7.838757e-06
789.0449999994033,4.210407e-05,789.0449999994033,1.587751e-05,789.0449999994033,0.0001049553,789.0449999994033,7.894269e-06
789.0599999994033,4.329079e-05,789.0599999994033,1.596863e-05,789.0599999994033,0.0001044458,789.0599999994033,7.90675e-06
789.0749999994033,4.328428e-05,789.0749999994033,1.577783e-05,789.0749999994033,0.0001046031,789.0749999994033,7.935205e-06
789.0899999994033,4.310491e-05,789.0899999994033,1.571521e-05,789.0899999994033,9.422907e-05,789.0899999994033,7.912094e-06
789.1049999994033,4.350502e-05,789.1049999994033,1.57689e-05,789.1049999994033,9.079682e-05,789.1049999994033,7.931653e-06
789.1199999994033,4.490148e-05,789.1199999994033,1.560276e-05,789.1199999994033,9.2849e-05,789.1199999994033,7.607108e-06
789.1349999994032,4.057962e-05,789.1349999994032,1.606274e-05,789.1349999994032,0.0001006456,789.1349999994032,7.806343e-06
789.1499999994032,4.086948e-05,789.1499999994032,1.665856e-05,789.1499999994032,9.294059e-05,789.1499999994032,6.541815e-06
789.1649999994032,4.111039e-05,789.1649999994032,1.646463e-05,789.1649999994032,9.261278e-05,789.1649999994032,6.411314e-06
789.1799999994032,3.94635e-05,789.1799999994032,1.271673e-05,789.1799999994032,9.263636e-05,789.1799999994032,6.160319e-06
789.1949999994032,4.044749e-05,789.1949999994032,1.30286e-05,789.1949999994032,9.089714e-05,789.1949999994032,6.178585e-06
789.2099999994032,4.044052e-05,789.2099999994032,1.217804e-05,789.2099999994032,8.928381e-05,789.2099999994032,6.035575e-06
789.2249999994032,4.101124e-05,789.2249999994032,1.253599e-05,789.2249999994032,8.885204e-05,789.2249999994032,6.051891e-06
789.2399999994032,4.210139e-05,789.2399999994032,1.376364e-05,789.2399999994032,8.871495e-05,789.2399999994032,6.040241e-06
789.2549999994031,4.157582e-05,789.2549999994031,1.382185e-05,789.2549999994031,8.894442e-05,789.2549999994031,5.848288e-06
789.2699999994031,4.208567e-05,789.2699999994031,1.444577e-05,789.2699999994031,8.97014e-05,789.2699999994031,6.047233e-06
789.2849999994031,4.245292e-05,789.2849999994031,1.43979e-05,789.2849999994031,8.592832e-05,789.2849999994031,5.836232e-06
789.2999999994031,4.240544e-05,789.2999999994031,1.430072e-05,789.2999999994031,8.528261e-05,789.2999999994031,5.782887e-06
789.3149999994031,4.124791e-05,789.3149999994031,1.424149e-05,789.3149999994031,8.514491e-05,789.3149999994031,5.862722e-06
789.3299999994031,4.108194e-05,789.3299999994031,1.424742e-05,789.3299999994031,8.360796e-05,789.3299999994031,6.091332e-06
789.3449999994031,4.016931e-05,789.3449999994031,1.421773e-05,789.3449999994031,8.269842e-05,789.3449999994031,7.019631e-06
789.359999999403,4.124791e-05,789.359999999403,1.428495e-05,789.359999999403,8.050362e-05,789.359999999403,7.097463e-06
789.374999999403,4.070751e-05,789.374999999403,1.401717e-05,789.374999999403,7.949695e-05,789.374999999403,6.688745e-06
789.389999999403,4.018894e-05,789.389999999403,1.333319e-05,789.389999999403,6.501618e-05,789.389999999403,6.789081e-06
789.404999999403,4.075558e-05,789.404999999403,1.317055e-05,789.404999999403,6.837627e-05,789.404999999403,6.713969e-06
789.419999999403,4.04736e-05,789.419999999403,1.420881e-05,789.419999999403,6.649563e-05,789.419999999403,6.599699e-06
789.434999999403,4.370789e-05,789.434999999403,1.401315e-05,789.434999999403,6.322037e-05,789.434999999403,6.593293e-06
789.449999999403,4.33477e-05,789.449999999403,1.357713e-05,789.449999999403,6.151738e-05,789.449999999403,6.863372e-06
789.464999999403,4.378871e-05,789.464999999403,1.376978e-05,789.464999999403,6.134448e-05,789.464999999403,6.890002e-06
789.4799999994029,4.422724e-05,789.4799999994029,1.266233e-05,789.4799999994029,5.982572e-05,789.4799999994029,7.003558e-06
789.4949999994029,4.402996e-05,789.4949999994029,1.199741e-05,789.4949999994029,6.254946e-05,789.4949999994029,6.995509e-06
789.5099999994029,4.473741e-05,789.5099999994029,1.134939e-05,789.5099999994029,5.952759e-05,789.5099999994029,6.997522e-06
789.5249999994029,4.509026e-05,789.5249999994029,1.125717e-05,789.5249999994029,5.84436e-05,789.5249999994029,7.093493e-06
789.5399999994029,4.478022e-05,789.5399999994029,1.136799e-05,789.5399999994029,6.001004e-05,789.5399999994029,7.379642e-06
789.5549999994029,4.561641e-05,789.5549999994029,1.140511e-05,789.5549999994029,5.996354e-05,789.5549999994029,7.790086e-06
789.5699999994029,4.708283e-05,789.5699999994029,1.170139e-05,789.5699999994029,5.874508e-05,789.5699999994029,7.98652e-06
789.5849999994028,4.703254e-05,789.5849999994028,1.209796e-05,789.5849999994028,5.977861e-05,789.5849999994028,7.913874e-06
789.5999999994028,4.878959e-05,789.5999999994028,1.258086e-05,789.5999999994028,6.077441e-05,789.5999999994028,7.037669e-06
789.6149999994028,4.708523e-05,789.6149999994028,1.275433e-05,789.6149999994028,6.202342e-05,789.6149999994028,7.144938e-06
789.6299999994028,4.881846e-05,789.6299999994028,1.281823e-05,789.6299999994028,5.645851e-05,789.6299999994028,7.174451e-06
789.6449999994028,5.46761e-05,789.6449999994028,1.287087e-05,789.6449999994028,5.153628e-05,789.6449999994028,6.846933e-06
789.6599999994028,5.388484e-05,789.6599999994028,1.191138e-05,789.6599999994028,4.717788e-05,789.6599999994028,6.774542e-06
789.6749999994028,5.348047e-05,789.6749999994028,1.148388e-05,789.6749999994028,5.069658e-05,789.6749999994028,6.784931e-06
789.6899999994027,5.091784e-05,789.6899999994027,1.161197e-05,789.6899999994027,4.866962e-05,789.6899999994027,6.737009e-06
789.7049999994027,5.09253e-05,789.7049999994027,1.124339e-05,789.7049999994027,4.79905e-05,789.7049999994027,6.457289e-06
789.7199999994027,5.073491e-05,789.7199999994027,1.116418e-05,789.7199999994027,4.816601e-05,789.7199999994027,6.485587e-06
789.7349999994027,5.047213e-05,789.7349999994027,1.104494e-05,789.7349999994027,4.966749e-05,789.7349999994027,6.450741e-06
789.7499999994027,5.041209e-05,789.7499999994027,1.089211e-05,789.7499999994027,4.592111e-05,789.7499999994027,6.494269e-06
789.7649999994027,4.943837e-05,789.7649999994027,1.068318e-05,789.7649999994027,4.759288e-05,789.7649999994027,6.098266e-06
789.7799999994027,4.973637e-05,789.7799999994027,1.048621e-05,789.7799999994027,4.792471e-05,789.7799999994027,6.079758e-06
789.7949999994026,4.963941e-05,789.7949999994026,1.05958e-05,789.7949999994026,4.626523e-05,789.7949999994026,5.738873e-06
789.8099999994026,5.234394e-05,789.8099999994026,1.048487e-05,789.8099999994026,4.582868e-05,789.8099999994026,5.48279e-06
789.8249999994026,5.309584e-05,789.8249999994026,1.008354e-05,789.8249999994026,4.784675e-05,789.8249999994026,5.02147e-06
789.8399999994026,5.310565e-05,789.8399999994026,9.480139e-06,789.8399999994026,4.940844e-05,789.8399999994026,5.137942e-06
789.8549999994026,5.208035e-05,789.8549999994026,8.894426e-06,789.8549999994026,4.74954e-05,789.8549999994026,5.528843e-06
789.8699999994026,5.832513e-05,789.8699999994026,9.018676e-06,789.8699999994026,4.515862e-05,789.8699999994026,5.294573e-06
789.8849999994026,5.702405e-05,789.8849999994026,9.275854e-06,789.8849999994026,4.581393e-05,789.8849999994026,5.265225e-06
789.8999999994026,5.231864e-05,789.8999999994026,1.043504e-05,789.8999999994026,4.583514e-05,789.8999999994026,5.299891e-06
789.9149999994025,5.285039e-05,789.9149999994025,1.022641e-05,789.9149999994025,4.659744e-05,789.9149999994025,5.339611e-06
789.9299999994025,5.251026e-05,789.9299999994025,1.06051e-05,789.9299999994025,4.444235e-05,789.9299999994025,5.48279e-06
789.9449999994025,5.318597e-05,789.9449999994025,1.058915e-05,789.9449999994025,4.400916e-05,789.9449999994025,5.584614e-06
789.9599999994025,5.302362e-05,789.9599999994025,1.11604e-05,789.9599999994025,4.567535e-05,789.9599999994025,5.521194e-06
789.9749999994025,5.39397e-05,789.9749999994025,1.113892e-05,789.9749999994025,4.542579e-05,789.9749999994025,5.394728e-06
789.9899999994025,5.379038e-05,789.9899999994025,1.139151e-05,789.9899999994025,4.759258e-05,789.9899999994025,5.662269e-06
790.0049999994025,5.359781e-05,790.0049999994025,1.149247e-05,790.0049999994025,4.774419e-05,790.0049999994025,5.56946e-06
790.0199999994024,5.309319e-05,790.0199999994024,1.153406e-05,790.0199999994024,4.69852e-05,790.0199999994024,6.892046e-06
790.0349999994024,5.169266e-05,790.0349999994024,1.139769e-05,790.0349999994024,4.696631e-05,790.0349999994024,6.869526e-06
790.0499999994024,4.822358e-05,790.0499999994024,1.138038e-05,790.0499999994024,4.85888e-05,790.0499999994024,6.904299e-06
790.0649999994024,4.815752e-05,790.0649999994024,1.142485e-05,790.0649999994024,4.774537e-05,790.0649999994024,6.871577e-06
790.0799999994024,4.921448e-05,790.0799999994024,1.163983e-05,790.0799999994024,4.917983e-05,790.0799999994024,7.001547e-06
790.0949999994024,4.876331e-05,790.0949999994024,1.420286e-05,790.0949999994024,4.785529e-05,790.0949999994024,6.865424e-06
790.1099999994024,4.601825e-05,790.1099999994024,1.565773e-05,790.1099999994024,4.795938e-05,790.1099999994024,7.599698e-06
790.1249999994023,4.294711e-05,790.1249999994023,1.875711e-05,790.1249999994023,4.854791e-05,790.1249999994023,7.824367e-06
790.1399999994023,4.39079e-05,790.1399999994023,1.957658e-05,790.1399999994023,4.808727e-05,790.1399999994023,8.25709e-06
790.1549999994023,4.362466e-05,790.1549999994023,1.956722e-05,790.1549999994023,4.633399e-05,790.1549999994023,8.599714e-06
790.1699999994023,4.443252e-05,790.1699999994023,1.96613e-05,790.1699999994023,4.591129e-05,790.1699999994023,8.668239e-06
790.1849999994023,4.621801e-05,790.1849999994023,1.993241e-05,790.1849999994023,4.598395e-05,790.1849999994023,8.591521e-06
790.1999999994023,4.525615e-05,790.1999999994023,2.032778e-05,790.1999999994023,4.610205e-05,790.1999999994023,8.560311e-06
790.2149999994023,4.673871e-05,790.2149999994023,2.021242e-05,790.2149999994023,4.620887e-05,790.2149999994023,8.533942e-06
790.2299999994023,4.633673e-05,790.2299999994023,2.002407e-05,790.2299999994023,4.670494e-05,790.2299999994023,8.477633e-06
790.2449999994022,4.643846e-05,790.2449999994022,2.01503e-05,790.2449999994022,4.599468e-05,790.2449999994022,8.286042e-06
790.2599999994022,4.749214e-05,790.2599999994022,2.029935e-05,790.2599999994022,4.542671e-05,790.2599999994022,8.761987e-06
790.2749999994022,4.907402e-05,790.2749999994022,2.04893e-05,790.2749999994022,4.5817e-05,790.2749999994022,7.840554e-06
790.2899999994022,5.024583e-05,790.2899999994022,2.050511e-05,790.2899999994022,4.514365e-05,790.2899999994022,7.673483e-06
790.3049999994022,5.066907e-05,790.3049999994022,2.063181e-05,790.3049999994022,4.772353e-05,790.3049999994022,8.976404e-06
790.3199999994022,4.95306e-05,790.3199999994022,2.061951e-05,790.3199999994022,4.713636e-05,790.3199999994022,1.110979e-05
790.3349999994022,4.888334e-05,790.3349999994022,2.047486e-05,790.3349999994022,4.542765e-05,790.3349999994022,1.26512e-05
790.3499999994021,5.39209e-05,790.3499999994021,1.770233e-05,790.3499999994021,4.39435e-05,790.3499999994021,1.350013e-05
790.3649999994021,5.451355e-05,790.3649999994021,1.697602e-05,790.3649999994021,4.462896e-05,790.3649999994021,1.313521e-05
790.3799999994021,5.527722e-05,790.3799999994021,1.350326e-05,790.3799999994021,4.492406e-05,790.3799999994021,1.301995e-05
790.3949999994021,5.50589e-05,790.3949999994021,1.236059e-05,790.3949999994021,4.583483e-05,790.3949999994021,1.319086e-05
790.4099999994021,5.483894e-05,790.4099999994021,1.307286e-05,790.4099999994021,4.655631e-05,790.4099999994021,1.301995e-05
790.4249999994021,5.467997e-05,790.4249999994021,1.331416e-05,790.4249999994021,4.614267e-05,790.4249999994021,1.295705e-05
790.4399999994021,5.523668e-05,790.4399999994021,1.33131e-05,790.4399999994021,4.680195e-05,790.4399999994021,1.298637e-05
790.454999999402,5.412689e-05,790.454999999402,1.322179e-05,790.454999999402,4.892971e-05,790.454999999402,1.302644e-05
790.469999999402,5.509215e-05,790.469999999402,1.309654e-05,790.469999999402,4.662192e-05,790.469999999402,1.298094e-05
790.484999999402,5.554187e-05,790.484999999402,1.335536e-05,790.484999999402,4.510119e-05,790.484999999402,1.295596e-05
790.499999999402,5.651163e-05,790.499999999402,1.324202e-05,790.499999999402,4.631514e-05,790.499999999402,1.271673e-05
790.514999999402,5.760825e-05,790.514999999402,1.310622e-05,790.514999999402,4.923393e-05,790.514999999402,1.252137e-05
790.529999999402,5.616808e-05,790.529999999402,1.292984e-05,790.529999999402,4.85302e-05,790.529999999402,1.254498e-05
790.544999999402,5.569105e-05,790.544999999402,1.292875e-05,790.544999999402,4.917324e-05,790.544999999402,1.26356e-05
790.559999999402,5.598596e-05,790.559999999402,1.285116e-05,790.559999999402,4.792853e-05,790.559999999402,9.93435e-06
790.5749999994019,5.623826e-05,790.5749999994019,1.297986e-05,790.5749999994019,4.69267e-05,790.5749999994019,9.217965e-06
790.5899999994019,5.62628e-05,790.5899999994019,1.297986e-05,790.5899999994019,4.7817e-05,790.5899999994019,6.019215e-06
790.6049999994019,5.04978e-05,790.6049999994019,1.387069e-05,790.6049999994019,4.92531e-05,790.6049999994019,5.222243e-06
790.6199999994019,5.404485e-05,790.6199999994019,1.465392e-05,790.6199999994019,4.818794e-05,790.6199999994019,5.115961e-06
790.6349999994019,5.140381e-05,790.6349999994019,1.458744e-05,790.6349999994019,4.626401e-05,790.6349999994019,4.962209e-06
790.6499999994019,5.143669e-05,790.6499999994019,1.391834e-05,790.6499999994019,4.832339e-05,790.6499999994019,4.118297e-06
790.6649999994019,5.273192e-05,790.6649999994019,1.294944e-05,790.6649999994019,4.781936e-05,790.6649999994019,4.135364e-06
790.6799999994018,5.325002e-05,790.6799999994018,1.224264e-05,790.6799999994018,4.764849e-05,790.6799999994018,4.212983e-06
790.6949999994018,5.272123e-05,790.6949999994018,1.16362e-05,790.6949999994018,4.71949e-05,790.6949999994018,4.083948e-06
790.7099999994018,5.26279e-05,790.7099999994018,1.164588e-05,790.7099999994018,4.611702e-05,790.7099999994018,4.059732e-06
790.7249999994018,5.256951e-05,790.7249999994018,1.188534e-05,790.7249999994018,4.960307e-05,790.7249999994018,4.094283e-06
790.7399999994018,5.299838e-05,790.7399999994018,1.172424e-05,790.7399999994018,4.989783e-05,790.7399999994018,4.328428e-06
790.7549999994018,5.107225e-05,790.7549999994018,1.141004e-05,790.7549999994018,4.69342e-05,790.7549999994018,4.472482e-06
790.7699999994018,4.979694e-05,790.7699999994018,1.121454e-05,790.7699999994018,4.648727e-05,790.7699999994018,4.642481e-06
790.7849999994017,5.229494e-05,790.7849999994017,1.136551e-05,790.7849999994017,4.780522e-05,790.7849999994017,4.936594e-06
790.7999999994017,5.193815e-05,790.7999999994017,1.134442e-05,790.7999999994017,4.657174e-05,790.7999999994017,4.905105e-06
790.8149999994017,5.163131e-05,790.8149999994017,1.138533e-05,790.8149999994017,4.567474e-05,790.8149999994017,5.135199e-06
790.8299999994017,5.247162e-05,790.8299999994017,1.130586e-05,790.8299999994017,4.560467e-05,790.8299999994017,5.173461e-06
790.8449999994017,5.382206e-05,790.8449999994017,1.106023e-05,790.8449999994017,4.537707e-05,790.8449999994017,5.2679e-06
790.8599999994017,5.206926e-05,790.8599999994017,1.032512e-05,790.8599999994017,4.589012e-05,790.8599999994017,5.257193e-06
790.8749999994017,5.365534e-05,790.8749999994017,1.029369e-05,790.8749999994017,4.617014e-05,790.8749999994017,5.126963e-06
790.8899999994017,5.447994e-05,790.8899999994017,1.054248e-05,790.8899999994017,4.460655e-05,790.8899999994017,5.176183e-06
790.9049999994016,5.537702e-05,790.9049999994016,1.10933e-05,790.9049999994016,4.287423e-05,790.9049999994016,5.195198e-06
790.9199999994016,5.552614e-05,790.9199999994016,1.155725e-05,790.9199999994016,4.30431e-05,790.9199999994016,5.371176e-06
790.9349999994016,5.322965e-05,790.9349999994016,1.390922e-05,790.9349999994016,4.377037e-05,790.9349999994016,5.384273e-06
790.9499999994016,5.306665e-05,790.9499999994016,1.39517e-05,790.9499999994016,4.414243e-05,790.9499999994016,6.082075e-06
790.9649999994016,5.363197e-05,790.9649999994016,1.409634e-05,790.9649999994016,4.301855e-05,790.9649999994016,6.322817e-06
790.9799999994016,5.255826e-05,790.9799999994016,1.425039e-05,790.9799999994016,4.304703e-05,790.9799999994016,6.444187e-06
790.9949999994016,5.449364e-05,790.9949999994016,1.425533e-05,790.9949999994016,4.291561e-05,790.9949999994016,6.329497e-06
791.0099999994015,5.640559e-05,791.0099999994015,1.453229e-05,791.0099999994015,4.357329e-05,791.0099999994015,6.362793e-06
791.0249999994015,5.613146e-05,791.0249999994015,1.498378e-05,791.0249999994015,4.622655e-05,791.0249999994015,6.051891e-06
791.0399999994015,5.449649e-05,791.0399999994015,1.489231e-05,791.0399999994015,4.410732e-05,791.0399999994015,5.853103e-06
791.0549999994015,5.413886e-05,791.0549999994015,1.484778e-05,791.0549999994015,4.367436e-05,791.0549999994015,5.993417e-06
791.0699999994015,5.386941e-05,791.0699999994015,1.482689e-05,791.0699999994015,4.309544e-05,791.0699999994015,5.862722e-06
791.0849999994015,5.377754e-05,791.0849999994015,1.477455e-05,791.0849999994015,4.340615e-05,791.0849999994015,5.867525e-06
791.0999999994015,5.35347e-05,791.0999999994015,1.433613e-05,791.0999999994015,4.268258e-05,791.0999999994015,5.995767e-06
791.1149999994014,5.306877e-05,791.1149999994014,1.399806e-05,791.1149999994014,4.261586e-05,791.1149999994014,5.948592e-06
791.1299999994014,4.923565e-05,791.1299999994014,1.381472e-05,791.1299999994014,4.24569e-05,791.1299999994014,5.967507e-06
791.1449999994014,4.994608e-05,791.1449999994014,1.466833e-05,791.1449999994014,4.25401e-05,791.1449999994014,6.203613e-06
791.1599999994014,4.808141e-05,791.1599999994014,1.435871e-05,791.1599999994014,4.29599e-05,791.1599999994014,6.201342e-06
791.1749999994014,4.831027e-05,791.1749999994014,1.359786e-05,791.1749999994014,4.382215e-05,791.1749999994014,5.993417e-06
791.1899999994014,4.886864e-05,791.1899999994014,1.491027e-05,791.1899999994014,4.45269e-05,791.1899999994014,5.857914e-06
791.2049999994014,4.957069e-05,791.2049999994014,1.833633e-05,791.2049999994014,4.472513e-05,791.2049999994014,5.262549e-06
791.2199999994014,5.043472e-05,791.2199999994014,1.817041e-05,791.2199999994014,4.48324e-05,791.2199999994014,4.782967e-06
791.2349999994013,4.810016e-05,791.2349999994013,1.853119e-05,791.2349999994013,4.31353e-05,791.2349999994013,5.2679e-06
791.2499999994013,4.980628e-05,791.2499999994013,1.845884e-05,791.2499999994013,4.217527e-05,791.2499999994013,5.462197e-06
791.2649999994013,4.900249e-05,791.2649999994013,1.902629e-05,791.2649999994013,4.155277e-05,791.2649999994013,5.939112e-06
791.2799999994013,4.966522e-05,791.2799999994013,1.928295e-05,791.2799999994013,4.148186e-05,791.2799999994013,5.960421e-06
791.2949999994013,5.289675e-05,791.2949999994013,1.936678e-05,791.2949999994013,4.49319e-05,791.2949999994013,5.857914e-06
791.3099999994013,5.415135e-05,791.3099999994013,1.947775e-05,791.3099999994013,4.522595e-05,791.3099999994013,6.417902e-06
791.3249999994013,5.432536e-05,791.3249999994013,1.93973e-05,791.3249999994013,4.552491e-05,791.3249999994013,6.599699e-06
791.3399999994012,5.555151e-05,791.3399999994012,1.942053e-05,791.3399999994012,4.697171e-05,791.3399999994012,6.627389e-06
791.3549999994012,5.494339e-05,791.3549999994012,1.938277e-05,791.3549999994012,4.768366e-05,791.3549999994012,6.734918e-06
791.3699999994012,6.043761e-05,791.3699999994012,1.940166e-05,791.3699999994012,4.738137e-05,791.3699999994012,6.846933e-06
791.3849999994012,6.214277e-05,791.3849999994012,1.913481e-05,791.3849999994012,4.836826e-05,791.3849999994012,6.914493e-06
791.3999999994012,6.471802e-05,791.3999999994012,1.874809e-05,791.3999999994012,4.906943e-05,791.3999999994012,7.101431e-06
791.4149999994012,6.405731e-05,791.4149999994012,1.874509e-05,791.4149999994012,5.792599e-05,791.4149999994012,7.15085e-06
791.4299999994012,6.417045e-05,791.4299999994012,1.777618e-05,791.4299999994012,5.730988e-05,791.4299999994012,7.235062e-06
791.4449999994011,6.795325e-05,791.4449999994011,1.574834e-05,791.4449999994011,5.617084e-05,791.4449999994011,7.242846e-06
791.4599999994011,6.800567e-05,791.4599999994011,1.390517e-05,791.4599999994011,5.750937e-05,791.4599999994011,7.392992e-06
791.4749999994011,6.733893e-05,791.4749999994011,1.365885e-05,791.4749999994011,6.056242e-05,791.4749999994011,7.498936e-06
791.4899999994011,6.972333e-05,791.4899999994011,1.332473e-05,791.4899999994011,5.966916e-05,791.4899999994011,7.103415e-06
791.5049999994011,6.827875e-05,791.5049999994011,1.214213e-05,791.5049999994011,5.933417e-05,791.5049999994011,6.805661e-06
791.5199999994011,7.019631e-05,791.5199999994011,1.161924e-05,791.5199999994011,6.088302e-05,791.5199999994011,6.50294e-06
791.5349999994011,7.075398e-05,791.5349999994011,1.142855e-05,791.5349999994011,6.006705e-05,791.5349999994011,6.711871e-06
791.549999999401,6.838368e-05,791.549999999401,1.148633e-05,791.549999999401,6.006752e-05,791.549999999401,6.686639e-06
791.564999999401,6.89554e-05,791.564999999401,1.152673e-05,791.564999999401,6.134861e-05,791.564999999401,5.853103e-06
791.579999999401,6.834866e-05,791.579999999401,1.148879e-05,791.579999999401,6.199798e-05,791.579999999401,5.773135e-06
791.594999999401,6.978816e-05,791.594999999401,1.204896e-05,791.594999999401,6.082329e-05,791.594999999401,6.049562e-06
791.609999999401,7.071475e-05,791.609999999401,1.366194e-05,791.609999999401,6.133781e-05,791.609999999401,6.009847e-06
791.624999999401,6.739267e-05,791.624999999401,1.463372e-05,791.624999999401,6.61605e-05,791.624999999401,6.264623e-06
791.639999999401,6.590343e-05,791.639999999401,1.494047e-05,791.639999999401,6.802431e-05,791.639999999401,6.248863e-06
791.654999999401,6.537895e-05,791.654999999401,1.685193e-05,791.654999999401,6.302957e-05,791.654999999401,6.753716e-06
791.6699999994009,6.983738e-05,791.6699999994009,1.763056e-05,791.6699999994009,6.21754e-05,791.6699999994009,7.264208e-06
791.6849999994009,7.04619e-05,791.6849999994009,1.748293e-05,791.6849999994009,6.523789e-05,791.6849999994009,7.2409e-06
791.6999999994009,6.819308e-05,791.6999999994009,1.653464e-05,791.6999999994009,6.55053e-05,791.6999999994009,7.201887e-06
791.7149999994009,6.996556e-05,791.7149999994009,1.643209e-05,791.7149999994009,6.282429e-05,791.7149999994009,7.597844e-06
791.7299999994009,6.783373e-05,791.7299999994009,1.643638e-05,791.7299999994009,6.144635e-05,791.7299999994009,8.275836e-06
791.7449999994009,6.774292e-05,791.7449999994009,1.676309e-05,791.7449999994009,6.217902e-05,791.7449999994009,1.051305e-05
791.7599999994009,6.801913e-05,791.7599999994009,1.674712e-05,791.7599999994009,6.235549e-05,791.7599999994009,1.601883e-05
791.7749999994008,6.604073e-05,791.7749999994008,1.666702e-05,791.7749999994008,5.881625e-05,791.7749999994008,2.153186e-05
791.7899999994008,6.480003e-05,791.7899999994008,1.642008e-05,791.7899999994008,5.788852e-05,791.7899999994008,2.163368e-05
791.8049999994008,6.387011e-05,791.8049999994008,1.630645e-05,791.8049999994008,5.959357e-05,791.8049999994008,2.225443e-05
791.8199999994008,6.456351e-05,791.8199999994008,1.645008e-05,791.8199999994008,5.78106e-05,791.8199999994008,2.236871e-05
791.8349999994008,6.425711e-05,791.8349999994008,1.649541e-05,791.8349999994008,6.110704e-05,791.8349999994008,2.253122e-05
791.8499999994008,6.179611e-05,791.8499999994008,1.676141e-05,791.8499999994008,6.237581e-05,791.8499999994008,2.252372e-05
791.8649999994008,6.186082e-05,791.8649999994008,1.520681e-05,791.8649999994008,6.065933e-05,791.8649999994008,2.245983e-05
791.8799999994008,6.216452e-05,791.8799999994008,1.566313e-05,791.8799999994008,6.030158e-05,791.8799999994008,2.269009e-05
791.8949999994007,6.405819e-05,791.8949999994007,1.466449e-05,791.8949999994007,6.006658e-05,791.8949999994007,2.261422e-05
791.9099999994007,5.994545e-05,791.9099999994007,1.306855e-05,791.9099999994007,6.330676e-05,791.9099999994007,2.244729e-05
791.9249999994007,5.705887e-05,791.9249999994007,1.250223e-05,791.9249999994007,6.421896e-05,791.9249999994007,2.228163e-05
791.9399999994007,5.566474e-05,791.9399999994007,1.246387e-05,791.9399999994007,6.645961e-05,791.9399999994007,2.231069e-05
791.9549999994007,5.232752e-05,791.9549999994007,1.253149e-05,791.9549999994007,6.587778e-05,791.9549999994007,2.231764e-05
791.9699999994007,5.149253e-05,791.9699999994007,1.301671e-05,791.9699999994007,6.608977e-05,791.9699999994007,2.352645e-05
791.9849999994007,5.073408e-05,791.9849999994007,1.303077e-05,791.9849999994007,6.559664e-05,791.9849999994007,2.655362e-05
791.9999999994006,4.947768e-05,791.9999999994006,1.270121e-05,791.9999999994006,6.354773e-05,791.9999999994006,2.740727e-05
792.0149999994006,4.85511e-05,792.0149999994006,1.279513e-05,792.0149999994006,6.372349e-05,792.0149999994006,2.595375e-05
792.0299999994006,4.850814e-05,792.0299999994006,1.302536e-05,792.0299999994006,6.418955e-05,792.0299999994006,2.228289e-05
792.0449999994006,4.877169e-05,792.0449999994006,1.335747e-05,792.0449999994006,6.373477e-05,792.0449999994006,2.2281e-05
792.0599999994006,4.808376e-05,792.0599999994006,1.365781e-05,792.0599999994006,6.107752e-05,792.0599999994006,2.173307e-05
792.0749999994006,4.713247e-05,792.0749999994006,1.344052e-05,792.0749999994006,6.090129e-05,792.0749999994006,2.151484e-05
792.0899999994006,4.813002e-05,792.0899999994006,1.323351e-05,792.0899999994006,6.223609e-05,792.0899999994006,2.152859e-05
792.1049999994005,4.655963e-05,792.1049999994005,1.259093e-05,792.1049999994005,6.20897e-05,792.1049999994005,2.152139e-05
792.1199999994005,4.546143e-05,792.1199999994005,1.140881e-05,792.1199999994005,6.313207e-05,792.1199999994005,2.128445e-05
792.1349999994005,4.259999e-05,792.1349999994005,1.139275e-05,792.1349999994005,6.054543e-05,792.1349999994005,2.124669e-05
792.1499999994005,4.049309e-05,792.1499999994005,1.029095e-05,792.1499999994005,5.924365e-05,792.1499999994005,2.119691e-05
792.1649999994005,3.939847e-05,792.1649999994005,1.041071e-05,792.1649999994005,5.67169e-05,792.1649999994005,2.122746e-05
792.1799999994005,3.950488e-05,792.1799999994005,1.007934e-05,792.1799999994005,5.338662e-05,792.1799999994005,2.128842e-05
792.1949999994005,4.025058e-05,792.1949999994005,1.005275e-05,792.1949999994005,5.243375e-05,792.1949999994005,2.124868e-05
792.2099999994005,4.17658e-05,792.2099999994005,9.056085e-06,792.2099999994005,5.265305e-05,792.2099999994005,2.105689e-05
792.2249999994004,4.107131e-05,792.2249999994004,9.162785e-06,792.2249999994004,5.327673e-05,792.2249999994004,1.911419e-05
792.2399999994004,4.057753e-05,792.2399999994004,9.080939e-06,792.2399999994004,5.458585e-05,792.2399999994004,1.040801e-05
792.2549999994004,4.17037e-05,792.2549999994004,9.365025e-06,792.2549999994004,5.509394e-05,792.2549999994004,9.254569e-06
792.2699999994004,4.24957e-05,792.2699999994004,9.690296e-06,792.2699999994004,5.500796e-05,792.2699999994004,8.138525e-06
792.2849999994004,4.422278e-05,792.2849999994004,1.048487e-05,792.2849999994004,5.579062e-05,792.2849999994004,8.204034e-06
792.2999999994004,4.429344e-05,792.2999999994004,1.145317e-05,792.2999999994004,5.524765e-05,792.2999999994004,8.550433e-06
792.3149999994004,4.308007e-05,792.3149999994004,1.125592e-05,792.3149999994004,5.56822e-05,792.3149999994004,8.537242e-06
792.3299999994003,4.451392e-05,792.3299999994003,1.123838e-05,792.3299999994003,5.620118e-05,792.3299999994003,8.625883e-06
792.3449999994003,4.325921e-05,792.3449999994003,1.173985e-05,792.3449999994003,5.202e-05,792.3449999994003,8.444335e-06
792.3599999994003,4.27874e-05,792.3599999994003,1.188652e-05,792.3599999994003,5.036232e-05,792.3599999994003,8.325052e-06
792.3749999994003,4.106959e-05,792.3749999994003,1.206298e-05,792.3749999994003,4.685911e-05,792.3749999994003,8.303025e-06
792.3899999994003,4.226236e-05,792.3899999994003,1.174705e-05,792.3899999994003,4.771762e-05,792.3899999994003,8.319974e-06
792.4049999994003,4.442079e-05,792.4049999994003,1.165676e-05,792.4049999994003,5.021919e-05,792.4049999994003,8.566891e-06
792.4199999994003,4.567844e-05,792.4199999994003,1.174105e-05,792.4199999994003,4.98758e-05,792.4199999994003,8.62425e-06
792.4349999994002,4.649576e-05,792.4349999994002,1.176742e-05,792.4349999994002,4.685881e-05,792.4349999994002,8.494233e-06
792.4499999994002,4.577178e-05,792.4499999994002,1.175184e-05,792.4499999994002,4.670554e-05,792.4499999994002,8.469321e-06
792.4649999994002,4.481103e-05,792.4649999994002,1.182355e-05,792.4649999994002,4.567597e-05,792.4649999994002,8.932356e-06
792.4799999994002,4.390212e-05,792.4799999994002,1.149859e-05,792.4799999994002,4.50318e-05,792.4799999994002,8.296236e-06
792.4949999994002,4.335582e-05,792.4949999994002,1.130462e-05,792.4949999994002,4.424603e-05,792.4949999994002,8.70068e-06
792.5099999994002,4.292086e-05,792.5099999994002,1.098483e-05,792.5099999994002,4.619667e-05,792.5099999994002,8.985815e-06
792.5249999994002,4.242703e-05,792.5249999994002,1.072792e-05,792.5249999994002,4.471159e-05,792.5249999994002,1.083115e-05
792.5399999994002,4.049309e-05,792.5399999994002,8.668239e-06,792.5399999994002,4.45405e-05,792.5399999994002,1.44672e-05
792.5549999994001,4.1608e-05,792.5549999994001,8.164447e-06,792.5549999994001,4.538514e-05,792.5549999994001,1.485252e-05
792.5699999994001,3.933872e-05,792.5699999994001,8.124666e-06,792.5699999994001,4.522346e-05,792.5699999994001,1.497531e-05
792.5849999994001,4.005025e-05,792.5849999994001,8.940237e-06,792.5849999994001,4.400756e-05,792.5849999994001,1.503633e-05
792.5999999994001,4.198681e-05,792.5999999994001,9.328855e-06,792.5999999994001,4.644331e-05,792.5999999994001,1.547038e-05
792.6149999994001,4.166281e-05,792.6149999994001,9.453355e-06,792.6149999994001,4.906598e-05,792.6149999994001,1.581884e-05
792.6299999994001,4.595178e-05,792.6299999994001,1.025942e-05,792.6299999994001,4.938791e-05,792.6299999994001,1.581706e-05
792.6449999994,4.593583e-05,792.6449999994,1.045392e-05,792.6449999994,4.896856e-05,792.6449999994,1.578943e-05
792.6599999994,4.474623e-05,792.6599999994,1.076724e-05,792.6599999994,4.678299e-05,792.6599999994,1.56172e-05
792.6749999994,4.449398e-05,792.6749999994,1.068713e-05,792.6749999994,5.044505e-05,792.6749999994,1.561359e-05
792.6899999994,4.353674e-05,792.6899999994,1.068977e-05,792.6899999994,5.28048e-05,792.6899999994,1.564964e-05
792.7049999994,4.389153e-05,792.7049999994,1.068318e-05,792.7049999994,5.260835e-05,792.7049999994,1.632544e-05
792.7199999994,4.399379e-05,792.7199999994,1.062765e-05,792.7199999994,5.243697e-05,792.7199999994,1.672692e-05
792.7349999994,4.389988e-05,792.7349999994,1.064355e-05,792.7349999994,5.25336e-05,792.7349999994,1.710169e-05
792.7499999994,4.437446e-05,792.7499999994,1.078162e-05,792.7499999994,5.245658e-05,792.7499999994,1.678408e-05
792.7649999994,4.267598e-05,792.7649999994,1.123462e-05,792.7649999994,5.0222e-05,792.7649999994,1.643466e-05
792.7799999993999,4.279728e-05,792.7799999993999,1.158038e-05,792.7799999993999,5.031839e-05,792.7799999993999,1.403023e-05
792.7949999993999,4.2213e-05,792.7949999993999,1.194917e-05,792.7949999993999,5.092282e-05,792.7949999993999,1.098611e-05
792.8099999993999,4.196164e-05,792.8099999993999,1.230577e-05,792.8099999993999,4.940531e-05,792.8099999993999,1.088823e-05
792.8249999993999,4.444266e-05,792.8249999993999,1.171222e-05,792.8249999993999,4.851133e-05,792.8249999993999,1.091665e-05
792.8399999993999,4.237021e-05,792.8399999993999,1.115661e-05,792.8399999993999,4.822768e-05,792.8399999993999,1.098996e-05
792.8549999993999,4.233063e-05,792.8549999993999,1.041748e-05,792.8549999993999,4.460623e-05,792.8549999993999,1.078031e-05
792.8699999993999,3.649206e-05,792.8699999993999,1.008214e-05,792.8699999993999,3.922289e-05,792.8699999993999,1.044314e-05
792.8849999993998,3.55476e-05,792.8849999993998,9.990908e-06,792.8849999993998,3.822322e-05,792.8849999993998,1.059048e-05
792.8999999993998,3.487591e-05,792.8999999993998,1.160347e-05,792.8999999993998,3.717018e-05,792.8999999993998,1.057717e-05
792.9149999993998,3.201303e-05,792.9149999993998,1.259652e-05,792.9149999993998,3.698058e-05,792.9149999993998,1.059314e-05
792.9299999993998,3.187324e-05,792.9299999993998,1.276206e-05,792.9299999993998,2.684906e-05,792.9299999993998,1.082335e-05
792.9449999993998,3.210926e-05,792.9449999993998,1.338907e-05,792.9449999993998,2.684381e-05,792.9449999993998,1.056384e-05
792.9599999993998,3.09394e-05,792.9599999993998,1.3547e-05,792.9599999993998,2.663995e-05,792.9599999993998,9.454845e-06
792.9749999993998,3.07659e-05,792.9749999993998,1.366194e-05,792.9749999993998,2.676866e-05,792.9749999993998,8.143716e-06
792.9899999993997,3.022405e-05,792.9899999993997,1.359786e-05,792.9899999993997,2.597599e-05,792.9899999993997,7.72289e-06
793.0049999993997,2.772055e-05,793.0049999993997,1.315985e-05,793.0049999993997,2.717344e-05,793.0049999993997,7.623756e-06
793.0199999993997,2.752267e-05,793.0199999993997,1.319193e-05,793.0199999993997,2.724799e-05,793.0199999993997,7.553216e-06
793.0349999993997,2.733882e-05,793.0349999993997,1.263895e-05,793.0349999993997,2.61748e-05,793.0349999993997,7.682656e-06
793.0499999993997,2.638492e-05,793.0499999993997,1.250111e-05,793.0499999993997,2.594398e-05,793.0499999993997,7.666136e-06
793.0649999993997,2.441038e-05,793.0649999993997,1.263672e-05,793.0649999993997,2.676919e-05,793.0649999993997,7.579281e-06
793.0799999993997,2.184041e-05,793.0799999993997,1.295379e-05,793.0799999993997,2.656635e-05,793.0799999993997,7.835162e-06
793.0949999993996,2.082819e-05,793.0949999993996,1.312877e-05,793.0949999993996,2.67713e-05,793.0949999993996,7.623756e-06
793.1099999993996,2.016358e-05,793.1099999993996,1.320153e-05,793.1099999993996,2.613602e-05,793.1099999993996,7.396802e-06
793.1249999993996,2.03049e-05,793.1249999993996,1.298094e-05,793.1249999993996,2.531743e-05,793.1249999993996,7.360529e-06
793.1399999993996,2.04418e-05,793.1399999993996,1.186636e-05,793.1399999993996,2.496669e-05,793.1399999993996,7.268085e-06
793.1549999993996,1.874809e-05,793.1549999993996,9.937185e-06,793.1549999993996,2.140456e-05,793.1549999993996,7.931653e-06
793.1699999993996,1.863505e-05,793.1699999993996,9.824559e-06,793.1699999993996,2.045283e-05,793.1699999993996,8.171345e-06
793.1849999993996,1.831788e-05,793.1849999993996,1.70216e-05,793.1849999993996,2.007045e-05,793.1849999993996,8.009417e-06
793.1999999993996,1.762976e-05,793.1999999993996,1.769596e-05,793.1999999993996,2.006553e-05,793.1999999993996,7.872827e-06
793.2149999993995,1.71272e-05,793.2149999993995,1.792611e-05,793.2149999993995,2.019987e-05,793.2149999993995,7.942303e-06
793.2299999993995,1.737625e-05,793.2299999993995,1.853955e-05,793.2299999993995,2.006202e-05,793.2299999993995,7.844146e-06
793.2449999993995,1.679583e-05,793.2449999993995,1.856006e-05,793.2449999993995,1.83225e-05,793.2449999993995,7.562535e-06
793.2599999993995,1.678996e-05,793.2599999993995,1.870295e-05,793.2599999993995,1.816963e-05,793.2599999993995,7.688155e-06
793.2749999993995,1.693199e-05,793.2749999993995,1.930631e-05,793.2749999993995,1.559011e-05,793.2749999993995,7.750201e-06
793.2899999993995,1.695859e-05,793.2899999993995,1.933693e-05,793.2899999993995,1.51381e-05,793.2899999993995,7.588568e-06
793.3049999993995,1.629003e-05,793.3049999993995,1.948064e-05,793.3049999993995,1.452745e-05,793.3049999993995,7.545752e-06
793.3199999993994,1.323351e-05,793.3199999993994,1.967634e-05,793.3199999993994,1.196802e-05,793.3199999993994,7.885342e-06
793.3349999993994,1.340904e-05,793.3349999993994,1.952253e-05,793.3349999993994,1.138409e-05,793.3349999993994,7.649581e-06
793.3499999993994,1.275986e-05,793.3499999993994,1.934422e-05,793.3499999993994,1.08714e-05,793.3499999993994,7.713764e-06
793.3649999993994,1.330357e-05,793.3649999993994,3.535927e-05,793.3649999993994,1.049695e-05,793.3649999993994,7.888914e-06
793.3799999993994,1.16797e-05,793.3799999993994,3.802924e-05,793.3799999993994,1.049293e-05,793.3799999993994,7.894269e-06
793.3949999993994,1.192084e-05,793.3949999993994,4.101639e-05,793.3949999993994,1.034828e-05,793.3949999993994,8.141986e-06
793.4099999993994,1.216415e-05,793.4099999993994,4.189344e-05,793.4099999993994,1.014482e-05,793.4099999993994,7.750201e-06
793.4249999993993,1.227482e-05,793.4249999993993,4.073933e-05,793.4249999993993,1.003733e-05,793.4249999993993,7.899621e-06
793.4399999993993,1.267679e-05,793.4399999993993,3.952449e-05,793.4399999993993,9.962669e-06,793.4399999993993,8.03926e-06
793.4549999993993,1.252925e-05,793.4549999993993,3.925627e-05,793.4549999993993,9.981033e-06,793.4549999993993,8.041013e-06
793.4699999993993,1.258534e-05,793.4699999993993,3.897284e-05,793.4699999993993,9.685934e-06,793.4699999993993,7.97063e-06
793.4849999993993,1.260435e-05,793.4849999993993,3.887694e-05,793.4849999993993,9.981033e-06,793.4849999993993,8.365563e-06
793.4999999993993,1.253711e-05,793.4999999993993,3.888419e-05,793.4999999993993,8.384065e-06,793.4999999993993,8.425965e-06
793.5149999993993,1.226104e-05,793.5149999993993,3.873501e-05,793.5149999993993,7.186222e-06,793.5149999993993,9.450374e-06
793.5299999993993,1.230348e-05,793.5299999993993,3.849351e-05,793.5299999993993,7.350954e-06,793.5299999993993,9.596809e-06
793.5449999993992,1.247177e-05,793.5449999993992,3.84774e-05,793.5449999993992,7.553216e-06,793.5449999993992,9.586528e-06
793.5599999993992,1.239473e-05,793.5599999993992,3.839714e-05,793.5599999993992,7.671647e-06,793.5599999993992,9.728018e-06
793.5749999993992,1.214909e-05,793.5749999993992,3.840668e-05,793.5749999993992,8.074229e-06,793.5749999993992,1.034828e-05
793.5899999993992,1.203024e-05,793.5899999993992,3.849863e-05,793.5899999993992,8.150632e-06,793.5899999993992,1.03904e-05
793.6049999993992,1.264452e-05,793.6049999993992,3.854909e-05,793.6049999993992,8.093397e-06,793.6049999993992,1.013092e-05
793.6199999993992,1.141251e-05,793.6199999993992,2.281453e-05,793.6199999993992,8.2229e-06,793.6199999993992,1.039175e-05
793.6349999993992,1.186755e-05,793.6349999993992,1.694529e-05,793.6349999993992,8.446003e-06,793.6349999993992,1.093728e-05
793.6499999993991,1.143594e-05,793.6499999993991,1.106023e-05,793.6499999993991,8.750726e-06,793.6499999993991,1.056517e-05
793.6649999993991,1.11174e-05,793.6649999993991,9.175076e-06,793.6649999993991,9.127357e-06,793.6649999993991,1.067262e-05
793.6799999993991,1.109584e-05,793.6799999993991,9.20267e-06,793.6799999993991,9.39656e-06,793.6799999993991,1.075284e-05
793.6949999993991,1.068582e-05,793.6949999993991,8.355453e-06,793.6949999993991,9.557095e-06,793.6949999993991,1.126467e-05
793.7099999993991,1.101557e-05,793.7099999993991,8.238303e-06,793.7099999993991,9.571822e-06,793.7099999993991,1.148633e-05
793.7249999993991,1.129839e-05,793.7249999993991,8.095138e-06,793.7249999993991,9.615872e-06,793.7249999993991,1.179372e-05
793.7399999993991,1.132951e-05,793.7399999993991,8.041013e-06,793.7399999993991,9.309204e-06,793.7399999993991,1.176143e-05
793.754999999399,1.14421e-05,793.754999999399,8.011176e-06,793.754999999399,9.586528e-06,793.754999999399,1.203492e-05
793.769999999399,1.110472e-05,793.769999999399,8.062008e-06,793.769999999399,9.389061e-06,793.769999999399,1.165193e-05
793.784999999399,1.114777e-05,793.784999999399,8.068993e-06,793.784999999399,9.06075e-06,793.784999999399,1.188415e-05
793.799999999399,1.093986e-05,793.799999999399,7.93343e-06,793.799999999399,9.321302e-06,793.799999999399,1.185329e-05
793.814999999399,1.09347e-05,793.814999999399,6.426676e-06,793.814999999399,9.462292e-06,793.814999999399,1.163983e-05
793.829999999399,1.092439e-05,793.829999999399,6.345057e-06,793.829999999399,9.243908e-06,793.829999999399,1.156334e-05
793.844999999399,1.028821e-05,793.844999999399,5.860319e-06,793.844999999399,9.099535e-06,793.844999999399,1.206298e-05
793.859999999399,1.058515e-05,793.859999999399,5.733962e-06,793.859999999399,9.013988e-06,793.859999999399,1.201618e-05
793.8749999993989,1.060643e-05,793.8749999993989,5.848288e-06,793.8749999993989,8.881747e-06,793.8749999993989,1.184021e-05
793.8899999993989,1.044044e-05,793.8899999993989,5.716739e-06,793.8899999993989,8.532291e-06,793.8899999993989,1.155237e-05
793.9049999993989,1.049964e-05,793.9049999993989,5.637336e-06,793.9049999993989,8.348708e-06,793.9049999993989,1.175784e-05
793.9199999993989,1.049158e-05,793.9199999993989,5.500745e-06,793.9199999993989,1.144579e-05,793.9199999993989,1.249885e-05
793.9349999993989,1.044853e-05,793.9349999993989,5.299891e-06,793.9349999993989,1.145317e-05,793.9349999993989,1.264897e-05
793.9499999993989,1.056117e-05,793.9499999993989,5.462197e-06,793.9499999993989,1.1332e-05,793.9499999993989,1.252137e-05
793.9649999993989,1.073842e-05,793.9649999993989,5.498184e-06,793.9649999993989,1.132703e-05,793.9649999993989,1.203141e-05
793.9799999993988,9.86748e-06,793.9799999993988,5.254512e-06,793.9799999993988,1.123587e-05,793.9799999993988,1.215024e-05
793.9949999993988,9.514254e-06,793.9949999993988,5.206033e-06,793.9949999993988,1.096943e-05,793.9949999993988,1.221615e-05
794.0099999993988,9.653885e-06,794.0099999993988,5.254512e-06,794.0099999993988,1.074497e-05,794.0099999993988,1.164588e-05
794.0249999993988,9.72657e-06,794.0249999993988,5.526294e-06,794.0249999993988,1.070031e-05,794.0249999993988,1.190784e-05
794.0399999993988,9.736703e-06,794.0399999993988,5.879517e-06,794.0399999993988,1.071083e-05,794.0399999993988,1.174585e-05
794.0549999993988,9.68448e-06,794.0549999993988,5.965146e-06,794.0549999993988,1.019054e-05,794.0549999993988,1.171703e-05
794.0699999993988,9.754049e-06,794.0699999993988,6.116717e-06,794.0699999993988,1.082465e-05,794.0699999993988,1.204428e-05
794.0849999993987,9.691749e-06,794.0849999993987,6.367219e-06,794.0849999993987,1.076462e-05,794.0849999993987,1.123838e-05
794.0999999993987,9.427989e-06,794.0999999993987,6.834577e-06,794.0999999993987,1.088046e-05,794.0999999993987,1.147284e-05
794.1149999993987,8.637307e-06,794.1149999993987,6.959168e-06,794.1149999993987,1.289165e-05,794.1149999993987,1.159983e-05
794.1299999993987,8.056763e-06,794.1299999993987,6.861319e-06,794.1299999993987,1.283141e-05,794.1299999993987,1.125592e-05
794.1449999993987,7.940529e-06,794.1449999993987,7.001547e-06,794.1449999993987,1.278632e-05,794.1449999993987,1.116166e-05
794.1599999993987,8.051516e-06,794.1599999993987,7.131124e-06,794.1599999993987,1.305776e-05,794.1599999993987,1.081684e-05
794.1749999993987,7.896054e-06,794.1749999993987,7.103415e-06,794.1749999993987,1.086362e-05,794.1749999993987,1.026628e-05
794.1899999993987,8.093397e-06,794.1899999993987,7.140994e-06,794.1899999993987,1.082725e-05,794.1899999993987,1.007375e-05
794.2049999993986,7.833364e-06,794.2049999993986,7.1921e-06,794.2049999993986,1.097714e-05,794.2049999993986,9.671379e-06
794.2199999993986,7.478244e-06,794.2199999993986,7.322153e-06,794.2199999993986,1.09938e-05,794.2199999993986,9.68448e-06
794.2349999993986,7.706456e-06,794.2349999993986,7.466933e-06,794.2349999993986,1.111233e-05,794.2349999993986,9.568879e-06
794.2499999993986,7.724713e-06,794.2499999993986,7.502692e-06,794.2499999993986,1.133324e-05,794.2499999993986,9.44441e-06
794.2649999993986,7.590424e-06,794.2649999993986,7.483893e-06,794.2649999993986,1.275986e-05,794.2649999993986,9.512773e-06
794.2799999993986,7.085544e-06,794.2799999993986,7.170523e-06,794.2799999993986,1.282922e-05,794.2799999993986,9.227129e-06
794.2949999993986,6.963215e-06,794.2949999993986,6.938897e-06,794.2949999993986,1.282922e-05,794.2949999993986,9.119637e-06
794.3099999993985,7.017624e-06,794.3099999993985,6.826328e-06,794.3099999993985,1.288728e-05,794.3099999993985,9.079387e-06
794.3249999993985,6.957143e-06,794.3249999993985,6.724452e-06,794.3249999993985,1.233778e-05,794.3249999993985,8.872225e-06
794.3399999993985,7.031661e-06,794.3399999993985,6.665538e-06,794.3399999993985,1.232635e-05,794.3399999993985,9.236285e-06
794.3549999993985,7.528932e-06,794.3549999993985,6.373853e-06,794.3549999993985,1.144702e-05,794.3549999993985,9.838886e-06
794.3699999993985,7.545752e-06,794.3699999993985,6.533196e-06,794.3699999993985,1.019883e-05,794.3699999993985,1.034692e-05
794.3849999993985,7.459384e-06,794.3849999993985,6.351713e-06,794.3849999993985,1.013231e-05,794.3849999993985,1.046739e-05
794.3999999993985,7.410121e-06,794.3999999993985,5.979298e-06,794.3999999993985,1.028958e-05,794.3999999993985,1.043099e-05
794.4149999993984,7.201887e-06,794.4149999993984,5.891484e-06,794.4149999993984,9.339419e-06,794.4149999993984,1.022641e-05
794.4299999993984,7.517698e-06,794.4299999993984,5.931993e-06,794.4299999993984,9.136613e-06,794.4299999993984,1.027588e-05
794.4449999993984,7.27777e-06,794.4449999993984,5.714275e-06,794.4449999993984,8.982679e-06,794.4449999993984,1.012953e-05
794.4599999993984,7.306746e-06,794.4599999993984,5.577042e-06,794.4599999993984,9.697562e-06,794.4599999993984,1.025393e-05
794.4749999993984,7.125195e-06,794.4749999993984,5.56693e-06,794.4749999993984,1.072529e-05,794.4749999993984,1.03019e-05
794.4899999993984,7.00959e-06,794.4899999993984,5.721665e-06,794.4899999993984,1.057583e-05,794.4899999993984,1.054115e-05
794.5049999993984,6.713969e-06,794.5049999993984,5.677176e-06,794.5049999993984,9.884596e-06,794.5049999993984,1.135311e-05
794.5199999993984,6.881819e-06,794.5199999993984,5.872325e-06,794.5199999993984,8.479295e-06,794.5199999993984,1.172184e-05
794.5349999993983,6.898175e-06,794.5349999993983,6.109804e-06,794.5349999993983,8.502521e-06,794.5349999993983,1.254722e-05
