X[s],a: EMG RMS 1-1,X[s].1,a: EMG RMS 1-2,X[s].2,a: EMG RMS 1-3,X[s].3,a: EMG RMS 1-4
649.0049999995307,1.502227e-05,649.0049999995307,4.828839e-05,649.0049999995307,1.07777e-05,649.0049999995307,1.03714e-05
649.0199999995307,1.509337e-05,649.0199999995307,4.318882e-05,649.0199999995307,1.132827e-05,649.0199999995307,1.035781e-05
649.0349999995307,1.615979e-05,649.0349999995307,3.930791e-05,649.0349999995307,1.157186e-05,649.0349999995307,9.500919e-06
649.0499999995307,1.564153e-05,649.0499999995307,4.293825e-05,649.0499999995307,1.329192e-05,649.0499999995307,1.094758e-05
649.0649999995306,1.624239e-05,649.0649999995306,4.548343e-05,649.0649999995306,1.418003e-05,649.0649999995306,1.084155e-05
649.0799999995306,1.664333e-05,649.0799999995306,4.661648e-05,649.0799999995306,1.444577e-05,649.0799999995306,1.092955e-05
649.0949999995306,1.64672e-05,649.0949999995306,4.744407e-05,649.0949999995306,1.450707e-05,649.0949999995306,1.098483e-05
649.1099999995306,1.639433e-05,649.1099999995306,4.673388e-05,649.1099999995306,1.45226e-05,649.1099999995306,1.175664e-05
649.1249999995306,1.567751e-05,649.1249999995306,4.673268e-05,649.1249999995306,1.512134e-05,649.1249999995306,1.194563e-05
649.1399999995306,1.516785e-05,649.1399999995306,4.568584e-05,649.1399999995306,1.371545e-05,649.1399999995306,1.196919e-05
649.1549999995306,1.548222e-05,649.1549999995306,4.454303e-05,649.1549999995306,1.548404e-05,649.1549999995306,1.210494e-05
649.1699999995305,1.601444e-05,649.1699999995305,4.40194e-05,649.1699999995305,1.56856e-05,649.1699999995305,1.378511e-05
649.1849999995305,1.611178e-05,649.1849999995305,4.425622e-05,649.1849999995305,1.560186e-05,649.1849999995305,1.490365e-05
649.1999999995305,1.642008e-05,649.1999999995305,4.556202e-05,649.1999999995305,1.59165e-05,649.1999999995305,1.639862e-05
649.2149999995305,1.724033e-05,649.2149999995305,4.560745e-05,649.2149999995305,1.610041e-05,649.2149999995305,1.715022e-05
649.2299999995305,1.748615e-05,649.2299999995305,4.615152e-05,649.2299999995305,1.6131e-05,649.2299999995305,1.761218e-05
649.2449999995305,1.794732e-05,649.2449999995305,4.529504e-05,649.2449999995305,1.635561e-05,649.2449999995305,1.853652e-05
649.2599999995305,2.010411e-05,649.2599999995305,4.454429e-05,649.2599999995305,1.79324e-05,649.2599999995305,1.952614e-05
649.2749999995305,2.053462e-05,649.2749999995305,4.932683e-05,649.2749999995305,1.807324e-05,649.2749999995305,1.971068e-05
649.2899999995304,2.077401e-05,649.2899999995304,4.910731e-05,649.2899999995304,1.805531e-05,649.2899999995304,1.97585e-05
649.3049999995304,2.092132e-05,649.3049999995304,4.670976e-05,649.3049999995304,1.646976e-05,649.3049999995304,2.066728e-05
649.3199999995304,2.035618e-05,649.3199999995304,4.565037e-05,649.3199999995304,1.591296e-05,649.3199999995304,2.143876e-05
649.3349999995304,2.048792e-05,649.3349999995304,4.991618e-05,649.3349999995304,1.592358e-05,649.3349999995304,2.269257e-05
649.3499999995304,2.226962e-05,649.3499999995304,4.865689e-05,649.3499999995304,1.580102e-05,649.3499999995304,2.515444e-05
649.3649999995304,2.428947e-05,649.3649999995304,4.929798e-05,649.3649999995304,1.55113e-05,649.3649999995304,2.512081e-05
649.3799999995304,2.462869e-05,649.3799999995304,4.873702e-05,649.3799999995304,1.533319e-05,649.3799999995304,2.673707e-05
649.3949999995303,2.462755e-05,649.3949999995303,4.89815e-05,649.3949999995303,1.592446e-05,649.3949999995303,2.755285e-05
649.4099999995303,2.435492e-05,649.4099999995303,4.80694e-05,649.4099999995303,1.457295e-05,649.4099999995303,2.841862e-05
649.4249999995303,2.423838e-05,649.4249999995303,4.848839e-05,649.4249999995303,1.456038e-05,649.4249999995303,2.815268e-05
649.4399999995303,2.437342e-05,649.4399999995303,4.843781e-05,649.4399999995303,1.462505e-05,649.4399999995303,2.708465e-05
649.4549999995303,2.439826e-05,649.4549999995303,4.741644e-05,649.4549999995303,1.432335e-05,649.4549999995303,2.759219e-05
649.4699999995303,2.414755e-05,649.4699999995303,4.956415e-05,649.4699999995303,1.407334e-05,649.4699999995303,2.700339e-05
649.4849999995303,2.428425e-05,649.4849999995303,5.044393e-05,649.4849999995303,1.406032e-05,649.4849999995303,2.743912e-05
649.4999999995302,2.372916e-05,649.4999999995302,5.151851e-05,649.4999999995302,1.266456e-05,649.4999999995302,2.761158e-05
649.5149999995302,2.150502e-05,649.5149999995302,5.145202e-05,649.5149999995302,1.124465e-05,649.5149999995302,2.825457e-05
649.5299999995302,2.153382e-05,649.5299999995302,5.072742e-05,649.5299999995302,1.101557e-05,649.5299999995302,3.027807e-05
649.5449999995302,2.223416e-05,649.5449999995302,5.030103e-05,649.5449999995302,1.063163e-05,649.5449999995302,3.08409e-05
649.5599999995302,2.265467e-05,649.5599999995302,5.004385e-05,649.5599999995302,1.054649e-05,649.5599999995302,3.116351e-05
649.5749999995302,2.256246e-05,649.5749999995302,4.907115e-05,649.5749999995302,1.063958e-05,649.5749999995302,3.073704e-05
649.5899999995302,2.23189e-05,649.5899999995302,5.130342e-05,649.5899999995302,1.109076e-05,649.5899999995302,3.078924e-05
649.6049999995302,2.015869e-05,649.6049999995302,5.245712e-05,649.6049999995302,1.123838e-05,649.6049999995302,2.989508e-05
649.6199999995301,1.828324e-05,649.6199999995301,5.295132e-05,649.6199999995301,1.132703e-05,649.6199999995301,2.966709e-05
649.6349999995301,1.821841e-05,649.6349999995301,5.281706e-05,649.6349999995301,9.846043e-06,649.6349999995301,2.904471e-05
649.6499999995301,1.79269e-05,649.6499999995301,5.236842e-05,649.6499999995301,9.631973e-06,649.6499999995301,2.951571e-05
649.6649999995301,1.789307e-05,649.6649999995301,5.20005e-05,649.6649999995301,9.442919e-06,649.6649999995301,2.860045e-05
649.6799999995301,1.797006e-05,649.6799999995301,5.551092e-05,649.6799999995301,9.564462e-06,649.6799999995301,2.889153e-05
649.6949999995301,1.773731e-05,649.6949999995301,5.618589e-05,649.6949999995301,9.674292e-06,649.6949999995301,2.939615e-05
649.70999999953,1.736084e-05,649.70999999953,5.650913e-05,649.70999999953,1.010029e-05,649.70999999953,3.00347e-05
649.72499999953,1.742563e-05,649.72499999953,5.595652e-05,649.72499999953,9.86034e-06,649.72499999953,3.114226e-05
649.73999999953,1.789858e-05,649.73999999953,5.924603e-05,649.73999999953,9.837455e-06,649.73999999953,3.128937e-05
649.75499999953,1.847257e-05,649.75499999953,5.906624e-05,649.75499999953,9.759823e-06,649.75499999953,3.109563e-05
649.76999999953,2.094487e-05,649.76999999953,5.677573e-05,649.76999999953,9.880319e-06,649.76999999953,3.028226e-05
649.78499999953,2.187199e-05,649.78499999953,5.693208e-05,649.78499999953,9.814517e-06,649.78499999953,2.868848e-05
649.79999999953,2.213765e-05,649.79999999953,5.731038e-05,649.79999999953,1.038362e-05,649.79999999953,2.879336e-05
649.81499999953,2.810109e-05,649.81499999953,7.1863e-05,649.81499999953,1.031829e-05,649.81499999953,2.904713e-05
649.82999999953,4.351376e-05,649.82999999953,7.170405e-05,649.82999999953,1.065016e-05,649.82999999953,2.837298e-05
649.8449999995299,6.852259e-05,649.8449999995299,6.715522e-05,649.8449999995299,1.244803e-05,649.8449999995299,2.724592e-05
649.8599999995299,7.478583e-05,649.8599999995299,6.622924e-05,649.8599999995299,1.289711e-05,649.8599999995299,2.733006e-05
649.8749999995299,7.777816e-05,649.8749999995299,6.803425e-05,649.8749999995299,1.348969e-05,649.8749999995299,3.093211e-05
649.8899999995299,8.469587e-05,649.8899999995299,6.873503e-05,649.8899999995299,1.414223e-05,649.8899999995299,3.061075e-05
649.9049999995299,8.683469e-05,649.9049999995299,6.908011e-05,649.9049999995299,1.465873e-05,649.9049999995299,3.105029e-05
649.9199999995299,8.716257e-05,649.9199999995299,6.797832e-05,649.9199999995299,1.445064e-05,649.9199999995299,3.123079e-05
649.9349999995299,8.767661e-05,649.9349999995299,6.547906e-05,649.9349999995299,1.416612e-05,649.9349999995299,3.179448e-05
649.9499999995298,8.809207e-05,649.9499999995298,6.456155e-05,649.9499999995298,1.423061e-05,649.9499999995298,3.533575e-05
649.9649999995298,8.886012e-05,649.9649999995298,6.420469e-05,649.9649999995298,1.480598e-05,649.9649999995298,3.558641e-05
649.9799999995298,9.053083e-05,649.9799999995298,6.195183e-05,649.9799999995298,1.51027e-05,649.9799999995298,3.535249e-05
649.9949999995298,9.062491e-05,649.9949999995298,5.759944e-05,649.9949999995298,1.548222e-05,649.9949999995298,3.736446e-05
650.0099999995298,9.034594e-05,650.0099999995298,5.669256e-05,650.0099999995298,1.544213e-05,650.0099999995298,3.730371e-05
650.0249999995298,8.986662e-05,650.0249999995298,5.657341e-05,650.0249999995298,1.548676e-05,650.0249999995298,3.756112e-05
650.0399999995298,8.923725e-05,650.0399999995298,5.717676e-05,650.0399999995298,1.594479e-05,650.0399999995298,3.734372e-05
650.0549999995297,8.849221e-05,650.0549999995297,4.793999e-05,650.0549999995297,1.55358e-05,650.0549999995297,3.711632e-05
650.0699999995297,8.72448e-05,650.0699999995297,3.552104e-05,650.0699999995297,1.566313e-05,650.0699999995297,3.765663e-05
650.0849999995297,7.835486e-05,650.0849999995297,3.38594e-05,650.0849999995297,1.36289e-05,650.0849999995297,3.981637e-05
650.0999999995297,5.852212e-05,650.0999999995297,3.443038e-05,650.0999999995297,1.303509e-05,650.0999999995297,4.01251e-05
650.1149999995297,5.311361e-05,650.1149999995297,3.693065e-05,650.1149999995297,1.325584e-05,650.1149999995297,3.923187e-05
650.1299999995297,4.624239e-05,650.1299999995297,4.407761e-05,650.1299999995297,1.227367e-05,650.1299999995297,3.815239e-05
650.1449999995297,3.156904e-05,650.1449999995297,4.460339e-05,650.1449999995297,1.153529e-05,650.1449999995297,3.71425e-05
650.1599999995296,3.073338e-05,650.1599999995296,4.489708e-05,650.1599999995296,1.086362e-05,650.1599999995296,3.777801e-05
650.1749999995296,2.814917e-05,650.1749999995296,5.184396e-05,650.1749999995296,1.088046e-05,650.1749999995296,3.736069e-05
650.1899999995296,2.79775e-05,650.1899999995296,5.507553e-05,650.1899999995296,1.045527e-05,650.1899999995296,3.701295e-05
650.2049999995296,2.679654e-05,650.2049999995296,5.883613e-05,650.2049999995296,1.032512e-05,650.2049999995296,3.206623e-05
650.2199999995296,1.710251e-05,650.2199999995296,6.153088e-05,650.2199999995296,9.042074e-06,650.2199999995296,3.203283e-05
650.2349999995296,1.50803e-05,650.2349999995296,6.248277e-05,650.2349999995296,8.326743e-06,650.2349999995296,2.994875e-05
650.2499999995296,1.595451e-05,650.2499999995296,6.57305e-05,650.2499999995296,8.270727e-06,650.2499999995296,2.974722e-05
650.2649999995296,1.602675e-05,650.2649999995296,6.973242e-05,650.2649999995296,8.260502e-06,650.2649999995296,2.974675e-05
650.2799999995295,1.596069e-05,650.2799999995295,7.124978e-05,650.2799999995295,8.224612e-06,650.2799999995295,2.927707e-05
650.2949999995295,1.701332e-05,650.2949999995295,7.227834e-05,650.2949999995295,8.042764e-06,650.2949999995295,2.796794e-05
650.3099999995295,1.680673e-05,650.3099999995295,7.715736e-05,650.3099999995295,8.185125e-06,650.3099999995295,2.72485e-05
650.3249999995295,1.658653e-05,650.3249999995295,7.750674e-05,650.3249999995295,8.236593e-06,650.3249999995295,2.30131e-05
650.3399999995295,1.511948e-05,650.3399999995295,7.924884e-05,650.3399999995295,8.372296e-06,650.3399999995295,2.548436e-05
650.3549999995295,1.423061e-05,650.3549999995295,8.493454e-05,650.3549999995295,8.260502e-06,650.3549999995295,2.400362e-05
650.3699999995295,1.407434e-05,650.3699999995295,8.07538e-05,650.3699999995295,7.990047e-06,650.3699999995295,2.393427e-05
650.3849999995294,1.496025e-05,650.3849999995294,8.477334e-05,650.3849999995294,8.093397e-06,650.3849999995294,2.376001e-05
650.3999999995294,2.022914e-05,650.3999999995294,8.748102e-05,650.3999999995294,8.350395e-06,650.3999999995294,2.237878e-05
650.4149999995294,3.741382e-05,650.4149999995294,8.841482e-05,650.4149999995294,9.751159e-06,650.4149999995294,2.0864e-05
650.4299999995294,4.07535e-05,650.4299999995294,8.4824e-05,650.4299999995294,1.192557e-05,650.4299999995294,2.033887e-05
650.4449999995294,4.428326e-05,650.4449999995294,8.327301e-05,650.4449999995294,1.536715e-05,650.4449999995294,1.962257e-05
650.4599999995294,4.676853e-05,650.4599999995294,8.242799e-05,650.4599999995294,1.737544e-05,650.4599999995294,1.978344e-05
650.4749999995294,4.828576e-05,650.4749999995294,8.059176e-05,650.4749999995294,1.775874e-05,650.4749999995294,2.152793e-05
650.4899999995293,5.04269e-05,650.4899999995293,8.01209e-05,650.4899999995293,1.897959e-05,650.4899999995293,1.995289e-05
650.5049999995293,5.245792e-05,650.5049999995293,7.740143e-05,650.5049999995293,1.897068e-05,650.5049999995293,2.921059e-05
650.5199999995293,5.460495e-05,650.5199999995293,7.300419e-05,650.5199999995293,1.92939e-05,650.5199999995293,2.966851e-05
650.5349999995293,5.505455e-05,650.5349999995293,7.135903e-05,650.5349999995293,1.917379e-05,650.5349999995293,3.60067e-05
650.5499999995293,5.532536e-05,650.5499999995293,6.881737e-05,650.5499999995293,2.183331e-05,650.5499999995293,3.647971e-05
650.5649999995293,5.533504e-05,650.5649999995293,6.349784e-05,650.5649999995293,2.181717e-05,650.5649999995293,3.771681e-05
650.5799999995293,5.537346e-05,650.5799999995293,6.314769e-05,650.5799999995293,2.213193e-05,650.5799999995293,3.773474e-05
650.5949999995293,5.569864e-05,650.5949999995293,5.471937e-05,650.5949999995293,2.283428e-05,650.5949999995293,3.674365e-05
650.6099999995292,5.615855e-05,650.6099999995292,5.142518e-05,650.6099999995292,2.381981e-05,650.6099999995292,3.696534e-05
650.6249999995292,5.641433e-05,650.6249999995292,4.993113e-05,650.6249999995292,2.41423e-05,650.6249999995292,3.683822e-05
650.6399999995292,5.532256e-05,650.6399999995292,3.958859e-05,650.6399999995292,2.436648e-05,650.6399999995292,3.681106e-05
650.6549999995292,4.716653e-05,650.6549999995292,4.184027e-05,650.6549999995292,2.405754e-05,650.6549999995292,3.690508e-05
650.6699999995292,4.374719e-05,650.6699999995292,5.173352e-05,650.6699999995292,2.356893e-05,650.6699999995292,3.708633e-05
650.6849999995292,3.935161e-05,650.6849999995292,6.245751e-05,650.6849999995292,2.163172e-05,650.6849999995292,3.803221e-05
650.6999999995292,3.727236e-05,650.6999999995292,6.144337e-05,650.6999999995292,2.028061e-05,650.6999999995292,3.807293e-05
650.7149999995291,3.404982e-05,650.7149999995291,6.636183e-05,650.7149999995291,1.906918e-05,650.7149999995291,3.77e-05
650.7299999995291,3.191741e-05,650.7299999995291,6.760575e-05,650.7299999995291,1.861387e-05,650.7299999995291,3.668802e-05
650.7449999995291,2.91855e-05,650.7449999995291,7.61834e-05,650.7449999995291,1.78118e-05,650.7449999995291,3.635012e-05
650.7599999995291,2.197095e-05,650.7599999995291,7.754108e-05,650.7599999995291,1.747245e-05,650.7599999995291,2.941148e-05
650.7749999995291,2.004376e-05,650.7749999995291,7.836529e-05,650.7749999995291,1.759377e-05,650.7749999995291,2.697051e-05
650.7899999995291,1.908395e-05,650.7899999995291,7.888004e-05,650.7899999995291,1.706376e-05,650.7899999995291,1.992392e-05
650.8049999995291,1.78915e-05,650.8049999995291,8.221649e-05,650.8049999995291,1.395573e-05,650.8049999995291,1.885075e-05
650.819999999529,1.785525e-05,650.819999999529,8.857034e-05,650.819999999529,1.391935e-05,650.819999999529,1.698598e-05
650.834999999529,1.811761e-05,650.834999999529,9.07858e-05,650.834999999529,1.31759e-05,650.834999999529,1.556841e-05
650.849999999529,1.740136e-05,650.849999999529,9.322556e-05,650.849999999529,1.045796e-05,650.849999999529,1.433515e-05
650.864999999529,1.631854e-05,650.864999999529,9.758322e-05,650.864999999529,9.723673e-06,650.864999999529,1.480883e-05
650.879999999529,1.547312e-05,650.879999999529,9.800384e-05,650.879999999529,8.474309e-06,650.879999999529,1.44993e-05
650.894999999529,1.489136e-05,650.894999999529,9.818019e-05,650.894999999529,8.489256e-06,650.894999999529,1.455844e-05
650.909999999529,1.496025e-05,650.909999999529,9.605832e-05,650.909999999529,8.141986e-06,650.909999999529,1.422863e-05
650.924999999529,1.806467e-05,650.924999999529,8.733146e-05,650.924999999529,8.103833e-06,650.924999999529,1.095015e-05
650.9399999995289,1.970639e-05,650.9399999995289,9.419768e-05,650.9399999995289,8.046266e-06,650.9399999995289,1.121077e-05
650.9549999995289,2.034441e-05,650.9549999995289,9.382532e-05,650.9549999995289,7.897837e-06,650.9549999995289,1.143717e-05
650.9699999995289,1.936969e-05,650.9699999995289,9.054343e-05,650.9699999995289,7.871038e-06,650.9699999995289,1.044718e-05
650.9849999995289,1.935586e-05,650.9849999995289,8.878527e-05,650.9849999995289,8.178238e-06,650.9849999995289,1.026628e-05
650.9999999995289,1.935586e-05,650.9999999995289,8.242064e-05,650.9999999995289,7.638524e-06,650.9999999995289,1.079859e-05
651.0149999995289,1.90581e-05,651.0149999995289,8.279222e-05,651.0149999995289,7.42721e-06,651.0149999995289,1.210262e-05
651.0299999995289,1.896622e-05,651.0299999995289,8.749261e-05,651.0299999995289,7.051666e-06,651.0299999995289,1.220115e-05
651.0449999995288,1.88111e-05,651.0449999995288,9.197863e-05,651.0449999995288,7.16266e-06,651.0449999995288,1.221384e-05
651.0599999995288,1.827939e-05,651.0599999995288,9.062709e-05,651.0599999995288,7.621908e-06,651.0599999995288,1.264341e-05
651.0749999995288,1.796301e-05,651.0749999995288,9.766951e-05,651.0749999995288,9.785769e-06,651.0749999995288,1.29124e-05
651.0899999995288,1.794732e-05,651.0899999995288,9.515572e-05,651.0899999995288,9.841749e-06,651.0899999995288,1.272891e-05
651.1049999995288,1.768879e-05,651.1049999995288,9.155511e-05,651.1049999995288,9.68157e-06,651.1049999995288,1.40503e-05
651.1199999995288,1.798573e-05,651.1199999995288,8.905885e-05,651.1199999995288,9.957012e-06,651.1199999995288,1.398598e-05
651.1349999995288,1.786156e-05,651.1349999995288,9.070602e-05,651.1349999995288,9.949936e-06,651.1349999995288,1.432335e-05
651.1499999995287,1.847257e-05,651.1499999995287,9.003215e-05,651.1499999995287,9.897414e-06,651.1499999995287,1.415617e-05
651.1649999995287,1.915983e-05,651.1649999995287,9.049736e-05,651.1649999995287,9.86034e-06,651.1649999995287,1.47134e-05
651.1799999995287,1.711404e-05,651.1799999995287,8.568502e-05,651.1799999995287,9.817387e-06,651.1799999995287,1.454973e-05
651.1949999995287,1.662301e-05,651.1949999995287,8.424126e-05,651.1949999995287,9.743934e-06,651.1949999995287,2.00999e-05
651.2099999995287,1.684273e-05,651.2099999995287,8.807416e-05,651.2099999995287,9.701918e-06,651.2099999995287,2.025698e-05
651.2249999995287,1.69561e-05,651.2249999995287,9.771955e-05,651.2249999995287,9.751159e-06,651.2249999995287,2.021591e-05
651.2399999995287,1.682851e-05,651.2399999995287,9.827154e-05,651.2399999995287,9.368033e-06,651.2399999995287,2.017196e-05
651.2549999995286,1.699013e-05,651.2549999995286,9.806088e-05,651.2549999995286,9.407047e-06,651.2549999995286,1.945242e-05
651.2699999995286,1.702988e-05,651.2699999995286,9.816742e-05,651.2699999995286,9.387561e-06,651.2699999995286,1.90211e-05
651.2849999995286,1.81145e-05,651.2849999995286,9.612531e-05,651.2849999995286,9.503884e-06,651.2849999995286,1.928295e-05
651.2999999995286,1.936023e-05,651.2999999995286,9.468765e-05,651.2999999995286,9.46378e-06,651.2999999995286,1.953912e-05
651.3149999995286,1.930266e-05,651.3149999995286,8.850877e-05,651.3149999995286,8.779654e-06,651.3149999995286,1.936605e-05
651.3299999995286,1.963334e-05,651.3299999995286,8.473361e-05,651.3299999995286,6.584741e-06,651.3299999995286,1.936241e-05
651.3449999995286,1.940239e-05,651.3449999995286,8.536417e-05,651.3449999995286,6.608231e-06,651.3449999995286,1.92376e-05
651.3599999995286,1.894393e-05,651.3599999995286,8.581595e-05,651.3599999995286,6.54612e-06,651.3599999995286,1.793946e-05
651.3749999995285,1.97642e-05,651.3749999995285,9.147968e-05,651.3749999995285,6.784931e-06,651.3749999995285,1.77238e-05
651.3899999995285,2.089841e-05,651.3899999995285,8.833958e-05,651.3899999995285,6.780777e-06,651.3899999995285,1.747407e-05
651.4049999995285,1.956578e-05,651.4049999995285,8.821368e-05,651.4049999995285,7.262268e-06,651.4049999995285,1.734216e-05
651.4199999995285,1.975708e-05,651.4199999995285,8.96901e-05,651.4199999995285,7.793701e-06,651.4199999995285,1.720434e-05
651.4349999995285,1.942125e-05,651.4349999995285,9.123235e-05,651.4349999995285,7.808148e-06,651.4349999995285,1.575192e-05
651.4499999995285,2.075841e-05,651.4499999995285,8.355403e-05,651.4499999995285,7.99181e-06,651.4499999995285,9.895991e-06
651.4649999995285,2.100933e-05,651.4649999995285,7.428424e-05,651.4649999995285,8.012934e-06,651.4649999995285,9.533483e-06
651.4799999995284,2.131024e-05,651.4799999995284,7.323307e-05,651.4799999995284,8.903924e-06,651.4799999995284,9.729466e-06
651.4949999995284,2.154559e-05,651.4949999995284,7.247862e-05,651.4949999995284,9.0374e-06,651.4949999995284,9.617337e-06
651.5099999995284,2.201322e-05,651.5099999995284,7.139258e-05,651.5099999995284,9.462292e-06,651.5099999995284,9.583589e-06
651.5249999995284,2.338351e-05,651.5249999995284,7.038069e-05,651.5249999995284,9.732362e-06,651.5249999995284,9.530527e-06
651.5399999995284,2.308522e-05,651.5399999995284,6.417902e-05,651.5399999995284,9.570351e-06,651.5399999995284,8.475971e-06
651.5549999995284,2.298616e-05,651.5549999995284,6.898787e-05,651.5549999995284,9.975386e-06,651.5549999995284,7.618211e-06
651.5699999995284,2.300514e-05,651.5699999995284,6.94612e-05,651.5699999995284,1.010447e-05,651.5699999995284,7.304818e-06
651.5849999995283,2.460065e-05,651.5849999995283,6.804274e-05,651.5849999995283,1.021815e-05,651.5849999995283,7.250621e-06
651.5999999995283,2.494581e-05,651.5999999995283,6.806695e-05,651.5999999995283,1.004013e-05,651.5999999995283,7.329844e-06
651.6149999995283,2.590757e-05,651.6149999995283,6.136514e-05,651.6149999995283,9.941437e-06,651.6149999995283,6.993494e-06
651.6299999995283,2.483715e-05,651.6299999995283,6.286733e-05,651.6299999995283,9.669923e-06,651.6299999995283,6.985433e-06
651.6449999995283,2.66045e-05,651.6449999995283,6.278257e-05,651.6449999995283,1.010586e-05,651.6449999995283,6.977362e-06
651.6599999995283,2.904228e-05,651.6599999995283,6.326335e-05,651.6599999995283,9.656803e-06,651.6599999995283,7.00557e-06
651.6749999995283,3.136132e-05,651.6749999995283,5.822409e-05,651.6749999995283,9.821691e-06,651.6749999995283,6.431058e-06
651.6899999995283,3.132446e-05,651.6899999995283,5.737965e-05,651.6899999995283,9.871762e-06,651.6899999995283,6.789081e-06
651.7049999995282,3.049364e-05,651.7049999995282,5.84677e-05,651.7049999995282,9.813081e-06,651.7049999995282,6.869526e-06
651.7199999995282,3.019747e-05,651.7199999995282,6.137547e-05,651.7199999995282,9.611476e-06,651.7199999995282,7.095478e-06
651.7349999995282,3.038813e-05,651.7349999995282,5.878798e-05,651.7349999995282,8.962269e-06,651.7349999995282,6.912455e-06
651.7499999995282,3.004314e-05,651.7499999995282,5.872013e-05,651.7499999995282,9.024921e-06,651.7499999995282,6.961192e-06
651.7649999995282,2.97458e-05,651.7649999995282,5.864884e-05,651.7649999995282,8.856334e-06,651.7649999995282,7.049668e-06
651.7799999995282,2.880706e-05,651.7799999995282,5.847083e-05,651.7799999995282,8.881747e-06,651.7799999995282,7.085544e-06
651.7949999995282,2.908106e-05,651.7949999995282,5.867886e-05,651.7949999995282,8.68934e-06,651.7949999995282,8.995216e-06
651.8099999995281,2.946507e-05,651.8099999995281,5.3314e-05,651.8099999995281,8.449338e-06,651.8099999995281,1.006396e-05
651.8249999995281,2.971927e-05,651.8249999995281,5.134266e-05,651.8249999995281,8.499207e-06,651.8249999995281,1.03714e-05
651.8399999995281,3.005486e-05,651.8399999995281,5.553603e-05,651.8399999995281,8.708772e-06,651.8399999995281,1.124465e-05
651.8549999995281,2.982478e-05,651.8549999995281,5.624052e-05,651.8549999995281,8.755555e-06,651.8549999995281,1.118561e-05
651.8699999995281,3.092346e-05,651.8699999995281,5.676035e-05,651.8699999995281,8.712006e-06,651.8699999995281,1.118813e-05
651.8849999995281,3.091708e-05,651.8849999995281,5.242166e-05,651.8849999995281,8.323359e-06,651.8849999995281,1.116797e-05
651.8999999995281,2.933523e-05,651.8999999995281,5.202785e-05,651.8999999995281,8.420948e-06,651.8999999995281,1.128716e-05
651.914999999528,2.655309e-05,651.914999999528,5.210306e-05,651.914999999528,8.990517e-06,651.914999999528,1.128966e-05
651.929999999528,2.510567e-05,651.929999999528,5.566803e-05,651.929999999528,9.732362e-06,651.929999999528,1.108695e-05
651.944999999528,2.463384e-05,651.944999999528,5.889021e-05,651.944999999528,9.579178e-06,651.944999999528,1.112247e-05
651.959999999528,2.464242e-05,651.959999999528,5.812481e-05,651.959999999528,9.735256e-06,651.959999999528,1.08012e-05
651.974999999528,2.407394e-05,651.974999999528,5.536761e-05,651.974999999528,9.720776e-06,651.974999999528,1.086232e-05
651.989999999528,2.41633e-05,651.989999999528,5.482147e-05,651.989999999528,9.589467e-06,651.989999999528,1.089857e-05
652.004999999528,2.47798e-05,652.004999999528,5.741352e-05,652.004999999528,9.433964e-06,652.004999999528,1.096815e-05
652.019999999528,2.482524e-05,652.019999999528,6.213234e-05,652.019999999528,9.637821e-06,652.019999999528,1.092568e-05
652.0349999995279,2.448183e-05,652.0349999995279,6.20266e-05,652.0349999995279,9.752604e-06,652.0349999995279,1.022366e-05
652.0499999995279,2.399129e-05,652.0499999995279,5.854066e-05,652.0499999995279,9.620266e-06,652.0499999995279,9.342435e-06
652.0649999995279,2.340278e-05,652.0649999995279,5.823038e-05,652.0649999995279,9.505367e-06,652.0649999995279,8.070739e-06
652.0799999995279,2.266338e-05,652.0799999995279,5.827899e-05,652.0799999995279,9.907371e-06,652.0799999995279,7.838757e-06
652.0949999995279,2.15096e-05,652.0949999995279,5.469156e-05,652.0949999995279,9.665551e-06,652.0949999995279,6.881819e-06
652.1099999995279,2.143021e-05,652.1099999995279,5.891604e-05,652.1099999995279,9.629048e-06,652.1099999995279,6.890002e-06
652.1249999995279,1.8158e-05,652.1249999995279,5.830485e-05,652.1249999995279,9.801591e-06,652.1249999995279,6.963215e-06
652.1399999995278,1.568111e-05,652.1399999995278,5.784032e-05,652.1399999995278,9.877468e-06,652.1399999995278,7.142966e-06
652.1549999995278,1.580102e-05,652.1549999995278,5.775282e-05,652.1549999995278,9.460803e-06,652.1549999995278,6.894089e-06
652.1699999995278,1.562261e-05,652.1699999995278,5.684145e-05,652.1699999995278,9.687388e-06,652.1699999995278,7.017624e-06
652.1849999995278,1.546765e-05,652.1849999995278,5.226233e-05,652.1849999995278,8.89601e-06,652.1849999995278,7.057657e-06
652.1999999995278,1.681427e-05,652.1999999995278,5.052708e-05,652.1999999995278,8.897593e-06,652.1999999995278,6.813935e-06
652.2149999995278,1.655337e-05,652.2149999995278,5.128639e-05,652.2149999995278,8.703918e-06,652.2149999995278,6.848989e-06
652.2299999995278,1.663148e-05,652.2299999995278,5.242434e-05,652.2299999995278,8.720087e-06,652.2299999995278,6.764137e-06
652.2449999995277,1.516971e-05,652.2449999995277,5.307912e-05,652.2449999995277,8.739451e-06,652.2449999995277,7.671647e-06
652.2599999995277,1.505038e-05,652.2599999995277,4.996018e-05,652.2599999995277,8.965412e-06,652.2599999995277,8.176516e-06
652.2749999995277,1.744098e-05,652.2749999995277,4.69708e-05,652.2749999995277,8.606265e-06,652.2749999995277,8.338578e-06
652.2899999995277,1.737382e-05,652.2899999995277,4.634372e-05,652.2899999995277,8.548785e-06,652.2899999995277,8.710389e-06
652.3049999995277,1.770312e-05,652.3049999995277,4.640295e-05,652.3049999995277,9.251524e-06,652.3049999995277,8.982679e-06
652.3199999995277,1.726972e-05,652.3199999995277,4.662887e-05,652.3199999995277,9.175076e-06,652.3199999995277,9.205732e-06
652.3349999995277,1.788441e-05,652.3349999995277,4.678992e-05,652.3349999995277,9.130444e-06,652.3349999995277,9.521654e-06
652.3499999995277,1.780073e-05,652.3499999995277,4.505713e-05,652.3499999995277,9.490535e-06,652.3499999995277,9.937185e-06
652.3649999995276,1.77071e-05,652.3649999995276,5.43002e-05,652.3649999995276,9.505367e-06,652.3649999995276,9.979622e-06
652.3799999995276,2.045145e-05,652.3799999995276,6.277539e-05,652.3799999995276,9.913058e-06,652.3799999995276,9.850334e-06
652.3949999995276,2.073329e-05,652.3949999995276,6.458903e-05,652.3949999995276,9.930095e-06,652.3949999995276,9.935768e-06
652.4099999995276,2.206627e-05,652.4099999995276,6.454867e-05,652.4099999995276,9.714977e-06,652.4099999995276,1.130711e-05
652.4249999995276,2.2231e-05,652.4249999995276,6.523033e-05,652.4249999995276,9.343943e-06,652.4249999995276,1.107169e-05
652.4399999995276,2.324454e-05,652.4399999995276,6.709667e-05,652.4399999995276,9.823125e-06,652.4399999995276,1.100021e-05
652.4549999995276,2.58575e-05,652.4549999995276,6.881716e-05,652.4549999995276,1.057717e-05,652.4549999995276,1.088694e-05
652.4699999995275,3.170796e-05,652.4699999995275,6.789268e-05,652.4699999995275,1.173625e-05,652.4699999995275,1.096686e-05
652.4849999995275,3.286332e-05,652.4849999995275,6.707462e-05,652.4849999995275,1.189008e-05,652.4849999995275,1.050902e-05
652.4999999995275,3.432342e-05,652.4999999995275,6.496438e-05,652.4999999995275,1.178416e-05,652.4999999995275,1.017532e-05
652.5149999995275,3.473587e-05,652.5149999995275,6.342014e-05,652.5149999995275,1.15194e-05,652.5149999995275,9.716427e-06
652.5299999995275,3.465589e-05,652.5299999995275,6.251432e-05,652.5299999995275,1.16253e-05,652.5299999995275,9.713527e-06
652.5449999995275,3.498761e-05,652.5449999995275,6.340304e-05,652.5449999995275,1.148511e-05,652.5449999995275,9.631973e-06
652.5599999995275,3.481163e-05,652.5599999995275,6.389392e-05,652.5599999995275,1.126217e-05,652.5599999995275,9.453355e-06
652.5749999995274,3.47164e-05,652.5749999995274,6.46932e-05,652.5749999995274,1.180208e-05,652.5749999995274,9.25609e-06
652.5899999995274,3.439312e-05,652.5899999995274,6.425733e-05,652.5899999995274,1.217919e-05,652.5899999995274,9.006171e-06
652.6049999995274,3.414278e-05,652.6049999995274,6.131875e-05,652.6049999995274,1.202438e-05,652.6049999995274,8.695822e-06
652.6199999995274,3.402458e-05,652.6199999995274,4.9103e-05,652.6199999995274,1.210494e-05,652.6199999995274,8.77805e-06
652.6349999995274,3.278006e-05,652.6349999995274,4.097069e-05,652.6349999995274,1.179253e-05,652.6349999995274,8.891258e-06
652.6499999995274,3.223929e-05,652.6499999995274,4.003583e-05,652.6499999995274,1.209447e-05,652.6499999995274,8.596438e-06
652.6649999995274,3.216405e-05,652.6649999995274,4.089222e-05,652.6649999995274,1.222883e-05,652.6649999995274,7.16266e-06
652.6799999995274,3.19787e-05,652.6799999995274,3.754236e-05,652.6799999995274,1.215372e-05,652.6799999995274,7.553216e-06
652.6949999995273,3.028132e-05,652.6949999995273,3.678886e-05,652.6949999995273,1.16059e-05,652.6949999995273,7.770169e-06
652.7099999995273,2.64851e-05,652.7099999995273,3.310036e-05,652.7099999995273,1.060377e-05,652.7099999995273,7.97063e-06
652.7249999995273,2.14788e-05,652.7249999995273,3.1586e-05,652.7249999995273,9.791525e-06,652.7249999995273,7.944076e-06
652.7399999995273,2.273041e-05,652.7399999995273,3.320319e-05,652.7399999995273,9.720776e-06,652.7399999995273,8.009417e-06
652.7549999995273,2.13914e-05,652.7549999995273,3.378693e-05,652.7549999995273,1.003592e-05,652.7549999995273,7.995334e-06
652.7699999995273,2.157173e-05,652.7699999995273,3.519355e-05,652.7699999995273,1.062633e-05,652.7699999995273,7.908532e-06
652.7849999995273,2.157042e-05,652.7849999995273,3.601413e-05,652.7849999995273,1.093599e-05,652.7849999995273,7.702799e-06
652.7999999995272,2.137493e-05,652.7999999995272,3.51555e-05,652.7999999995272,1.103473e-05,652.7999999995272,7.741108e-06
652.8149999995272,2.184556e-05,652.8149999995272,3.359879e-05,652.8149999995272,1.092052e-05,652.8149999995272,7.466933e-06
652.8299999995272,2.186683e-05,652.8299999995272,3.24605e-05,652.8299999995272,9.938602e-06,652.8299999995272,8.110784e-06
652.8449999995272,2.636195e-05,652.8449999995272,3.243011e-05,652.8449999995272,9.655344e-06,652.8449999995272,8.128133e-06
652.8599999995272,2.927658e-05,652.8599999995272,3.575189e-05,652.8599999995272,9.749715e-06,652.8599999995272,8.296236e-06
652.8749999995272,2.916378e-05,652.8749999995272,3.627097e-05,652.8749999995272,9.580649e-06,652.8749999995272,8.115992e-06
652.8899999995272,2.931121e-05,652.8899999995272,3.636871e-05,652.8899999995272,9.327345e-06,652.8899999995272,8.171345e-06
652.9049999995271,2.923855e-05,652.9049999995271,3.583375e-05,652.9049999995271,8.747506e-06,652.9049999995271,8.753946e-06
652.9199999995271,2.916426e-05,652.9199999995271,3.510979e-05,652.9199999995271,8.773234e-06,652.9199999995271,8.742674e-06
652.9349999995271,2.996802e-05,652.9349999995271,3.601061e-05,652.9349999995271,9.032722e-06,652.9349999995271,8.616079e-06
652.9499999995271,3.012274e-05,652.9499999995271,3.716449e-05,652.9499999995271,9.21185e-06,652.9499999995271,8.399174e-06
652.9649999995271,2.981675e-05,652.9649999995271,3.845506e-05,652.9649999995271,9.119637e-06,652.9649999995271,8.25709e-06
652.9799999995271,2.872136e-05,652.9799999995271,3.982805e-05,652.9799999995271,8.926046e-06,652.9799999995271,8.404203e-06
652.9949999995271,2.918647e-05,652.9949999995271,3.932726e-05,652.9949999995271,8.876988e-06,652.9949999995271,8.060259e-06
653.009999999527,2.901317e-05,653.009999999527,3.933406e-05,653.009999999527,8.795684e-06,653.009999999527,8.198881e-06
653.024999999527,3.357069e-05,653.024999999527,3.681642e-05,653.024999999527,9.099535e-06,653.024999999527,8.355453e-06
653.039999999527,4.008576e-05,653.039999999527,3.64882e-05,653.039999999527,8.903924e-06,653.039999999527,8.505834e-06
653.054999999527,4.287324e-05,653.054999999527,4.201733e-05,653.054999999527,8.948112e-06,653.054999999527,9.265217e-06
653.069999999527,4.317871e-05,653.069999999527,5.533096e-05,653.069999999527,8.861105e-06,653.069999999527,9.88887e-06
653.084999999527,4.273964e-05,653.084999999527,5.741818e-05,653.084999999527,8.95126e-06,653.084999999527,9.706273e-06
653.099999999527,4.064309e-05,653.099999999527,5.913489e-05,653.099999999527,8.861105e-06,653.099999999527,1.097072e-05
653.114999999527,4.175029e-05,653.114999999527,6.129256e-05,653.114999999527,8.609537e-06,653.114999999527,1.105769e-05
653.129999999527,4.193679e-05,653.129999999527,7.159966e-05,653.129999999527,8.69096e-06,653.129999999527,1.128841e-05
653.1449999995269,4.200224e-05,653.1449999995269,7.232277e-05,653.1449999995269,8.679607e-06,653.1449999995269,1.129589e-05
653.1599999995269,4.592418e-05,653.1599999995269,7.260872e-05,653.1599999995269,9.023361e-06,653.1599999995269,1.174345e-05
653.1749999995269,5.257541e-05,653.1749999995269,7.369289e-05,653.1749999995269,9.066966e-06,653.1749999995269,1.172304e-05
653.1899999995269,5.273192e-05,653.1899999995269,7.295845e-05,653.1899999995269,8.851561e-06,653.1899999995269,1.158403e-05
653.2049999995269,5.290634e-05,653.2049999995269,7.367205e-05,653.2049999995269,8.741063e-06,653.2049999995269,1.236629e-05
653.2199999995269,5.287091e-05,653.2199999995269,7.426641e-05,653.2199999995269,8.661737e-06,653.2199999995269,1.250449e-05
653.2349999995268,5.243885e-05,653.2349999995268,7.382562e-05,653.2349999995268,8.781259e-06,653.2349999995268,1.2527e-05
653.2499999995268,5.224724e-05,653.2499999995268,7.345989e-05,653.2499999995268,8.695822e-06,653.2499999995268,1.259317e-05
653.2649999995268,5.185319e-05,653.2649999995268,7.341596e-05,653.2649999995268,8.074229e-06,653.2649999995268,1.237881e-05
653.2799999995268,4.775717e-05,653.2799999995268,7.326845e-05,653.2799999995268,7.166593e-06,653.2799999995268,1.220923e-05
653.2949999995268,4.205855e-05,653.2949999995268,7.311371e-05,653.2949999995268,6.684531e-06,653.2949999995268,1.214445e-05
653.3099999995268,4.03701e-05,653.3099999995268,6.350094e-05,653.3099999995268,6.853102e-06,653.3099999995268,1.094372e-05
653.3249999995268,4.001506e-05,653.3249999995268,5.903905e-05,653.3249999995268,6.96726e-06,653.3249999995268,1.06356e-05
653.3399999995268,3.960388e-05,653.3399999995268,5.626206e-05,653.3399999995268,6.865424e-06,653.3399999995268,9.494987e-06
653.3549999995267,3.931436e-05,653.3549999995267,5.517749e-05,653.3549999995267,6.959168e-06,653.3549999995267,9.024921e-06
653.3699999995267,3.694971e-05,653.3699999995267,5.07746e-05,653.3699999995267,6.989465e-06,653.3699999995267,8.352081e-06
653.3849999995267,3.689516e-05,653.3849999995267,3.560027e-05,653.3849999995267,6.969281e-06,653.3849999995267,8.547137e-06
653.3999999995267,3.664422e-05,653.3999999995267,3.521595e-05,653.3999999995267,6.918566e-06,653.3999999995267,8.287742e-06
653.4149999995267,2.676446e-05,653.4149999995267,3.965862e-05,653.4149999995267,6.415707e-06,653.4149999995267,7.03967e-06
653.4299999995267,1.705054e-05,653.4299999995267,4.13819e-05,653.4299999995267,6.322817e-06,653.4299999995267,7.049668e-06
653.4449999995267,1.638315e-05,653.4449999995267,3.930039e-05,653.4449999995267,6.378271e-06,653.4449999995267,7.023643e-06
653.4599999995266,1.726075e-05,653.4599999995266,3.677278e-05,653.4599999995266,6.439814e-06,653.4599999995266,6.028569e-06
653.4749999995266,2.189966e-05,653.4749999995266,6.140301e-05,653.4749999995266,6.483414e-06,653.4749999995266,5.790191e-06
653.4899999995266,2.203177e-05,653.4899999995266,6.882985e-05,653.4899999995266,6.548272e-06,653.4899999995266,5.654801e-06
653.5049999995266,2.223226e-05,653.5049999995266,7.17011e-05,653.5049999995266,6.720261e-06,653.5049999995266,5.672212e-06
653.5199999995266,2.220754e-05,653.5199999995266,7.29372e-05,653.5199999995266,6.54612e-06,653.5199999995266,7.538281e-06
653.5349999995266,2.774493e-05,653.5349999995266,7.31711e-05,653.5349999995266,6.64861e-06,653.5349999995266,8.136793e-06
653.5499999995266,3.213864e-05,653.5499999995266,7.488936e-05,653.5499999995266,6.755802e-06,653.5499999995266,8.265616e-06
653.5649999995265,3.470585e-05,653.5649999995265,7.765563e-05,653.5649999995265,6.999535e-06,653.5649999995265,8.306418e-06
653.5799999995265,3.573849e-05,653.5799999995265,8.137227e-05,653.5799999995265,7.327922e-06,653.5799999995265,8.578393e-06
653.5949999995265,3.83542e-05,653.5949999995265,8.257381e-05,653.5949999995265,7.302889e-06,653.5949999995265,9.339419e-06
653.6099999995265,3.844847e-05,653.6099999995265,8.69762e-05,653.6099999995265,7.478244e-06,653.6099999995265,9.390561e-06
653.6249999995265,3.880876e-05,653.6249999995265,9.141992e-05,653.6249999995265,7.500814e-06,653.6249999995265,9.494987e-06
653.6399999995265,3.917473e-05,653.6399999995265,9.231907e-05,653.6399999995265,7.207752e-06,653.6399999995265,9.236285e-06
653.6549999995265,3.929429e-05,653.6549999995265,9.340067e-05,653.6549999995265,7.372003e-06,653.6549999995265,9.253046e-06
653.6699999995265,3.932404e-05,653.6699999995265,9.247869e-05,653.6699999995265,7.350954e-06,653.6699999995265,9.23781e-06
653.6849999995264,3.926955e-05,653.6849999995264,9.346988e-05,653.6849999995264,7.314453e-06,653.6849999995264,9.620266e-06
653.6999999995264,3.963091e-05,653.6999999995264,9.491307e-05,653.6999999995264,7.358615e-06,653.6999999995264,1.00975e-05
653.7149999995264,3.78406e-05,653.7149999995264,9.98181e-05,653.7149999995264,7.135074e-06,653.7149999995264,1.001907e-05
653.7299999995264,3.750745e-05,653.7299999995264,8.355336e-05,653.7299999995264,7.172487e-06,653.7299999995264,1.012675e-05
653.7449999995264,3.745521e-05,653.7449999995264,8.042133e-05,653.7449999995264,7.15282e-06,653.7449999995264,1.073579e-05
653.7599999995264,3.810141e-05,653.7599999995264,8.064348e-05,653.7599999995264,7.15282e-06,653.7599999995264,1.052644e-05
653.7749999995264,3.739084e-05,653.7749999995264,8.207519e-05,653.7749999995264,7.131124e-06,653.7749999995264,9.864624e-06
653.7899999995263,3.17497e-05,653.7899999995263,8.211088e-05,653.7899999995263,7.109361e-06,653.7899999995263,9.617337e-06
653.8049999995263,2.841763e-05,653.8049999995263,8.800584e-05,653.8049999995263,6.885912e-06,653.8049999995263,1.005135e-05
653.8199999995263,2.634752e-05,653.8199999995263,8.584205e-05,653.8199999995263,6.426676e-06,653.8199999995263,1.001766e-05
653.8349999995263,2.193244e-05,653.8349999995263,8.498295e-05,653.8349999995263,6.061194e-06,653.8349999995263,1.030326e-05
653.8499999995263,1.958161e-05,653.8499999995263,8.658776e-05,653.8499999995263,6.284828e-06,653.8499999995263,1.024431e-05
653.8649999995263,1.943358e-05,653.8649999995263,8.243739e-05,653.8649999995263,6.019215e-06,653.8649999995263,1.220461e-05
653.8799999995263,1.891788e-05,653.8799999995263,7.946009e-05,653.8799999995263,6.007502e-06,653.8799999995263,1.252137e-05
653.8949999995262,1.796222e-05,653.8949999995262,7.901493e-05,653.8949999995262,6.404719e-06,653.8949999995262,1.26512e-05
653.9099999995262,1.773095e-05,653.9099999995262,7.768193e-05,653.9099999995262,7.00959e-06,653.9099999995262,1.326221e-05
653.9249999995262,1.764813e-05,653.9249999995262,7.669719e-05,653.9249999995262,7.065636e-06,653.9249999995262,1.371134e-05
653.9399999995262,1.606976e-05,653.9399999995262,7.407022e-05,653.9399999995262,7.166593e-06,653.9399999995262,1.69245e-05
653.9549999995262,1.474305e-05,653.9549999995262,7.611829e-05,653.9549999995262,7.584854e-06,653.9549999995262,1.699095e-05
653.9699999995262,1.371031e-05,653.9699999995262,7.552451e-05,653.9699999995262,7.640368e-06,653.9699999995262,1.707036e-05
653.9849999995262,1.305129e-05,653.9849999995262,7.886128e-05,653.9849999995262,7.459384e-06,653.9849999995262,1.772539e-05
653.9999999995262,1.286321e-05,653.9999999995262,7.872791e-05,653.9999999995262,7.555081e-06,653.9999999995262,2.064477e-05
654.0149999995261,1.031283e-05,654.0149999995261,8.250981e-05,654.0149999995261,7.655103e-06,654.0149999995261,2.183525e-05
654.0299999995261,1.017947e-05,654.0299999995261,8.230965e-05,654.0299999995261,7.560672e-06,654.0299999995261,2.184621e-05
654.0449999995261,1.025805e-05,654.0449999995261,8.258524e-05,654.0449999995261,7.577422e-06,654.0449999995261,2.433467e-05
654.0599999995261,1.013509e-05,654.0599999995261,7.826203e-05,654.0599999995261,8.40923e-06,654.0599999995261,2.701121e-05
654.0749999995261,1.179372e-05,654.0749999995261,7.877925e-05,654.0749999995261,8.384065e-06,654.0749999995261,2.77632e-05
654.0899999995261,1.332579e-05,654.0899999995261,7.857101e-05,654.0899999995261,9.248478e-06,654.0899999995261,2.812614e-05
654.1049999995261,1.364027e-05,654.1049999995261,7.730911e-05,654.1049999995261,9.451865e-06,654.1049999995261,3.136985e-05
654.119999999526,1.40533e-05,654.119999999526,7.485022e-05,654.119999999526,9.605612e-06,654.119999999526,3.196724e-05
654.134999999526,1.379329e-05,654.134999999526,7.343898e-05,654.134999999526,9.429483e-06,654.134999999526,3.202535e-05
654.149999999526,1.377591e-05,654.149999999526,7.236016e-05,654.149999999526,9.289512e-06,654.149999999526,3.342814e-05
654.164999999526,1.388794e-05,654.164999999526,7.118827e-05,654.164999999526,8.726546e-06,654.164999999526,3.589227e-05
654.179999999526,1.423556e-05,654.179999999526,7.004564e-05,654.179999999526,8.694202e-06,654.179999999526,3.549049e-05
654.194999999526,1.524197e-05,654.194999999526,6.700843e-05,654.194999999526,8.724932e-06,654.194999999526,3.533496e-05
654.209999999526,1.584643e-05,654.209999999526,6.45347e-05,654.209999999526,8.630781e-06,654.209999999526,3.675899e-05
654.224999999526,1.6753e-05,654.224999999526,5.612393e-05,654.224999999526,8.661737e-06,654.224999999526,3.669723e-05
654.2399999995259,1.74135e-05,654.2399999995259,5.190234e-05,654.2399999995259,8.54384e-06,654.2399999995259,3.685505e-05
654.2549999995259,1.745632e-05,654.2549999995259,4.514832e-05,654.2549999995259,8.645458e-06,654.2549999995259,3.63722e-05
654.2699999995259,1.755048e-05,654.2699999995259,4.184129e-05,654.2699999995259,8.69096e-06,654.2699999995259,4.040393e-05
654.2849999995259,1.793004e-05,654.2849999995259,4.148322e-05,654.2849999995259,8.891258e-06,654.2849999995259,3.999675e-05
654.2999999995259,1.807558e-05,654.2999999995259,4.040672e-05,654.2999999995259,8.944963e-06,654.2999999995259,3.941599e-05
654.3149999995259,1.799356e-05,654.3149999995259,3.892474e-05,654.3149999995259,8.109047e-06,654.3149999995259,3.824275e-05
654.3299999995259,1.736003e-05,654.3299999995259,3.676856e-05,654.3299999995259,7.502692e-06,654.3299999995259,3.798291e-05
654.3449999995258,1.859873e-05,654.3449999995258,3.692645e-05,654.3449999995258,7.616361e-06,654.3449999995258,3.71334e-05
654.3599999995258,1.901296e-05,654.3599999995258,3.915531e-05,654.3599999995258,7.229218e-06,654.3599999995258,3.571562e-05
654.3749999995258,1.900332e-05,654.3749999995258,4.116175e-05,654.3749999995258,7.03967e-06,654.3749999995258,3.554958e-05
654.3899999995258,2.012232e-05,654.3899999995258,4.61329e-05,654.3899999995258,6.999535e-06,654.3899999995258,3.538077e-05
654.4049999995258,2.046178e-05,654.4049999995258,4.74693e-05,654.4049999995258,7.117283e-06,654.4049999995258,3.501095e-05
654.4199999995258,2.024306e-05,654.4199999995258,5.102313e-05,654.4199999995258,7.12124e-06,654.4199999995258,3.337753e-05
654.4349999995258,2.026184e-05,654.4349999995258,5.576511e-05,654.4349999995258,6.983416e-06,654.4349999995258,3.298996e-05
654.4499999995257,2.022566e-05,654.4499999995257,5.709169e-05,654.4499999995257,6.782854e-06,654.4499999995257,3.279381e-05
654.4649999995257,1.959456e-05,654.4649999995257,5.748953e-05,654.4649999995257,6.528882e-06,654.4649999995257,3.129702e-05
654.4799999995257,1.88328e-05,654.4799999995257,6.037488e-05,654.4799999995257,6.496438e-06,654.4799999995257,3.131412e-05
654.4949999995257,1.883729e-05,654.4949999995257,6.608998e-05,654.4949999995257,6.985433e-06,654.4949999995257,3.370135e-05
654.5099999995257,1.884028e-05,654.5099999995257,6.869711e-05,654.5099999995257,7.203842e-06,654.5099999995257,2.827151e-05
654.5249999995257,1.849239e-05,654.5249999995257,6.969665e-05,654.5249999995257,7.043671e-06,654.5249999995257,2.743193e-05
654.5399999995257,1.899887e-05,654.5399999995257,7.173724e-05,654.5399999995257,6.942956e-06,654.5399999995257,2.708413e-05
654.5549999995256,1.912966e-05,654.5549999995256,7.543101e-05,654.5549999995256,6.918566e-06,654.5549999995256,2.701956e-05
654.5699999995256,1.923541e-05,654.5699999995256,8.039225e-05,654.5699999995256,6.947012e-06,654.5699999995256,2.614303e-05
654.5849999995256,1.949004e-05,654.5849999995256,8.026845e-05,654.5849999995256,6.461651e-06,654.5849999995256,2.770733e-05
654.5999999995256,1.758736e-05,654.5999999995256,8.578837e-05,654.5999999995256,5.917727e-06,654.5999999995256,2.80263e-05
654.6149999995256,1.676645e-05,654.6149999995256,8.810806e-05,654.6149999995256,5.915346e-06,654.6149999995256,2.728983e-05
654.6299999995256,1.650821e-05,654.6299999995256,8.914564e-05,654.6299999995256,6.162605e-06,654.6299999995256,2.84419e-05
654.6449999995256,1.508684e-05,654.6449999995256,8.889705e-05,654.6449999995256,6.382687e-06,654.6449999995256,2.677288e-05
654.6599999995256,1.59748e-05,654.6599999995256,8.904272e-05,654.6599999995256,6.089019e-06,654.6599999995256,2.68779e-05
654.6749999995255,1.644922e-05,654.6749999995255,8.904683e-05,654.6749999995255,6.393712e-06,654.6749999995255,2.769411e-05
654.6899999995255,1.663148e-05,654.6899999995255,8.588995e-05,654.6899999995255,6.589018e-06,654.6899999995255,2.863097e-05
654.7049999995255,1.82524e-05,654.7049999995255,8.549295e-05,654.7049999995255,7.316379e-06,654.7049999995255,3.130917e-05
654.7199999995255,1.839998e-05,654.7199999995255,8.483148e-05,654.7199999995255,7.651422e-06,654.7199999995255,3.200511e-05
654.7349999995255,1.839233e-05,654.7349999995255,8.294216e-05,654.7349999995255,7.896054e-06,654.7349999995255,3.243662e-05
654.7499999995255,1.875936e-05,654.7499999995255,7.865112e-05,654.7499999995255,7.345202e-06,654.7499999995255,2.948085e-05
654.7649999995255,1.921636e-05,654.7649999995255,7.634964e-05,654.7649999995255,7.558809e-06,654.7649999995255,3.289845e-05
654.7799999995254,1.952181e-05,654.7799999995254,7.32196e-05,654.7799999995254,7.547619e-06,654.7799999995254,3.492475e-05
654.7949999995254,1.990907e-05,654.7949999995254,7.201925e-05,654.7949999995254,7.724713e-06,654.7949999995254,3.541818e-05
654.8099999995254,1.973781e-05,654.8099999995254,6.166558e-05,654.8099999995254,7.761099e-06,654.8099999995254,3.554086e-05
654.8249999995254,1.86426e-05,654.8249999995254,5.914322e-05,654.8249999995254,8.181682e-06,654.8249999995254,3.692378e-05
654.8399999995254,1.973567e-05,654.8399999995254,5.806977e-05,654.8399999995254,8.509145e-06,654.8399999995254,3.660461e-05
654.8549999995254,1.988925e-05,654.8549999995254,5.486437e-05,654.8549999995254,8.806888e-06,654.8549999995254,3.7202e-05
654.8699999995254,2.012162e-05,654.8699999995254,5.922439e-05,654.8699999995254,8.892842e-06,654.8699999995254,3.735466e-05
654.8849999995253,2.01922e-05,654.8849999995253,5.603576e-05,654.8849999995253,9.052973e-06,654.8849999995253,3.691424e-05
654.8999999995253,2.035687e-05,654.8999999995253,5.41399e-05,654.8999999995253,8.990517e-06,654.8999999995253,3.65048e-05
654.9149999995253,1.993453e-05,654.9149999995253,5.650639e-05,654.9149999995253,8.91183e-06,654.9149999995253,3.688408e-05
654.9299999995253,1.912966e-05,654.9299999995253,5.795783e-05,654.9299999995253,8.905506e-06,654.9299999995253,3.641439e-05
654.9449999995253,1.799435e-05,654.9449999995253,6.899665e-05,654.9449999995253,8.872225e-06,654.9449999995253,3.599926e-05
654.9599999995253,1.736895e-05,654.9599999995253,7.872433e-05,654.9599999995253,8.062008e-06,654.9599999995253,3.605791e-05
654.9749999995253,1.750226e-05,654.9749999995253,7.948845e-05,654.9749999995253,7.93343e-06,654.9749999995253,3.516872e-05
654.9899999995253,1.729092e-05,654.9899999995253,8.196046e-05,654.9899999995253,7.568121e-06,654.9899999995253,3.509815e-05
655.0049999995252,1.710004e-05,655.0049999995252,8.605593e-05,655.0049999995252,7.588568e-06,655.0049999995252,3.433492e-05
655.0199999995252,1.681678e-05,655.0199999995252,8.740402e-05,655.0199999995252,7.721065e-06,655.0199999995252,3.096944e-05
655.0349999995252,1.638229e-05,655.0349999995252,9.044006e-05,655.0349999995252,7.990047e-06,655.0349999995252,2.907622e-05
655.0499999995252,1.587662e-05,655.0499999995252,9.244852e-05,655.0499999995252,8.26732e-06,655.0499999995252,2.815218e-05
655.0649999995252,1.672439e-05,655.0649999995252,9.254309e-05,655.0649999995252,8.217759e-06,655.0649999995252,2.687476e-05
655.0799999995252,1.686029e-05,655.0799999995252,9.629852e-05,655.0799999995252,8.004139e-06,655.0799999995252,2.450944e-05
655.0949999995252,1.658993e-05,655.0949999995252,9.943577e-05,655.0949999995252,7.733825e-06,655.0949999995252,2.482921e-05
655.1099999995251,1.745229e-05,655.1099999995251,9.364062e-05,655.1099999995251,7.689987e-06,655.1099999995251,2.400596e-05
655.1249999995251,1.728929e-05,655.1249999995251,9.839617e-05,655.1249999995251,7.658783e-06,655.1249999995251,2.266089e-05
655.1399999995251,1.720926e-05,655.1399999995251,0.0001022512,655.1399999995251,7.568121e-06,655.1399999995251,2.285956e-05
655.1549999995251,1.820449e-05,655.1549999995251,0.0001008421,655.1549999995251,7.582997e-06,655.1549999995251,2.213893e-05
655.1699999995251,1.791825e-05,655.1699999995251,0.0001000196,655.1699999995251,7.931653e-06,655.1699999995251,2.200426e-05
655.1849999995251,1.77381e-05,655.1849999995251,9.963461e-05,655.1849999995251,7.968863e-06,655.1849999995251,2.220754e-05
655.1999999995251,1.719206e-05,655.1999999995251,9.102661e-05,655.1999999995251,8.485937e-06,655.1999999995251,1.955786e-05
655.214999999525,1.624239e-05,655.214999999525,8.667671e-05,655.214999999525,8.843601e-06,655.214999999525,1.742482e-05
655.229999999525,1.642437e-05,655.229999999525,8.670384e-05,655.229999999525,9.331874e-06,655.229999999525,1.730883e-05
655.244999999525,1.623198e-05,655.244999999525,8.846531e-05,655.244999999525,9.144318e-06,655.244999999525,1.672355e-05
655.259999999525,1.595716e-05,655.259999999525,8.485223e-05,655.259999999525,9.087142e-06,655.259999999525,1.65193e-05
655.274999999525,1.534329e-05,655.274999999525,8.21421e-05,655.274999999525,8.966984e-06,655.274999999525,1.648686e-05
655.289999999525,1.502509e-05,655.289999999525,8.077386e-05,655.289999999525,8.718472e-06,655.289999999525,1.643895e-05
655.304999999525,1.564964e-05,655.304999999525,7.865685e-05,655.304999999525,8.965412e-06,655.304999999525,1.611353e-05
655.319999999525,1.439203e-05,655.319999999525,7.739834e-05,655.319999999525,9.071627e-06,655.319999999525,1.576443e-05
655.3349999995249,1.50915e-05,655.3349999995249,8.304077e-05,655.3349999995249,8.870637e-06,655.3349999995249,1.557203e-05
655.3499999995249,4.808727e-05,655.3499999995249,8.292755e-05,655.3499999995249,9.1289e-06,655.3499999995249,1.289711e-05
655.3649999995249,5.428619e-05,655.3649999995249,7.73266e-05,655.3649999995249,8.926046e-06,655.3649999995249,1.285116e-05
655.3799999995249,5.993299e-05,655.3799999995249,7.322864e-05,655.3799999995249,8.763595e-06,655.3799999995249,1.343843e-05
655.3949999995249,6.117938e-05,655.3949999995249,6.822612e-05,655.3949999995249,8.708772e-06,655.3949999995249,1.282922e-05
655.4099999995249,6.133896e-05,655.4099999995249,6.671136e-05,655.4099999995249,8.612809e-06,655.4099999995249,1.265009e-05
655.4249999995249,6.20602e-05,655.4249999995249,6.672255e-05,655.4249999995249,8.619349e-06,655.4249999995249,1.279844e-05
655.4399999995248,6.254879e-05,655.4399999995248,6.744574e-05,655.4399999995248,8.02874e-06,655.4399999995248,1.069109e-05
655.4549999995248,6.27828e-05,655.4549999995248,6.842096e-05,655.4549999995248,8.198881e-06,655.4549999995248,1.056784e-05
655.4699999995248,6.281443e-05,655.4699999995248,6.851128e-05,655.4699999995248,8.296236e-06,655.4699999995248,1.03714e-05
655.4849999995248,6.278168e-05,655.4849999995248,6.496503e-05,655.4849999995248,8.068993e-06,655.4849999995248,1.032784e-05
655.4999999995248,6.295712e-05,655.4999999995248,6.062914e-05,655.4999999995248,8.207468e-06,655.4999999995248,9.999364e-06
655.5149999995248,6.400076e-05,655.5149999995248,6.165827e-05,655.5149999995248,9.066966e-06,655.5149999995248,1.004434e-05
655.5299999995248,6.433555e-05,655.5299999995248,6.237265e-05,655.5299999995248,9.076284e-06,655.5299999995248,9.847473e-06
655.5449999995247,6.452292e-05,655.5449999995247,6.37089e-05,655.5449999995247,9.08404e-06,655.5449999995247,9.942854e-06
655.5599999995247,6.456766e-05,655.5599999995247,6.430707e-05,655.5599999995247,8.76681e-06,655.5599999995247,1.010865e-05
655.5749999995247,6.464593e-05,655.5749999995247,6.557602e-05,655.5749999995247,8.697441e-06,655.5749999995247,1.001485e-05
655.5899999995247,6.481872e-05,655.5899999995247,4.585941e-05,655.5899999995247,8.838821e-06,655.5899999995247,9.803028e-06
655.6049999995247,4.433953e-05,655.6049999995247,4.256856e-05,655.6049999995247,8.703918e-06,655.6049999995247,9.073179e-06
655.6199999995247,3.627602e-05,655.6199999995247,4.326149e-05,655.6199999995247,9.53496e-06,655.6199999995247,8.58496e-06
655.6349999995247,3.031898e-05,655.6349999995247,4.370338e-05,655.6349999995247,9.788648e-06,655.6349999995247,8.331817e-06
655.6499999995247,2.977799e-05,655.6499999995247,4.715309e-05,655.6499999995247,1.00275e-05,655.6499999995247,8.440998e-06
655.6649999995246,2.893586e-05,655.6649999995246,4.996103e-05,655.6649999995246,1.010447e-05,655.6649999995246,8.328435e-06
655.6799999995246,2.901608e-05,655.6799999995246,4.97992e-05,655.6799999995246,1.003171e-05,655.6799999995246,7.015617e-06
655.6949999995246,2.979738e-05,655.6949999995246,4.657113e-05,655.6949999995246,9.863196e-06,655.6949999995246,7.011599e-06
655.7099999995246,2.991439e-05,655.7099999995246,4.374429e-05,655.7099999995246,1.034692e-05,655.7099999995246,7.081567e-06
655.7249999995246,2.997883e-05,655.7249999995246,4.305848e-05,655.7249999995246,9.897414e-06,655.7249999995246,7.065636e-06
655.7399999995246,3.040528e-05,655.7399999995246,4.48016e-05,655.7399999995246,1.002328e-05,655.7399999995246,6.940926e-06
655.7549999995246,3.038767e-05,655.7549999995246,4.80943e-05,655.7549999995246,9.76848e-06,655.7549999995246,6.867475e-06
655.7699999995245,2.859552e-05,655.7699999995245,5.608024e-05,655.7699999995245,8.990517e-06,655.7699999995245,6.908378e-06
655.7849999995245,2.816968e-05,655.7849999995245,5.410529e-05,655.7849999995245,8.948112e-06,655.7849999995245,7.051666e-06
655.7999999995245,2.816118e-05,655.7999999995245,5.340455e-05,655.7999999995245,8.813284e-06,655.7999999995245,6.757886e-06
655.8149999995245,2.918985e-05,655.8149999995245,5.259818e-05,655.8149999995245,8.849969e-06,655.8149999995245,6.631638e-06
655.8299999995245,2.940525e-05,655.8299999995245,5.720262e-05,655.8299999995245,9.204201e-06,655.8299999995245,7.735647e-06
655.8449999995245,2.852153e-05,655.8449999995245,5.783253e-05,655.8449999995245,9.198077e-06,655.8449999995245,8.517419e-06
655.8599999995245,2.800417e-05,655.8599999995245,6.413335e-05,655.8599999995245,9.838886e-06,655.8599999995245,8.395818e-06
655.8749999995244,2.716514e-05,655.8749999995244,6.865198e-05,655.8749999995244,9.164322e-06,655.8749999995244,8.43599e-06
655.8899999995244,2.656794e-05,655.8899999995244,6.768425e-05,655.8899999995244,9.25609e-06,655.8899999995244,8.504177e-06
655.9049999995244,2.971121e-05,655.9049999995244,6.70429e-05,655.9049999995244,9.094889e-06,655.9049999995244,8.606265e-06
655.9199999995244,2.855164e-05,655.9199999995244,6.688576e-05,655.9199999995244,9.573294e-06,655.9199999995244,8.720087e-06
655.9349999995244,2.867816e-05,655.9349999995244,6.667356e-05,655.9349999995244,9.801591e-06,655.9349999995244,9.059196e-06
655.9499999995244,2.721229e-05,655.9499999995244,6.794142e-05,655.9499999995244,9.558568e-06,655.9499999995244,9.968323e-06
655.9649999995244,2.732439e-05,655.9649999995244,7.012624e-05,655.9649999995244,9.368033e-06,655.9649999995244,1.055717e-05
655.9799999995244,2.943781e-05,655.9799999995244,7.02601e-05,655.9799999995244,1.004013e-05,655.9799999995244,1.057184e-05
655.9949999995243,2.919805e-05,655.9949999995243,6.927478e-05,655.9949999995243,1.009889e-05,655.9949999995243,1.111106e-05
656.0099999995243,2.90578e-05,656.0099999995243,6.143305e-05,656.0099999995243,1.033194e-05,656.0099999995243,1.12296e-05
656.0249999995243,2.93856e-05,656.0249999995243,6.526055e-05,656.0249999995243,1.038633e-05,656.0249999995243,1.125091e-05
656.0399999995243,2.947129e-05,656.0399999995243,6.554894e-05,656.0399999995243,1.04889e-05,656.0399999995243,1.126217e-05
656.0549999995243,3.058221e-05,656.0549999995243,6.564021e-05,656.0549999995243,1.05585e-05,656.0549999995243,1.128466e-05
656.0699999995243,2.950902e-05,656.0699999995243,6.562819e-05,656.0699999995243,1.030326e-05,656.0699999995243,1.152673e-05
656.0849999995243,2.907912e-05,656.0849999995243,6.134287e-05,656.0849999995243,1.038633e-05,656.0849999995243,1.073711e-05
656.0999999995242,2.91343e-05,656.0999999995242,6.078808e-05,656.0999999995242,1.090504e-05,656.0999999995242,1.057717e-05
656.1149999995242,2.891541e-05,656.1149999995242,5.056275e-05,656.1149999995242,1.089857e-05,656.1149999995242,1.100405e-05
656.1299999995242,2.764829e-05,656.1299999995242,4.830968e-05,656.1299999995242,1.11604e-05,656.1299999995242,1.091149e-05
656.1449999995242,2.666374e-05,656.1449999995242,5.243724e-05,656.1449999995242,1.130711e-05,656.1449999995242,1.066602e-05
656.1599999995242,2.361073e-05,656.1599999995242,5.303372e-05,656.1599999995242,1.119442e-05,656.1599999995242,1.064752e-05
656.1749999995242,2.379259e-05,656.1749999995242,5.334939e-05,656.1749999995242,1.063693e-05,656.1749999995242,1.047412e-05
656.1899999995242,2.422618e-05,656.1899999995242,5.38864e-05,656.1899999995242,1.048353e-05,656.1899999995242,9.864624e-06
656.2049999995241,2.438729e-05,656.2049999995241,5.404068e-05,656.2049999995241,1.054248e-05,656.2049999995241,9.214908e-06
656.2199999995241,2.371609e-05,656.2199999995241,5.292444e-05,656.2199999995241,1.018501e-05,656.2199999995241,8.558665e-06
656.2349999995241,2.167726e-05,656.2349999995241,5.241145e-05,656.2349999995241,9.680115e-06,656.2349999995241,8.705536e-06
656.2499999995241,2.207584e-05,656.2499999995241,5.222027e-05,656.2499999995241,9.608544e-06,656.2499999995241,8.291141e-06
656.2649999995241,2.16909e-05,656.2649999995241,6.000511e-05,656.2649999995241,9.451865e-06,656.2649999995241,8.389105e-06
656.2799999995241,2.199594e-05,656.2799999995241,6.080661e-05,656.2799999995241,1.011004e-05,656.2799999995241,8.274134e-06
656.2949999995241,2.174085e-05,656.2949999995241,6.064215e-05,656.2949999995241,1.014759e-05,656.2949999995241,7.984756e-06
656.309999999524,2.007606e-05,656.309999999524,6.150501e-05,656.309999999524,1.048353e-05,656.309999999524,8.197163e-06
656.324999999524,1.987579e-05,656.324999999524,6.243969e-05,656.324999999524,1.124966e-05,656.324999999524,7.871038e-06
656.339999999524,2.062429e-05,656.339999999524,6.66131e-05,656.339999999524,1.128591e-05,656.339999999524,8.002378e-06
656.354999999524,2.04948e-05,656.354999999524,6.739706e-05,656.354999999524,1.05358e-05,656.354999999524,8.018206e-06
656.369999999524,2.079028e-05,656.369999999524,6.83503e-05,656.369999999524,9.990908e-06,656.369999999524,7.686323e-06
656.384999999524,2.079367e-05,656.384999999524,7.246054e-05,656.384999999524,9.954182e-06,656.384999999524,8.710389e-06
656.399999999524,2.272545e-05,656.399999999524,6.819639e-05,656.399999999524,9.774246e-06,656.399999999524,9.435456e-06
656.414999999524,2.282379e-05,656.414999999524,6.724682e-05,656.414999999524,9.742488e-06,656.414999999524,9.788648e-06
656.429999999524,2.105755e-05,656.429999999524,6.711346e-05,656.429999999524,1.032239e-05,656.429999999524,9.824559e-06
656.4449999995239,2.157891e-05,656.4449999995239,6.626538e-05,656.4449999995239,1.042153e-05,656.4449999995239,9.964083e-06
656.4599999995239,2.152335e-05,656.4599999995239,6.376128e-05,656.4599999995239,1.062898e-05,656.4599999995239,1.115408e-05
656.4749999995239,2.154363e-05,656.4749999995239,6.370227e-05,656.4749999995239,1.061704e-05,656.4749999995239,1.16059e-05
656.4899999995239,2.21491e-05,656.4899999995239,6.387253e-05,656.4899999995239,1.070162e-05,656.4899999995239,1.141868e-05
656.5049999995239,2.186361e-05,656.5049999995239,6.373742e-05,656.5049999995239,1.173985e-05,656.5049999995239,1.137047e-05
656.5199999995239,2.157042e-05,656.5199999995239,5.186243e-05,656.5199999995239,1.161439e-05,656.5199999995239,1.145194e-05
656.5349999995238,2.068704e-05,656.5349999995238,4.916808e-05,656.5349999995238,1.107423e-05,656.5349999995238,1.14544e-05
656.5499999995238,2.133931e-05,656.5499999995238,5.0034e-05,656.5499999995238,1.076724e-05,656.5499999995238,1.134939e-05
656.5649999995238,2.204839e-05,656.5649999995238,4.754609e-05,656.5649999995238,1.11465e-05,656.5649999995238,1.140881e-05
656.5799999995238,2.168571e-05,656.5799999995238,4.444108e-05,656.5799999995238,1.028137e-05,656.5799999995238,1.11604e-05
656.5949999995238,2.116166e-05,656.5949999995238,4.17567e-05,656.5949999995238,1.065677e-05,656.5949999995238,1.134194e-05
656.6099999995238,2.141904e-05,656.6099999995238,4.222401e-05,656.6099999995238,1.086621e-05,656.6099999995238,1.098098e-05
656.6249999995238,2.191317e-05,656.6249999995238,4.269314e-05,656.6249999995238,1.101173e-05,656.6249999995238,1.076855e-05
656.6399999995238,2.175963e-05,656.6399999995238,4.039905e-05,656.6399999995238,1.087269e-05,656.6399999995238,1.045392e-05
656.6549999995237,2.218723e-05,656.6549999995237,4.046385e-05,656.6549999995237,1.077378e-05,656.6549999995237,1.069899e-05
656.6699999995237,2.343346e-05,656.6699999995237,4.355098e-05,656.6699999995237,1.065413e-05,656.6699999995237,1.051573e-05
656.6849999995237,2.384405e-05,656.6849999995237,4.306437e-05,656.6849999995237,1.032921e-05,656.6849999995237,1.052644e-05
656.6999999995237,2.337026e-05,656.6999999995237,4.286207e-05,656.6999999995237,1.028821e-05,656.6999999995237,1.021952e-05
656.7149999995237,2.294137e-05,656.7149999995237,4.541958e-05,656.7149999995237,1.018086e-05,656.7149999995237,9.853194e-06
656.7299999995237,2.391719e-05,656.7299999995237,4.818443e-05,656.7299999995237,1.015453e-05,656.7299999995237,9.871762e-06
656.7449999995237,2.324939e-05,656.7449999995237,5.053684e-05,656.7449999995237,9.965496e-06,656.7449999995237,9.996546e-06
656.7599999995236,2.353364e-05,656.7599999995236,5.161303e-05,656.7599999995236,9.363521e-06,656.7599999995236,9.656803e-06
656.7749999995236,2.406984e-05,656.7749999995236,5.199616e-05,656.7749999995236,9.631973e-06,656.7749999995236,9.924419e-06
656.7899999995236,2.577784e-05,656.7899999995236,5.216818e-05,656.7899999995236,9.662636e-06,656.7899999995236,1.029232e-05
656.8049999995236,2.643239e-05,656.8049999995236,5.349127e-05,656.8049999995236,9.546771e-06,656.8049999995236,1.043909e-05
656.8199999995236,2.537634e-05,656.8199999995236,5.40013e-05,656.8199999995236,9.52757e-06,656.8199999995236,1.039853e-05
656.8349999995236,3.8907e-05,656.8349999995236,5.306771e-05,656.8349999995236,9.937185e-06,656.8349999995236,1.040124e-05
656.8499999995236,4.319502e-05,656.8499999995236,5.273592e-05,656.8499999995236,1.121831e-05,656.8499999995236,1.039582e-05
656.8649999995235,4.371595e-05,656.8649999995235,5.146845e-05,656.8649999995235,1.127842e-05,656.8649999995235,1.255171e-05
656.8799999995235,4.49814e-05,656.8799999995235,4.896165e-05,656.8799999995235,1.110345e-05,656.8799999995235,1.265899e-05
656.8949999995235,4.948679e-05,656.8949999995235,4.73674e-05,656.8949999995235,1.127842e-05,656.8949999995235,1.19739e-05
656.9099999995235,5.317829e-05,656.9099999995235,4.528913e-05,656.9099999995235,1.177699e-05,656.9099999995235,1.162773e-05
656.9249999995235,6.839172e-05,656.9249999995235,4.319143e-05,656.9249999995235,1.193973e-05,656.9249999995235,1.170741e-05
656.9399999995235,7.341021e-05,656.9399999995235,4.495227e-05,656.9399999995235,1.282592e-05,656.9399999995235,1.153406e-05
656.9549999995235,7.399068e-05,656.9549999995235,0.0001044539,656.9549999995235,1.284019e-05,656.9549999995235,1.178058e-05
656.9699999995235,7.43322e-05,656.9699999995235,0.0001157882,656.9699999995235,1.298962e-05,656.9699999995235,1.182712e-05
656.9849999995234,7.700128e-05,656.9849999995234,0.000114981,656.9849999995234,1.351056e-05,656.9849999995234,1.208048e-05
656.9999999995234,8.405343e-05,656.9999999995234,0.0001143762,656.9999999995234,1.362477e-05,656.9999999995234,1.206648e-05
657.0149999995234,8.462798e-05,657.0149999995234,0.0001144736,657.0149999995234,1.355116e-05,657.0149999995234,1.281054e-05
657.0299999995234,8.451039e-05,657.0299999995234,0.0001146128,657.0299999995234,1.33796e-05,657.0299999995234,1.341534e-05
657.0449999995234,8.456854e-05,657.0449999995234,0.0001151166,657.0449999995234,1.348238e-05,657.0449999995234,1.388185e-05
657.0599999995234,8.752658e-05,657.0599999995234,0.0001143339,657.0599999995234,1.429875e-05,657.0599999995234,1.384833e-05
657.0749999995234,8.716484e-05,657.0749999995234,0.0001140196,657.0749999995234,1.41691e-05,657.0749999995234,1.464334e-05
657.0899999995233,8.206678e-05,657.0899999995233,0.0001139177,657.0899999995233,1.273554e-05,657.0899999995233,1.642351e-05
657.1049999995233,8.168018e-05,657.1049999995233,0.0001142262,657.1049999995233,1.259317e-05,657.1049999995233,1.643123e-05
657.1199999995233,8.146881e-05,657.1199999995233,0.0001143182,657.1199999995233,1.255957e-05,657.1199999995233,1.546583e-05
657.1349999995233,8.251613e-05,657.1349999995233,0.0001142872,657.1349999995233,1.318017e-05,657.1349999995233,1.536989e-05
657.1499999995233,8.239038e-05,657.1499999995233,0.0001144628,657.1499999995233,1.289274e-05,657.1499999995233,1.540377e-05
657.1649999995233,7.337009e-05,657.1649999995233,0.0001144776,657.1649999995233,1.287634e-05,657.1649999995233,1.543392e-05
657.1799999995233,6.36879e-05,657.1799999995233,0.0001143672,657.1799999995233,1.211774e-05,657.1799999995233,1.534054e-05
657.1949999995232,6.231775e-05,657.1949999995232,0.0001083538,657.1949999995232,1.186992e-05,657.1949999995232,1.528442e-05
657.2099999995232,6.152265e-05,657.2099999995232,6.616816e-05,657.2099999995232,1.163862e-05,657.2099999995232,1.526136e-05
657.2249999995232,6.055148e-05,657.2249999995232,5.200402e-05,657.2249999995232,1.122082e-05,657.2249999995232,1.557022e-05
657.2399999995232,4.935453e-05,657.2399999995232,5.220732e-05,657.2399999995232,1.082855e-05,657.2399999995232,1.563342e-05
657.2549999995232,4.667205e-05,657.2549999995232,5.2804e-05,657.2549999995232,1.034964e-05,657.2549999995232,1.565683e-05
657.2699999995232,4.582131e-05,657.2699999995232,5.119429e-05,657.2699999995232,1.032784e-05,657.2699999995232,1.431352e-05
657.2849999995232,4.5414e-05,657.2849999995232,5.164877e-05,657.2849999995232,1.029916e-05,657.2849999995232,1.362994e-05
657.2999999995232,4.123629e-05,657.2999999995232,5.884881e-05,657.2999999995232,1.013231e-05,657.2999999995232,1.329616e-05
657.3149999995231,3.948384e-05,657.3149999995231,5.999548e-05,657.3149999995231,8.792481e-06,657.3149999995231,1.324202e-05
657.3299999995231,3.889904e-05,657.3299999995231,6.020713e-05,657.3299999995231,8.77805e-06,657.3299999995231,1.171463e-05
657.3449999995231,3.758512e-05,657.3449999995231,6.070298e-05,657.3449999995231,8.716856e-06,657.3449999995231,1.000218e-05
657.3599999995231,3.653566e-05,657.3599999995231,6.049865e-05,657.3599999995231,8.520726e-06,657.3599999995231,9.846043e-06
657.3749999995231,3.60243e-05,657.3749999995231,6.253685e-05,657.3749999995231,8.555373e-06,657.3749999995231,9.487566e-06
657.3899999995231,2.885103e-05,657.3899999995231,6.670081e-05,657.3899999995231,7.254505e-06,657.3899999995231,9.780009e-06
657.404999999523,2.256995e-05,657.404999999523,6.658455e-05,657.404999999523,6.855157e-06,657.404999999523,9.713527e-06
657.419999999523,2.217834e-05,657.419999999523,6.66594e-05,657.419999999523,6.799448e-06,657.419999999523,9.677204e-06
657.434999999523,2.233026e-05,657.434999999523,6.703828e-05,657.434999999523,6.797376e-06,657.434999999523,9.624658e-06
657.449999999523,2.104484e-05,657.449999999523,6.67405e-05,657.449999999523,6.612493e-06,657.449999999523,9.736703e-06
657.464999999523,2.086535e-05,657.464999999523,5.834856e-05,657.464999999523,6.621009e-06,657.464999999523,7.793701e-06
657.479999999523,2.040663e-05,657.479999999523,5.608049e-05,657.479999999523,6.347276e-06,657.479999999523,7.474476e-06
657.494999999523,1.915174e-05,657.494999999523,6.344568e-05,657.494999999523,6.541815e-06,657.494999999523,8.160995e-06
657.509999999523,1.912819e-05,657.509999999523,6.342925e-05,657.509999999523,7.366268e-06,657.509999999523,8.159269e-06
657.524999999523,1.899887e-05,657.524999999523,6.352578e-05,657.524999999523,8.086432e-06,657.524999999523,8.308113e-06
657.5399999995229,2.014401e-05,657.5399999995229,6.013315e-05,657.5399999995229,8.02523e-06,657.5399999995229,8.301328e-06
657.5549999995229,1.887838e-05,657.5549999995229,5.265118e-05,657.5549999995229,8.212614e-06,657.5549999995229,8.210899e-06
657.5699999995229,1.561269e-05,657.5699999995229,5.171718e-05,657.5699999995229,8.614445e-06,657.5699999995229,8.382385e-06
657.5849999995229,1.542022e-05,657.5849999995229,5.13786e-05,657.5849999995229,8.542191e-06,657.5849999995229,8.234882e-06
657.5999999995229,1.550949e-05,657.5999999995229,5.116842e-05,657.5999999995229,8.454338e-06,657.5999999995229,7.867457e-06
657.6149999995229,1.551585e-05,657.6149999995229,6.072896e-05,657.6149999995229,8.475971e-06,657.6149999995229,8.629149e-06
657.6299999995229,1.683353e-05,657.6299999995229,5.635862e-05,657.6299999995229,8.37566e-06,657.6299999995229,8.385746e-06
657.6449999995228,1.681427e-05,657.6449999995228,5.344779e-05,657.6449999995228,8.571823e-06,657.6449999995228,8.044515e-06
657.6599999995228,1.643552e-05,657.6599999995228,5.332404e-05,657.6599999995228,8.547137e-06,657.6599999995228,8.926046e-06
657.6749999995228,1.576086e-05,657.6749999995228,5.331612e-05,657.6749999995228,8.842007e-06,657.6749999995228,8.846786e-06
657.6899999995228,1.780073e-05,657.6899999995228,5.159064e-05,657.6899999995228,8.91183e-06,657.6899999995228,8.697441e-06
657.7049999995228,1.783077e-05,657.7049999995228,5.145448e-05,657.7049999995228,8.750726e-06,657.7049999995228,8.753946e-06
657.7199999995228,1.780389e-05,657.7199999995228,5.404433e-05,657.7199999995228,8.765202e-06,657.7199999995228,8.913411e-06
657.7349999995228,1.774921e-05,657.7349999995228,5.406726e-05,657.7349999995228,8.640569e-06,657.7349999995228,8.857925e-06
657.7499999995227,1.805531e-05,657.7499999995227,4.835777e-05,657.7499999995227,8.818078e-06,657.7499999995227,8.105571e-06
657.7649999995227,1.809349e-05,657.7649999995227,4.942583e-05,657.7649999995227,7.917432e-06,657.7649999995227,8.081204e-06
657.7799999995227,1.829172e-05,657.7799999995227,5.02262e-05,657.7799999995227,7.691819e-06,657.7799999995227,8.251971e-06
657.7949999995227,1.662131e-05,657.7949999995227,5.347283e-05,657.7949999995227,7.899621e-06,657.7949999995227,8.465993e-06
657.8099999995227,1.674375e-05,657.8099999995227,5.397234e-05,657.8099999995227,7.432898e-06,657.8099999995227,8.430979e-06
657.8249999995227,1.711898e-05,657.8249999995227,5.594317e-05,657.8249999995227,8.016449e-06,657.8249999995227,8.198881e-06
657.8399999995227,1.722398e-05,657.8399999995227,5.697511e-05,657.8399999995227,7.988284e-06,657.8399999995227,8.173069e-06
657.8549999995226,1.732998e-05,657.8549999995226,5.800084e-05,657.8549999995226,7.981227e-06,657.8549999995226,8.638938e-06
657.8699999995226,1.716992e-05,657.8699999995226,4.853978e-05,657.8699999995226,8.269024e-06,657.8699999995226,7.800928e-06
657.8849999995226,1.595804e-05,657.8849999995226,4.775952e-05,657.8849999995226,9.30012e-06,657.8849999995226,7.849532e-06
657.8999999995226,1.595451e-05,657.8999999995226,4.917181e-05,657.8999999995226,9.481625e-06,657.8999999995226,7.664298e-06
657.9149999995226,1.588461e-05,657.9149999995226,5.192676e-05,657.9149999995226,9.497953e-06,657.9149999995226,6.995509e-06
657.9299999995226,1.174585e-05,657.9299999995226,5.228578e-05,657.9299999995226,9.911636e-06,657.9299999995226,7.46882e-06
657.9449999995226,1.336168e-05,657.9449999995226,5.260943e-05,657.9449999995226,1.028821e-05,657.9449999995226,7.362442e-06
657.9599999995226,1.393856e-05,657.9599999995226,5.212956e-05,657.9599999995226,1.034147e-05,657.9599999995226,7.525189e-06
657.9749999995225,1.485158e-05,657.9749999995225,4.942868e-05,657.9749999995225,1.0505e-05,657.9749999995225,7.366268e-06
657.9899999995225,1.606274e-05,657.9899999995225,4.657839e-05,657.9899999995225,1.058782e-05,657.9899999995225,8.074229e-06
658.0049999995225,1.589081e-05,658.0049999995225,4.643027e-05,658.0049999995225,1.055317e-05,658.0049999995225,9.181215e-06
658.0199999995225,1.588549e-05,658.0199999995225,5.659855e-05,658.0199999995225,1.071215e-05,658.0199999995225,9.460803e-06
658.0349999995225,1.612751e-05,658.0349999995225,5.618664e-05,658.0349999995225,1.080642e-05,658.0349999995225,9.955596e-06
658.0499999995225,1.668391e-05,658.0499999995225,5.548655e-05,658.0499999995225,1.119946e-05,658.0499999995225,9.838886e-06
658.0649999995225,1.782366e-05,658.0649999995225,5.505327e-05,658.0649999995225,1.153162e-05,658.0649999995225,1.03333e-05
658.0799999995224,1.722235e-05,658.0799999995224,5.77028e-05,658.0799999995224,1.116292e-05,658.0799999995224,1.068582e-05
658.0949999995224,1.73446e-05,658.0949999995224,6.164913e-05,658.0949999995224,1.113259e-05,658.0949999995224,1.089728e-05
658.1099999995224,1.723788e-05,658.1099999995224,6.090384e-05,658.1099999995224,1.114018e-05,658.1099999995224,1.051305e-05
658.1249999995224,1.73965e-05,658.1249999995224,6.746328e-05,658.1249999995224,1.055317e-05,658.1249999995224,1.043504e-05
658.1399999995224,1.828247e-05,658.1399999995224,6.772566e-05,658.1399999995224,9.843181e-06,658.1399999995224,1.053179e-05
658.1549999995224,1.880286e-05,658.1549999995224,6.677278e-05,658.1549999995224,9.969736e-06,658.1549999995224,1.047277e-05
658.1699999995224,1.943793e-05,658.1699999995224,6.587243e-05,658.1699999995224,9.662636e-06,658.1699999995224,1.008773e-05
658.1849999995223,2.095428e-05,658.1849999995223,6.706811e-05,658.1849999995223,8.878575e-06,658.1849999995223,1.059978e-05
658.1999999995223,1.988287e-05,658.1999999995223,6.788542e-05,658.1999999995223,9.020237e-06,658.1999999995223,1.101301e-05
658.2149999995223,1.95016e-05,658.2149999995223,7.363762e-05,658.2149999995223,9.015552e-06,658.2149999995223,1.096558e-05
658.2299999995223,1.90869e-05,658.2299999995223,8.092109e-05,658.2299999995223,9.29406e-06,658.2299999995223,1.085713e-05
658.2449999995223,1.869241e-05,658.2449999995223,8.046774e-05,658.2449999995223,9.577708e-06,658.2449999995223,1.036053e-05
658.2599999995223,2.031808e-05,658.2599999995223,7.807083e-05,658.2599999995223,9.375548e-06,658.2599999995223,9.265217e-06
658.2749999995223,2.276818e-05,658.2749999995223,7.378955e-05,658.2749999995223,9.286478e-06,658.2749999995223,8.937085e-06
658.2899999995223,2.325e-05,658.2899999995223,7.414587e-05,658.2899999995223,8.996782e-06,658.2899999995223,8.794083e-06
658.3049999995222,2.409908e-05,658.3049999995222,7.540841e-05,658.3049999995222,8.231461e-06,658.3049999995222,8.658483e-06
658.3199999995222,2.353004e-05,658.3199999995222,7.482745e-05,658.3199999995222,8.224612e-06,658.3199999995222,8.21433e-06
658.3349999995222,2.370481e-05,658.3349999995222,7.238021e-05,658.3349999995222,8.495891e-06,658.3349999995222,7.658783e-06
658.3499999995222,2.460638e-05,658.3499999995222,6.945511e-05,658.3499999995222,8.935509e-06,658.3499999995222,7.62745e-06
658.3649999995222,2.51023e-05,658.3649999995222,7.636384e-05,658.3649999995222,8.859515e-06,658.3649999995222,7.72289e-06
658.3799999995222,2.591573e-05,658.3799999995222,7.172605e-05,658.3799999995222,9.313742e-06,658.3799999995222,7.691819e-06
658.3949999995222,2.533745e-05,658.3949999995222,7.172566e-05,658.3949999995222,9.097987e-06,658.3949999995222,7.599698e-06
658.4099999995221,2.496387e-05,658.4099999995221,7.182673e-05,658.4099999995221,8.927624e-06,658.4099999995221,8.902342e-06
658.4249999995221,2.445938e-05,658.4249999995221,7.044671e-05,658.4249999995221,9.049861e-06,658.4249999995221,1.012258e-05
658.4399999995221,2.339074e-05,658.4399999995221,7.50517e-05,658.4399999995221,9.39656e-06,658.4399999995221,9.62173e-06
658.4549999995221,2.335217e-05,658.4549999995221,7.315686e-05,658.4549999995221,9.457824e-06,658.4549999995221,9.512773e-06
658.4699999995221,2.330023e-05,658.4699999995221,7.600273e-05,658.4699999995221,9.530527e-06,658.4699999995221,1.041071e-05
658.4849999995221,2.332319e-05,658.4849999995221,7.698098e-05,658.4849999995221,9.298606e-06,658.4849999995221,1.054649e-05
658.4999999995221,2.494355e-05,658.4999999995221,7.895643e-05,658.4999999995221,9.316767e-06,658.4999999995221,1.048084e-05
658.514999999522,2.635981e-05,658.514999999522,7.710659e-05,658.514999999522,9.677204e-06,658.514999999522,1.033739e-05
658.529999999522,2.441269e-05,658.529999999522,7.775117e-05,658.529999999522,9.78145e-06,658.529999999522,1.040259e-05
658.544999999522,2.5036e-05,658.544999999522,8.496571e-05,658.544999999522,1.165314e-05,658.544999999522,1.084155e-05
658.559999999522,2.466242e-05,658.559999999522,8.639786e-05,658.559999999522,1.150961e-05,658.559999999522,1.092697e-05
658.574999999522,2.495089e-05,658.574999999522,8.813971e-05,658.574999999522,1.191138e-05,658.574999999522,1.185092e-05
658.589999999522,2.47906e-05,658.589999999522,9.244685e-05,658.589999999522,1.178058e-05,658.589999999522,1.230691e-05
658.604999999522,2.38139e-05,658.604999999522,0.000104689,658.604999999522,1.203843e-05,658.604999999522,1.234006e-05
658.619999999522,2.272049e-05,658.619999999522,0.0001044618,658.619999999522,1.201266e-05,658.619999999522,1.247177e-05
658.6349999995219,2.27824e-05,658.6349999995219,0.0001046789,658.6349999995219,1.182236e-05,658.6349999995219,1.254048e-05
658.6499999995219,2.281639e-05,658.6499999995219,0.0001053403,658.6499999995219,1.179731e-05,658.6499999995219,1.287634e-05
658.6649999995219,2.291864e-05,658.6649999995219,0.0001055538,658.6649999995219,1.209563e-05,658.6649999995219,1.303833e-05
658.6799999995219,2.325484e-05,658.6799999995219,0.0001054681,658.6799999995219,1.222998e-05,658.6799999995219,1.460964e-05
658.6949999995219,2.334432e-05,658.6949999995219,0.0001021267,658.6949999995219,1.243218e-05,658.6949999995219,1.517714e-05
658.7099999995219,2.57067e-05,658.7099999995219,0.0001000289,658.7099999995219,1.256966e-05,658.7099999995219,2.319176e-05
658.7249999995219,2.578713e-05,658.7249999995219,9.762262e-05,658.7249999995219,1.247629e-05,658.7249999995219,2.444441e-05
658.7399999995218,2.598304e-05,658.7399999995218,9.309809e-05,658.7399999995218,1.243218e-05,658.7399999995218,2.517179e-05
658.7549999995218,2.256433e-05,658.7549999995218,9.311579e-05,658.7549999995218,1.207348e-05,658.7549999995218,2.578931e-05
658.7699999995218,2.037831e-05,658.7699999995218,9.312003e-05,658.7699999995218,1.178536e-05,658.7699999995218,2.581715e-05
658.7849999995218,1.931798e-05,658.7849999995218,9.039348e-05,658.7849999995218,1.120197e-05,658.7849999995218,2.571054e-05
658.7999999995218,1.944083e-05,658.7999999995218,8.804281e-05,658.7999999995218,9.614407e-06,658.7999999995218,2.593692e-05
658.8149999995218,2.265778e-05,658.8149999995218,8.408041e-05,658.8149999995218,9.751159e-06,658.8149999995218,2.559192e-05
658.8299999995218,2.653452e-05,658.8299999995218,8.317536e-05,658.8299999995218,9.328855e-06,658.8299999995218,2.533634e-05
658.8449999995217,3.124432e-05,658.8449999995217,7.298914e-05,658.8449999995217,9.380055e-06,658.8449999995217,2.577183e-05
658.8599999995217,3.290787e-05,658.8599999995217,7.080672e-05,658.8599999995217,9.227129e-06,658.8599999995217,2.645104e-05
658.8749999995217,3.495257e-05,658.8749999995217,7.131104e-05,658.8749999995217,9.121181e-06,658.8749999995217,2.668275e-05
658.8899999995217,3.610593e-05,658.8899999995217,7.181143e-05,658.8899999995217,9.30012e-06,658.8899999995217,2.684853e-05
658.9049999995217,3.66546e-05,658.9049999995217,7.120093e-05,658.9049999995217,9.402554e-06,658.9049999995217,2.637851e-05
658.9199999995217,3.689974e-05,658.9199999995217,7.09909e-05,658.9199999995217,9.007736e-06,658.9199999995217,2.55037e-05
658.9349999995217,3.827956e-05,658.9349999995217,7.059592e-05,658.9349999995217,8.81648e-06,658.9349999995217,2.51869e-05
658.9499999995217,3.987117e-05,658.9499999995217,6.991842e-05,658.9499999995217,7.97593e-06,658.9499999995217,2.262543e-05
658.9649999995216,3.970265e-05,658.9649999995216,7.452507e-05,658.9649999995216,8.553727e-06,658.9649999995216,1.6882e-05
658.9799999995216,4.004216e-05,658.9799999995216,8.843536e-05,658.9799999995216,9.088692e-06,658.9799999995216,1.663402e-05
658.9949999995216,4.067774e-05,658.9949999995216,9.642044e-05,658.9949999995216,9.38606e-06,658.9949999995216,1.746842e-05
659.0099999995216,4.084052e-05,659.0099999995216,9.828186e-05,659.0099999995216,9.378553e-06,659.0099999995216,1.751513e-05
659.0249999995216,4.130967e-05,659.0249999995216,9.922985e-05,659.0249999995216,9.30012e-06,659.0249999995216,1.751754e-05
659.0399999995216,4.134035e-05,659.0399999995216,9.965454e-05,659.0399999995216,9.408545e-06,659.0399999995216,1.742563e-05
659.0549999995216,4.13819e-05,659.0549999995216,0.0001020877,659.0549999995216,9.562988e-06,659.0549999995216,1.691534e-05
659.0699999995215,4.017001e-05,659.0699999995215,0.0001024848,659.0699999995215,9.483111e-06,659.0699999995215,1.710498e-05
659.0849999995215,3.754349e-05,659.0849999995215,0.0001027462,659.0849999995215,9.392062e-06,659.0849999995215,1.723134e-05
659.0999999995215,4.936509e-05,659.0999999995215,9.951889e-05,659.0999999995215,9.172005e-06,659.0999999995215,1.642351e-05
659.1149999995215,5.584337e-05,659.1149999995215,9.039629e-05,659.1149999995215,8.851561e-06,659.1149999995215,1.549949e-05
659.1299999995215,6.233402e-05,659.1299999995215,8.844731e-05,659.1299999995215,8.726546e-06,659.1299999995215,1.513903e-05
659.1449999995215,6.605161e-05,659.1449999995215,8.739289e-05,659.1449999995215,8.718472e-06,659.1449999995215,1.484778e-05
659.1599999995215,6.590899e-05,659.1599999995215,8.80244e-05,659.1599999995215,8.91183e-06,659.1599999995215,1.485537e-05
659.1749999995214,6.588612e-05,659.1749999995214,9.164753e-05,659.1749999995214,8.744285e-06,659.1749999995214,1.43695e-05
659.1899999995214,6.611044e-05,659.1899999995214,9.147152e-05,659.1899999995214,9.316767e-06,659.1899999995214,1.416015e-05
659.2049999995214,6.555904e-05,659.2049999995214,9.134917e-05,659.2049999995214,9.62173e-06,659.2049999995214,1.412828e-05
659.2199999995214,6.536882e-05,659.2199999995214,8.077979e-05,659.2199999995214,9.042074e-06,659.2199999995214,1.345205e-05
659.2349999995214,6.572429e-05,659.2349999995214,6.151852e-05,659.2349999995214,8.640569e-06,659.2349999995214,1.021815e-05
659.2499999995214,6.530846e-05,659.2499999995214,5.632461e-05,659.2499999995214,8.301328e-06,659.2499999995214,8.884918e-06
659.2649999995214,6.558826e-05,659.2649999995214,5.247269e-05,659.2649999995214,8.484277e-06,659.2649999995214,9.568879e-06
659.2799999995214,6.558633e-05,659.2799999995214,5.1501e-05,659.2799999995214,8.456004e-06,659.2799999995214,9.546771e-06
659.2949999995213,6.570349e-05,659.2949999995213,3.885302e-05,659.2949999995213,8.258797e-06,659.2949999995213,9.442919e-06
659.3099999995213,6.446809e-05,659.3099999995213,3.718609e-05,659.3099999995213,8.362194e-06,659.3099999995213,9.587998e-06
659.3249999995213,6.437078e-05,659.3249999995213,3.71497e-05,659.3249999995213,8.530639e-06,659.3249999995213,8.897593e-06
659.3399999995213,6.474435e-05,659.3399999995213,4.127726e-05,659.3399999995213,9.094889e-06,659.3399999995213,9.032722e-06
659.3549999995213,5.322965e-05,659.3549999995213,4.068605e-05,659.3549999995213,9.099535e-06,659.3549999995213,9.221021e-06
659.3699999995213,4.10157e-05,659.3699999995213,4.037324e-05,659.3699999995213,9.156633e-06,659.3699999995213,9.116548e-06
659.3849999995213,3.360885e-05,659.3849999995213,3.991178e-05,659.3849999995213,9.144318e-06,659.3849999995213,9.130444e-06
659.3999999995212,3.058912e-05,659.3999999995212,3.973705e-05,659.3999999995212,9.127357e-06,659.3999999995212,9.185817e-06
659.4149999995212,3.107116e-05,659.4149999995212,3.817159e-05,659.4149999995212,8.929201e-06,659.4149999995212,9.091791e-06
659.4299999995212,3.071962e-05,659.4299999995212,3.204514e-05,659.4299999995212,8.752336e-06,659.4299999995212,8.830848e-06
659.4449999995212,2.901608e-05,659.4449999995212,3.568366e-05,659.4449999995212,8.515764e-06,659.4449999995212,8.924467e-06
659.4599999995212,3.014985e-05,659.4599999995212,3.913084e-05,659.4599999995212,7.894269e-06,659.4599999995212,8.619349e-06
659.4749999995212,2.953145e-05,659.4749999995212,4.221701e-05,659.4749999995212,8.046266e-06,659.4749999995212,8.589881e-06
659.4899999995212,2.908929e-05,659.4899999995212,4.224235e-05,659.4899999995212,8.018206e-06,659.4899999995212,7.922768e-06
659.5049999995211,3.002954e-05,659.5049999995211,4.14968e-05,659.5049999995211,8.221186e-06,659.5049999995211,7.398706e-06
659.5199999995211,2.995298e-05,659.5199999995211,4.076076e-05,659.5199999995211,8.282642e-06,659.5199999995211,6.883865e-06
659.5349999995211,2.958435e-05,659.5349999995211,4.071477e-05,659.5349999995211,8.192006e-06,659.5349999995211,6.957143e-06
659.5499999995211,2.985405e-05,659.5499999995211,4.142307e-05,659.5499999995211,8.263912e-06,659.5499999995211,7.013608e-06
659.5649999995211,3.007969e-05,659.5649999995211,4.128068e-05,659.5649999995211,7.675319e-06,659.5649999995211,6.881819e-06
659.5799999995211,3.233702e-05,659.5799999995211,4.003231e-05,659.5799999995211,7.762914e-06,659.5799999995211,7.398706e-06
659.5949999995211,3.171951e-05,659.5949999995211,3.601413e-05,659.5949999995211,7.497057e-06,659.5949999995211,6.789081e-06
659.609999999521,3.12389e-05,659.609999999521,3.579993e-05,659.609999999521,7.465047e-06,659.609999999521,6.75163e-06
659.624999999521,3.028691e-05,659.624999999521,3.572469e-05,659.624999999521,7.38918e-06,659.624999999521,6.722357e-06
659.639999999521,3.062455e-05,659.639999999521,3.589895e-05,659.639999999521,7.29903e-06,659.639999999521,6.452925e-06
659.654999999521,3.030783e-05,659.654999999521,3.537361e-05,659.654999999521,7.396802e-06,659.654999999521,6.400318e-06
659.669999999521,2.891249e-05,659.669999999521,3.2175e-05,659.669999999521,7.59228e-06,659.669999999521,6.457289e-06
659.684999999521,2.91459e-05,659.684999999521,3.062869e-05,659.684999999521,7.771981e-06,659.684999999521,6.325044e-06
659.699999999521,3.077689e-05,659.699999999521,3.007969e-05,659.699999999521,9.070073e-06,659.699999999521,6.141998e-06
659.714999999521,3.116758e-05,659.714999999521,2.579204e-05,659.714999999521,9.375548e-06,659.714999999521,6.116717e-06
659.7299999995209,3.07077e-05,659.7299999995209,2.296163e-05,659.7299999995209,9.310717e-06,659.7299999995209,5.993417e-06
659.7449999995209,2.984509e-05,659.7449999995209,2.266773e-05,659.7449999995209,9.37705e-06,659.7449999995209,6.019215e-06
659.7599999995209,2.89918e-05,659.7599999995209,2.249493e-05,659.7599999995209,9.38606e-06,659.7599999995209,6.051891e-06
659.7749999995209,2.832677e-05,659.7749999995209,2.245293e-05,659.7749999995209,9.283444e-06,659.7749999995209,6.014533e-06
659.7899999995209,2.821715e-05,659.7899999995209,2.174474e-05,659.7899999995209,9.590935e-06,659.7899999995209,5.927241e-06
659.8049999995209,2.739339e-05,659.8049999995209,2.066251e-05,659.8049999995209,9.74827e-06,659.8049999995209,5.893875e-06
659.8199999995209,2.517067e-05,659.8199999995209,2.191767e-05,659.8199999995209,1.050098e-05,659.8199999995209,5.689569e-06
659.8349999995208,2.046247e-05,659.8349999995208,2.200106e-05,659.8349999995208,1.046873e-05,659.8349999995208,4.726678e-06
659.8499999995208,2.026045e-05,659.8499999995208,2.184492e-05,659.8499999995208,1.066074e-05,659.8499999995208,4.824024e-06
659.8649999995208,2.021382e-05,659.8649999995208,2.163433e-05,659.8649999995208,1.07476e-05,659.8649999995208,4.774123e-06
659.8799999995208,1.921855e-05,659.8799999995208,2.158935e-05,659.8799999995208,1.074104e-05,659.8799999995208,4.785911e-06
659.8949999995208,1.898181e-05,659.8949999995208,2.197415e-05,659.8949999995208,1.295705e-05,659.8949999995208,4.930884e-06
659.9099999995208,1.911198e-05,659.9099999995208,2.195555e-05,659.9099999995208,1.340379e-05,659.9099999995208,4.821102e-06
659.9249999995208,1.84596e-05,659.9249999995208,2.193116e-05,659.9249999995208,1.355636e-05,659.9249999995208,4.806471e-06
659.9399999995208,1.770074e-05,659.9399999995208,1.635906e-05,659.9399999995208,1.33543e-05,659.9399999995208,4.684768e-06
659.9549999995207,7.869248e-06,659.9549999995207,1.515298e-05,659.9549999995207,1.244237e-05,659.9549999995207,5.318464e-06
659.9699999995207,7.248678e-06,659.9699999995207,1.568021e-05,659.9699999995207,1.238109e-05,659.9699999995207,6.178585e-06
659.9849999995207,7.540149e-06,659.9849999995207,1.635131e-05,659.9849999995207,1.235831e-05,659.9849999995207,6.457289e-06
659.9999999995207,7.345202e-06,659.9999999995207,1.663571e-05,659.9999999995207,1.272891e-05,659.9999999995207,6.424483e-06
660.0149999995207,7.697311e-06,660.0149999995207,1.737382e-05,660.0149999995207,1.289821e-05,660.0149999995207,6.470365e-06
660.0299999995207,7.961788e-06,660.0299999995207,1.749984e-05,660.0299999995207,1.337222e-05,660.0299999995207,6.470365e-06
660.0449999995207,7.878193e-06,660.0449999995207,1.997547e-05,660.0449999995207,1.407033e-05,660.0449999995207,6.623136e-06
660.0599999995206,7.833364e-06,660.0599999995206,2.044525e-05,660.0599999995206,1.385951e-05,660.0599999995206,6.58688e-06
660.0749999995206,7.965326e-06,660.0749999995206,1.939803e-05,660.0749999995206,1.346147e-05,660.0749999995206,6.671875e-06
660.0899999995206,7.860292e-06,660.0899999995206,1.954705e-05,660.0899999995206,1.334481e-05,660.0899999995206,6.869526e-06
660.1049999995206,7.892485e-06,660.1049999995206,2.034095e-05,660.1049999995206,1.366709e-05,660.1049999995206,6.983416e-06
660.1199999995206,7.878193e-06,660.1199999995206,2.093747e-05,660.1199999995206,1.410133e-05,660.1199999995206,7.081567e-06
660.1349999995206,7.92099e-06,660.1349999995206,2.092603e-05,660.1349999995206,1.412828e-05,660.1349999995206,7.912094e-06
660.1499999995206,7.8907e-06,660.1499999995206,2.124072e-05,660.1499999995206,1.152429e-05,660.1499999995206,7.984756e-06
660.1649999995205,7.818965e-06,660.1649999995205,2.038591e-05,660.1649999995205,1.140387e-05,660.1649999995205,7.885342e-06
660.1799999995205,7.809951e-06,660.1799999995205,2.043284e-05,660.1799999995205,1.130337e-05,660.1799999995205,7.90675e-06
660.1949999995205,8.167896e-06,660.1949999995205,2.467898e-05,660.1949999995205,1.11212e-05,660.1949999995205,7.85312e-06
660.2099999995205,7.945849e-06,660.2099999995205,3.206228e-05,660.2099999995205,1.10194e-05,660.2099999995205,7.571843e-06
660.2249999995205,7.491418e-06,660.2249999995205,4.940302e-05,660.2249999995205,1.105259e-05,660.2249999995205,7.166593e-06
660.2399999995205,7.00557e-06,660.2399999995205,5.014059e-05,660.2399999995205,1.085065e-05,660.2399999995205,7.254505e-06
660.2549999995205,6.848989e-06,660.2549999995205,5.027414e-05,660.2549999995205,1.061572e-05,660.2549999995205,7.256447e-06
660.2699999995205,6.601833e-06,660.2699999995205,5.066851e-05,660.2699999995205,1.027863e-05,660.2699999995205,7.270023e-06
660.2849999995204,6.680315e-06,660.2849999995204,5.10728e-05,660.2849999995204,9.735256e-06,660.2849999995204,7.188182e-06
660.2999999995204,6.955118e-06,660.2999999995204,5.025144e-05,660.2999999995204,9.585059e-06,660.2999999995204,7.119262e-06
660.3149999995204,7.041671e-06,660.3149999995204,5.011867e-05,660.3149999995204,1.019745e-05,660.3149999995204,7.117283e-06
660.3299999995204,6.985433e-06,660.3299999995204,5.00202e-05,660.3299999995204,9.873189e-06,660.3299999995204,7.358615e-06
660.3449999995204,6.965238e-06,660.3449999995204,4.984359e-05,660.3449999995204,9.331874e-06,660.3449999995204,7.19993e-06
660.3599999995204,7.22727e-06,660.3599999995204,4.946173e-05,660.3599999995204,8.884918e-06,660.3599999995204,6.890002e-06
660.3749999995204,7.335607e-06,660.3749999995204,4.912107e-05,660.3749999995204,8.373978e-06,660.3749999995204,6.496438e-06
660.3899999995203,7.545752e-06,660.3899999995203,4.898409e-05,660.3899999995203,8.58824e-06,660.3899999995203,5.731505e-06
660.4049999995203,7.885342e-06,660.4049999995203,4.868265e-05,660.4049999995203,1.159254e-05,660.4049999995203,5.667242e-06
660.4199999995203,9.251524e-06,660.4199999995203,4.868727e-05,660.4199999995203,1.198683e-05,660.4199999995203,5.684616e-06
660.4349999995203,1.001907e-05,660.4349999995203,4.803539e-05,660.4349999995203,1.208281e-05,660.4349999995203,5.644828e-06
660.4499999995203,1.120826e-05,660.4499999995203,4.43176e-05,660.4499999995203,1.209796e-05,660.4499999995203,6.028569e-06
660.4649999995203,1.144333e-05,660.4649999995203,3.402706e-05,660.4649999995203,1.272669e-05,660.4649999995203,5.415577e-06
660.4799999995203,1.14802e-05,660.4799999995203,1.434006e-05,660.4799999995203,1.283032e-05,660.4799999995203,5.410373e-06
660.4949999995202,1.154017e-05,660.4949999995202,1.306208e-05,660.4949999995202,1.391935e-05,660.4949999995202,5.498184e-06
660.5099999995202,1.167367e-05,660.5099999995202,1.291131e-05,660.5099999995202,1.374725e-05,660.5099999995202,5.310512e-06
660.5249999995202,1.212006e-05,660.5249999995202,1.142732e-05,660.5249999995202,1.38086e-05,660.5249999995202,5.197909e-06
660.5399999995202,1.201031e-05,660.5399999995202,1.010447e-05,660.5399999995202,1.382797e-05,660.5399999995202,5.203327e-06
660.5549999995202,1.188771e-05,660.5549999995202,9.897414e-06,660.5549999995202,1.324946e-05,660.5549999995202,5.197909e-06
660.5699999995202,1.182712e-05,660.5699999995202,9.895991e-06,660.5699999995202,1.33131e-05,660.5699999995202,5.066156e-06
660.5849999995202,1.19586e-05,660.5849999995202,9.843181e-06,660.5849999995202,1.434792e-05,660.5849999995202,5.208738e-06
660.5999999995202,1.227252e-05,660.5999999995202,1.208165e-05,660.5999999995202,1.548858e-05,660.5999999995202,5.647323e-06
660.6149999995201,1.225299e-05,660.6149999995201,1.3103e-05,660.6149999995201,1.572954e-05,660.6149999995201,6.105191e-06
660.6299999995201,1.231378e-05,660.6299999995201,1.344576e-05,660.6299999995201,1.594214e-05,660.6299999995201,6.208153e-06
660.6449999995201,1.241063e-05,660.6449999995201,1.373495e-05,660.6449999995201,1.591915e-05,660.6449999995201,6.19907e-06
660.6599999995201,1.294944e-05,660.6599999995201,1.343423e-05,660.6599999995201,1.384222e-05,660.6599999995201,6.255622e-06
660.6749999995201,1.18164e-05,660.6749999995201,1.343633e-05,660.6749999995201,1.390517e-05,660.6749999995201,6.318359e-06
660.6899999995201,1.213749e-05,660.6899999995201,2.081737e-05,660.6899999995201,1.476501e-05,660.6899999995201,6.376062e-06
660.70499999952,1.116797e-05,660.70499999952,2.285032e-05,660.70499999952,1.544031e-05,660.70499999952,6.123622e-06
660.71999999952,1.458165e-05,660.71999999952,2.654832e-05,660.71999999952,1.65065e-05,660.71999999952,5.976941e-06
660.73499999952,1.570265e-05,660.73499999952,2.754569e-05,660.73499999952,1.598186e-05,660.73499999952,6.009847e-06
660.74999999952,1.618941e-05,660.74999999952,2.756869e-05,660.74999999952,1.577068e-05,660.74999999952,5.836232e-06
660.76499999952,1.680505e-05,660.76499999952,2.731408e-05,660.76499999952,1.565773e-05,660.76499999952,6.431058e-06
660.77999999952,1.694114e-05,660.77999999952,2.745451e-05,660.77999999952,1.594391e-05,660.77999999952,6.415707e-06
660.79499999952,1.823078e-05,660.79499999952,2.730634e-05,660.79499999952,1.57367e-05,660.79499999952,6.413511e-06
660.80999999952,1.935441e-05,660.80999999952,2.770733e-05,660.80999999952,1.79324e-05,660.80999999952,6.380479e-06
660.82499999952,2.059901e-05,660.82499999952,2.791399e-05,660.82499999952,1.807168e-05,660.82499999952,6.539662e-06
660.8399999995199,2.215801e-05,660.8399999995199,3.119107e-05,660.8399999995199,1.751272e-05,660.8399999995199,5.889093e-06
660.8549999995199,2.587003e-05,660.8549999995199,3.158065e-05,660.8549999995199,1.806856e-05,660.8549999995199,5.81689e-06
660.8699999995199,2.604099e-05,660.8699999995199,3.252163e-05,660.8699999995199,1.814636e-05,660.8699999995199,5.246463e-06
660.8849999995199,2.644571e-05,660.8849999995199,3.260814e-05,660.8849999995199,1.838083e-05,660.8849999995199,5.219545e-06
660.8999999995199,2.963383e-05,660.8999999995199,3.282301e-05,660.8999999995199,1.871726e-05,660.8999999995199,5.464775e-06
660.9149999995199,2.967706e-05,660.9149999995199,3.289674e-05,660.9149999995199,1.935877e-05,660.9149999995199,5.61731e-06
660.9299999995199,3.041501e-05,660.9299999995199,3.282e-05,660.9299999995199,1.917673e-05,660.9299999995199,5.969867e-06
660.9449999995198,3.131817e-05,660.9449999995198,2.978083e-05,660.9449999995198,1.921049e-05,660.9449999995198,5.941484e-06
660.9599999995198,3.198222e-05,660.9599999995198,2.794828e-05,660.9599999995198,1.90137e-05,660.9599999995198,6.132817e-06
660.9749999995198,3.159447e-05,660.9749999995198,2.501235e-05,660.9749999995198,1.844051e-05,660.9749999995198,6.789081e-06
660.9899999995198,3.220475e-05,660.9899999995198,2.470294e-05,660.9899999995198,1.878937e-05,660.9899999995198,6.861319e-06
661.0049999995198,3.290016e-05,661.0049999995198,2.469895e-05,661.0049999995198,1.923467e-05,661.0049999995198,7.664298e-06
661.0199999995198,3.32015e-05,661.0199999995198,2.464013e-05,661.0199999995198,2.20784e-05,661.0199999995198,7.3567e-06
661.0349999995198,3.348624e-05,661.0349999995198,2.485473e-05,661.0349999995198,2.238193e-05,661.0349999995198,7.345202e-06
661.0499999995197,3.401961e-05,661.0499999995197,2.485189e-05,661.0499999995197,2.205669e-05,661.0499999995197,7.349037e-06
661.0649999995197,3.391095e-05,661.0649999995197,2.439422e-05,661.0649999995197,2.24918e-05,661.0649999995197,7.238955e-06
661.0799999995197,3.341633e-05,661.0799999995197,2.300576e-05,661.0799999995197,2.285217e-05,661.0799999995197,7.109361e-06
661.0949999995197,3.333065e-05,661.0949999995197,2.020057e-05,661.0949999995197,2.453758e-05,661.0949999995197,7.21166e-06
661.1099999995197,3.129477e-05,661.1099999995197,1.914659e-05,661.1099999995197,2.690304e-05,661.1099999995197,7.22142e-06
661.1249999995197,3.21623e-05,661.1249999995197,1.769278e-05,661.1249999995197,2.710129e-05,661.1249999995197,7.264208e-06
661.1399999995197,3.406513e-05,661.1399999995197,1.766249e-05,661.1399999995197,2.726504e-05,661.1399999995197,7.250621e-06
661.1549999995196,3.177985e-05,661.1549999995196,1.729988e-05,661.1549999995196,2.768546e-05,661.1549999995196,7.083556e-06
661.1699999995196,3.13923e-05,661.1699999995196,1.730639e-05,661.1699999995196,2.886031e-05,661.1699999995196,6.597564e-06
661.1849999995196,3.050288e-05,661.1849999995196,1.588815e-05,661.1849999995196,2.972591e-05,661.1849999995196,6.4921e-06
661.1999999995196,3.095169e-05,661.1999999995196,1.332896e-05,661.1999999995196,3.195754e-05,661.1999999995196,6.621009e-06
661.2149999995196,3.352996e-05,661.2149999995196,1.331627e-05,661.2149999995196,3.272759e-05,661.2149999995196,6.452925e-06
661.2299999995196,3.860241e-05,661.2299999995196,1.370312e-05,661.2299999995196,3.433122e-05,661.2299999995196,5.60727e-06
661.2449999995196,3.923761e-05,661.2449999995196,1.348551e-05,661.2449999995196,3.418649e-05,661.2449999995196,5.689569e-06
661.2599999995196,3.923546e-05,661.2599999995196,1.345414e-05,661.2599999995196,3.469651e-05,661.2599999995196,4.803539e-06
661.2749999995195,3.896706e-05,661.2749999995195,1.33543e-05,661.2749999995195,3.519034e-05,661.2749999995195,6.016875e-06
661.2899999995195,3.919235e-05,661.2899999995195,1.328132e-05,661.2899999995195,3.663615e-05,661.2899999995195,6.11902e-06
661.3049999995195,3.93831e-05,661.3049999995195,1.335852e-05,661.3049999995195,3.72406e-05,661.3049999995195,6.11211e-06
661.3199999995195,4.027682e-05,661.3199999995195,1.363717e-05,661.3199999995195,4.344864e-05,661.3199999995195,6.302733e-06
661.3349999995195,4.060842e-05,661.3349999995195,1.372366e-05,661.3349999995195,4.555028e-05,661.3349999995195,6.284828e-06
661.3499999995195,4.173274e-05,661.3499999995195,1.258198e-05,661.3499999995195,4.431888e-05,661.3499999995195,6.342836e-06
661.3649999995195,4.142341e-05,661.3649999995195,1.099509e-05,661.3649999995195,4.341751e-05,661.3649999995195,6.426676e-06
661.3799999995194,4.111107e-05,661.3799999995194,1.081814e-05,661.3799999995194,4.4397e-05,661.3799999995194,6.442001e-06
661.3949999995194,4.198043e-05,661.3949999995194,1.080381e-05,661.3949999995194,4.726379e-05,661.3949999995194,6.541815e-06
661.4099999995194,4.313268e-05,661.4099999995194,1.070952e-05,661.4099999995194,4.966608e-05,661.4099999995194,6.608231e-06
661.4249999995194,4.342043e-05,661.4249999995194,1.073842e-05,661.4249999995194,4.87136e-05,661.4249999995194,6.844875e-06
661.4399999995194,4.447593e-05,661.4399999995194,1.130711e-05,661.4399999995194,4.901859e-05,661.4399999995194,6.707672e-06
661.4549999995194,4.431697e-05,661.4549999995194,1.110091e-05,661.4549999995194,5.042913e-05,661.4549999995194,6.718165e-06
661.4699999995194,4.297236e-05,661.4699999995194,1.074104e-05,661.4699999995194,5.064487e-05,661.4699999995194,6.716067e-06
661.4849999995193,3.905084e-05,661.4849999995193,1.048218e-05,661.4849999995193,5.04403e-05,661.4849999995193,6.755802e-06
661.4999999995193,4.016791e-05,661.4999999995193,1.04889e-05,661.4999999995193,5.383226e-05,661.4999999995193,6.347276e-06
661.5149999995193,4.131683e-05,661.5149999995193,1.05184e-05,661.5149999995193,5.579845e-05,661.5149999995193,6.320588e-06
661.5299999995193,4.223469e-05,661.5299999995193,1.081032e-05,661.5299999995193,5.906672e-05,661.5299999995193,5.007424e-06
661.5449999995193,4.309151e-05,661.5449999995193,1.08934e-05,661.5449999995193,5.887418e-05,661.5449999995193,5.159829e-06
661.5599999995193,4.301757e-05,661.5599999995193,1.073054e-05,661.5599999995193,6.031863e-05,661.5599999995193,5.088352e-06
661.5749999995193,4.146488e-05,661.5749999995193,1.287634e-05,661.5749999995193,5.618864e-05,661.5749999995193,4.782967e-06
661.5899999995193,4.092012e-05,661.5899999995193,1.248871e-05,661.5899999995193,5.650141e-05,661.5899999995193,4.838602e-06
661.6049999995192,4.077182e-05,661.6049999995192,1.209912e-05,661.6049999995192,5.708207e-05,661.6049999995192,4.624239e-06
661.6199999995192,4.146318e-05,661.6199999995192,1.235603e-05,661.6199999995192,5.788098e-05,661.6199999995192,4.559819e-06
661.6349999995192,3.87808e-05,661.6349999995192,1.281823e-05,661.6349999995192,5.789801e-05,661.6349999995192,4.541245e-06
661.6499999995192,3.755512e-05,661.6499999995192,1.28369e-05,661.6499999995192,5.762561e-05,661.6499999995192,4.741556e-06
661.6649999995192,3.750745e-05,661.6649999995192,1.281493e-05,661.6649999995192,5.615078e-05,661.6649999995192,4.821102e-06
661.6799999995192,3.88994e-05,661.6799999995192,1.300046e-05,661.6799999995192,5.723142e-05,661.6799999995192,4.939447e-06
661.6949999995192,3.791536e-05,661.6949999995192,1.290367e-05,661.6949999995192,5.799428e-05,661.6949999995192,4.791795e-06
661.7099999995191,3.854069e-05,661.7099999995191,1.287853e-05,661.7099999995191,5.785956e-05,661.7099999995191,4.68176e-06
661.7249999995191,3.72232e-05,661.7249999995191,1.289056e-05,661.7249999995191,5.80392e-05,661.7249999995191,4.907976e-06
661.7399999995191,3.448025e-05,661.7399999995191,1.300155e-05,661.7399999995191,5.803337e-05,661.7399999995191,4.821102e-06
661.7549999995191,3.548493e-05,661.7549999995191,1.29983e-05,661.7549999995191,6.020642e-05,661.7549999995191,4.990517e-06
661.7699999995191,3.404155e-05,661.7699999995191,1.265677e-05,661.7699999995191,5.395642e-05,661.7699999995191,5.02147e-06
661.7849999995191,3.412462e-05,661.7849999995191,1.288728e-05,661.7849999995191,5.425323e-05,661.7849999995191,5.107694e-06
661.7999999995191,3.424453e-05,661.7999999995191,1.32484e-05,661.7999999995191,5.497389e-05,661.7999999995191,5.208738e-06
661.814999999519,3.398937e-05,661.814999999519,1.271673e-05,661.814999999519,5.602973e-05,661.814999999519,5.508422e-06
661.829999999519,3.48011e-05,661.829999999519,1.109965e-05,661.829999999519,5.428515e-05,661.829999999519,5.738873e-06
661.844999999519,3.570734e-05,661.844999999519,1.117679e-05,661.844999999519,5.525581e-05,661.844999999519,5.775575e-06
661.859999999519,3.531901e-05,661.859999999519,1.109457e-05,661.859999999519,5.526396e-05,661.859999999519,5.809621e-06
661.874999999519,3.641439e-05,661.874999999519,1.134691e-05,661.874999999519,5.750545e-05,661.874999999519,6.021555e-06
661.889999999519,3.674327e-05,661.889999999519,1.117805e-05,661.889999999519,6.099767e-05,661.889999999519,6.201342e-06
661.904999999519,3.685619e-05,661.904999999519,1.132081e-05,661.904999999519,6.035225e-05,661.904999999519,6.329497e-06
661.919999999519,3.656456e-05,661.919999999519,1.114903e-05,661.919999999519,6.212712e-05,661.919999999519,6.612493e-06
661.9349999995189,3.741946e-05,661.9349999995189,1.068582e-05,661.9349999995189,6.268557e-05,661.9349999995189,6.511599e-06
661.9499999995189,4.004286e-05,661.9499999995189,1.049158e-05,661.9499999995189,6.043831e-05,661.9499999995189,6.520246e-06
661.9649999995189,3.918192e-05,661.9649999995189,1.062898e-05,661.9649999995189,6.172084e-05,661.9649999995189,6.539662e-06
661.9799999995189,3.95252e-05,661.9799999995189,1.046739e-05,661.9799999995189,6.145346e-05,661.9799999995189,6.415707e-06
661.9949999995189,3.936592e-05,661.9949999995189,1.021401e-05,661.9949999995189,6.314233e-05,661.9949999995189,6.474718e-06
662.0099999995189,3.849168e-05,662.0099999995189,1.004715e-05,662.0099999995189,5.985373e-05,662.0099999995189,6.448557e-06
662.0249999995189,3.76016e-05,662.0249999995189,9.995137e-06,662.0249999995189,6.008979e-05,662.0249999995189,6.778699e-06
662.0399999995188,3.643566e-05,662.0399999995188,8.59316e-06,662.0399999995188,6.054125e-05,662.0399999995188,6.734918e-06
662.0549999995188,3.644532e-05,662.0549999995188,8.385746e-06,662.0549999995188,6.019426e-05,662.0549999995188,6.663425e-06
662.0699999995188,3.644378e-05,662.0699999995188,7.753835e-06,662.0699999995188,5.970811e-05,662.0699999995188,6.556871e-06
662.0849999995188,3.556978e-05,662.0849999995188,7.506446e-06,662.0849999995188,5.85202e-05,662.0849999995188,6.452925e-06
662.0999999995188,3.601882e-05,662.0999999995188,6.861319e-06,662.0999999995188,5.860439e-05,662.0999999995188,6.770382e-06
662.1149999995188,3.639582e-05,662.1149999995188,6.537507e-06,662.1149999995188,5.745178e-05,662.1149999995188,6.863372e-06
662.1299999995188,3.513907e-05,662.1299999995188,5.363302e-06,662.1299999995188,5.657316e-05,662.1299999995188,6.684531e-06
662.1449999995187,3.494692e-05,662.1449999995187,5.451871e-06,662.1449999995187,5.251482e-05,662.1449999995187,6.518086e-06
662.1599999995187,3.464654e-05,662.1599999995187,5.472503e-06,662.1599999995187,5.186786e-05,662.1599999995187,5.773135e-06
662.1749999995187,3.56489e-05,662.1749999995187,5.597212e-06,662.1749999995187,5.205708e-05,662.1749999995187,5.711809e-06
662.1899999995187,3.201963e-05,662.1899999995187,5.8867e-06,662.1899999995187,5.046515e-05,662.1899999995187,5.652309e-06
662.2049999995187,3.01634e-05,662.2049999995187,6.037908e-06,662.2049999995187,5.023967e-05,662.2049999995187,5.61731e-06
662.2199999995187,3.07778e-05,662.2199999995187,5.93674e-06,662.2199999995187,5.030635e-05,662.2199999995187,5.647323e-06
662.2349999995187,3.103441e-05,662.2349999995187,6.384893e-06,662.2349999995187,4.781347e-05,662.2349999995187,5.528843e-06
662.2499999995186,3.117119e-05,662.2499999995186,6.322817e-06,662.2499999995186,4.687925e-05,662.2499999995186,5.355417e-06
662.2649999995186,3.25095e-05,662.2649999995186,6.610363e-06,662.2649999995186,4.491277e-05,662.2649999995186,5.498184e-06
662.2799999995186,3.226026e-05,662.2799999995186,7.105398e-06,662.2799999995186,4.247747e-05,662.2799999995186,5.273245e-06
662.2949999995186,3.221044e-05,662.2949999995186,7.125195e-06,662.2949999995186,4.345999e-05,662.2949999995186,5.355417e-06
662.3099999995186,3.26008e-05,662.3099999995186,7.231167e-06,662.3099999995186,4.277258e-05,662.3099999995186,5.22494e-06
662.3249999995186,3.22065e-05,662.3249999995186,7.327922e-06,662.3249999995186,4.123083e-05,662.3249999995186,5.782887e-06
662.3399999995186,3.193902e-05,662.3399999995186,7.748384e-06,662.3399999995186,4.304474e-05,662.3399999995186,5.544109e-06
662.3549999995186,3.145461e-05,662.3549999995186,8.277538e-06,662.3549999995186,4.070162e-05,662.3549999995186,5.032679e-06
662.3699999995185,3.129927e-05,662.3699999995185,8.873813e-06,662.3699999995185,3.947741e-05,662.3699999995185,5.046655e-06
662.3849999995185,3.239447e-05,662.3849999995185,9.024921e-06,662.3849999995185,3.923366e-05,662.3849999995185,5.001795e-06
662.3999999995185,3.182547e-05,662.3999999995185,9.029603e-06,662.3999999995185,3.832627e-05,662.3999999995185,5.238403e-06
662.4149999995185,3.193638e-05,662.4149999995185,9.113456e-06,662.4149999995185,3.610749e-05,662.4149999995185,5.074491e-06
662.4299999995185,3.053611e-05,662.4299999995185,9.198077e-06,662.4299999995185,3.57239e-05,662.4299999995185,5.14616e-06
662.4449999995185,3.009748e-05,662.4449999995185,9.167396e-06,662.4449999995185,3.539192e-05,662.4449999995185,5.405162e-06
662.4599999995185,3.058635e-05,662.4599999995185,9.164322e-06,662.4599999995185,3.535807e-05,662.4599999995185,5.444114e-06
662.4749999995184,2.981392e-05,662.4749999995184,9.006171e-06,662.4749999995184,3.379694e-05,662.4749999995184,5.459618e-06
662.4899999995184,2.972164e-05,662.4899999995184,8.620983e-06,662.4899999995184,3.387645e-05,662.4899999995184,5.627332e-06
662.5049999995184,2.976427e-05,662.5049999995184,8.620983e-06,662.5049999995184,3.283073e-05,662.5049999995184,5.551726e-06
662.5199999995184,2.946459e-05,662.5199999995184,8.192006e-06,662.5199999995184,3.334882e-05,662.5199999995184,5.464775e-06
662.5349999995184,2.888861e-05,662.5349999995184,8.115992e-06,662.5349999995184,3.165549e-05,662.5349999995184,5.230329e-06
662.5499999995184,2.920963e-05,662.5499999995184,7.887128e-06,662.5499999995184,3.166039e-05,662.5499999995184,5.238403e-06
662.5649999995184,2.897527e-05,662.5649999995184,7.968863e-06,662.5649999995184,3.003564e-05,662.5649999995184,4.785911e-06
662.5799999995183,3.198926e-05,662.5799999995183,7.90675e-06,662.5799999995183,3.008578e-05,662.5799999995183,4.910845e-06
662.5949999995183,3.150964e-05,662.5949999995183,7.295169e-06,662.5949999995183,2.833174e-05,662.5949999995183,4.979213e-06
662.6099999995183,3.138332e-05,662.6099999995183,6.669763e-06,662.6099999995183,2.774746e-05,662.6099999995183,5.02147e-06
662.6249999995183,3.098308e-05,662.6249999995183,5.664756e-06,662.6249999995183,2.89884e-05,662.6249999995183,4.965048e-06
662.6399999995183,3.028737e-05,662.6399999995183,5.587136e-06,662.6399999995183,2.816418e-05,662.6399999995183,5.071714e-06
662.6549999995183,3.169374e-05,662.6549999995183,5.329048e-06,662.6549999995183,2.858123e-05,662.6549999995183,5.126963e-06
662.6699999995183,3.252553e-05,662.6699999995183,4.732634e-06,662.6699999995183,3.033803e-05,662.6699999995183,5.14616e-06
662.6849999995183,3.286203e-05,662.6849999995183,4.578317e-06,662.6849999995183,3.142504e-05,662.6849999995183,5.178904e-06
662.6999999995182,3.272113e-05,662.6999999995182,4.856038e-06,662.6999999995182,3.031666e-05,662.6999999995182,4.916579e-06
662.7149999995182,3.247048e-05,662.7149999995182,4.939447e-06,662.7149999995182,2.988377e-05,662.7149999995182,4.902232e-06
662.7299999995182,3.305522e-05,662.7299999995182,5.612292e-06,662.7299999995182,3.009186e-05,662.7299999995182,4.75046e-06
662.7449999995182,3.25056e-05,662.7449999995182,6.520246e-06,662.7449999995182,3.022079e-05,662.7449999995182,4.777073e-06
662.7599999995182,3.204778e-05,662.7599999995182,6.684531e-06,662.7599999995182,2.992192e-05,662.7599999995182,5.102175e-06
662.7749999995182,3.200688e-05,662.7749999995182,6.957143e-06,662.7749999995182,2.970078e-05,662.7749999995182,5.085583e-06
662.7899999995182,3.138646e-05,662.7899999995182,7.993573e-06,662.7899999995182,3.043167e-05,662.7899999995182,5.010237e-06
662.8049999995181,3.142907e-05,662.8049999995181,9.141237e-06,662.8049999995181,3.167018e-05,662.8049999995181,5.038274e-06
662.8199999995181,2.884713e-05,662.8199999995181,1.07777e-05,662.8199999995181,3.209785e-05,662.8199999995181,4.993339e-06
662.8349999995181,2.943255e-05,662.8349999995181,1.114018e-05,662.8349999995181,3.081759e-05,662.8349999995181,4.896482e-06
662.8499999995181,2.991722e-05,662.8499999995181,1.197743e-05,662.8499999995181,3.074071e-05,662.8499999995181,4.947995e-06
662.8649999995181,3.166706e-05,662.8649999995181,1.376261e-05,662.8649999995181,3.0682e-05,662.8649999995181,4.899358e-06
662.8799999995181,3.262585e-05,662.8799999995181,1.54549e-05,662.8799999995181,2.982809e-05,662.8799999995181,5.013047e-06
662.8949999995181,3.268538e-05,662.8949999995181,1.582953e-05,662.8949999995181,3.009093e-05,662.8949999995181,4.602866e-06
662.909999999518,3.091526e-05,662.909999999518,1.583309e-05,662.909999999518,3.006657e-05,662.909999999518,4.510119e-06
662.924999999518,3.030457e-05,662.924999999518,1.594833e-05,662.924999999518,2.447263e-05,662.924999999518,4.618143e-06
662.939999999518,3.126009e-05,662.939999999518,1.620419e-05,662.939999999518,2.417554e-05,662.939999999518,4.657627e-06
662.954999999518,3.24965e-05,662.954999999518,1.648345e-05,662.954999999518,2.512922e-05,662.954999999518,4.850233e-06
662.969999999518,3.221e-05,662.969999999518,1.679919e-05,662.969999999518,2.615272e-05,662.969999999518,4.987693e-06
662.984999999518,3.231305e-05,662.984999999518,1.683939e-05,662.984999999518,2.656423e-05,662.984999999518,5.159829e-06
662.999999999518,3.335938e-05,662.999999999518,1.666532e-05,662.999999999518,2.637264e-05,662.999999999518,4.962209e-06
663.014999999518,3.285775e-05,663.014999999518,1.675384e-05,663.014999999518,2.805293e-05,663.014999999518,4.939447e-06
663.0299999995179,3.303647e-05,663.0299999995179,1.685694e-05,663.0299999995179,2.802278e-05,663.0299999995179,4.979213e-06
663.0449999995179,3.403989e-05,663.0449999995179,1.71773e-05,663.0449999995179,2.415688e-05,663.0449999995179,4.838602e-06
663.0599999995179,3.401091e-05,663.0599999995179,1.710663e-05,663.0599999995179,2.393839e-05,663.0599999995179,4.910845e-06
663.0749999995179,3.324856e-05,663.0749999995179,1.616328e-05,663.0749999995179,2.62672e-05,663.0749999995179,5.018664e-06
663.0899999995179,3.381777e-05,663.0899999995179,1.587928e-05,663.0899999995179,2.628275e-05,663.0899999995179,5.024275e-06
663.1049999995179,3.368128e-05,663.1049999995179,1.535706e-05,663.1049999995179,2.62162e-05,663.1049999995179,5.043863e-06
663.1199999995179,3.201127e-05,663.1199999995179,1.370723e-05,663.1199999995179,2.708101e-05,663.1199999995179,4.919443e-06
663.1349999995178,3.127901e-05,663.1349999995178,1.261329e-05,663.1349999995178,2.713349e-05,663.1349999995178,4.945147e-06
663.1499999995178,3.178605e-05,663.1499999995178,1.276758e-05,663.1499999995178,2.719365e-05,663.1499999995178,4.928026e-06
663.1649999995178,3.377567e-05,663.1649999995178,1.304265e-05,663.1649999995178,2.703519e-05,663.1649999995178,4.996159e-06
663.1799999995178,3.368505e-05,663.1799999995178,1.335641e-05,663.1799999995178,2.885152e-05,663.1799999995178,4.79767e-06
663.1949999995178,3.271812e-05,663.1949999995178,1.297009e-05,663.1949999995178,2.89271e-05,663.1949999995178,4.729657e-06
663.2099999995178,3.204294e-05,663.2099999995178,1.306208e-05,663.2099999995178,2.678813e-05,663.2099999995178,4.69378e-06
663.2249999995178,3.168174e-05,663.2249999995178,1.295705e-05,663.2249999995178,2.722523e-05,663.2249999995178,4.525708e-06
663.2399999995177,3.091025e-05,663.2399999995177,1.413526e-05,663.2399999995177,2.788167e-05,663.2399999995177,4.38019e-06
663.2549999995177,3.021333e-05,663.2549999995177,1.429185e-05,663.2549999995177,2.84206e-05,663.2549999995177,4.497608e-06
663.2699999995177,3.145326e-05,663.2699999995177,1.445844e-05,663.2699999995177,2.74986e-05,663.2699999995177,5.275916e-06
663.2849999995177,3.307013e-05,663.2849999995177,1.425434e-05,663.2849999995177,2.673391e-05,663.2849999995177,5.235713e-06
663.2999999995177,3.256016e-05,663.2999999995177,1.356986e-05,663.2999999995177,2.806799e-05,663.2999999995177,5.162558e-06
663.3149999995177,3.286503e-05,663.3149999995177,1.304913e-05,663.3149999995177,2.678024e-05,663.3149999995177,5.189773e-06
663.3299999995177,3.262887e-05,663.3299999995177,1.306316e-05,663.3299999995177,2.718381e-05,663.3299999995177,5.121465e-06
663.3449999995177,3.202931e-05,663.3449999995177,1.291131e-05,663.3449999995177,2.707528e-05,663.3449999995177,5.113207e-06
663.3599999995176,3.341254e-05,663.3599999995176,1.265565e-05,663.3599999995176,2.73795e-05,663.3599999995176,5.066156e-06
663.3749999995176,3.226768e-05,663.3749999995176,1.245143e-05,663.3749999995176,2.859601e-05,663.3749999995176,5.235713e-06
663.3899999995176,3.243575e-05,663.3899999995176,1.223459e-05,663.3899999995176,2.756461e-05,663.3899999995176,5.659781e-06
663.4049999995176,3.131457e-05,663.4049999995176,1.226449e-05,663.4049999995176,2.762433e-05,663.4049999995176,5.797484e-06
663.4199999995176,3.160918e-05,663.4199999995176,1.186161e-05,663.4199999995176,2.776218e-05,663.4199999995176,5.998116e-06
663.4349999995176,3.142324e-05,663.4349999995176,1.133573e-05,663.4349999995176,2.958816e-05,663.4349999995176,6.007502e-06
663.4499999995176,3.163324e-05,663.4499999995176,1.13779e-05,663.4499999995176,3.060247e-05,663.4499999995176,5.986361e-06
663.4649999995175,3.085825e-05,663.4649999995175,1.120574e-05,663.4649999995175,3.113818e-05,663.4649999995175,6.180865e-06
663.4799999995175,3.173106e-05,663.4799999995175,9.346957e-06,663.4799999995175,3.168841e-05,663.4799999995175,6.11902e-06
663.4949999995175,3.302964e-05,663.4949999995175,8.880161e-06,663.4949999995175,3.107931e-05,663.4949999995175,5.93674e-06
663.5099999995175,3.30002e-05,663.5099999995175,8.444335e-06,663.5099999995175,3.191741e-05,663.5099999995175,5.760922e-06
663.5249999995175,3.145058e-05,663.5249999995175,8.082948e-06,663.5249999995175,3.361681e-05,663.5249999995175,5.402556e-06
663.5399999995175,3.059464e-05,663.5399999995175,7.487657e-06,663.5399999995175,3.371472e-05,663.5399999995175,5.451871e-06
663.5549999995175,3.145461e-05,663.5549999995175,7.28164e-06,663.5549999995175,3.410315e-05,663.5549999995175,5.407768e-06
663.5699999995174,3.096898e-05,663.5699999995174,7.412022e-06,663.5699999995174,3.964264e-05,663.5699999995174,5.386888e-06
663.5849999995174,3.11879e-05,663.5849999995174,7.36818e-06,663.5849999995174,3.967886e-05,663.5849999995174,5.657291e-06
663.5999999995174,3.026038e-05,663.5999999995174,7.352869e-06,663.5999999995174,3.984361e-05,663.5999999995174,5.485359e-06
