X[s],a: EMG RMS 1-1,X[s].1,a: EMG RMS 1-2,X[s].2,a: EMG RMS 1-3,X[s].3,a: EMG RMS 1-4
754.0049999994352,3.694247e-05,754.0049999994352,8.318297e-05,754.0049999994352,2.342625e-05,754.0049999994352,2.179715e-05
754.0199999994352,3.53505e-05,754.0199999994352,8.295557e-05,754.0199999994352,2.257619e-05,754.0199999994352,2.178551e-05
754.0349999994352,3.435091e-05,754.0349999994352,8.124632e-05,754.0349999994352,2.294567e-05,754.0349999994352,2.197992e-05
754.0499999994352,3.236967e-05,754.0499999994352,7.969658e-05,754.0499999994352,2.451461e-05,754.0499999994352,2.205733e-05
754.0649999994351,2.946698e-05,754.0649999994351,7.893306e-05,754.0649999994351,2.527957e-05,754.0649999994351,2.215038e-05
754.0799999994351,2.933907e-05,754.0799999994351,7.720846e-05,754.0799999994351,2.512418e-05,754.0799999994351,2.215991e-05
754.0949999994351,2.948132e-05,754.0949999994351,7.403198e-05,754.0949999994351,2.40347e-05,754.0949999994351,2.214274e-05
754.1099999994351,2.941291e-05,754.1099999994351,7.170267e-05,754.1099999994351,2.292663e-05,754.1099999994351,2.193373e-05
754.1249999994351,2.924915e-05,754.1249999994351,7.085624e-05,754.1249999994351,2.261733e-05,754.1249999994351,2.042043e-05
754.1399999994351,2.896895e-05,754.1399999994351,6.879628e-05,754.1399999994351,2.288728e-05,754.1399999994351,1.660351e-05
754.1549999994351,2.637317e-05,754.1549999994351,6.554507e-05,754.1549999994351,2.25456e-05,754.1549999994351,1.476501e-05
754.169999999435,2.512418e-05,754.169999999435,6.262711e-05,754.169999999435,2.197992e-05,754.169999999435,1.238336e-05
754.184999999435,2.520758e-05,754.184999999435,4.760087e-05,754.184999999435,1.97813e-05,754.184999999435,1.188652e-05
754.199999999435,2.677235e-05,754.199999999435,4.32413e-05,754.199999999435,1.914438e-05,754.199999999435,1.132329e-05
754.214999999435,2.67028e-05,754.214999999435,2.260674e-05,754.214999999435,1.986657e-05,754.214999999435,1.100789e-05
754.229999999435,2.626934e-05,754.229999999435,1.440084e-05,754.229999999435,1.971854e-05,754.229999999435,9.976799e-06
754.244999999435,2.486889e-05,754.244999999435,1.467505e-05,754.244999999435,1.966632e-05,754.244999999435,8.962269e-06
754.259999999435,2.532577e-05,754.259999999435,1.437146e-05,754.259999999435,1.932673e-05,754.259999999435,7.412022e-06
754.274999999435,2.610528e-05,754.274999999435,1.388084e-05,754.274999999435,1.98531e-05,754.274999999435,7.258388e-06
754.2899999994349,2.46687e-05,754.2899999994349,1.301562e-05,754.2899999994349,1.964051e-05,754.2899999994349,6.822199e-06
754.3049999994349,2.39425e-05,754.3049999994349,1.325371e-05,754.3049999994349,1.732103e-05,754.3049999994349,6.455107e-06
754.3199999994349,2.497177e-05,754.3199999994349,1.570893e-05,754.3199999994349,1.699261e-05,754.3199999994349,6.051891e-06
754.3349999994349,2.648404e-05,754.3349999994349,1.723216e-05,754.3349999994349,1.711075e-05,754.3349999994349,6.203613e-06
754.3499999994349,2.641853e-05,754.3499999994349,1.810984e-05,754.3499999994349,1.719943e-05,754.3499999994349,6.424483e-06
754.3649999994349,2.690776e-05,754.3649999994349,1.785682e-05,754.3649999994349,1.77071e-05,754.3649999994349,6.569749e-06
754.3799999994349,2.565514e-05,754.3799999994349,1.772777e-05,754.3799999994349,1.735759e-05,754.3799999994349,6.671875e-06
754.3949999994348,2.524388e-05,754.3949999994348,1.717566e-05,754.3949999994348,1.675889e-05,754.3949999994348,6.646491e-06
754.4099999994348,2.600147e-05,754.4099999994348,1.652186e-05,754.4099999994348,1.674375e-05,754.4099999994348,6.507271e-06
754.4249999994348,2.561997e-05,754.4249999994348,1.619984e-05,754.4249999994348,1.634441e-05,754.4249999994348,6.593293e-06
754.4399999994348,2.344608e-05,754.4399999994348,1.62502e-05,754.4399999994348,1.771187e-05,754.4399999994348,6.470365e-06
754.4549999994348,2.357669e-05,754.4549999994348,1.635303e-05,754.4549999994348,1.705385e-05,754.4549999994348,6.580461e-06
754.4699999994348,2.33401e-05,754.4699999994348,1.626839e-05,754.4699999994348,1.686446e-05,754.4699999994348,7.113323e-06
754.4849999994348,2.380917e-05,754.4849999994348,1.553762e-05,754.4849999994348,1.679667e-05,754.4849999994348,7.103415e-06
754.4999999994347,2.422327e-05,754.4999999994347,1.543209e-05,754.4999999994347,1.69195e-05,754.4999999994347,6.975343e-06
754.5149999994347,2.29512e-05,754.5149999994347,1.540468e-05,754.5149999994347,1.66501e-05,754.5149999994347,7.001547e-06
754.5299999994347,2.21866e-05,754.5299999994347,1.538638e-05,754.5299999994347,1.625367e-05,754.5299999994347,6.916529e-06
754.5449999994347,2.131487e-05,754.5449999994347,1.529732e-05,754.5449999994347,1.595363e-05,754.5449999994347,7.04567e-06
754.5599999994347,2.244038e-05,754.5599999994347,1.45942e-05,754.5599999994347,1.665687e-05,754.5599999994347,6.922637e-06
754.5749999994347,1.954993e-05,754.5749999994347,1.233892e-05,754.5749999994347,1.700753e-05,754.5749999994347,6.809799e-06
754.5899999994347,1.953984e-05,754.5899999994347,8.837226e-06,754.5899999994347,1.698349e-05,754.5899999994347,6.699267e-06
754.6049999994347,1.901814e-05,754.6049999994347,7.190141e-06,754.6049999994347,1.688033e-05,754.6049999994347,6.450741e-06
754.6199999994346,2.00964e-05,754.6199999994346,7.22337e-06,754.6199999994346,1.708686e-05,754.6199999994346,6.409116e-06
754.6349999994346,2.003673e-05,754.6349999994346,6.934835e-06,754.6349999994346,1.722398e-05,754.6349999994346,6.304968e-06
754.6499999994346,1.95924e-05,754.6499999994346,6.541815e-06,754.6499999994346,1.715761e-05,754.6499999994346,6.121322e-06
754.6649999994346,1.86909e-05,754.6649999994346,6.533196e-06,754.6649999994346,1.730476e-05,754.6649999994346,6.19907e-06
754.6799999994346,1.946183e-05,754.6799999994346,6.857212e-06,754.6799999994346,2.159588e-05,754.6799999994346,6.196798e-06
754.6949999994346,1.923101e-05,754.6949999994346,6.591156e-06,754.6949999994346,2.107227e-05,754.6949999994346,6.457289e-06
754.7099999994346,1.904109e-05,754.7099999994346,6.446372e-06,754.7099999994346,2.059011e-05,754.7099999994346,6.162605e-06
754.7249999994345,1.876086e-05,754.7249999994345,6.293787e-06,754.7249999994345,2.03451e-05,754.7249999994345,5.879517e-06
754.7399999994345,1.790803e-05,754.7399999994345,5.804769e-06,754.7399999994345,2.057437e-05,754.7399999994345,6.230803e-06
754.7549999994345,1.81448e-05,754.7549999994345,6.098266e-06,754.7549999994345,2.194464e-05,754.7549999994345,6.455107e-06
754.7699999994345,1.791432e-05,754.7699999994345,5.958057e-06,754.7699999994345,2.187649e-05,754.7699999994345,6.554722e-06
754.7849999994345,1.913261e-05,754.7849999994345,5.845879e-06,754.7849999994345,2.164084e-05,754.7849999994345,6.580461e-06
754.7999999994345,1.919729e-05,754.7999999994345,7.766543e-06,754.7999999994345,2.196453e-05,754.7999999994345,6.395915e-06
754.8149999994345,1.792847e-05,754.8149999994345,8.580036e-06,754.8149999994345,2.14906e-05,754.8149999994345,6.42229e-06
754.8299999994344,1.670585e-05,754.8299999994344,8.684475e-06,754.8299999994344,2.126723e-05,754.8299999994344,6.608231e-06
754.8449999994344,1.679835e-05,754.8449999994344,8.66011e-06,754.8449999994344,2.167986e-05,754.8449999994344,6.556871e-06
754.8599999994344,1.685611e-05,754.8599999994344,8.619349e-06,754.8599999994344,2.125133e-05,754.8599999994344,6.652846e-06
754.8749999994344,1.488379e-05,754.8749999994344,8.517419e-06,754.8749999994344,2.09986e-05,754.8749999994344,6.437625e-06
754.8899999994344,1.49216e-05,754.8899999994344,8.535592e-06,754.8899999994344,2.114434e-05,754.8899999994344,6.494269e-06
754.9049999994344,1.598538e-05,754.9049999994344,9.224075e-06,754.9049999994344,2.114701e-05,754.9049999994344,6.53104e-06
754.9199999994344,1.556208e-05,754.9199999994344,9.188883e-06,754.9199999994344,2.006694e-05,754.9199999994344,6.682424e-06
754.9349999994344,1.488379e-05,754.9349999994344,9.517214e-06,754.9349999994344,1.645008e-05,754.9349999994344,6.535352e-06
754.9499999994343,1.568021e-05,754.9499999994343,9.441426e-06,754.9499999994343,1.746116e-05,754.9499999994343,6.244353e-06
754.9649999994343,1.574834e-05,754.9649999994343,9.35449e-06,754.9649999994343,1.752719e-05,754.9649999994343,6.221753e-06
754.9799999994343,1.559192e-05,754.9799999994343,9.500919e-06,754.9799999994343,1.751835e-05,754.9799999994343,6.275856e-06
754.9949999994343,1.50971e-05,754.9949999994343,9.509811e-06,754.9949999994343,1.624326e-05,754.9949999994343,5.556798e-06
755.0099999994343,1.494612e-05,755.0099999994343,9.375548e-06,755.0099999994343,1.709263e-05,755.0099999994343,5.738873e-06
755.0249999994343,1.477359e-05,755.0249999994343,9.44441e-06,755.0249999994343,1.725993e-05,755.0249999994343,6.316129e-06
755.0399999994343,1.341009e-05,755.0399999994343,8.59316e-06,755.0399999994343,1.729417e-05,755.0399999994343,6.652846e-06
755.0549999994342,1.382797e-05,755.0549999994342,8.427637e-06,755.0549999994342,1.649284e-05,755.0549999994342,6.813935e-06
755.0699999994342,1.398195e-05,755.0699999994342,8.053266e-06,755.0699999994342,1.674712e-05,755.0699999994342,6.601833e-06
755.0849999994342,1.404829e-05,755.0849999994342,7.967094e-06,755.0849999994342,1.652868e-05,755.0849999994342,6.58688e-06
755.0999999994342,1.418401e-05,755.0999999994342,8.372296e-06,755.0999999994342,1.684775e-05,755.0999999994342,6.479067e-06
755.1149999994342,1.398497e-05,755.1149999994342,8.504177e-06,755.1149999994342,1.790488e-05,755.1149999994342,6.468188e-06
755.1299999994342,1.499036e-05,755.1299999994342,8.650345e-06,755.1299999994342,1.768879e-05,755.1299999994342,6.470365e-06
755.1449999994342,1.527151e-05,755.1449999994342,8.795684e-06,755.1449999994342,1.863882e-05,755.1449999994342,6.42229e-06
755.1599999994341,1.438518e-05,755.1599999994341,8.62425e-06,755.1599999994341,1.866526e-05,755.1599999994341,6.535352e-06
755.1749999994341,1.487622e-05,755.1749999994341,8.965412e-06,755.1749999994341,1.924932e-05,755.1749999994341,6.210422e-06
755.1899999994341,1.49046e-05,755.1899999994341,8.938661e-06,755.1899999994341,1.846113e-05,755.1899999994341,6.522406e-06
755.2049999994341,1.496873e-05,755.2049999994341,9.334893e-06,755.2049999994341,1.895582e-05,755.2049999994341,6.851046e-06
755.2199999994341,1.496025e-05,755.2199999994341,9.716427e-06,755.2199999994341,1.927418e-05,755.2199999994341,6.885912e-06
755.2349999994341,1.562802e-05,755.2349999994341,9.623194e-06,755.2349999994341,2.027783e-05,755.2349999994341,6.940926e-06
755.2499999994341,1.693116e-05,755.2499999994341,1.010726e-05,755.2499999994341,1.974067e-05,755.2499999994341,6.799448e-06
755.264999999434,1.692034e-05,755.264999999434,1.033875e-05,755.264999999434,1.935368e-05,755.264999999434,6.722357e-06
755.279999999434,1.666025e-05,755.279999999434,1.024705e-05,755.279999999434,2.024585e-05,755.279999999434,6.141998e-06
755.294999999434,1.620767e-05,755.294999999434,9.973975e-06,755.294999999434,2.074755e-05,755.294999999434,5.627332e-06
755.309999999434,1.604256e-05,755.309999999434,9.72657e-06,755.309999999434,2.07231e-05,755.309999999434,5.860319e-06
755.324999999434,1.600476e-05,755.324999999434,9.275854e-06,755.324999999434,2.074144e-05,755.324999999434,6.273611e-06
755.339999999434,1.634786e-05,755.339999999434,9.138154e-06,755.339999999434,2.099525e-05,755.339999999434,6.331722e-06
755.354999999434,1.644837e-05,755.354999999434,9.204201e-06,755.354999999434,2.072241e-05,755.354999999434,6.513761e-06
755.369999999434,1.64518e-05,755.369999999434,9.236285e-06,755.369999999434,2.039558e-05,755.369999999434,6.64861e-06
755.384999999434,1.573313e-05,755.384999999434,9.586528e-06,755.384999999434,2.018034e-05,755.384999999434,7.037669e-06
755.3999999994339,1.567482e-05,755.3999999994339,9.549722e-06,755.3999999994339,1.943213e-05,755.3999999994339,7.12124e-06
755.4149999994339,1.49367e-05,755.4149999994339,8.883333e-06,755.4149999994339,1.923028e-05,755.4149999994339,7.011599e-06
755.4299999994339,1.432237e-05,755.4299999994339,8.842007e-06,755.4299999994339,1.904922e-05,755.4299999994339,6.863372e-06
755.4449999994339,1.360407e-05,755.4449999994339,8.930779e-06,755.4449999994339,1.878562e-05,755.4449999994339,6.743279e-06
755.4599999994339,1.332791e-05,755.4599999994339,8.742674e-06,755.4599999994339,1.798025e-05,755.4599999994339,6.669763e-06
755.4749999994339,1.40533e-05,755.4749999994339,8.236593e-06,755.4749999994339,1.84512e-05,755.4749999994339,6.618881e-06
755.4899999994338,1.315664e-05,755.4899999994338,8.231461e-06,755.4899999994338,1.762657e-05,755.4899999994338,6.439814e-06
755.5049999994338,1.249096e-05,755.5049999994338,8.042764e-06,755.5049999994338,1.792532e-05,755.5049999994338,6.770382e-06
755.5199999994338,1.268678e-05,755.5199999994338,8.023475e-06,755.5199999994338,1.764574e-05,755.5199999994338,7.15085e-06
755.5349999994338,1.313521e-05,755.5349999994338,8.02874e-06,755.5349999994338,1.701167e-05,755.5349999994338,7.56626e-06
755.5499999994338,1.382593e-05,755.5499999994338,8.077717e-06,755.5499999994338,1.806622e-05,755.5499999994338,7.607108e-06
755.5649999994338,1.47134e-05,755.5649999994338,8.119463e-06,755.5649999994338,1.821686e-05,755.5649999994338,7.483893e-06
755.5799999994338,1.424545e-05,755.5799999994338,8.240013e-06,755.5799999994338,1.781813e-05,755.5799999994338,7.38918e-06
755.5949999994338,1.42494e-05,755.5949999994338,8.200599e-06,755.5949999994338,1.735678e-05,755.5949999994338,7.431003e-06
755.6099999994337,1.413426e-05,755.6099999994337,8.019962e-06,755.6099999994337,1.768641e-05,755.6099999994337,7.312527e-06
755.6249999994337,1.400511e-05,755.6249999994337,7.840554e-06,755.6249999994337,1.737706e-05,755.6249999994337,7.184261e-06
755.6399999994337,1.377489e-05,755.6399999994337,7.00758e-06,755.6399999994337,1.779914e-05,755.6399999994337,6.973323e-06
755.6549999994337,1.452939e-05,755.6549999994337,7.391086e-06,755.6549999994337,1.761698e-05,755.6549999994337,6.879772e-06
755.6699999994337,1.534513e-05,755.6699999994337,7.341366e-06,755.6699999994337,1.751272e-05,755.6699999994337,6.883865e-06
755.6849999994337,1.687031e-05,755.6849999994337,7.582997e-06,755.6849999994337,1.749823e-05,755.6849999994337,6.916529e-06
755.6999999994337,1.698598e-05,755.6999999994337,6.965238e-06,755.6999999994337,1.690368e-05,755.6999999994337,6.813935e-06
755.7149999994336,1.696274e-05,755.7149999994336,6.797376e-06,755.7149999994336,1.687114e-05,755.7149999994336,6.705572e-06
755.7299999994336,1.658483e-05,755.7299999994336,6.944984e-06,755.7299999994336,1.719042e-05,755.7299999994336,6.663425e-06
755.7449999994336,1.656528e-05,755.7449999994336,6.667651e-06,755.7449999994336,1.725013e-05,755.7449999994336,6.791156e-06
755.7599999994336,1.650309e-05,755.7599999994336,6.894089e-06,755.7599999994336,1.677905e-05,755.7599999994336,6.235322e-06
755.7749999994336,1.662131e-05,755.7749999994336,6.755802e-06,755.7749999994336,1.657038e-05,755.7749999994336,6.266871e-06
755.7899999994336,1.734298e-05,755.7899999994336,6.973323e-06,755.7899999994336,1.63582e-05,755.7899999994336,5.946224e-06
755.8049999994336,1.682934e-05,755.8049999994336,8.169621e-06,755.8049999994336,1.410932e-05,755.8049999994336,6.095956e-06
755.8199999994335,1.653635e-05,755.8199999994335,8.95126e-06,755.8199999994335,1.476119e-05,755.8199999994335,5.988714e-06
755.8349999994335,2.034095e-05,755.8349999994335,1.011004e-05,755.8349999994335,1.556027e-05,755.8349999994335,5.836232e-06
755.8499999994335,2.150829e-05,755.8499999994335,1.016285e-05,755.8499999994335,1.543483e-05,755.8499999994335,5.814468e-06
755.8649999994335,2.145649e-05,755.8649999994335,1.049024e-05,755.8649999994335,1.521792e-05,755.8649999994335,5.874723e-06
755.8799999994335,2.321544e-05,755.8799999994335,1.048756e-05,755.8799999994335,1.598538e-05,755.8799999994335,5.773135e-06
755.8949999994335,2.561558e-05,755.8949999994335,1.021263e-05,755.8949999994335,1.562802e-05,755.8949999994335,5.733962e-06
755.9099999994335,2.612578e-05,755.9099999994335,1.004855e-05,755.9099999994335,1.625107e-05,755.9099999994335,5.804769e-06
755.9249999994335,2.533801e-05,755.9249999994335,9.898837e-06,755.9249999994335,1.630817e-05,755.9249999994335,5.775575e-06
755.9399999994334,2.500052e-05,755.9399999994334,9.813081e-06,755.9399999994334,1.640807e-05,755.9399999994334,5.960421e-06
755.9549999994334,2.848199e-05,755.9549999994334,9.975386e-06,755.9549999994334,1.633752e-05,755.9549999994334,5.920107e-06
755.9699999994334,3.082948e-05,755.9699999994334,9.883171e-06,755.9699999994334,1.616851e-05,755.9699999994334,6.021555e-06
755.9849999994334,3.110016e-05,755.9849999994334,9.820256e-06,755.9849999994334,1.546036e-05,755.9849999994334,6.137409e-06
755.9999999994334,3.130287e-05,755.9999999994334,9.653885e-06,755.9999999994334,1.591915e-05,755.9999999994334,5.927241e-06
756.0149999994334,3.17865e-05,756.0149999994334,9.623194e-06,756.0149999994334,1.690868e-05,756.0149999994334,5.649817e-06
756.0299999994334,3.185202e-05,756.0299999994334,9.466757e-06,756.0299999994334,1.70555e-05,756.0299999994334,5.539025e-06
756.0449999994333,3.207414e-05,756.0449999994333,9.175076e-06,756.0449999994333,1.722316e-05,756.0449999994333,5.833818e-06
756.0599999994333,3.755474e-05,756.0599999994333,8.287742e-06,756.0599999994333,1.702408e-05,756.0599999994333,5.804769e-06
756.0749999994333,4.206156e-05,756.0749999994333,7.081567e-06,756.0749999994333,1.65048e-05,756.0749999994333,5.896265e-06
756.0899999994333,5.468898e-05,756.0899999994333,5.843468e-06,756.0899999994333,1.584732e-05,756.0899999994333,5.881913e-06
756.1049999994333,5.77028e-05,756.1049999994333,5.632336e-06,756.1049999994333,1.593861e-05,756.1049999994333,5.8867e-06
756.1199999994333,5.822264e-05,756.1199999994333,5.262549e-06,756.1199999994333,1.683269e-05,756.1199999994333,5.958057e-06
756.1349999994333,5.882128e-05,756.1349999994333,5.203327e-06,756.1349999994333,1.646976e-05,756.1349999994333,6.007502e-06
756.1499999994332,5.931399e-05,756.1499999994332,5.082812e-06,756.1499999994332,1.597304e-05,756.1499999994332,5.965146e-06
756.1649999994332,5.926932e-05,756.1649999994332,5.038274e-06,756.1649999994332,1.588549e-05,756.1649999994332,5.943854e-06
756.1799999994332,5.947692e-05,756.1799999994332,5.038274e-06,756.1799999994332,1.607589e-05,756.1799999994332,6.072803e-06
756.1949999994332,5.906648e-05,756.1949999994332,4.876302e-06,756.1949999994332,1.740703e-05,756.1949999994332,5.874723e-06
756.2099999994332,5.796586e-05,756.2099999994332,4.826943e-06,756.2099999994332,1.720189e-05,756.2099999994332,5.632336e-06
756.2249999994332,5.677375e-05,756.2249999994332,5.121465e-06,756.2249999994332,1.718714e-05,756.2249999994332,5.684616e-06
756.2399999994332,5.73003e-05,756.2399999994332,5.227635e-06,756.2399999994332,1.665941e-05,756.2399999994332,6.019215e-06
756.2549999994332,5.71065e-05,756.2549999994332,5.165286e-06,756.2549999994332,1.661792e-05,756.2549999994332,6.098266e-06
756.2699999994331,5.735239e-05,756.2699999994331,5.449287e-06,756.2699999994331,1.605046e-05,756.2699999994331,6.360578e-06
756.2849999994331,5.742579e-05,756.2849999994331,6.437625e-06,756.2849999994331,1.597921e-05,756.2849999994331,6.33617e-06
756.2999999994331,5.565917e-05,756.2999999994331,6.533196e-06,756.2999999994331,1.658228e-05,756.2999999994331,6.146583e-06
756.3149999994331,5.252635e-05,756.3149999994331,6.961192e-06,756.3149999994331,1.658058e-05,756.3149999994331,6.705572e-06
756.3299999994331,4.599835e-05,756.3299999994331,7.392992e-06,756.3299999994331,1.691867e-05,756.3299999994331,7.047669e-06
756.3449999994331,3.162923e-05,756.3449999994331,7.977696e-06,756.3449999994331,1.726891e-05,756.3449999994331,7.197973e-06
756.3599999994331,2.792004e-05,756.3599999994331,8.425965e-06,756.3599999994331,1.70431e-05,756.3599999994331,7.188182e-06
756.374999999433,2.75283e-05,756.374999999433,8.76681e-06,756.374999999433,1.653294e-05,756.374999999433,7.22337e-06
756.389999999433,2.599659e-05,756.389999999433,9.007736e-06,756.389999999433,1.693781e-05,756.389999999433,7.375824e-06
756.404999999433,2.483431e-05,756.404999999433,9.006171e-06,756.404999999433,1.70216e-05,756.404999999433,7.446153e-06
756.419999999433,2.474795e-05,756.419999999433,9.074732e-06,756.419999999433,1.706293e-05,756.419999999433,7.27777e-06
756.434999999433,2.427265e-05,756.434999999433,9.08404e-06,756.434999999433,1.841223e-05,756.434999999433,7.3106e-06
756.449999999433,2.502249e-05,756.449999999433,9.190417e-06,756.449999999433,1.72958e-05,756.449999999433,7.373913e-06
756.464999999433,2.502136e-05,756.464999999433,9.097987e-06,756.464999999433,1.752076e-05,756.464999999433,7.40061e-06
756.479999999433,2.432482e-05,756.479999999433,8.927624e-06,756.479999999433,1.774525e-05,756.479999999433,7.453716e-06
756.4949999994329,2.339315e-05,756.4949999994329,8.8754e-06,756.4949999994329,1.788756e-05,756.4949999994329,7.158726e-06
756.5099999994329,2.342083e-05,756.5099999994329,8.757163e-06,756.5099999994329,1.734054e-05,756.5099999994329,7.254505e-06
756.5249999994329,2.33588e-05,756.5249999994329,8.495891e-06,756.5249999994329,1.770471e-05,756.5249999994329,6.932803e-06
756.5399999994329,2.29788e-05,756.5399999994329,8.016449e-06,756.5399999994329,1.779044e-05,756.5399999994329,6.908378e-06
756.5549999994329,2.30388e-05,756.5549999994329,7.98652e-06,756.5549999994329,1.736408e-05,756.5549999994329,6.809799e-06
756.5699999994329,2.311754e-05,756.5699999994329,7.190141e-06,756.5699999994329,1.71773e-05,756.5699999994329,6.356147e-06
756.5849999994329,2.258118e-05,756.5849999994329,6.912455e-06,756.5849999994329,1.656443e-05,756.5849999994329,5.795054e-06
756.5999999994328,2.034649e-05,756.5999999994328,6.030905e-06,756.5999999994328,1.613799e-05,756.5999999994328,5.898653e-06
756.6149999994328,2.021172e-05,756.6149999994328,5.56946e-06,756.6149999994328,1.607677e-05,756.6149999994328,6.044903e-06
756.6299999994328,2.043422e-05,756.6299999994328,5.392116e-06,756.6299999994328,1.565144e-05,756.6299999994328,5.865124e-06
756.6449999994328,2.00564e-05,756.6449999994328,1.054382e-05,756.6449999994328,1.483639e-05,756.6449999994328,5.874723e-06
756.6599999994328,1.967133e-05,756.6599999994328,1.212239e-05,756.6599999994328,1.457102e-05,756.6599999994328,6.075122e-06
756.6749999994328,1.983109e-05,756.6749999994328,1.322499e-05,756.6749999994328,1.355324e-05,756.6749999994328,6.086705e-06
756.6899999994328,1.954345e-05,756.6899999994328,1.322712e-05,756.6899999994328,1.217688e-05,756.6899999994328,6.417902e-06
756.7049999994327,2.011391e-05,756.7049999994327,1.326221e-05,756.7049999994327,1.201618e-05,756.7049999994327,6.842817e-06
756.7199999994327,1.952181e-05,756.7199999994327,1.335958e-05,756.7199999994327,1.161197e-05,756.7199999994327,6.809799e-06
756.7349999994327,1.962329e-05,756.7349999994327,1.337854e-05,756.7349999994327,1.066734e-05,756.7349999994327,6.707672e-06
756.7499999994327,1.956578e-05,756.7499999994327,1.33817e-05,756.7499999994327,1.058515e-05,756.7499999994327,6.869526e-06
756.7649999994327,1.92676e-05,756.7649999994327,1.334375e-05,756.7649999994327,1.006116e-05,756.7649999994327,6.922637e-06
756.7799999994327,1.776667e-05,756.7799999994327,1.336274e-05,756.7799999994327,8.892842e-06,756.7799999994327,7.451826e-06
756.7949999994327,1.806389e-05,756.7949999994327,1.334586e-05,756.7949999994327,8.637307e-06,756.7949999994327,7.757469e-06
756.8099999994326,1.780152e-05,756.8099999994326,1.335114e-05,756.8099999994326,9.466757e-06,756.8099999994326,7.680822e-06
756.8249999994326,1.860706e-05,756.8249999994326,1.330675e-05,756.8249999994326,9.407047e-06,756.8249999994326,7.732004e-06
756.8399999994326,1.893054e-05,756.8399999994326,1.332791e-05,756.8399999994326,9.208791e-06,756.8399999994326,8.135063e-06
756.8549999994326,1.875861e-05,756.8549999994326,1.329192e-05,756.8549999994326,8.965412e-06,756.8549999994326,8.231461e-06
756.8699999994326,1.836243e-05,756.8699999994326,1.331416e-05,756.8699999994326,8.573465e-06,756.8699999994326,8.048017e-06
756.8849999994326,1.766967e-05,756.8849999994326,1.177101e-05,756.8849999994326,9.024921e-06,756.8849999994326,7.95825e-06
756.8999999994326,1.740217e-05,756.8999999994326,9.536437e-06,756.8999999994326,9.38606e-06,756.8999999994326,8.088174e-06
756.9149999994326,1.55222e-05,756.9149999994326,6.627389e-06,756.9149999994326,9.655344e-06,756.9149999994326,8.018206e-06
756.9299999994325,1.572686e-05,756.9299999994325,5.790191e-06,756.9299999994325,9.280408e-06,756.9299999994325,8.089915e-06
756.9449999994325,1.489609e-05,756.9449999994325,5.627332e-06,756.9449999994325,9.387561e-06,756.9449999994325,7.629297e-06
756.9599999994325,1.435283e-05,756.9599999994325,5.60727e-06,756.9599999994325,9.450374e-06,756.9599999994325,7.483893e-06
756.9749999994325,1.436264e-05,756.9749999994325,5.441526e-06,756.9749999994325,9.743934e-06,756.9749999994325,7.451826e-06
756.9899999994325,1.422467e-05,756.9899999994325,5.34752e-06,756.9899999994325,1.036325e-05,756.9899999994325,7.465047e-06
757.0049999994325,1.406232e-05,757.0049999994325,5.275916e-06,757.0049999994325,1.101173e-05,757.0049999994325,7.178377e-06
757.0199999994325,1.395069e-05,757.0199999994325,5.495621e-06,757.0199999994325,1.110853e-05,757.0199999994325,7.213613e-06
757.0349999994324,1.37411e-05,757.0349999994324,5.428567e-06,757.0349999994324,1.190665e-05,757.0349999994324,7.075597e-06
757.0499999994324,1.406432e-05,757.0499999994324,5.259872e-06,757.0499999994324,1.214561e-05,757.0499999994324,7.085544e-06
757.0649999994324,1.37493e-05,757.0649999994324,5.257193e-06,757.0649999994324,1.133821e-05,757.0649999994324,7.15282e-06
757.0799999994324,1.3451e-05,757.0799999994324,5.321112e-06,757.0799999994324,1.206648e-05,757.0799999994324,7.170523e-06
757.0949999994324,1.317376e-05,757.0949999994324,5.392116e-06,757.0949999994324,1.241404e-05,757.0949999994324,6.559019e-06
757.1099999994324,1.328026e-05,757.1099999994324,5.363302e-06,757.1099999994324,1.264452e-05,757.1099999994324,6.593293e-06
757.1249999994324,1.319513e-05,757.1249999994324,5.140683e-06,757.1249999994324,1.252925e-05,757.1249999994324,6.644371e-06
757.1399999994323,1.300263e-05,757.1399999994323,6.049562e-06,757.1399999994323,1.233778e-05,757.1399999994323,6.671875e-06
757.1549999994323,1.289165e-05,757.1549999994323,6.782854e-06,757.1549999994323,1.214097e-05,757.1549999994323,6.554722e-06
757.1699999994323,1.278963e-05,757.1699999994323,6.914493e-06,757.1699999994323,1.339012e-05,757.1699999994323,6.526725e-06
757.1849999994323,1.284787e-05,757.1849999994323,7.053663e-06,757.1849999994323,1.376671e-05,757.1849999994323,6.511599e-06
757.1999999994323,1.308255e-05,757.1999999994323,6.981399e-06,757.1999999994323,1.378511e-05,757.1999999994323,6.734918e-06
757.2149999994323,1.314593e-05,757.2149999994323,6.914493e-06,757.2149999994323,1.44155e-05,757.2149999994323,6.881819e-06
757.2299999994323,1.327071e-05,757.2299999994323,6.97938e-06,757.2299999994323,1.443504e-05,757.2299999994323,6.934835e-06
757.2449999994323,1.317269e-05,757.2449999994323,7.22337e-06,757.2449999994323,1.424248e-05,757.2449999994323,7.063642e-06
757.2599999994322,1.338802e-05,757.2599999994322,7.144938e-06,757.2599999994322,1.412329e-05,757.2599999994322,7.248678e-06
757.2749999994322,1.303941e-05,757.2749999994322,7.133099e-06,757.2749999994322,1.431548e-05,757.2749999994322,7.762914e-06
757.2899999994322,1.297986e-05,757.2899999994322,7.156758e-06,757.2899999994322,1.367534e-05,757.2899999994322,7.485775e-06
757.3049999994322,1.289274e-05,757.3049999994322,7.203842e-06,757.3049999994322,1.385341e-05,757.3049999994322,7.375824e-06
757.3199999994322,1.314593e-05,757.3199999994322,7.184261e-06,757.3199999994322,1.417705e-05,757.3199999994322,7.474476e-06
757.3349999994322,1.233092e-05,757.3349999994322,7.099447e-06,757.3349999994322,1.381879e-05,757.3349999994322,7.41962e-06
757.3499999994322,1.255508e-05,757.3499999994322,7.180339e-06,757.3499999994322,1.408534e-05,757.3499999994322,7.415822e-06
757.3649999994321,1.269566e-05,757.3649999994321,7.19993e-06,757.3649999994321,1.404127e-05,757.3649999994321,7.404416e-06
757.3799999994321,1.282153e-05,757.3799999994321,6.393712e-06,757.3799999994321,1.428297e-05,757.3799999994321,7.385367e-06
757.3949999994321,1.284129e-05,757.3949999994321,5.991066e-06,757.3949999994321,1.451581e-05,757.3949999994321,7.451826e-06
757.4099999994321,1.259429e-05,757.4099999994321,5.241091e-06,757.4099999994321,1.376773e-05,757.4099999994321,7.542018e-06
757.4249999994321,1.241631e-05,757.4249999994321,4.928026e-06,757.4249999994321,1.314807e-05,757.4249999994321,7.434793e-06
757.4399999994321,1.278853e-05,757.4399999994321,4.905105e-06,757.4399999994321,1.310085e-05,757.4399999994321,7.15085e-06
757.4549999994321,1.287853e-05,757.4549999994321,4.967884e-06,757.4549999994321,1.307609e-05,757.4549999994321,7.22532e-06
757.469999999432,1.325053e-05,757.469999999432,5.085583e-06,757.469999999432,1.314164e-05,757.469999999432,7.653262e-06
757.484999999432,1.332473e-05,757.484999999432,5.113207e-06,757.484999999432,1.298528e-05,757.484999999432,7.60896e-06
757.499999999432,1.345728e-05,757.499999999432,5.110451e-06,757.499999999432,1.27455e-05,757.499999999432,7.551351e-06
757.514999999432,1.360925e-05,757.514999999432,5.334332e-06,757.514999999432,1.232407e-05,757.514999999432,6.908378e-06
757.529999999432,1.361856e-05,757.529999999432,5.405162e-06,757.529999999432,1.224724e-05,757.529999999432,6.472542e-06
757.544999999432,1.29527e-05,757.544999999432,5.551726e-06,757.544999999432,1.212471e-05,757.544999999432,6.331722e-06
757.559999999432,1.278853e-05,757.559999999432,5.556798e-06,757.559999999432,1.109076e-05,757.559999999432,6.426676e-06
757.574999999432,1.263337e-05,757.574999999432,5.848288e-06,757.574999999432,1.112373e-05,757.574999999432,6.365006e-06
757.5899999994319,1.21711e-05,757.5899999994319,6.075122e-06,757.5899999994319,1.066338e-05,757.5899999994319,6.435437e-06
757.6049999994319,1.197625e-05,757.6049999994319,6.528882e-06,757.6049999994319,1.023468e-05,757.6049999994319,6.356147e-06
757.6199999994319,1.298311e-05,757.6199999994319,6.688745e-06,757.6199999994319,1.064487e-05,757.6199999994319,6.338393e-06
757.6349999994319,1.323457e-05,757.6349999994319,6.871577e-06,757.6349999994319,1.023055e-05,757.6349999994319,6.302733e-06
757.6499999994319,1.332896e-05,757.6499999994319,7.111343e-06,757.6499999994319,9.792964e-06,757.6499999994319,6.194524e-06
757.6649999994319,1.353764e-05,757.6649999994319,7.406318e-06,757.6649999994319,9.863196e-06,757.6649999994319,6.160319e-06
757.6799999994319,1.354908e-05,757.6799999994319,7.56626e-06,757.6799999994319,9.927257e-06,757.6799999994319,6.54612e-06
757.6949999994318,1.290694e-05,757.6949999994318,7.56626e-06,757.6949999994318,1.004715e-05,757.6949999994318,6.526725e-06
757.7099999994318,1.238791e-05,757.7099999994318,7.440475e-06,757.7099999994318,9.735256e-06,757.7099999994318,6.883865e-06
757.7249999994318,1.221154e-05,757.7249999994318,7.597844e-06,757.7249999994318,9.145859e-06,757.7249999994318,6.580461e-06
757.7399999994318,1.251462e-05,757.7399999994318,8.186846e-06,757.7399999994318,9.175076e-06,757.7399999994318,6.610363e-06
757.7549999994318,1.218035e-05,757.7549999994318,7.952937e-06,757.7549999994318,9.348464e-06,757.7549999994318,6.881819e-06
757.7699999994318,1.298962e-05,757.7699999994318,7.881768e-06,757.7699999994318,9.614407e-06,757.7699999994318,6.914493e-06
757.7849999994318,1.366915e-05,757.7849999994318,7.97063e-06,757.7849999994318,9.704822e-06,757.7849999994318,7.178377e-06
757.7999999994317,1.332051e-05,757.7999999994317,8.082948e-06,757.7999999994317,1.05251e-05,757.7999999994317,7.22727e-06
757.8149999994317,1.25562e-05,757.8149999994317,7.974164e-06,757.8149999994317,1.05184e-05,757.8149999994317,7.250621e-06
757.8299999994317,1.291021e-05,757.8299999994317,7.874616e-06,757.8299999994317,1.033057e-05,757.8299999994317,7.237009e-06
757.8449999994317,1.295379e-05,757.8449999994317,7.658783e-06,757.8449999994317,1.020711e-05,757.8449999994317,7.174451e-06
757.8599999994317,1.27753e-05,757.8599999994317,7.254505e-06,757.8599999994317,9.880319e-06,757.8599999994317,7.312527e-06
757.8749999994317,1.198213e-05,757.8749999994317,7.144938e-06,757.8749999994317,9.858911e-06,757.8749999994317,7.333686e-06
757.8899999994317,1.196566e-05,757.8899999994317,6.922637e-06,757.8899999994317,9.564462e-06,757.8899999994317,7.381551e-06
757.9049999994317,1.225529e-05,757.9049999994317,6.431058e-06,757.9049999994317,9.587998e-06,757.9049999994317,7.379642e-06
757.9199999994316,1.245595e-05,757.9199999994316,6.009847e-06,757.9199999994316,9.324323e-06,757.9199999994316,7.196016e-06
757.9349999994316,1.222307e-05,757.9349999994316,6.121322e-06,757.9349999994316,9.08404e-06,757.9349999994316,7.863876e-06
757.9499999994316,1.212355e-05,757.9499999994316,6.33617e-06,757.9499999994316,9.0374e-06,757.9499999994316,7.947621e-06
757.9649999994316,1.214097e-05,757.9649999994316,6.548272e-06,757.9649999994316,8.718472e-06,757.9649999994316,8.229749e-06
757.9799999994316,1.225989e-05,757.9799999994316,6.072803e-06,757.9799999994316,8.647087e-06,757.9799999994316,8.063755e-06
757.9949999994316,1.216878e-05,757.9949999994316,5.546649e-06,757.9949999994316,8.500864e-06,757.9949999994316,7.899621e-06
758.0099999994316,1.211192e-05,758.0099999994316,5.500745e-06,758.0099999994316,8.581677e-06,758.0099999994316,1.22507e-05
758.0249999994315,1.20396e-05,758.0249999994315,5.363302e-06,758.0249999994315,8.578393e-06,758.0249999994315,1.297335e-05
758.0399999994315,1.122458e-05,758.0399999994315,5.057808e-06,758.0399999994315,7.995334e-06,758.0399999994315,1.512321e-05
758.0549999994315,1.26211e-05,758.0549999994315,4.922306e-06,758.0549999994315,7.164627e-06,758.0549999994315,1.66501e-05
758.0699999994315,1.265343e-05,758.0699999994315,4.979213e-06,758.0699999994315,7.333686e-06,758.0699999994315,1.672102e-05
758.0849999994315,1.231492e-05,758.0849999994315,5.015856e-06,758.0849999994315,7.678988e-06,758.0849999994315,1.673113e-05
758.0999999994315,1.223459e-05,758.0999999994315,4.965048e-06,758.0999999994315,7.581139e-06,758.0999999994315,1.677401e-05
758.1149999994315,1.236287e-05,758.1149999994315,5.113207e-06,758.1149999994315,7.623756e-06,758.1149999994315,1.698432e-05
758.1299999994314,1.237426e-05,758.1299999994314,5.214144e-06,758.1299999994314,7.434793e-06,758.1299999994314,1.715432e-05
758.1449999994314,1.228858e-05,758.1449999994314,5.162558e-06,758.1449999994314,8.459336e-06,758.1449999994314,1.715432e-05
758.1599999994314,1.217688e-05,758.1599999994314,5.270573e-06,758.1599999994314,8.520726e-06,758.1599999994314,1.718796e-05
758.1749999994314,1.247742e-05,758.1749999994314,5.270573e-06,758.1749999994314,8.647087e-06,758.1749999994314,1.707696e-05
758.1899999994314,1.301779e-05,758.1899999994314,5.165286e-06,758.1899999994314,1.044718e-05,758.1899999994314,1.683269e-05
758.2049999994314,1.298094e-05,758.2049999994314,4.756387e-06,758.2049999994314,1.082595e-05,758.2049999994314,1.658823e-05
758.2199999994314,1.279954e-05,758.2199999994314,4.660651e-06,758.2199999994314,1.076985e-05,758.2199999994314,1.648686e-05
758.2349999994314,1.260547e-05,758.2349999994314,4.708762e-06,758.2349999994314,1.146915e-05,758.2349999994314,1.649455e-05
758.2499999994313,1.258422e-05,758.2499999994313,4.771172e-06,758.2499999994313,1.266011e-05,758.2499999994313,1.656188e-05
758.2649999994313,1.210262e-05,758.2649999994313,4.768218e-06,758.2649999994313,1.362477e-05,758.2649999994313,1.256293e-05
758.2799999994313,1.214793e-05,758.2799999994313,4.729657e-06,758.2799999994313,1.421971e-05,758.2799999994313,1.218266e-05
758.2949999994313,1.19232e-05,758.2949999994313,5.249148e-06,758.2949999994313,1.457295e-05,758.2949999994313,9.416029e-06
758.3099999994313,1.112247e-05,758.3099999994313,5.029879e-06,758.3099999994313,1.486769e-05,758.3099999994313,7.372003e-06
758.3249999994313,1.131458e-05,758.3249999994313,5.113207e-06,758.3249999994313,1.514648e-05,758.3249999994313,7.669811e-06
758.3399999994313,1.143717e-05,758.3399999994313,5.046655e-06,758.3399999994313,1.564063e-05,758.3399999994313,7.656943e-06
758.3549999994312,1.215024e-05,758.3549999994312,5.12971e-06,758.3549999994312,1.588283e-05,758.3549999994312,7.455606e-06
758.3699999994312,1.230691e-05,758.3699999994312,5.107694e-06,758.3699999994312,1.596422e-05,758.3699999994312,6.973323e-06
758.3849999994312,1.19232e-05,758.3849999994312,5.211442e-06,758.3849999994312,1.651247e-05,758.3849999994312,6.734918e-06
758.3999999994312,1.176263e-05,758.3999999994312,5.235713e-06,758.3999999994312,1.702243e-05,758.3999999994312,6.737009e-06
758.4149999994312,1.085454e-05,758.4149999994312,5.574516e-06,758.4149999994312,1.742644e-05,758.4149999994312,6.705572e-06
758.4299999994312,1.004995e-05,758.4299999994312,5.559333e-06,758.4299999994312,1.734298e-05,758.4299999994312,6.707672e-06
758.4449999994312,1.00275e-05,758.4449999994312,5.602244e-06,758.4449999994312,1.611702e-05,758.4449999994312,6.720261e-06
758.4599999994311,1.012397e-05,758.4599999994311,6.019215e-06,758.4599999994311,1.616415e-05,758.4599999994311,6.797376e-06
758.4749999994311,1.016008e-05,758.4749999994311,6.11902e-06,758.4749999994311,1.618331e-05,758.4749999994311,6.951067e-06
758.4899999994311,1.011979e-05,758.4899999994311,6.65708e-06,758.4899999994311,1.594656e-05,758.4899999994311,6.718165e-06
758.5049999994311,1.026079e-05,758.5049999994311,6.920602e-06,758.5049999994311,1.480978e-05,758.5049999994311,6.669763e-06
758.5199999994311,1.02553e-05,758.5199999994311,7.331766e-06,758.5199999994311,1.481549e-05,758.5199999994311,6.713969e-06
758.5349999994311,1.391125e-05,758.5349999994311,7.42721e-06,758.5349999994311,1.546947e-05,758.5349999994311,6.716067e-06
758.5499999994311,1.471436e-05,758.5499999994311,7.273898e-06,758.5499999994311,1.534238e-05,758.5499999994311,6.349495e-06
758.564999999431,1.481549e-05,758.564999999431,7.459384e-06,758.564999999431,1.508123e-05,758.564999999431,6.178585e-06
758.579999999431,1.461253e-05,758.579999999431,7.29903e-06,758.579999999431,1.486864e-05,758.579999999431,6.100575e-06
758.594999999431,1.499224e-05,758.594999999431,7.291306e-06,758.594999999431,1.436656e-05,758.594999999431,6.618881e-06
758.609999999431,1.591827e-05,758.609999999431,7.256447e-06,758.609999999431,1.433515e-05,758.609999999431,6.764137e-06
758.624999999431,1.5768e-05,758.624999999431,8.938661e-06,758.624999999431,1.383611e-05,758.624999999431,6.803591e-06
758.639999999431,1.685444e-05,758.639999999431,9.932932e-06,758.639999999431,1.345728e-05,758.639999999431,7.16266e-06
758.654999999431,1.839998e-05,758.654999999431,1.028547e-05,758.654999999431,1.191138e-05,758.654999999431,7.217518e-06
758.669999999431,1.88343e-05,758.669999999431,1.056384e-05,758.669999999431,1.170861e-05,758.669999999431,7.417721e-06
758.6849999994309,1.898107e-05,758.6849999994309,1.090374e-05,758.6849999994309,1.164588e-05,758.6849999994309,1.65193e-05
758.6999999994309,1.908764e-05,758.6999999994309,1.088564e-05,758.6999999994309,1.157795e-05,758.6999999994309,2.156128e-05
758.7149999994309,1.912377e-05,758.7149999994309,1.097457e-05,758.7149999994309,1.162288e-05,758.7149999994309,2.26963e-05
758.7299999994309,1.900703e-05,758.7299999994309,1.08701e-05,758.7299999994309,1.120323e-05,758.7299999994309,2.278364e-05
758.7449999994309,1.917306e-05,758.7449999994309,1.057184e-05,758.7449999994309,1.098996e-05,758.7449999994309,2.305591e-05
758.7599999994309,1.928806e-05,758.7599999994309,1.019606e-05,758.7599999994309,1.117175e-05,758.7599999994309,2.324697e-05
758.7749999994309,1.837087e-05,758.7749999994309,1.022504e-05,758.7749999994309,1.335008e-05,758.7749999994309,2.330809e-05
758.7899999994308,1.759697e-05,758.7899999994308,1.012258e-05,758.7899999994308,1.322073e-05,758.7899999994308,2.344187e-05
758.8049999994308,1.728195e-05,758.8049999994308,1.003452e-05,758.8049999994308,1.29842e-05,758.8049999994308,2.343406e-05
758.8199999994308,1.747971e-05,758.8199999994308,1.006536e-05,758.8199999994308,1.342899e-05,758.8199999994308,2.349949e-05
758.8349999994308,1.725013e-05,758.8349999994308,1.019606e-05,758.8349999994308,1.40041e-05,758.8349999994308,2.34677e-05
758.8499999994308,1.692117e-05,758.8499999994308,1.037955e-05,758.8499999994308,1.427212e-05,758.8499999994308,2.334191e-05
758.8649999994308,1.596422e-05,758.8649999994308,1.049427e-05,758.8649999994308,1.46568e-05,758.8649999994308,2.333648e-05
758.8799999994308,1.568201e-05,758.8799999994308,8.086432e-06,758.8799999994308,1.60074e-05,758.8799999994308,2.328632e-05
758.8949999994308,1.499036e-05,758.8949999994308,8.072484e-06,758.8949999994308,1.75545e-05,758.8949999994308,2.32718e-05
758.9099999994307,1.384629e-05,758.9099999994307,7.547619e-06,758.9099999994307,1.89833e-05,758.9099999994307,2.32609e-05
758.9249999994307,1.503352e-05,758.9249999994307,7.00758e-06,758.9249999994307,1.951387e-05,758.9249999994307,2.330628e-05
758.9399999994307,1.572596e-05,758.9399999994307,6.97938e-06,758.9399999994307,1.97021e-05,758.9399999994307,1.620941e-05
758.9549999994307,1.581172e-05,758.9549999994307,7.137048e-06,758.9549999994307,1.976634e-05,758.9549999994307,9.930095e-06
758.9699999994307,1.617983e-05,758.9699999994307,6.776621e-06,758.9699999994307,2.027574e-05,758.9699999994307,9.136613e-06
758.9849999994307,1.640292e-05,758.9849999994307,6.75163e-06,758.9849999994307,2.088155e-05,758.9849999994307,9.39656e-06
758.9999999994307,1.640292e-05,758.9999999994307,6.671875e-06,758.9999999994307,2.110433e-05,758.9999999994307,9.090241e-06
759.0149999994306,1.691034e-05,759.0149999994306,6.671875e-06,759.0149999994306,2.105019e-05,759.0149999994306,8.724932e-06
759.0299999994306,1.598274e-05,759.0299999994306,6.703471e-06,759.0299999994306,1.933985e-05,759.0299999994306,8.886504e-06
759.0449999994306,1.596157e-05,759.0449999994306,6.638008e-06,759.0449999994306,1.9657e-05,759.0449999994306,8.550433e-06
759.0599999994306,1.560095e-05,759.0599999994306,7.238955e-06,759.0599999994306,2.04893e-05,759.0599999994306,8.695822e-06
759.0749999994306,1.615805e-05,759.0749999994306,6.965238e-06,759.0749999994306,2.024446e-05,759.0749999994306,8.578393e-06
759.0899999994306,1.661792e-05,759.0899999994306,6.875675e-06,759.0899999994306,2.062293e-05,759.0899999994306,8.707154e-06
759.1049999994306,1.655082e-05,759.1049999994306,6.993494e-06,759.1049999994306,2.105287e-05,759.1049999994306,8.787673e-06
759.1199999994305,1.708933e-05,759.1199999994305,6.686639e-06,759.1199999994305,2.124338e-05,759.1199999994305,9.435456e-06
759.1349999994305,1.716418e-05,759.1349999994305,6.836638e-06,759.1349999994305,1.944807e-05,759.1349999994305,9.565934e-06
759.1499999994305,1.749179e-05,759.1499999994305,6.912455e-06,759.1499999994305,1.923101e-05,759.1499999994305,1.011562e-05
759.1649999994305,1.716171e-05,759.1649999994305,7.387274e-06,759.1649999994305,1.788914e-05,759.1649999994305,1.011283e-05
759.1799999994305,1.601092e-05,759.1799999994305,7.483893e-06,759.1799999994305,1.724442e-05,759.1799999994305,1.021952e-05
759.1949999994305,1.555484e-05,759.1949999994305,7.845942e-06,759.1949999994305,1.836013e-05,759.1949999994305,1.057983e-05
759.2099999994305,1.564333e-05,759.2099999994305,7.901403e-06,759.2099999994305,1.862219e-05,759.2099999994305,1.079729e-05
759.2249999994305,1.59333e-05,759.2249999994305,8.330127e-06,759.2249999994305,1.831558e-05,759.2249999994305,1.052376e-05
759.2399999994304,1.767047e-05,759.2399999994304,8.872225e-06,759.2399999994304,1.767047e-05,759.2399999994304,1.036189e-05
759.2549999994304,1.853955e-05,759.2549999994304,8.851561e-06,759.2549999994304,1.744421e-05,759.2549999994304,1.032512e-05
759.2699999994304,1.829326e-05,759.2699999994304,8.900759e-06,759.2699999994304,1.665349e-05,759.2699999994304,1.029232e-05
759.2849999994304,1.824931e-05,759.2849999994304,9.62173e-06,759.2849999994304,1.626233e-05,759.2849999994304,1.039582e-05
759.2999999994304,1.856309e-05,759.2999999994304,9.729466e-06,759.2999999994304,1.732429e-05,759.2999999994304,1.041883e-05
759.3149999994304,1.971353e-05,759.3149999994304,9.188883e-06,759.3149999994304,1.644323e-05,759.3149999994304,1.039717e-05
759.3299999994304,1.907657e-05,759.3299999994304,9.369536e-06,759.3299999994304,1.621114e-05,759.3299999994304,1.082595e-05
759.3449999994303,1.896845e-05,759.3449999994303,9.42201e-06,759.3449999994303,1.552401e-05,759.3449999994303,1.101301e-05
759.3599999994303,1.93209e-05,759.3599999994303,9.322813e-06,759.3599999994303,1.55494e-05,759.3599999994303,1.13096e-05
759.3749999994303,1.9176e-05,759.3749999994303,9.500919e-06,759.3749999994303,1.516599e-05,759.3749999994303,1.079598e-05
759.3899999994303,2.157304e-05,759.3899999994303,9.539391e-06,759.3899999994303,1.522995e-05,759.3899999994303,1.032239e-05
759.4049999994303,2.196261e-05,759.4049999994303,1.107296e-05,759.4049999994303,1.666448e-05,759.4049999994303,1.008912e-05
759.4199999994303,2.254372e-05,759.4199999994303,1.116166e-05,759.4199999994303,1.817273e-05,759.4199999994303,1.017809e-05
759.4349999994303,2.258867e-05,759.4349999994303,1.108949e-05,759.4349999994303,1.842294e-05,759.4349999994303,9.927257e-06
759.4499999994302,2.372678e-05,759.4499999994302,1.040936e-05,759.4499999994302,1.720107e-05,759.4499999994302,9.749715e-06
759.4649999994302,2.407803e-05,759.4649999994302,1.024705e-05,759.4649999994302,1.883654e-05,759.4649999994302,9.457824e-06
759.4799999994302,2.38594e-05,759.4799999994302,1.054515e-05,759.4799999994302,1.935368e-05,759.4799999994302,9.487566e-06
759.4949999994302,2.320694e-05,759.4949999994302,1.152673e-05,759.4949999994302,1.949871e-05,759.4949999994302,9.624658e-06
759.5099999994302,2.253685e-05,759.5099999994302,1.173145e-05,759.5099999994302,1.956218e-05,759.5099999994302,1.005416e-05
759.5249999994302,2.30962e-05,759.5249999994302,1.170861e-05,759.5249999994302,1.999027e-05,759.5249999994302,1.00975e-05
759.5399999994302,2.502418e-05,759.5399999994302,1.167246e-05,759.5399999994302,2.050098e-05,759.5399999994302,1.012118e-05
759.5549999994302,2.457201e-05,759.5549999994302,1.174945e-05,759.5549999994302,1.974994e-05,759.5549999994302,1.026628e-05
759.5699999994301,2.370302e-05,759.5699999994301,1.191611e-05,759.5699999994301,1.954921e-05,759.5699999994301,9.94002e-06
759.5849999994301,2.389244e-05,759.5849999994301,1.192793e-05,759.5849999994301,1.998675e-05,759.5849999994301,9.640744e-06
759.5999999994301,2.407803e-05,759.5999999994301,1.199623e-05,759.5999999994301,1.984174e-05,759.5999999994301,9.509811e-06
759.6149999994301,2.359879e-05,759.6149999994301,1.188178e-05,759.6149999994301,1.93835e-05,759.6149999994301,9.746825e-06
759.6299999994301,2.361789e-05,759.6299999994301,1.242765e-05,759.6299999994301,1.916424e-05,759.6299999994301,9.990908e-06
759.6449999994301,2.069725e-05,759.6449999994301,1.236059e-05,759.6449999994301,1.912966e-05,759.6449999994301,9.930095e-06
759.65999999943,2.03451e-05,759.65999999943,1.05585e-05,759.65999999943,1.676393e-05,759.65999999943,1.013509e-05
759.67499999943,2.057232e-05,759.67499999943,1.052777e-05,759.67499999943,1.693532e-05,759.67499999943,1.000922e-05
759.68999999943,2.026323e-05,759.68999999943,1.045796e-05,759.68999999943,1.750145e-05,759.68999999943,9.791525e-06
759.70499999943,1.823773e-05,759.70499999943,1.038904e-05,759.70499999943,1.729988e-05,759.70499999943,9.792964e-06
759.71999999943,1.847562e-05,759.71999999943,1.026628e-05,759.71999999943,1.483734e-05,759.71999999943,9.833158e-06
759.73499999943,1.796536e-05,759.73499999943,9.500919e-06,759.73499999943,1.477741e-05,759.73499999943,9.828859e-06
759.74999999943,1.722562e-05,759.74999999943,8.568535e-06,759.74999999943,1.464911e-05,759.74999999943,9.564462e-06
759.76499999943,1.768401e-05,759.76499999943,8.425965e-06,759.76499999943,1.483639e-05,759.76499999943,9.456335e-06
759.77999999943,1.414024e-05,759.77999999943,8.297934e-06,759.77999999943,1.532584e-05,759.77999999943,9.179681e-06
759.7949999994299,1.481739e-05,759.7949999994299,7.724713e-06,759.7949999994299,1.573939e-05,759.7949999994299,8.8754e-06
759.8099999994299,1.509057e-05,759.8099999994299,7.515824e-06,759.8099999994299,1.541748e-05,759.8099999994299,8.645458e-06
759.8249999994299,1.453714e-05,759.8249999994299,7.279705e-06,759.8249999994299,1.49659e-05,759.8249999994299,8.625883e-06
759.8399999994299,1.441257e-05,759.8399999994299,6.898175e-06,759.8399999994299,1.508777e-05,759.8399999994299,8.76681e-06
759.8549999994299,1.377387e-05,759.8549999994299,6.671875e-06,759.8549999994299,1.526598e-05,759.8549999994299,8.550433e-06
759.8699999994299,1.380656e-05,759.8699999994299,5.974584e-06,759.8699999994299,1.513252e-05,759.8699999994299,8.497549e-06
759.8849999994299,1.366812e-05,759.8849999994299,5.197909e-06,759.8849999994299,1.484209e-05,759.8849999994299,8.2229e-06
759.8999999994298,1.301238e-05,759.8999999994298,5.637336e-06,759.8999999994298,1.470191e-05,759.8999999994298,8.081204e-06
759.9149999994298,1.269344e-05,759.9149999994298,5.763367e-06,759.9149999994298,1.494895e-05,759.9149999994298,8.138525e-06
759.9299999994298,1.308148e-05,759.9299999994298,5.743781e-06,759.9299999994298,1.535431e-05,759.9299999994298,7.913874e-06
759.9449999994298,1.360925e-05,759.9449999994298,5.597212e-06,759.9449999994298,1.494895e-05,759.9449999994298,7.982992e-06
759.9599999994298,1.353348e-05,759.9599999994298,5.449287e-06,759.9599999994298,1.499505e-05,759.9599999994298,7.631143e-06
759.9749999994298,1.352931e-05,759.9749999994298,5.758477e-06,759.9749999994298,1.484399e-05,759.9749999994298,7.493299e-06
759.9899999994298,1.353036e-05,759.9899999994298,5.785323e-06,759.9899999994298,1.491216e-05,759.9899999994298,7.246734e-06
760.0049999994297,1.304265e-05,760.0049999994297,5.652309e-06,760.0049999994297,1.488947e-05,760.0049999994297,7.207752e-06
760.0199999994297,1.271451e-05,760.0199999994297,5.639834e-06,760.0199999994297,1.456134e-05,760.0199999994297,7.273898e-06
760.0349999994297,1.393452e-05,760.0349999994297,5.642331e-06,760.0349999994297,1.243784e-05,760.0349999994297,7.043671e-06
760.0499999994297,1.35522e-05,760.0499999994297,5.405162e-06,760.0499999994297,1.374008e-05,760.0499999994297,7.017624e-06
760.0649999994297,1.35875e-05,760.0649999994297,5.397339e-06,760.0649999994297,1.526598e-05,760.0649999994297,6.995509e-06
760.0799999994297,1.369901e-05,760.0799999994297,5.418178e-06,760.0799999994297,1.563883e-05,760.0799999994297,6.861319e-06
760.0949999994297,1.359372e-05,760.0949999994297,5.696992e-06,760.0949999994297,1.572148e-05,760.0949999994297,6.618881e-06
760.1099999994296,1.385341e-05,760.1099999994296,5.984008e-06,760.1099999994296,1.590676e-05,760.1099999994296,5.984008e-06
760.1249999994296,1.385646e-05,760.1249999994296,5.845879e-06,760.1249999994296,1.599595e-05,760.1249999994296,6.007502e-06
760.1399999994296,1.530837e-05,760.1399999994296,5.924864e-06,760.1399999994296,1.664757e-05,760.1399999994296,5.960421e-06
760.1549999994296,1.691784e-05,760.1549999994296,6.257873e-06,760.1549999994296,1.763935e-05,760.1549999994296,6.009847e-06
760.1699999994296,1.735029e-05,760.1699999994296,6.400318e-06,760.1699999994296,1.718878e-05,760.1699999994296,5.845879e-06
760.1849999994296,1.87007e-05,760.1849999994296,7.8907e-06,760.1849999994296,1.800765e-05,760.1849999994296,5.853103e-06
760.1999999994296,1.923174e-05,760.1999999994296,7.878193e-06,760.1999999994296,1.871575e-05,760.1999999994296,5.551726e-06
760.2149999994296,1.930047e-05,760.2149999994296,7.876405e-06,760.2149999994296,1.981474e-05,760.2149999994296,5.561867e-06
760.2299999994295,1.972711e-05,760.2299999994295,7.640368e-06,760.2299999994295,2.030768e-05,760.2299999994295,5.627332e-06
760.2449999994295,1.974067e-05,760.2449999994295,7.995334e-06,760.2449999994295,2.033887e-05,760.2449999994295,5.462197e-06
760.2599999994295,1.977703e-05,760.2599999994295,7.977696e-06,760.2599999994295,2.050648e-05,760.2599999994295,5.441526e-06
760.2749999994295,2.008308e-05,760.2749999994295,7.931653e-06,760.2749999994295,2.086873e-05,760.2749999994295,5.305204e-06
760.2899999994295,1.873306e-05,760.2899999994295,8.035755e-06,760.2899999994295,2.075638e-05,760.2899999994295,5.118714e-06
760.3049999994295,1.869015e-05,760.3049999994295,7.982992e-06,760.3049999994295,1.896771e-05,760.3049999994295,5.415577e-06
760.3199999994295,1.897662e-05,760.3199999994295,8.140256e-06,760.3199999994295,1.892607e-05,760.3199999994295,5.365928e-06
760.3349999994294,1.915174e-05,760.3349999994294,8.209184e-06,760.3349999994294,1.899962e-05,760.3349999994294,5.464775e-06
760.3499999994294,1.897439e-05,760.3499999994294,7.929877e-06,760.3499999994294,1.901814e-05,760.3499999994294,5.632336e-06
760.3649999994294,1.878412e-05,760.3649999994294,7.93343e-06,760.3649999994294,1.883879e-05,760.3649999994294,5.536481e-06
760.3799999994294,1.878487e-05,760.3799999994294,7.947621e-06,760.3799999994294,1.938277e-05,760.3799999994294,5.410373e-06
760.3949999994294,1.684022e-05,760.3949999994294,7.887128e-06,760.3949999994294,1.925005e-05,760.3949999994294,5.230329e-06
760.4099999994294,1.52964e-05,760.4099999994294,7.156758e-06,760.4099999994294,1.881709e-05,760.4099999994294,5.124215e-06
760.4249999994294,1.491593e-05,760.4249999994294,6.217223e-06,760.4249999994294,1.780627e-05,760.4249999994294,5.170737e-06
760.4399999994293,1.341429e-05,760.4399999994293,5.2679e-06,760.4399999994293,1.785367e-05,760.4399999994293,5.211442e-06
760.4549999994293,1.220346e-05,760.4549999994293,5.206033e-06,760.4549999994293,1.645265e-05,760.4549999994293,5.265225e-06
760.4699999994293,1.214793e-05,760.4699999994293,5.077266e-06,760.4699999994293,1.636767e-05,760.4699999994293,5.137942e-06
760.4849999994293,1.140264e-05,760.4849999994293,4.95937e-06,760.4849999994293,1.582953e-05,760.4849999994293,5.018664e-06
760.4999999994293,1.14667e-05,760.4999999994293,4.488202e-06,760.4999999994293,1.599155e-05,760.4999999994293,5.015856e-06
760.5149999994293,1.138533e-05,760.5149999994293,4.774123e-06,760.5149999994293,1.665433e-05,760.5149999994293,5.018664e-06
760.5299999994293,1.134691e-05,760.5299999994293,4.699779e-06,760.5299999994293,1.606888e-05,760.5299999994293,4.998978e-06
760.5449999994293,1.144948e-05,760.5449999994293,4.596741e-06,760.5449999994293,1.698266e-05,760.5449999994293,4.984868e-06
760.5599999994292,1.162894e-05,760.5599999994292,4.657627e-06,760.5599999994292,1.784735e-05,760.5599999994292,4.962209e-06
760.5749999994292,1.160347e-05,760.5749999994292,4.431347e-06,760.5749999994292,1.835092e-05,760.5749999994292,5.192486e-06
760.5899999994292,1.161318e-05,760.5899999994292,5.544109e-06,760.5899999994292,1.806467e-05,760.5899999994292,5.350154e-06
760.6049999994292,1.227138e-05,760.6049999994292,5.924864e-06,760.6049999994292,1.83609e-05,760.6049999994292,5.56946e-06
760.6199999994292,1.23275e-05,760.6199999994292,6.400318e-06,760.6199999994292,1.836933e-05,760.6199999994292,5.498184e-06
760.6349999994292,1.237084e-05,760.6349999994292,6.437625e-06,760.6349999994292,1.819752e-05,760.6349999994292,5.574516e-06
760.6499999994292,1.247855e-05,760.6499999994292,6.307202e-06,760.6499999994292,1.877962e-05,760.6499999994292,5.546649e-06
760.6649999994291,1.249096e-05,760.6649999994291,6.466009e-06,760.6649999994291,1.889777e-05,760.6649999994291,5.551726e-06
760.6799999994291,1.178655e-05,760.6799999994291,6.705572e-06,760.6799999994291,1.90714e-05,760.6799999994291,5.56946e-06
760.6949999994291,1.217341e-05,760.6949999994291,6.749543e-06,760.6949999994291,1.866149e-05,760.6949999994291,5.539025e-06
760.7099999994291,1.248871e-05,760.7099999994291,6.749543e-06,760.7099999994291,1.891118e-05,760.7099999994291,5.701935e-06
760.7249999994291,1.274881e-05,760.7249999994291,6.79323e-06,760.7249999994291,1.909944e-05,760.7249999994291,5.831403e-06
760.7399999994291,1.284019e-05,760.7399999994291,6.848989e-06,760.7399999994291,1.892086e-05,760.7399999994291,5.639834e-06
760.7549999994291,1.319833e-05,760.7549999994291,6.747456e-06,760.7549999994291,1.923394e-05,760.7549999994291,5.627332e-06
760.769999999429,1.311911e-05,760.769999999429,6.608231e-06,760.769999999429,1.841146e-05,760.769999999429,5.751133e-06
760.784999999429,1.271229e-05,760.784999999429,6.753716e-06,760.784999999429,1.821686e-05,760.784999999429,5.804769e-06
760.799999999429,1.262445e-05,760.799999999429,6.887957e-06,760.799999999429,1.801e-05,760.799999999429,5.795054e-06
760.814999999429,1.21514e-05,760.814999999429,6.722357e-06,760.814999999429,1.728521e-05,760.814999999429,5.546649e-06
760.829999999429,1.178058e-05,760.829999999429,6.713969e-06,760.829999999429,1.826706e-05,760.829999999429,5.56693e-06
760.844999999429,1.141992e-05,760.844999999429,5.927241e-06,760.844999999429,1.889777e-05,760.844999999429,5.041069e-06
760.859999999429,1.13779e-05,760.859999999429,5.516089e-06,760.859999999429,1.918407e-05,760.859999999429,5.132455e-06
760.874999999429,1.153529e-05,760.874999999429,5.057808e-06,760.874999999429,2.24341e-05,760.874999999429,5.107694e-06
760.8899999994289,1.168573e-05,760.8899999994289,5.137942e-06,760.8899999994289,2.200106e-05,760.8899999994289,5.12971e-06
760.9049999994289,1.20396e-05,760.9049999994289,5.159829e-06,760.9049999994289,2.116498e-05,760.9049999994289,5.088352e-06
760.9199999994289,1.188889e-05,760.9199999994289,4.95937e-06,760.9199999994289,2.149191e-05,760.9199999994289,5.449287e-06
760.9349999994289,1.167246e-05,760.9349999994289,4.928026e-06,760.9349999994289,2.254872e-05,760.9349999994289,5.848288e-06
760.9499999994289,1.157916e-05,760.9499999994289,5.113207e-06,760.9499999994289,2.22968e-05,760.9499999994289,6.021555e-06
760.9649999994289,1.116671e-05,760.9649999994289,5.310512e-06,760.9649999994289,2.195234e-05,760.9649999994289,5.862722e-06
760.9799999994289,1.094243e-05,760.9799999994289,5.792623e-06,760.9799999994289,2.324879e-05,760.9799999994289,5.81689e-06
760.9949999994288,1.095144e-05,760.9949999994288,5.799914e-06,760.9949999994288,2.542126e-05,760.9949999994288,5.912964e-06
761.0099999994288,1.018915e-05,761.0099999994288,6.026232e-06,761.0099999994288,2.516451e-05,761.0099999994288,5.976941e-06
761.0249999994288,1.045392e-05,761.0249999994288,6.016875e-06,761.0249999994288,2.524444e-05,761.0249999994288,5.929618e-06
761.0399999994288,1.038768e-05,761.0399999994288,5.782887e-06,761.0399999994288,2.502249e-05,761.0399999994288,5.917727e-06
761.0549999994288,1.053981e-05,761.0549999994288,5.901041e-06,761.0549999994288,2.608315e-05,761.0549999994288,5.637336e-06
761.0699999994288,1.061306e-05,761.0699999994288,5.874723e-06,761.0699999994288,2.661827e-05,761.0699999994288,5.931993e-06
761.0849999994288,1.093986e-05,761.0849999994288,6.296025e-06,761.0849999994288,2.619147e-05,761.0849999994288,6.093644e-06
761.0999999994287,1.092568e-05,761.0999999994287,6.448557e-06,761.0999999994287,2.603612e-05,761.0999999994287,6.287069e-06
761.1149999994287,1.059447e-05,761.1149999994287,6.387099e-06,761.1149999994287,2.534301e-05,761.1149999994287,6.273611e-06
761.1299999994287,1.068713e-05,761.1299999994287,6.356147e-06,761.1299999994287,2.319115e-05,761.1299999994287,6.284828e-06
761.1449999994287,1.05505e-05,761.1449999994287,6.384893e-06,761.1449999994287,2.343406e-05,761.1449999994287,6.158032e-06
761.1599999994287,1.043909e-05,761.1599999994287,6.275856e-06,761.1599999994287,2.301494e-05,761.1599999994287,6.284828e-06
761.1749999994287,1.050232e-05,761.1749999994287,6.224016e-06,761.1749999994287,2.295058e-05,761.1749999994287,5.986361e-06
761.1899999994287,1.08025e-05,761.1899999994287,6.235322e-06,761.1899999994287,2.19594e-05,761.1899999994287,5.689569e-06
761.2049999994287,1.010865e-05,761.2049999994287,6.275856e-06,761.2049999994287,2.174215e-05,761.2049999994287,5.604757e-06
761.2199999994286,9.890295e-06,761.2199999994286,6.095956e-06,761.2199999994286,2.251433e-05,761.2199999994286,5.564399e-06
761.2349999994286,9.914478e-06,761.2349999994286,5.802342e-06,761.2349999994286,1.909502e-05,761.2349999994286,5.922486e-06
761.2499999994286,9.937185e-06,761.2499999994286,5.738873e-06,761.2499999994286,1.874358e-05,761.2499999994286,6.019215e-06
761.2649999994286,1.004995e-05,761.2649999994286,5.516089e-06,761.2649999994286,1.87007e-05,761.2649999994286,6.042573e-06
761.2799999994286,9.821691e-06,761.2799999994286,5.490492e-06,761.2799999994286,1.883355e-05,761.2799999994286,6.135114e-06
761.2949999994286,9.864624e-06,761.2949999994286,5.487926e-06,761.2949999994286,1.927053e-05,761.2949999994286,6.185421e-06
761.3099999994286,1.001907e-05,761.3099999994286,5.34752e-06,761.3099999994286,1.834324e-05,761.3099999994286,6.056544e-06
761.3249999994285,1.008354e-05,761.3249999994285,5.2679e-06,761.3249999994285,1.747084e-05,761.3249999994285,5.836232e-06
761.3399999994285,9.868907e-06,761.3399999994285,5.262549e-06,761.3399999994285,1.775636e-05,761.3399999994285,5.828986e-06
761.3549999994285,9.624658e-06,761.3549999994285,5.709342e-06,761.3549999994285,1.779123e-05,761.3549999994285,5.729046e-06
761.3699999994285,9.43695e-06,761.3699999994285,5.920107e-06,761.3699999994285,1.794967e-05,761.3699999994285,5.898653e-06
761.3849999994285,9.791525e-06,761.3849999994285,6.291548e-06,761.3849999994285,1.867507e-05,761.3849999994285,5.785323e-06
761.3999999994285,9.414533e-06,761.3999999994285,1.266344e-05,761.3999999994285,1.874208e-05,761.3999999994285,5.836232e-06
761.4149999994285,9.629048e-06,761.4149999994285,1.371031e-05,761.4149999994285,1.914659e-05,761.4149999994285,5.669728e-06
761.4299999994284,9.432471e-06,761.4299999994284,1.475738e-05,761.4299999994284,1.869391e-05,761.4299999994284,5.469929e-06
761.4449999994284,9.904527e-06,761.4449999994284,1.489325e-05,761.4449999994284,1.868864e-05,761.4449999994284,5.467352e-06
761.4599999994284,1.015176e-05,761.4599999994284,1.485252e-05,761.4599999994284,1.865016e-05,761.4599999994284,5.451871e-06
761.4749999994284,1.022641e-05,761.4749999994284,1.499317e-05,761.4749999994284,1.825857e-05,761.4749999994284,5.493057e-06
761.4899999994284,1.088564e-05,761.4899999994284,1.506254e-05,761.4899999994284,1.9081e-05,761.4899999994284,5.22494e-06
761.5049999994284,1.141375e-05,761.5049999994284,1.507936e-05,761.5049999994284,1.94857e-05,761.5049999994284,5.549188e-06
761.5199999994284,1.136179e-05,761.5199999994284,1.510084e-05,761.5199999994284,2.000507e-05,761.5199999994284,5.571988e-06
761.5349999994284,1.120951e-05,761.5349999994284,1.514555e-05,761.5349999994284,1.995713e-05,761.5349999994284,5.368553e-06
761.5499999994283,1.138409e-05,761.5499999994283,1.511389e-05,761.5499999994283,1.951965e-05,761.5499999994283,5.760922e-06
761.5649999994283,1.147161e-05,761.5649999994283,1.514369e-05,761.5649999994283,1.898404e-05,761.5649999994283,5.765811e-06
761.5799999994283,1.14544e-05,761.5799999994283,1.509337e-05,761.5799999994283,1.850305e-05,761.5799999994283,6.230803e-06
761.5949999994283,1.167608e-05,761.5949999994283,1.53644e-05,761.5949999994283,1.846647e-05,761.5949999994283,6.728641e-06
761.6099999994283,1.206765e-05,761.6099999994283,1.518363e-05,761.6099999994283,1.855475e-05,761.6099999994283,7.071614e-06
761.6249999994283,1.244803e-05,761.6249999994283,1.501946e-05,761.6249999994283,1.780943e-05,761.6249999994283,7.219469e-06
761.6399999994283,1.22461e-05,761.6399999994283,1.165918e-05,761.6399999994283,1.666702e-05,761.6399999994283,7.256447e-06
761.6549999994282,1.232064e-05,761.6549999994282,9.567407e-06,761.6549999994282,1.759858e-05,761.6549999994282,7.3106e-06
761.6699999994282,1.212355e-05,761.6699999994282,7.762914e-06,761.6699999994282,1.774127e-05,761.6699999994282,7.678988e-06
761.6849999994282,1.204896e-05,761.6849999994282,6.309435e-06,761.6849999994282,1.800765e-05,761.6849999994282,7.603404e-06
761.6999999994282,1.211076e-05,761.6999999994282,5.991066e-06,761.6999999994282,1.82385e-05,761.6999999994282,7.881768e-06
761.7149999994282,1.207115e-05,761.7149999994282,6.005157e-06,761.7149999994282,1.854943e-05,761.7149999994282,7.887128e-06
761.7299999994282,1.23936e-05,761.7299999994282,5.741327e-06,761.7299999994282,1.783393e-05,761.7299999994282,7.842351e-06
761.7449999994282,1.300371e-05,761.7449999994282,5.609782e-06,761.7449999994282,1.706128e-05,761.7449999994282,7.625604e-06
761.7599999994281,1.353556e-05,761.7599999994281,5.604757e-06,761.7599999994281,1.712391e-05,761.7599999994281,7.555081e-06
761.7749999994281,1.351473e-05,761.7749999994281,5.523745e-06,761.7749999994281,1.730313e-05,761.7749999994281,7.618211e-06
761.7899999994281,1.36475e-05,761.7899999994281,5.879517e-06,761.7899999994281,1.713707e-05,761.7899999994281,7.62745e-06
761.8049999994281,1.377489e-05,761.8049999994281,6.818068e-06,761.8049999994281,1.701415e-05,761.8049999994281,7.373913e-06
761.8199999994281,1.349804e-05,761.8199999994281,7.817162e-06,761.8199999994281,1.629608e-05,761.8199999994281,7.489538e-06
761.8349999994281,1.399303e-05,761.8349999994281,7.838757e-06,761.8349999994281,1.664418e-05,761.8349999994281,6.894089e-06
761.8499999994281,1.464815e-05,761.8499999994281,7.352869e-06,761.8499999994281,1.686614e-05,761.8499999994281,6.606099e-06
761.864999999428,1.451289e-05,761.864999999428,7.444261e-06,761.864999999428,1.744421e-05,761.864999999428,6.169459e-06
761.879999999428,1.462794e-05,761.879999999428,7.523317e-06,761.879999999428,1.750467e-05,761.879999999428,6.380479e-06
761.894999999428,1.481454e-05,761.894999999428,7.495178e-06,761.894999999428,1.754807e-05,761.894999999428,6.463831e-06
761.909999999428,1.487716e-05,761.909999999428,7.333686e-06,761.909999999428,1.719615e-05,761.909999999428,6.264623e-06
761.924999999428,1.586153e-05,761.924999999428,7.302889e-06,761.924999999428,1.726646e-05,761.924999999428,6.009847e-06
761.939999999428,1.592358e-05,761.939999999428,7.283574e-06,761.939999999428,1.831711e-05,761.939999999428,6.047233e-06
761.954999999428,1.588372e-05,761.954999999428,7.293238e-06,761.954999999428,1.818203e-05,761.954999999428,5.768253e-06
761.969999999428,1.571252e-05,761.969999999428,7.329844e-06,761.969999999428,1.782208e-05,761.969999999428,5.903427e-06
761.9849999994279,1.518178e-05,761.9849999994279,7.34712e-06,761.9849999994279,1.903443e-05,761.9849999994279,5.704405e-06
761.9999999994279,1.41223e-05,761.9999999994279,7.343284e-06,761.9999999994279,1.88515e-05,761.9999999994279,5.644828e-06
762.0149999994279,1.424742e-05,762.0149999994279,7.335607e-06,762.0149999994279,1.861614e-05,762.0149999994279,5.551726e-06
762.0299999994279,1.449444e-05,762.0299999994279,7.706456e-06,762.0299999994279,1.89469e-05,762.0299999994279,5.523745e-06
762.0449999994279,1.431745e-05,762.0449999994279,6.832516e-06,762.0449999994279,1.889553e-05,762.0449999994279,5.500745e-06
762.0599999994279,1.409534e-05,762.0599999994279,6.795303e-06,762.0599999994279,1.904257e-05,762.0599999994279,5.394728e-06
762.0749999994279,1.39749e-05,762.0749999994279,5.154366e-06,762.0749999994279,1.930412e-05,762.0749999994279,5.299891e-06
762.0899999994278,1.318231e-05,762.0899999994278,4.987693e-06,762.0899999994278,1.876762e-05,762.0899999994278,5.425972e-06
762.1049999994278,1.236287e-05,762.1049999994278,4.93374e-06,762.1049999994278,1.911271e-05,762.1049999994278,5.270573e-06
762.1199999994278,1.2527e-05,762.1199999994278,4.930884e-06,762.1199999994278,2.022775e-05,762.1199999994278,5.018664e-06
762.1349999994278,1.225529e-05,762.1349999994278,5.001795e-06,762.1349999994278,2.011601e-05,762.1349999994278,4.630328e-06
762.1499999994278,1.195742e-05,762.1499999994278,5.365928e-06,762.1499999994278,2.008167e-05,762.1499999994278,4.602866e-06
762.1649999994278,1.078031e-05,762.1649999994278,5.459618e-06,762.1649999994278,1.985593e-05,762.1649999994278,4.672725e-06
762.1799999994278,1.073711e-05,762.1799999994278,5.765811e-06,762.1799999994278,2.029311e-05,762.1799999994278,4.774123e-06
762.1949999994278,1.05705e-05,762.1949999994278,6.070483e-06,762.1949999994278,1.900999e-05,762.1949999994278,4.605925e-06
762.2099999994277,1.029779e-05,762.2099999994277,6.824264e-06,762.2099999994277,1.912671e-05,762.2099999994277,4.556728e-06
762.2249999994277,1.216299e-05,762.2249999994277,7.691819e-06,762.2249999994277,1.978771e-05,762.2249999994277,4.459865e-06
762.2399999994277,1.243671e-05,762.2399999994277,8.697441e-06,762.2399999994277,1.937478e-05,762.2399999994277,4.531929e-06
762.2549999994277,1.227482e-05,762.2549999994277,8.803689e-06,762.2549999994277,1.973567e-05,762.2549999994277,4.699779e-06
762.2699999994277,1.192911e-05,762.2699999994277,1.276758e-05,762.2699999994277,1.996136e-05,762.2699999994277,4.93374e-06
762.2849999994277,1.15974e-05,762.2849999994277,1.333953e-05,762.2849999994277,1.95557e-05,762.2849999994277,4.998978e-06
762.2999999994277,1.18152e-05,762.2999999994277,1.583309e-05,762.2999999994277,2.088493e-05,762.2999999994277,5.192486e-06
762.3149999994276,1.243331e-05,762.3149999994276,1.760898e-05,762.3149999994276,2.122746e-05,762.3149999994276,5.528843e-06
762.3299999994276,1.300588e-05,762.3299999994276,1.811994e-05,762.3299999994276,2.229111e-05,762.3299999994276,5.556798e-06
762.3449999994276,1.282702e-05,762.3449999994276,1.817738e-05,762.3449999994276,2.203177e-05,762.3449999994276,5.397339e-06
762.3599999994276,1.249885e-05,762.3599999994276,1.83248e-05,762.3599999994276,2.09368e-05,762.3599999994276,5.487926e-06
762.3749999994276,1.241404e-05,762.3749999994276,1.840993e-05,762.3749999994276,2.660027e-05,762.3749999994276,5.81689e-06
762.3899999994276,1.267234e-05,762.3899999994276,1.908616e-05,762.3899999994276,2.668328e-05,762.3899999994276,5.751133e-06
762.4049999994276,1.262891e-05,762.4049999994276,1.898107e-05,762.4049999994276,2.645903e-05,762.4049999994276,5.917727e-06
762.4199999994275,1.339328e-05,762.4199999994275,1.906475e-05,762.4199999994275,2.632987e-05,762.4199999994275,5.962784e-06
762.4349999994275,1.28654e-05,762.4349999994275,1.914512e-05,762.4349999994275,2.622319e-05,762.4349999994275,6.102884e-06
762.4499999994275,1.473254e-05,762.4499999994275,1.916865e-05,762.4499999994275,2.6355e-05,762.4499999994275,6.235322e-06
762.4649999994275,1.817738e-05,762.4649999994275,1.942198e-05,762.4649999994275,2.592986e-05,762.4649999994275,6.924671e-06
762.4799999994275,1.856082e-05,762.4799999994275,1.887987e-05,762.4799999994275,2.56469e-05,762.4799999994275,6.951067e-06
762.4949999994275,1.895062e-05,762.4949999994275,1.879237e-05,762.4949999994275,2.488361e-05,762.4949999994275,6.983416e-06
762.5099999994275,1.961827e-05,762.5099999994275,1.874884e-05,762.5099999994275,2.505962e-05,762.5099999994275,7.304818e-06
762.5249999994275,2.056205e-05,762.5249999994275,1.636164e-05,762.5249999994275,2.534023e-05,762.5249999994275,7.139021e-06
762.5399999994274,2.192602e-05,762.5399999994274,1.552946e-05,762.5399999994274,2.466927e-05,762.5399999994274,7.3106e-06
762.5549999994274,2.252559e-05,762.5549999994274,1.380962e-05,762.5549999994274,2.392838e-05,762.5549999994274,6.936866e-06
762.5699999994274,2.231448e-05,762.5699999994274,1.218844e-05,762.5699999994274,2.393485e-05,762.5699999994274,6.879772e-06
762.5849999994274,2.236367e-05,762.5849999994274,1.358542e-05,762.5849999994274,2.282379e-05,762.5849999994274,6.863372e-06
762.5999999994274,2.287866e-05,762.5999999994274,1.59041e-05,762.5999999994274,2.247614e-05,762.5999999994274,6.74119e-06
762.6149999994274,2.318812e-05,762.6149999994274,1.603202e-05,762.6149999994274,1.66611e-05,762.6149999994274,6.593293e-06
762.6299999994274,2.359043e-05,762.6299999994274,1.593419e-05,762.6299999994274,1.550495e-05,762.6299999994274,6.476893e-06
762.6449999994273,2.374518e-05,762.6449999994273,1.582775e-05,762.6449999994273,1.814791e-05,762.6449999994273,6.428867e-06
762.6599999994273,2.552909e-05,762.6599999994273,1.599595e-05,762.6599999994273,1.827014e-05,762.6599999994273,6.848989e-06
762.6749999994273,2.565789e-05,762.6749999994273,1.610303e-05,762.6749999994273,1.751754e-05,762.6749999994273,7.341366e-06
762.6899999994273,2.611931e-05,762.6899999994273,1.597392e-05,762.6899999994273,1.745874e-05,762.6899999994273,7.876405e-06
762.7049999994273,2.576527e-05,762.7049999994273,1.54056e-05,762.7049999994273,1.698847e-05,762.7049999994273,9.066966e-06
762.7199999994273,2.370896e-05,762.7199999994273,1.531848e-05,762.7199999994273,1.666448e-05,762.7199999994273,9.184283e-06
762.7349999994273,2.34761e-05,762.7349999994273,1.559644e-05,762.7349999994273,1.679331e-05,762.7349999994273,1.108822e-05
762.7499999994272,2.6426e-05,762.7499999994272,1.570983e-05,762.7499999994272,1.696357e-05,762.7499999994272,1.178177e-05
762.7649999994272,2.98021e-05,762.7649999994272,1.569278e-05,762.7649999994272,1.700256e-05,762.7649999994272,1.24966e-05
762.7799999994272,2.953908e-05,762.7799999994272,1.585709e-05,762.7799999994272,1.63625e-05,762.7799999994272,1.263672e-05
762.7949999994272,2.975575e-05,762.7949999994272,1.658568e-05,762.7949999994272,1.74232e-05,762.7949999994272,1.333425e-05
762.8099999994272,2.988942e-05,762.8099999994272,1.666194e-05,762.8099999994272,1.743856e-05,762.8099999994272,1.553762e-05
762.8249999994272,3.015546e-05,762.8249999994272,1.755851e-05,762.8249999994272,1.676141e-05,762.8249999994272,1.678996e-05
762.8399999994272,3.026783e-05,762.8399999994272,1.610303e-05,762.8399999994272,1.676729e-05,762.8399999994272,1.779835e-05
762.8549999994272,3.130287e-05,762.8549999994272,1.424545e-05,762.8549999994272,1.730476e-05,762.8549999994272,1.799043e-05
762.8699999994271,3.160606e-05,762.8699999994271,1.446428e-05,762.8699999994271,1.824082e-05,762.8699999994271,1.811917e-05
762.8849999994271,3.154673e-05,762.8849999994271,1.506348e-05,762.8849999994271,1.91804e-05,762.8849999994271,1.820526e-05
762.8999999994271,3.092984e-05,762.8999999994271,1.629003e-05,762.8999999994271,1.689284e-05,762.8999999994271,1.830249e-05
762.9149999994271,3.009467e-05,762.9149999994271,1.640206e-05,762.9149999994271,1.820758e-05,762.9149999994271,1.801156e-05
762.9299999994271,3.027109e-05,762.9299999994271,1.768003e-05,762.9299999994271,1.855475e-05,762.9299999994271,1.800061e-05
762.9449999994271,3.226375e-05,762.9449999994271,1.80186e-05,762.9449999994271,1.916718e-05,762.9449999994271,1.781022e-05
762.959999999427,3.322694e-05,762.959999999427,2.05504e-05,762.959999999427,1.921636e-05,762.959999999427,1.737706e-05
762.974999999427,3.260339e-05,762.974999999427,2.206244e-05,762.974999999427,1.986941e-05,762.974999999427,1.734866e-05
762.989999999427,3.457083e-05,762.989999999427,2.344248e-05,762.989999999427,2.221071e-05,762.989999999427,1.607852e-05
763.004999999427,3.177852e-05,763.004999999427,2.666215e-05,763.004999999427,2.459779e-05,763.004999999427,1.565414e-05
763.019999999427,2.86924e-05,763.019999999427,2.757074e-05,763.019999999427,2.456742e-05,763.019999999427,1.515206e-05
763.034999999427,2.867914e-05,763.034999999427,2.742679e-05,763.034999999427,2.583734e-05,763.034999999427,1.47421e-05
763.049999999427,2.817118e-05,763.049999999427,2.77921e-05,763.049999999427,2.58466e-05,763.049999999427,1.481073e-05
763.064999999427,2.803886e-05,763.064999999427,2.673022e-05,763.064999999427,2.735943e-05,763.064999999427,1.237767e-05
763.079999999427,2.890615e-05,763.079999999427,2.783161e-05,763.079999999427,2.841614e-05,763.079999999427,1.042694e-05
763.0949999994269,2.884224e-05,763.0949999994269,2.898354e-05,763.0949999994269,2.921879e-05,763.0949999994269,1.040259e-05
763.1099999994269,2.819518e-05,763.1099999994269,2.900297e-05,763.1099999994269,3.015172e-05,763.1099999994269,1.056651e-05
763.1249999994269,2.990874e-05,763.1249999994269,2.893002e-05,763.1249999994269,2.886616e-05,763.1249999994269,1.072923e-05
763.1399999994269,3.375272e-05,763.1399999994269,2.800468e-05,763.1399999994269,2.925733e-05,763.1399999994269,1.161075e-05
763.1549999994269,3.458753e-05,763.1549999994269,2.745349e-05,763.1549999994269,2.868749e-05,763.1549999994269,1.152551e-05
763.1699999994269,3.512503e-05,763.1699999994269,2.759117e-05,763.1699999994269,2.83392e-05,763.1699999994269,1.183188e-05
763.1849999994269,3.452516e-05,763.1849999994269,2.676551e-05,763.1849999994269,2.901754e-05,763.1849999994269,1.178177e-05
763.1999999994268,3.269098e-05,763.1999999994268,2.66611e-05,763.1999999994268,2.991062e-05,763.1999999994268,1.539462e-05
763.2149999994268,3.202711e-05,763.2149999994268,2.376653e-05,763.2149999994268,3.030411e-05,763.2149999994268,1.594744e-05
763.2299999994268,3.448883e-05,763.2299999994268,2.256808e-05,763.2299999994268,2.897673e-05,763.2299999994268,1.636595e-05
763.2449999994268,3.424865e-05,763.2449999994268,1.969209e-05,763.2449999994268,2.754211e-05,763.2449999994268,1.65048e-05
763.2599999994268,3.442588e-05,763.2599999994268,1.691867e-05,763.2599999994268,2.629454e-05,763.2599999994268,1.875711e-05
763.2749999994268,3.410811e-05,763.2749999994268,1.635906e-05,763.2749999994268,2.659444e-05,763.2749999994268,1.918481e-05
763.2899999994268,3.385399e-05,763.2899999994268,1.598009e-05,763.2899999994268,2.470522e-05,763.2899999994268,1.944807e-05
763.3049999994267,3.468839e-05,763.3049999994267,1.487053e-05,763.3049999994267,2.675919e-05,763.3049999994267,1.968636e-05
763.3199999994267,3.603368e-05,763.3199999994267,1.509617e-05,763.3199999994267,2.536079e-05,763.3199999994267,2.123144e-05
763.3349999994267,3.601139e-05,763.3349999994267,1.121705e-05,763.3349999994267,2.418544e-05,763.3349999994267,2.160175e-05
763.3499999994267,3.630514e-05,763.3499999994267,1.039988e-05,763.3499999994267,2.304308e-05,763.3499999994267,2.303513e-05
763.3649999994267,3.563863e-05,763.3649999994267,1.069241e-05,763.3649999994267,2.217262e-05,763.3649999994267,2.452725e-05
763.3799999994267,3.130017e-05,763.3799999994267,1.072135e-05,763.3799999994267,2.212365e-05,763.3799999994267,2.516284e-05
763.3949999994267,2.973728e-05,763.3949999994267,1.085194e-05,763.3949999994267,2.305652e-05,763.3949999994267,2.598087e-05
763.4099999994266,3.047146e-05,763.4099999994266,1.069767e-05,763.4099999994266,2.302657e-05,763.4099999994266,2.722937e-05
763.4249999994266,3.085369e-05,763.4249999994266,1.020435e-05,763.4249999994266,2.282071e-05,763.4249999994266,2.720453e-05
763.4399999994266,3.109699e-05,763.4399999994266,1.103345e-05,763.4399999994266,2.165515e-05,763.4399999994266,2.705603e-05
763.4549999994266,3.080571e-05,763.4549999994266,1.044179e-05,763.4549999994266,2.011041e-05,763.4549999994266,2.522211e-05
763.4699999994266,3.057115e-05,763.4699999994266,1.054515e-05,763.4699999994266,1.984387e-05,763.4699999994266,2.499996e-05
763.4849999994266,2.691508e-05,763.4849999994266,1.05545e-05,763.4849999994266,1.981901e-05,763.4849999994266,2.4819e-05
763.4999999994266,2.627417e-05,763.4999999994266,1.07082e-05,763.4999999994266,1.945314e-05,763.4999999994266,2.496669e-05
763.5149999994265,2.615918e-05,763.5149999994265,1.06779e-05,763.5149999994265,1.919875e-05,763.5149999994265,2.336483e-05
763.5299999994265,2.599551e-05,763.5299999994265,1.06356e-05,763.5299999994265,1.859039e-05,763.5299999994265,2.313825e-05
763.5449999994265,2.611661e-05,763.5449999994265,1.029779e-05,763.5449999994265,1.443699e-05,763.5449999994265,2.300025e-05
763.5599999994265,2.289466e-05,763.5599999994265,9.592404e-06,763.5599999994265,1.630126e-05,763.5599999994265,2.14164e-05
763.5749999994265,2.229743e-05,763.5749999994265,9.133529e-06,763.5749999994265,1.575907e-05,763.5749999994265,2.152662e-05
763.5899999994265,2.152139e-05,763.5899999994265,9.08404e-06,763.5899999994265,1.569188e-05,763.5899999994265,2.074551e-05
763.6049999994265,2.140851e-05,763.6049999994265,8.627516e-06,763.6049999994265,1.531481e-05,763.6049999994265,1.763056e-05
763.6199999994265,2.115566e-05,763.6199999994265,8.432649e-06,763.6199999994265,1.524659e-05,763.6199999994265,1.670248e-05
763.6349999994264,2.186361e-05,763.6349999994264,7.800928e-06,763.6349999994264,1.421872e-05,763.6349999994264,1.521607e-05
763.6499999994264,2.060653e-05,763.6499999994264,7.993573e-06,763.6499999994264,1.209214e-05,763.6499999994264,1.143841e-05
763.6649999994264,2.125465e-05,763.6649999994264,8.323359e-06,763.6649999994264,1.214909e-05,763.6649999994264,1.139027e-05
763.6799999994264,2.011251e-05,763.6799999994264,8.136793e-06,763.6799999994264,1.203375e-05,763.6799999994264,1.145194e-05
763.6949999994264,1.973924e-05,763.6949999994264,7.037669e-06,763.6949999994264,1.174105e-05,763.6949999994264,1.147897e-05
763.7099999994264,1.952109e-05,763.7099999994264,7.238955e-06,763.7099999994264,1.169417e-05,763.7099999994264,1.15816e-05
763.7249999994264,1.871274e-05,763.7249999994264,7.051666e-06,763.7249999994264,1.138285e-05,763.7249999994264,1.144702e-05
763.7399999994263,1.895136e-05,763.7399999994263,6.97938e-06,763.7399999994263,1.096943e-05,763.7399999994263,1.171222e-05
763.7549999994263,2.265467e-05,763.7549999994263,6.926705e-06,763.7549999994263,1.092697e-05,763.7549999994263,1.051037e-05
763.7699999994263,2.220817e-05,763.7699999994263,6.671875e-06,763.7699999994263,1.053045e-05,763.7699999994263,1.03904e-05
763.7849999994263,2.207648e-05,763.7849999994263,6.582601e-06,763.7849999994263,1.05785e-05,763.7849999994263,1.040665e-05
763.7999999994263,2.203177e-05,763.7999999994263,6.701369e-06,763.7999999994263,1.063295e-05,763.7999999994263,1.03442e-05
763.8149999994263,2.200618e-05,763.8149999994263,7.721065e-06,763.8149999994263,7.113323e-06,763.8149999994263,1.061174e-05
763.8299999994263,2.21141e-05,763.8299999994263,9.901682e-06,763.8299999994263,7.327922e-06,763.8299999994263,1.067526e-05
763.8449999994262,2.137229e-05,763.8449999994262,1.116292e-05,763.8449999994262,7.562535e-06,763.8449999994262,1.084285e-05
763.8599999994262,2.155278e-05,763.8599999994262,1.120574e-05,763.8599999994262,8.525684e-06,763.8599999994262,1.0625e-05
763.8749999994262,2.194143e-05,763.8749999994262,1.163983e-05,763.8749999994262,8.500864e-06,763.8749999994262,1.054916e-05
763.8899999994262,2.155605e-05,763.8899999994262,1.213749e-05,763.8899999994262,8.192006e-06,763.8899999994262,1.018086e-05
763.9049999994262,2.024585e-05,763.9049999994262,1.188771e-05,763.9049999994262,8.5108e-06,763.9049999994262,1.024431e-05
763.9199999994262,1.993241e-05,763.9199999994262,1.169417e-05,763.9199999994262,8.62425e-06,763.9199999994262,1.009331e-05
763.9349999994262,2.045765e-05,763.9349999994262,1.198213e-05,763.9349999994262,8.687718e-06,763.9349999994262,9.827426e-06
763.9499999994262,2.037831e-05,763.9499999994262,1.254385e-05,763.9499999994262,8.528988e-06,763.9499999994262,9.623194e-06
763.9649999994261,2.0379e-05,763.9649999994261,1.3451e-05,763.9649999994261,8.474309e-06,763.9649999994261,8.968555e-06
763.9799999994261,1.989279e-05,763.9799999994261,1.349804e-05,763.9799999994261,8.982679e-06,763.9799999994261,8.91973e-06
763.9949999994261,1.792297e-05,763.9949999994261,1.348969e-05,763.9949999994261,1.051573e-05,763.9949999994261,8.279239e-06
764.0099999994261,1.460964e-05,764.0099999994261,1.325371e-05,764.0099999994261,1.071478e-05,764.0099999994261,8.216045e-06
764.0249999994261,1.463853e-05,764.0249999994261,1.380452e-05,764.0249999994261,1.106533e-05,764.0249999994261,8.442667e-06
764.0399999994261,1.443991e-05,764.0399999994261,1.404628e-05,764.0399999994261,1.284458e-05,764.0399999994261,8.538892e-06
764.0549999994261,1.358439e-05,764.0549999994261,1.429185e-05,764.0549999994261,1.34667e-05,764.0549999994261,8.402527e-06
764.069999999426,1.372469e-05,764.069999999426,1.411531e-05,764.069999999426,1.457875e-05,764.069999999426,7.829767e-06
764.084999999426,1.346984e-05,764.084999999426,1.215604e-05,764.084999999426,1.557655e-05,764.084999999426,6.987449e-06
764.099999999426,1.308471e-05,764.099999999426,1.195035e-05,764.099999999426,1.559011e-05,764.099999999426,6.749543e-06
764.114999999426,1.304913e-05,764.114999999426,1.342899e-05,764.114999999426,1.610566e-05,764.114999999426,6.718165e-06
764.129999999426,1.430466e-05,764.129999999426,1.386358e-05,764.129999999426,1.643466e-05,764.129999999426,6.362793e-06
764.144999999426,1.38351e-05,764.144999999426,1.356467e-05,764.144999999426,1.824468e-05,764.144999999426,6.360578e-06
764.159999999426,1.377285e-05,764.159999999426,1.352827e-05,764.159999999426,1.847715e-05,764.159999999426,6.309435e-06
764.174999999426,1.299396e-05,764.174999999426,1.343004e-05,764.174999999426,1.927126e-05,764.174999999426,6.466009e-06
764.1899999994259,1.334586e-05,764.1899999994259,1.305345e-05,764.1899999994259,2.080857e-05,764.1899999994259,6.411314e-06
764.2049999994259,1.348029e-05,764.2049999994259,1.269344e-05,764.2049999994259,2.279724e-05,764.2049999994259,6.13052e-06
764.2199999994259,1.388997e-05,764.2199999994259,1.284239e-05,764.2199999994259,2.292172e-05,764.2199999994259,6.282586e-06
764.2349999994259,1.462024e-05,764.2349999994259,1.362684e-05,764.2349999994259,2.335277e-05,764.2349999994259,6.284828e-06
764.2499999994259,1.475451e-05,764.2499999994259,1.391125e-05,764.2499999994259,2.353064e-05,764.2499999994259,6.382687e-06
764.2649999994259,1.480598e-05,764.2649999994259,1.407534e-05,764.2649999994259,2.506636e-05,764.2649999994259,6.692956e-06
764.2799999994259,1.45478e-05,764.2799999994259,1.352827e-05,764.2799999994259,2.511464e-05,764.2799999994259,6.541815e-06
764.2949999994258,1.547767e-05,764.2949999994258,1.370312e-05,764.2949999994258,2.450541e-05,764.2949999994258,6.955118e-06
764.3099999994258,1.55113e-05,764.3099999994258,1.329828e-05,764.3099999994258,2.455079e-05,764.3099999994258,6.774542e-06
764.3249999994258,1.629003e-05,764.3249999994258,1.301779e-05,764.3249999994258,2.530964e-05,764.3249999994258,7.047669e-06
764.3399999994258,1.663656e-05,764.3399999994258,1.304805e-05,764.3399999994258,2.608801e-05,764.3399999994258,7.087532e-06
764.3549999994258,1.678996e-05,764.3549999994258,1.185329e-05,764.3549999994258,2.573573e-05,764.3549999994258,7.00557e-06
764.3699999994258,1.573491e-05,764.3699999994258,1.030326e-05,764.3699999994258,2.546777e-05,764.3699999994258,7.013608e-06
764.3849999994258,1.486106e-05,764.3849999994258,1.007795e-05,764.3849999994258,2.540519e-05,764.3849999994258,7.065636e-06
764.3999999994257,1.491782e-05,764.3999999994257,1.009191e-05,764.3999999994257,2.432656e-05,764.3999999994257,6.797376e-06
764.4149999994257,1.47936e-05,764.4149999994257,1.003452e-05,764.4149999994257,2.478264e-05,764.4149999994257,6.755802e-06
764.4299999994257,1.478979e-05,764.4299999994257,1.021125e-05,764.4299999994257,2.472232e-05,764.4299999994257,6.616753e-06
764.4449999994257,1.521977e-05,764.4449999994257,9.922999e-06,764.4449999994257,2.324394e-05,764.4449999994257,6.705572e-06
764.4599999994257,1.563883e-05,764.4599999994257,9.764152e-06,764.4599999994257,2.484452e-05,764.4599999994257,6.688745e-06
764.4749999994257,1.562351e-05,764.4749999994257,8.640569e-06,764.4749999994257,2.502924e-05,764.4749999994257,6.922637e-06
764.4899999994257,1.579835e-05,764.4899999994257,7.455606e-06,764.4899999994257,2.498023e-05,764.4899999994257,7.21166e-06
764.5049999994256,1.66611e-05,764.5049999994256,7.15085e-06,764.5049999994256,2.373984e-05,764.5049999994256,7.04567e-06
764.5199999994256,1.741431e-05,764.5199999994256,6.997522e-06,764.5199999994256,2.279168e-05,764.5199999994256,7.158726e-06
764.5349999994256,1.899739e-05,764.5349999994256,6.251117e-06,764.5349999994256,2.259989e-05,764.5349999994256,7.013608e-06
764.5499999994256,1.975351e-05,764.5499999994256,6.144291e-06,764.5499999994256,2.233783e-05,764.5499999994256,6.784931e-06
764.5649999994256,1.934276e-05,764.5649999994256,6.280343e-06,764.5649999994256,2.434856e-05,764.5649999994256,6.665538e-06
764.5799999994256,2.076248e-05,764.5799999994256,6.340615e-06,764.5799999994256,2.2205e-05,764.5799999994256,7.545752e-06
764.5949999994256,2.096638e-05,764.5949999994256,6.287069e-06,764.5949999994256,2.217072e-05,764.5949999994256,7.757469e-06
764.6099999994256,2.10843e-05,764.6099999994256,8.407555e-06,764.6099999994256,2.266524e-05,764.6099999994256,7.854914e-06
764.6249999994255,2.100531e-05,764.6249999994255,9.071627e-06,764.6249999994255,2.361013e-05,764.6249999994255,7.901403e-06
764.6399999994255,2.119558e-05,764.6399999994255,9.214908e-06,764.6399999994255,2.356116e-05,764.6399999994255,8.070739e-06
764.6549999994255,2.142693e-05,764.6549999994255,9.257612e-06,764.6549999994255,2.350189e-05,764.6549999994255,8.548785e-06
764.6699999994255,2.134789e-05,764.6699999994255,9.62173e-06,764.6699999994255,2.263726e-05,764.6699999994255,8.770023e-06
764.6849999994255,2.242971e-05,764.6849999994255,9.325834e-06,764.6849999994255,2.269009e-05,764.6849999994255,8.842007e-06
764.6999999994255,2.221261e-05,764.6999999994255,9.372543e-06,764.6999999994255,2.390423e-05,764.6999999994255,8.89601e-06
764.7149999994255,2.174927e-05,764.7149999994255,9.087142e-06,764.7149999994255,2.2281e-05,764.7149999994255,9.006171e-06
764.7299999994254,2.142824e-05,764.7299999994254,9.136613e-06,764.7299999994254,2.148667e-05,764.7299999994254,8.736227e-06
764.7449999994254,2.117896e-05,764.7449999994254,9.113456e-06,764.7449999994254,2.09415e-05,764.7449999994254,8.606265e-06
764.7599999994254,1.965485e-05,764.7599999994254,9.070073e-06,764.7599999994254,2.096638e-05,764.7599999994254,8.301328e-06
764.7749999994254,1.969638e-05,764.7749999994254,9.099535e-06,764.7749999994254,2.102207e-05,764.7749999994254,8.385746e-06
764.7899999994254,1.743452e-05,764.7899999994254,9.010862e-06,764.7899999994254,2.102341e-05,764.7899999994254,8.576751e-06
764.8049999994254,1.81611e-05,764.8049999994254,9.23781e-06,764.8049999994254,2.295058e-05,764.8049999994254,8.451005e-06
764.8199999994254,1.764414e-05,764.8199999994254,9.127357e-06,764.8199999994254,2.058122e-05,764.8199999994254,8.241723e-06
764.8349999994253,1.652612e-05,764.8349999994253,9.23476e-06,764.8349999994253,2.042595e-05,764.8349999994253,8.553727e-06
764.8499999994253,1.581795e-05,764.8499999994253,9.031162e-06,764.8499999994253,2.028408e-05,764.8499999994253,8.959125e-06
764.8649999994253,1.571521e-05,764.8649999994253,7.93343e-06,764.8649999994253,1.895731e-05,764.8649999994253,1.120826e-05
764.8799999994253,1.578408e-05,764.8799999994253,9.190417e-06,764.8799999994253,1.82632e-05,764.8799999994253,1.185092e-05
764.8949999994253,1.560456e-05,764.8949999994253,9.546771e-06,764.8949999994253,1.834478e-05,764.8949999994253,1.181163e-05
764.9099999994253,1.601619e-05,764.9099999994253,1.02209e-05,764.9099999994253,1.814791e-05,764.9099999994253,1.161924e-05
764.9249999994253,1.585709e-05,764.9249999994253,1.04983e-05,764.9249999994253,1.800765e-05,764.9249999994253,1.183664e-05
764.9399999994253,1.512973e-05,764.9399999994253,1.113765e-05,764.9399999994253,1.460964e-05,764.9399999994253,1.253262e-05
764.9549999994252,1.507936e-05,764.9549999994252,1.122835e-05,764.9549999994252,1.413027e-05,764.9549999994252,1.253711e-05
764.9699999994252,1.511482e-05,764.9699999994252,1.148633e-05,764.9699999994252,1.390922e-05,764.9699999994252,1.248645e-05
764.9849999994252,1.594833e-05,764.9849999994252,1.146547e-05,764.9849999994252,1.390619e-05,764.9849999994252,1.25461e-05
764.9999999994252,1.611702e-05,764.9999999994252,1.147652e-05,764.9999999994252,1.411731e-05,764.9999999994252,1.27742e-05
765.0149999994252,1.589702e-05,765.0149999994252,1.178058e-05,765.0149999994252,1.401013e-05,765.0149999994252,1.281384e-05
765.0299999994252,1.592623e-05,765.0299999994252,1.191848e-05,765.0299999994252,1.403725e-05,765.0299999994252,1.27731e-05
765.0449999994252,1.583665e-05,765.0449999994252,1.194799e-05,765.0449999994252,1.068186e-05,765.0449999994252,1.336168e-05
765.0599999994251,1.493009e-05,765.0599999994251,1.199388e-05,765.0599999994251,1.023743e-05,765.0599999994251,1.349491e-05
765.0749999994251,1.955714e-05,765.0749999994251,1.22461e-05,765.0749999994251,9.29406e-06,765.0749999994251,1.426324e-05
765.0899999994251,2.121019e-05,765.0899999994251,1.189126e-05,765.0899999994251,9.457824e-06,765.0899999994251,1.395674e-05
765.1049999994251,2.29469e-05,765.1049999994251,1.197037e-05,765.1049999994251,9.496471e-06,765.1049999994251,1.399806e-05
765.1199999994251,2.683174e-05,765.1199999994251,1.058515e-05,765.1199999994251,9.592404e-06,765.1199999994251,1.171703e-05
765.1349999994251,3.142907e-05,765.1349999994251,1.038633e-05,765.1349999994251,9.964083e-06,765.1349999994251,1.169176e-05
765.1499999994251,4.042345e-05,765.1499999994251,1.030736e-05,765.1499999994251,9.825992e-06,765.1499999994251,1.158038e-05
765.164999999425,4.340128e-05,765.164999999425,9.205732e-06,765.164999999425,9.217965e-06,765.164999999425,1.262222e-05
765.179999999425,4.380511e-05,765.179999999425,1.072923e-05,765.179999999425,9.162785e-06,765.179999999425,1.188178e-05
765.194999999425,4.458349e-05,765.194999999425,1.153406e-05,765.194999999425,8.965412e-06,765.194999999425,1.223343e-05
765.209999999425,4.512117e-05,765.209999999425,1.150104e-05,765.209999999425,1.208981e-05,765.209999999425,1.221615e-05
765.224999999425,4.632396e-05,765.224999999425,1.22023e-05,765.224999999425,1.358957e-05,765.224999999425,1.254834e-05
765.239999999425,4.637654e-05,765.239999999425,1.233778e-05,765.239999999425,1.475642e-05,765.239999999425,1.274881e-05
765.254999999425,4.675648e-05,765.254999999425,1.278853e-05,765.254999999425,1.574208e-05,765.254999999425,1.379022e-05
765.269999999425,4.713546e-05,765.269999999425,1.312126e-05,765.269999999425,1.878337e-05,765.269999999425,1.416512e-05
765.2849999994249,4.71955e-05,765.2849999994249,1.328556e-05,765.2849999994249,1.92793e-05,765.2849999994249,1.492726e-05
765.2999999994249,4.718087e-05,765.2999999994249,1.331627e-05,765.2999999994249,2.103011e-05,765.2999999994249,1.480883e-05
765.3149999994249,4.723309e-05,765.3149999994249,1.343318e-05,765.3149999994249,2.092132e-05,765.3149999994249,1.491782e-05
765.3299999994249,4.676673e-05,765.3299999994249,1.3497e-05,765.3299999994249,2.091458e-05,765.3299999994249,1.465008e-05
765.3449999994249,4.811187e-05,765.3449999994249,1.358439e-05,765.3449999994249,2.093209e-05,765.3449999994249,1.429086e-05
765.3599999994249,4.823059e-05,765.3599999994249,1.356052e-05,765.3599999994249,2.093545e-05,765.3599999994249,1.527336e-05
765.3749999994249,4.713128e-05,765.3749999994249,1.362063e-05,765.3749999994249,2.095227e-05,765.3749999994249,1.525675e-05
765.3899999994248,4.607698e-05,765.3899999994248,1.332262e-05,765.3899999994248,2.126458e-05,765.3899999994248,1.513345e-05
765.4049999994248,4.108948e-05,765.4049999994248,1.372674e-05,765.4049999994248,2.207521e-05,765.4049999994248,1.519661e-05
765.4199999994248,3.937702e-05,765.4199999994248,1.366709e-05,765.4199999994248,2.314738e-05,765.4199999994248,1.478408e-05
765.4349999994248,4.024429e-05,765.4349999994248,1.190665e-05,765.4349999994248,2.353962e-05,765.4349999994248,1.457005e-05
765.4499999994248,3.858817e-05,765.4499999994248,1.18414e-05,765.4499999994248,2.4047e-05,765.4499999994248,1.429382e-05
765.4649999994248,3.808033e-05,765.4649999994248,1.154749e-05,765.4649999994248,2.516395e-05,765.4649999994248,1.483544e-05
765.4799999994248,3.686154e-05,765.4799999994248,1.094243e-05,765.4799999994248,2.425639e-05,765.4799999994248,1.482404e-05
765.4949999994247,3.807515e-05,765.4949999994247,1.138038e-05,765.4949999994247,2.375645e-05,765.4949999994247,1.452357e-05
765.5099999994247,3.794321e-05,765.5099999994247,1.044583e-05,765.5099999994247,2.244666e-05,765.5099999994247,1.308686e-05
765.5249999994247,3.904146e-05,765.5249999994247,1.137419e-05,765.5249999994247,2.117297e-05,765.5249999994247,1.327283e-05
765.5399999994247,4.062264e-05,765.5399999994247,1.125717e-05,765.5399999994247,1.95182e-05,765.5399999994247,1.210378e-05
765.5549999994247,4.105896e-05,765.5549999994247,1.107805e-05,765.5549999994247,1.898626e-05,765.5549999994247,1.186517e-05
765.5699999994247,4.07618e-05,765.5699999994247,1.108568e-05,765.5699999994247,1.896845e-05,765.5699999994247,1.171583e-05
765.5849999994247,4.064101e-05,765.5849999994247,1.05705e-05,765.5849999994247,1.899146e-05,765.5849999994247,1.173385e-05
765.5999999994247,3.965152e-05,765.5999999994247,1.058782e-05,765.5999999994247,1.936823e-05,765.5999999994247,1.12934e-05
765.6149999994246,4.010613e-05,765.6149999994246,1.065942e-05,765.6149999994246,1.929755e-05,765.6149999994246,1.045258e-05
765.6299999994246,4.11193e-05,765.6299999994246,1.072266e-05,765.6299999994246,2.018034e-05,765.6299999994246,1.05545e-05
765.6449999994246,5.074963e-05,765.6449999994246,1.120071e-05,765.6449999994246,2.369589e-05,765.6449999994246,1.1896e-05
765.6599999994246,5.287278e-05,765.6599999994246,1.075677e-05,765.6599999994246,2.503206e-05,765.6599999994246,1.202087e-05
765.6749999994246,5.194548e-05,765.6749999994246,1.137295e-05,765.6749999994246,2.494073e-05,765.6749999994246,1.137914e-05
765.6899999994246,5.339822e-05,765.6899999994246,1.154139e-05,765.6899999994246,2.426278e-05,765.6899999994246,1.157673e-05
765.7049999994246,5.507297e-05,765.7049999994246,1.079207e-05,765.7049999994246,2.353064e-05,765.7049999994246,1.223113e-05
765.7199999994245,5.558142e-05,765.7199999994245,1.122207e-05,765.7199999994245,2.165385e-05,765.7199999994245,1.150349e-05
765.7349999994245,5.512078e-05,765.7349999994245,1.18295e-05,765.7349999994245,2.161153e-05,765.7349999994245,1.154627e-05
765.7499999994245,5.512053e-05,765.7499999994245,1.135063e-05,765.7499999994245,2.178616e-05,765.7499999994245,1.154261e-05
765.7649999994245,5.456288e-05,765.7649999994245,1.102324e-05,765.7649999994245,2.161544e-05,765.7649999994245,1.171222e-05
765.7799999994245,5.502845e-05,765.7799999994245,1.10666e-05,765.7799999994245,2.170324e-05,765.7799999994245,1.155481e-05
765.7949999994245,5.578936e-05,765.7949999994245,1.100277e-05,765.7949999994245,2.23964e-05,765.7949999994245,1.160954e-05
765.8099999994245,5.622449e-05,765.8099999994245,1.290367e-05,765.8099999994245,2.257931e-05,765.8099999994245,1.144948e-05
765.8249999994244,5.702405e-05,765.8249999994244,1.338065e-05,765.8249999994244,2.26497e-05,765.8249999994244,1.122835e-05
765.8399999994244,5.563487e-05,765.8399999994244,1.471627e-05,765.8399999994244,2.242154e-05,765.8399999994244,1.120197e-05
765.8549999994244,5.588951e-05,765.8549999994244,1.539188e-05,765.8549999994244,2.222656e-05,765.8549999994244,1.101301e-05
765.8699999994244,5.54266e-05,765.8699999994244,1.558288e-05,765.8699999994244,2.311327e-05,765.8699999994244,1.100533e-05
765.8849999994244,5.40193e-05,765.8849999994244,1.575639e-05,765.8849999994244,2.64553e-05,765.8849999994244,1.049561e-05
765.8999999994244,3.890809e-05,765.8999999994244,1.593596e-05,765.8999999994244,2.461325e-05,765.8999999994244,9.389061e-06
765.9149999994244,3.763231e-05,765.9149999994244,1.640979e-05,765.9149999994244,2.571766e-05,765.9149999994244,9.275854e-06
765.9299999994244,3.700077e-05,765.9299999994244,1.662979e-05,765.9299999994244,2.540907e-05,765.9299999994244,9.233234e-06
765.9449999994243,3.346225e-05,765.9449999994243,1.700753e-05,765.9449999994243,2.501348e-05,765.9449999994243,8.429308e-06
765.9599999994243,3.590601e-05,765.9599999994243,1.713543e-05,765.9599999994243,2.503431e-05,765.9599999994243,8.348708e-06
765.9749999994243,3.670683e-05,765.9749999994243,1.730232e-05,765.9749999994243,2.506411e-05,765.9749999994243,8.781259e-06
765.9899999994243,3.739009e-05,765.9899999994243,1.733729e-05,765.9899999994243,2.503881e-05,765.9899999994243,8.250264e-06
766.0049999994243,3.773212e-05,766.0049999994243,1.743048e-05,766.0049999994243,2.490908e-05,766.0049999994243,8.143716e-06
766.0199999994243,3.740139e-05,766.0199999994243,1.744098e-05,766.0199999994243,2.488022e-05,766.0199999994243,7.669811e-06
766.0349999994243,3.420914e-05,766.0349999994243,1.735597e-05,766.0349999994243,2.476672e-05,766.0349999994243,7.256447e-06
766.0499999994242,3.312419e-05,766.0499999994242,1.700835e-05,766.0499999994242,2.421745e-05,766.0499999994242,6.953093e-06
766.0649999994242,3.65318e-05,766.0649999994242,1.622504e-05,766.0649999994242,2.736303e-05,766.0649999994242,6.953093e-06
766.0799999994242,3.471762e-05,766.0799999994242,2.025906e-05,766.0799999994242,2.73517e-05,766.0799999994242,6.885912e-06
766.0949999994242,3.405148e-05,766.0949999994242,2.230564e-05,766.0949999994242,2.788875e-05,766.0949999994242,6.80773e-06
766.1099999994242,3.319046e-05,766.1099999994242,2.18533e-05,766.1099999994242,3.057437e-05,766.1099999994242,6.97938e-06
766.1249999994242,3.305394e-05,766.1249999994242,2.181782e-05,766.1249999994242,3.05928e-05,766.1249999994242,7.279705e-06
766.1399999994242,3.30795e-05,766.1399999994242,2.197031e-05,766.1399999994242,2.735067e-05,766.1399999994242,7.396802e-06
766.1549999994241,3.312844e-05,766.1549999994241,2.199658e-05,766.1549999994241,2.47075e-05,766.1549999994241,7.655103e-06
766.1699999994241,3.487227e-05,766.1699999994241,2.204711e-05,766.1699999994241,2.463556e-05,766.1699999994241,7.590424e-06
766.1849999994241,3.534173e-05,766.1849999994241,2.180426e-05,766.1849999994241,2.514099e-05,766.1849999994241,7.266147e-06
766.1999999994241,3.518794e-05,766.1999999994241,2.217707e-05,766.1999999994241,2.587983e-05,766.1999999994241,7.144938e-06
766.2149999994241,3.093348e-05,766.2149999994241,2.233593e-05,766.2149999994241,2.649573e-05,766.2149999994241,7.174451e-06
766.2299999994241,2.976663e-05,766.2299999994241,2.274837e-05,766.2299999994241,2.792963e-05,766.2299999994241,6.574036e-06
766.2449999994241,2.830488e-05,766.2449999994241,2.27657e-05,766.2449999994241,2.893733e-05,766.2449999994241,6.629514e-06
766.259999999424,2.760291e-05,766.259999999424,2.288051e-05,766.259999999424,2.969698e-05,766.259999999424,6.526725e-06
766.274999999424,2.879679e-05,766.274999999424,2.251996e-05,766.274999999424,3.056792e-05,766.274999999424,6.559019e-06
766.289999999424,2.907331e-05,766.289999999424,2.270188e-05,766.289999999424,3.118384e-05,766.289999999424,6.667651e-06
766.304999999424,2.84092e-05,766.304999999424,2.291864e-05,766.304999999424,3.109382e-05,766.304999999424,6.768301e-06
766.319999999424,2.212429e-05,766.319999999424,2.227657e-05,766.319999999424,2.877721e-05,766.319999999424,7.755652e-06
766.334999999424,2.258929e-05,766.334999999424,1.793711e-05,766.334999999424,2.897284e-05,766.334999999424,7.616361e-06
766.349999999424,2.258181e-05,766.349999999424,1.569099e-05,766.349999999424,2.587384e-05,766.349999999424,8.957552e-06
766.364999999424,2.278179e-05,766.364999999424,1.613799e-05,766.364999999424,2.574831e-05,766.364999999424,9.228656e-06
766.379999999424,2.212429e-05,766.379999999424,1.650821e-05,766.379999999424,2.468354e-05,766.379999999424,9.649507e-06
766.3949999994239,2.414755e-05,766.3949999994239,1.622157e-05,766.3949999994239,2.39425e-05,766.3949999994239,9.858911e-06
766.4099999994239,2.678129e-05,766.4099999994239,1.576264e-05,766.4099999994239,2.359939e-05,766.4099999994239,9.742488e-06
766.4249999994239,2.556108e-05,766.4249999994239,1.572238e-05,766.4249999994239,2.34689e-05,766.4249999994239,9.75838e-06
766.4399999994239,2.597057e-05,766.4399999994239,1.572417e-05,766.4399999994239,2.284045e-05,766.4399999994239,1.0005e-05
766.4549999994239,2.824409e-05,766.4549999994239,1.46952e-05,766.4549999994239,2.169025e-05,766.4549999994239,9.870335e-06
766.4699999994239,2.792206e-05,766.4699999994239,1.44028e-05,766.4699999994239,1.961324e-05,766.4699999994239,1.031966e-05
766.4849999994238,2.941291e-05,766.4849999994238,1.431548e-05,766.4849999994238,1.816265e-05,766.4849999994238,1.038226e-05
766.4999999994238,3.617764e-05,766.4999999994238,1.440573e-05,766.4999999994238,1.783551e-05,766.4999999994238,1.203375e-05
766.5149999994238,3.716032e-05,766.5149999994238,1.489798e-05,766.5149999994238,1.671006e-05,766.5149999994238,1.209097e-05
766.5299999994238,3.676971e-05,766.5299999994238,1.46395e-05,766.5299999994238,1.516414e-05,766.5299999994238,1.357816e-05
766.5449999994238,3.790198e-05,766.5449999994238,1.516692e-05,766.5449999994238,1.349909e-05,766.5449999994238,1.408334e-05
766.5599999994238,3.827478e-05,766.5599999994238,1.505319e-05,766.5599999994238,1.291458e-05,766.5599999994238,1.428889e-05
766.5749999994238,3.874483e-05,766.5749999994238,1.518178e-05,766.5749999994238,1.215256e-05,766.5749999994238,1.482594e-05
766.5899999994238,3.817565e-05,766.5899999994238,1.469424e-05,766.5899999994238,1.085973e-05,766.5899999994238,1.514183e-05
766.6049999994237,3.800479e-05,766.6049999994237,1.442137e-05,766.6049999994237,1.067658e-05,766.6049999994237,1.404628e-05
766.6199999994237,3.892655e-05,766.6199999994237,1.441746e-05,766.6199999994237,1.07266e-05,766.6199999994237,1.398699e-05
766.6349999994237,3.896562e-05,766.6349999994237,1.436166e-05,766.6349999994237,1.036053e-05,766.6349999994237,1.366091e-05
766.6499999994237,3.808218e-05,766.6499999994237,1.44282e-05,766.6499999994237,1.053981e-05,766.6499999994237,1.363614e-05
766.6649999994237,3.542574e-05,766.6649999994237,1.412429e-05,766.6649999994237,1.232521e-05,766.6649999994237,1.370004e-05
766.6799999994237,3.482781e-05,766.6799999994237,1.380145e-05,766.6799999994237,1.22966e-05,766.6799999994237,1.367328e-05
766.6949999994237,3.425564e-05,766.6949999994237,1.356986e-05,766.6949999994237,1.371545e-05,766.6949999994237,1.379533e-05
766.7099999994236,3.279037e-05,766.7099999994236,1.303293e-05,766.7099999994236,1.419691e-05,766.7099999994236,1.366091e-05
766.7249999994236,3.286847e-05,766.7249999994236,1.452163e-05,766.7249999994236,1.49659e-05,766.7249999994236,1.376875e-05
766.7399999994236,2.990403e-05,766.7399999994236,1.58979e-05,766.7399999994236,1.480407e-05,766.7399999994236,1.36846e-05
766.7549999994236,2.453299e-05,766.7549999994236,1.570176e-05,766.7549999994236,1.493858e-05,766.7549999994236,1.25135e-05
766.7699999994236,2.342324e-05,766.7699999994236,1.645522e-05,766.7699999994236,1.556208e-05,766.7699999994236,1.259541e-05
766.7849999994236,2.259116e-05,766.7849999994236,1.685277e-05,766.7849999994236,1.68895e-05,766.7849999994236,1.120071e-05
766.7999999994236,2.043905e-05,766.7999999994236,1.652015e-05,766.7999999994236,1.76617e-05,766.7999999994236,1.106278e-05
766.8149999994235,2.221325e-05,766.8149999994235,1.652697e-05,766.8149999994235,1.804516e-05,766.8149999994235,1.06356e-05
766.8299999994235,2.18533e-05,766.8299999994235,1.650906e-05,766.8299999994235,1.831865e-05,766.8299999994235,1.005556e-05
766.8449999994235,2.215737e-05,766.8449999994235,1.658568e-05,766.8449999994235,1.866073e-05,766.8449999994235,1.069109e-05
766.8599999994235,2.184879e-05,766.8599999994235,1.669995e-05,766.8599999994235,2.000507e-05,766.8599999994235,1.176742e-05
766.8749999994235,2.048517e-05,766.8749999994235,1.66264e-05,766.8749999994235,2.175769e-05,766.8749999994235,1.365266e-05
766.8899999994235,2.246109e-05,766.8899999994235,1.640292e-05,766.8899999994235,2.189259e-05,766.8899999994235,1.375033e-05
766.9049999994235,2.599659e-05,766.9049999994235,1.64012e-05,766.9049999994235,2.096772e-05,766.9049999994235,1.449833e-05
766.9199999994235,2.590866e-05,766.9199999994235,1.684859e-05,766.9199999994235,2.137756e-05,766.9199999994235,1.519105e-05
766.9349999994234,2.636249e-05,766.9349999994234,1.723706e-05,766.9349999994234,2.123475e-05,766.9349999994234,1.808337e-05
766.9499999994234,2.6678e-05,766.9499999994234,1.778093e-05,766.9499999994234,2.252184e-05,766.9499999994234,1.972782e-05
766.9649999994234,2.791349e-05,766.9649999994234,1.758416e-05,766.9649999994234,2.203497e-05,766.9649999994234,2.163433e-05
766.9799999994234,2.836205e-05,766.9799999994234,1.497908e-05,766.9799999994234,2.204072e-05,766.9799999994234,2.173048e-05
766.9949999994234,2.978556e-05,766.9949999994234,1.451386e-05,766.9949999994234,2.202857e-05,766.9949999994234,2.370243e-05
767.0099999994234,3.152126e-05,767.0099999994234,1.468561e-05,767.0099999994234,2.131751e-05,767.0099999994234,2.584606e-05
767.0249999994234,3.33674e-05,767.0249999994234,1.99945e-05,767.0249999994234,2.07523e-05,767.0249999994234,2.625808e-05
767.0399999994233,3.31981e-05,767.0399999994233,1.965342e-05,767.0399999994233,2.14578e-05,767.0399999994233,2.652496e-05
767.0549999994233,3.351903e-05,767.0549999994233,1.991473e-05,767.0549999994233,2.126127e-05,767.0549999994233,2.683961e-05
767.0699999994233,3.259259e-05,767.0699999994233,2.0102e-05,767.0699999994233,2.122347e-05,767.0699999994233,2.715996e-05
767.0849999994233,3.285732e-05,767.0849999994233,2.011882e-05,767.0849999994233,2.117563e-05,767.0849999994233,3.004548e-05
767.0999999994233,3.633112e-05,767.0999999994233,1.993382e-05,767.0999999994233,2.095697e-05,767.0999999994233,3.013911e-05
767.1149999994233,3.787186e-05,767.1149999994233,2.009219e-05,767.1149999994233,1.738273e-05,767.1149999994233,2.971832e-05
767.1299999994233,3.739273e-05,767.1299999994233,2.120023e-05,767.1299999994233,1.712391e-05,767.1299999994233,3.043399e-05
767.1449999994232,3.533296e-05,767.1449999994232,2.206372e-05,767.1449999994232,1.96398e-05,767.1449999994232,3.180776e-05
767.1599999994232,3.630397e-05,767.1599999994232,2.303391e-05,767.1599999994232,1.945314e-05,767.1599999994232,3.227554e-05
767.1749999994232,3.639659e-05,767.1749999994232,2.421629e-05,767.1749999994232,1.881409e-05,767.1749999994232,3.264182e-05
767.1899999994232,3.709468e-05,767.1899999994232,2.392249e-05,767.1899999994232,1.879912e-05,767.1899999994232,3.26483e-05
767.2049999994232,3.700533e-05,767.2049999994232,2.373391e-05,767.2049999994232,1.656188e-05,767.2049999994232,3.099717e-05
767.2199999994232,3.676856e-05,767.2199999994232,2.373865e-05,767.2199999994232,1.621636e-05,767.2199999994232,3.213776e-05
767.2349999994232,3.659229e-05,767.2349999994232,2.385881e-05,767.2349999994232,1.636939e-05,767.2349999994232,3.212241e-05
767.2499999994232,3.542772e-05,767.2499999994232,2.411077e-05,767.2499999994232,1.663825e-05,767.2499999994232,3.229517e-05
767.2649999994231,3.243228e-05,767.2649999994231,2.195684e-05,767.2649999994231,1.821532e-05,767.2649999994231,3.149623e-05
767.2799999994231,3.152975e-05,767.2799999994231,1.903517e-05,767.2799999994231,1.812072e-05,767.2799999994231,3.101898e-05
767.2949999994231,3.19549e-05,767.2949999994231,1.941545e-05,767.2949999994231,1.615282e-05,767.2949999994231,3.221263e-05
767.3099999994231,3.214521e-05,767.3099999994231,1.921636e-05,767.3099999994231,1.578319e-05,767.3099999994231,3.339272e-05
767.3249999994231,3.230346e-05,767.3249999994231,1.932163e-05,767.3249999994231,1.566673e-05,767.3249999994231,3.127766e-05
767.3399999994231,2.882172e-05,767.3399999994231,1.914217e-05,767.3399999994231,1.557475e-05,767.3399999994231,3.094805e-05
767.3549999994231,2.761311e-05,767.3549999994231,1.916571e-05,767.3549999994231,1.53644e-05,767.3549999994231,3.144117e-05
767.369999999423,2.594343e-05,767.369999999423,1.829634e-05,767.369999999423,1.530745e-05,767.369999999423,3.16319e-05
767.384999999423,2.569793e-05,767.384999999423,1.700504e-05,767.384999999423,1.489325e-05,767.384999999423,3.131277e-05
767.399999999423,3.85553e-05,767.399999999423,1.535798e-05,767.399999999423,1.332473e-05,767.399999999423,2.997648e-05
767.414999999423,4.177288e-05,767.414999999423,1.305669e-05,767.414999999423,1.3209e-05,767.414999999423,2.983989e-05
767.429999999423,5.287491e-05,767.429999999423,1.305345e-05,767.429999999423,1.311159e-05,767.429999999423,2.878504e-05
767.444999999423,5.597187e-05,767.444999999423,1.304157e-05,767.444999999423,1.290912e-05,767.444999999423,2.94019e-05
767.459999999423,5.680277e-05,767.459999999423,1.296466e-05,767.459999999423,1.267345e-05,767.459999999423,3.0602e-05
767.474999999423,6.23408e-05,767.474999999423,1.287853e-05,767.474999999423,1.270564e-05,767.474999999423,2.929053e-05
767.4899999994229,6.243338e-05,767.4899999994229,1.241631e-05,767.4899999994229,1.230119e-05,767.4899999994229,2.995627e-05
767.5049999994229,6.242525e-05,767.5049999994229,1.184854e-05,767.5049999994229,1.027999e-05,767.5049999994229,2.946268e-05
767.5199999994229,6.228564e-05,767.5199999994229,1.204662e-05,767.5199999994229,9.334893e-06,767.5199999994229,2.855016e-05
767.5349999994229,6.244375e-05,767.5349999994229,1.154993e-05,767.5349999994229,9.315255e-06,767.5349999994229,2.838489e-05
767.5499999994229,6.211896e-05,767.5499999994229,1.038497e-05,767.5499999994229,9.038959e-06,767.5499999994229,2.737384e-05
767.5649999994229,6.185284e-05,767.5649999994229,1.024431e-05,767.5649999994229,9.118093e-06,767.5649999994229,2.686165e-05
767.5799999994229,6.178813e-05,767.5799999994229,9.979622e-06,767.5799999994229,9.167396e-06,767.5799999994229,2.7688e-05
767.5949999994228,6.173932e-05,767.5949999994228,9.986677e-06,767.5949999994228,9.131986e-06,767.5949999994228,2.769614e-05
767.6099999994228,6.191066e-05,767.6099999994228,9.883171e-06,767.6099999994228,9.523133e-06,767.6099999994228,2.714232e-05
767.6249999994228,6.202501e-05,767.6249999994228,9.877468e-06,767.6249999994228,9.573294e-06,767.6249999994228,2.681599e-05
767.6399999994228,6.217133e-05,767.6399999994228,9.81021e-06,767.6399999994228,9.883171e-06,767.6399999994228,2.670069e-05
767.6549999994228,5.015098e-05,767.6549999994228,9.331874e-06,767.6549999994228,7.704628e-06,767.6549999994228,2.611877e-05
767.6699999994228,4.872343e-05,767.6699999994228,9.568879e-06,767.6699999994228,7.947621e-06,767.6699999994228,2.605072e-05
767.6849999994228,3.770785e-05,767.6849999994228,9.020237e-06,767.6849999994228,7.820766e-06,767.6849999994228,2.644784e-05
767.6999999994227,3.176566e-05,767.6999999994227,8.8754e-06,767.6999999994227,7.915653e-06,767.6999999994227,2.45806e-05
767.7149999994227,2.578986e-05,767.7149999994227,8.703918e-06,767.7149999994227,8.041013e-06,767.7149999994227,2.34857e-05
767.7299999994227,1.748535e-05,767.7299999994227,9.265217e-06,767.7299999994227,8.186846e-06,767.7299999994227,2.305286e-05
767.7449999994227,1.611178e-05,767.7449999994227,9.475681e-06,767.7449999994227,8.217759e-06,767.7449999994227,2.202474e-05
767.7599999994227,1.484588e-05,767.7599999994227,8.954407e-06,767.7599999994227,8.604628e-06,767.7599999994227,2.104484e-05
767.7749999994227,1.582864e-05,767.7749999994227,9.540868e-06,767.7749999994227,8.578393e-06,767.7749999994227,2.081128e-05
767.7899999994227,1.542205e-05,767.7899999994227,9.729466e-06,767.7899999994227,8.5866e-06,767.7899999994227,1.8274e-05
767.8049999994226,1.556932e-05,767.8049999994226,1.123211e-05,767.8049999994226,8.845193e-06,767.8049999994226,1.788441e-05
767.8199999994226,1.477264e-05,767.8199999994226,1.125592e-05,767.8199999994226,8.782863e-06,767.8199999994226,1.751433e-05
767.8349999994226,1.493198e-05,767.8349999994226,1.151695e-05,767.8349999994226,9.968323e-06,767.8349999994226,1.539005e-05
767.8499999994226,1.433122e-05,767.8499999994226,1.184616e-05,767.8499999994226,1.055183e-05,767.8499999994226,1.473158e-05
767.8649999994226,1.327602e-05,767.8649999994226,1.205831e-05,767.8649999994226,1.051439e-05,767.8649999994226,1.307609e-05
767.8799999994226,1.248306e-05,767.8799999994226,1.347506e-05,767.8799999994226,1.077116e-05,767.8799999994226,1.312341e-05
767.8949999994226,1.488852e-05,767.8949999994226,1.366606e-05,767.8949999994226,1.155603e-05,767.8949999994226,1.247742e-05
767.9099999994226,1.448764e-05,767.9099999994226,1.348447e-05,767.9099999994226,1.21282e-05,767.9099999994226,1.178655e-05
767.9249999994225,1.491593e-05,767.9249999994225,1.396885e-05,767.9249999994225,1.259541e-05,767.9249999994225,1.051305e-05
767.9399999994225,1.495178e-05,767.9399999994225,1.496308e-05,767.9399999994225,1.323138e-05,767.9399999994225,7.95825e-06
767.9549999994225,1.51567e-05,767.9549999994225,1.590942e-05,767.9549999994225,1.565144e-05,767.9549999994225,7.640368e-06
767.9699999994225,1.50999e-05,767.9699999994225,1.657464e-05,767.9699999994225,1.578586e-05,767.9699999994225,7.844146e-06
767.9849999994225,1.566133e-05,767.9849999994225,1.751995e-05,767.9849999994225,1.614759e-05,767.9849999994225,7.14888e-06
767.9999999994225,1.570265e-05,767.9999999994225,1.75095e-05,767.9999999994225,1.694114e-05,767.9999999994225,6.96726e-06
768.0149999994225,1.499787e-05,768.0149999994225,1.851751e-05,768.0149999994225,1.723379e-05,768.0149999994225,6.7391e-06
768.0299999994224,1.532768e-05,768.0299999994224,1.814791e-05,768.0299999994224,1.717156e-05,768.0299999994224,6.329497e-06
768.0449999994224,1.51055e-05,768.0449999994224,1.796065e-05,768.0449999994224,1.81075e-05,768.0449999994224,6.816002e-06
768.0599999994224,1.563432e-05,768.0599999994224,1.71494e-05,768.0599999994224,1.873682e-05,768.0599999994224,7.035667e-06
768.0749999994224,1.58784e-05,768.0749999994224,1.67908e-05,768.0749999994224,2.000014e-05,768.0749999994224,6.971302e-06
768.0899999994224,1.63004e-05,768.0899999994224,1.658143e-05,768.0899999994224,1.938423e-05,768.0899999994224,6.920602e-06
768.1049999994224,1.644494e-05,768.1049999994224,1.704889e-05,768.1049999994224,1.986374e-05,768.1049999994224,6.606099e-06
768.1199999994224,1.671681e-05,768.1199999994224,1.715515e-05,768.1199999994224,2.08221e-05,768.1199999994224,6.481242e-06
768.1349999994223,1.662979e-05,768.1349999994223,1.719042e-05,768.1349999994223,2.067341e-05,768.1349999994223,6.520246e-06
768.1499999994223,1.442918e-05,768.1499999994223,1.798652e-05,768.1499999994223,2.054628e-05,768.1499999994223,6.528882e-06
768.1649999994223,1.419691e-05,768.1649999994223,1.80186e-05,768.1649999994223,2.050991e-05,768.1649999994223,6.957143e-06
768.1799999994223,1.478217e-05,768.1799999994223,1.702077e-05,768.1799999994223,2.14624e-05,768.1799999994223,7.14888e-06
768.1949999994223,1.524104e-05,768.1949999994223,1.605485e-05,768.1949999994223,2.044594e-05,768.1949999994223,7.287441e-06
768.2099999994223,1.548495e-05,768.2099999994223,1.532308e-05,768.2099999994223,1.97642e-05,768.2099999994223,7.387274e-06
768.2249999994223,1.534238e-05,768.2249999994223,1.369387e-05,768.2249999994223,2.01489e-05,768.2249999994223,7.160693e-06
768.2399999994223,1.504195e-05,768.2399999994223,1.350535e-05,768.2399999994223,2.025072e-05,768.2399999994223,7.308674e-06
768.2549999994222,1.524012e-05,768.2549999994222,1.311589e-05,768.2549999994222,2.021591e-05,768.2549999994222,7.27777e-06
768.2699999994222,1.460771e-05,768.2699999994222,1.175184e-05,768.2699999994222,2.017475e-05,768.2699999994222,7.41962e-06
768.2849999994222,1.455167e-05,768.2849999994222,1.181878e-05,768.2849999994222,2.057711e-05,768.2849999994222,7.56626e-06
768.2999999994222,1.445844e-05,768.2999999994222,1.152918e-05,768.2999999994222,2.010411e-05,768.2999999994222,6.784931e-06
768.3149999994222,1.366915e-05,768.3149999994222,1.329192e-05,768.3149999994222,1.949365e-05,768.3149999994222,6.669763e-06
768.3299999994222,1.337644e-05,768.3299999994222,1.464623e-05,768.3299999994222,1.95557e-05,768.3299999994222,7.203842e-06
768.3449999994222,1.2884e-05,768.3449999994222,1.528534e-05,768.3449999994222,1.981972e-05,768.3449999994222,7.406318e-06
768.3599999994221,1.3209e-05,768.3599999994221,1.505038e-05,768.3599999994221,1.946907e-05,768.3599999994221,7.308674e-06
768.3749999994221,1.342794e-05,768.3749999994221,1.496779e-05,768.3749999994221,1.873607e-05,768.3749999994221,7.248678e-06
768.3899999994221,1.312126e-05,768.3899999994221,1.433319e-05,768.3899999994221,1.990766e-05,768.3899999994221,7.242846e-06
768.4049999994221,1.310515e-05,768.4049999994221,1.391834e-05,768.4049999994221,1.955426e-05,768.4049999994221,7.142966e-06
768.4199999994221,1.272226e-05,768.4199999994221,1.372058e-05,768.4199999994221,1.938641e-05,768.4199999994221,6.678206e-06
768.4349999994221,1.181401e-05,768.4349999994221,1.369284e-05,768.4349999994221,1.886867e-05,768.4349999994221,6.574036e-06
768.4499999994221,1.097842e-05,768.4499999994221,1.369489e-05,768.4499999994221,1.881484e-05,768.4499999994221,6.507271e-06
768.464999999422,1.093857e-05,768.464999999422,1.364956e-05,768.464999999422,1.929317e-05,768.464999999422,6.537507e-06
768.479999999422,1.107296e-05,768.479999999422,1.360925e-05,768.479999999422,1.884477e-05,768.479999999422,6.384893e-06
768.494999999422,1.019054e-05,768.494999999422,1.408634e-05,768.494999999422,1.914364e-05,768.494999999422,6.33617e-06
768.509999999422,1.02704e-05,768.509999999422,1.423358e-05,768.509999999422,1.92866e-05,768.509999999422,6.280343e-06
768.524999999422,1.016147e-05,768.524999999422,1.439105e-05,768.524999999422,1.892831e-05,768.524999999422,6.098266e-06
768.539999999422,1.016978e-05,768.539999999422,1.421476e-05,768.539999999422,1.856537e-05,768.539999999422,6.513761e-06
768.554999999422,1.122082e-05,768.554999999422,1.393553e-05,768.554999999422,1.976135e-05,768.554999999422,6.716067e-06
768.569999999422,1.168091e-05,768.569999999422,1.229087e-05,768.569999999422,1.945966e-05,768.569999999422,6.780777e-06
768.5849999994219,1.139275e-05,768.5849999994219,1.033466e-05,768.5849999994219,1.880661e-05,768.5849999994219,5.855509e-06
768.5999999994219,1.061439e-05,768.5999999994219,9.291028e-06,768.5999999994219,1.822769e-05,768.5999999994219,6.116717e-06
