X[s],a: EMG RMS 1-1,X[s].1,a: EMG RMS 1-2,X[s].2,a: EMG RMS 1-3,X[s].3,a: EMG RMS 1-4
709.0049999994761,3.85352e-05,709.0049999994761,2.914445e-05,709.0049999994761,1.288291e-05,709.0049999994761,2.337809e-05
709.0199999994761,4.00977e-05,709.0199999994761,2.799764e-05,709.0199999994761,1.289384e-05,709.0199999994761,4.699959e-05
709.0349999994761,4.000731e-05,709.0349999994761,2.670755e-05,709.0349999994761,1.469232e-05,709.0349999994761,5.874148e-05
709.0499999994761,4.553234e-05,709.0499999994761,2.414813e-05,709.0499999994761,1.627272e-05,709.0499999994761,5.962477e-05
709.0649999994761,4.630875e-05,709.0649999994761,2.668222e-05,709.0649999994761,1.641751e-05,709.0649999994761,6.062635e-05
709.0799999994761,4.664457e-05,709.0799999994761,2.655946e-05,709.0799999994761,1.648772e-05,709.0799999994761,6.320655e-05
709.094999999476,4.736115e-05,709.094999999476,2.635126e-05,709.094999999476,1.675048e-05,709.094999999476,6.466358e-05
709.109999999476,4.921705e-05,709.109999999476,2.539576e-05,709.109999999476,1.67387e-05,709.109999999476,6.543236e-05
709.124999999476,4.9636e-05,709.124999999476,2.823611e-05,709.124999999476,1.696025e-05,709.124999999476,6.623966e-05
709.139999999476,4.960904e-05,709.139999999476,2.678392e-05,709.139999999476,1.761698e-05,709.139999999476,6.636119e-05
709.154999999476,4.93414e-05,709.154999999476,2.722161e-05,709.154999999476,1.936096e-05,709.154999999476,6.648038e-05
709.169999999476,5.010883e-05,709.169999999476,2.899568e-05,709.169999999476,1.941835e-05,709.169999999476,6.638729e-05
709.184999999476,5.119347e-05,709.184999999476,3.643179e-05,709.184999999476,2.021033e-05,709.184999999476,6.637222e-05
709.199999999476,5.078847e-05,709.199999999476,4.220499e-05,709.199999999476,2.246736e-05,709.199999999476,6.604606e-05
709.2149999994759,5.09242e-05,709.2149999994759,4.507651e-05,709.2149999994759,2.402884e-05,709.2149999994759,6.498303e-05
709.2299999994759,5.023406e-05,709.2299999994759,4.781494e-05,709.2299999994759,2.461382e-05,709.2299999994759,6.30137e-05
709.2449999994759,5.018412e-05,709.2449999994759,4.826359e-05,709.2449999994759,2.473713e-05,709.2449999994759,6.203364e-05
709.2599999994759,4.931227e-05,709.2599999994759,5.272069e-05,709.2599999994759,2.467612e-05,709.2599999994759,6.025764e-05
709.2749999994759,4.938506e-05,709.2749999994759,5.899823e-05,709.2749999994759,2.472232e-05,709.2749999994759,4.047639e-05
709.2899999994759,4.906857e-05,709.2899999994759,6.728913e-05,709.2899999994759,2.300147e-05,709.2899999994759,2.830886e-05
709.3049999994759,4.420685e-05,709.3049999994759,7.369556e-05,709.3049999994759,2.264783e-05,709.3049999994759,2.698199e-05
709.3199999994758,4.257618e-05,709.3199999994758,7.554037e-05,709.3199999994758,2.323485e-05,709.3199999994758,2.486719e-05
709.3349999994758,4.167599e-05,709.3349999994758,7.850268e-05,709.3349999994758,2.375823e-05,709.3349999994758,2.054697e-05
709.3499999994758,3.715729e-05,709.3499999994758,8.102338e-05,709.3499999994758,2.384109e-05,709.3499999994758,1.796457e-05
709.3649999994758,3.625e-05,709.3649999994758,8.372296e-05,709.3649999994758,2.399598e-05,709.3649999994758,1.646207e-05
709.3799999994758,3.578497e-05,709.3799999994758,8.491497e-05,709.3799999994758,2.364531e-05,709.3799999994758,1.331945e-05
709.3949999994758,3.505117e-05,709.3949999994758,9.373009e-05,709.3949999994758,2.272483e-05,709.3949999994758,1.266122e-05
709.4099999994758,3.191961e-05,709.4099999994758,0.0001090514,709.4099999994758,2.201514e-05,709.4099999994758,1.216067e-05
709.4249999994757,2.92838e-05,709.4249999994757,0.0001135917,709.4249999994757,2.164539e-05,709.4249999994757,1.218266e-05
709.4399999994757,2.653717e-05,709.4399999994757,0.0001216614,709.4399999994757,2.228163e-05,709.4399999994757,1.216415e-05
709.4549999994757,2.622802e-05,709.4549999994757,0.0001323684,709.4549999994757,1.802954e-05,709.4549999994757,1.208631e-05
709.4699999994757,2.560017e-05,709.4699999994757,0.0001356012,709.4699999994757,1.628224e-05,709.4699999994757,1.086103e-05
709.4849999994757,2.606207e-05,709.4849999994757,0.0001399675,709.4849999994757,1.560547e-05,709.4849999994757,1.043639e-05
709.4999999994757,2.508434e-05,709.4999999994757,0.0001460868,709.4999999994757,1.550404e-05,709.4999999994757,9.133529e-06
709.5149999994757,2.495541e-05,709.5149999994757,0.0001669958,709.5149999994757,1.562982e-05,709.5149999994757,8.335198e-06
709.5299999994756,2.326575e-05,709.5299999994756,0.0001706215,709.5299999994756,1.558198e-05,709.5299999994756,8.716856e-06
709.5449999994756,2.337026e-05,709.5449999994756,0.0001804182,709.5449999994756,2.040387e-05,709.5449999994756,8.188566e-06
709.5599999994756,2.30553e-05,709.5599999994756,0.0002240729,709.5599999994756,1.99656e-05,709.5599999994756,1.030053e-05
709.5749999994756,2.305408e-05,709.5749999994756,0.0002433581,709.5749999994756,1.962329e-05,709.5749999994756,1.095015e-05
709.5899999994756,2.359223e-05,709.5899999994756,0.0002442498,709.5899999994756,1.94198e-05,709.5899999994756,1.18152e-05
709.6049999994756,2.28133e-05,709.6049999994756,0.0002438927,709.6049999994756,1.938205e-05,709.6049999994756,1.240496e-05
709.6199999994756,2.510174e-05,709.6199999994756,0.0002497918,709.6199999994756,1.920829e-05,709.6199999994756,1.516599e-05
709.6349999994756,2.5388e-05,709.6349999994756,0.0002513009,709.6349999994756,2.069384e-05,709.6349999994756,1.633838e-05
709.6499999994755,2.638065e-05,709.6499999994755,0.0002460772,709.6499999994755,2.427207e-05,709.6499999994755,1.81642e-05
709.6649999994755,2.971738e-05,709.6649999994755,0.0002454341,709.6649999994755,2.47781e-05,709.6649999994755,1.894467e-05
709.6799999994755,3.132267e-05,709.6799999994755,0.0002433481,709.6799999994755,3.205569e-05,709.6799999994755,2.077605e-05
709.6949999994755,3.23762e-05,709.6949999994755,0.0002392707,709.6949999994755,3.684931e-05,709.6949999994755,2.084104e-05
709.7099999994755,3.468636e-05,709.7099999994755,0.0002346403,709.7099999994755,4.152293e-05,709.7099999994755,2.152793e-05
709.7249999994755,3.794767e-05,709.7249999994755,0.0002318378,709.7249999994755,4.245956e-05,709.7249999994755,2.2231e-05
709.7399999994755,3.763231e-05,709.7399999994755,0.0002279264,709.7399999994755,4.701697e-05,709.7399999994755,2.588472e-05
709.7549999994754,3.827919e-05,709.7549999994754,0.0002205856,709.7549999994754,4.709809e-05,709.7549999994754,2.889007e-05
709.7699999994754,3.782161e-05,709.7699999994754,0.000206543,709.7699999994754,4.710736e-05,709.7699999994754,3.325576e-05
709.7849999994754,3.847191e-05,709.7849999994754,0.0002039275,709.7849999994754,4.672454e-05,709.7849999994754,3.423178e-05
709.7999999994754,3.842905e-05,709.7999999994754,0.0001861595,709.7999999994754,4.524806e-05,709.7999999994754,3.605478e-05
709.8149999994754,4.040428e-05,709.8149999994754,0.0001085178,709.8149999994754,4.505462e-05,709.8149999994754,5.511899e-05
709.8299999994754,4.062957e-05,709.8299999994754,9.985436e-05,709.8299999994754,4.500864e-05,709.8299999994754,5.742848e-05
709.8449999994754,4.113094e-05,709.8449999994754,0.0001078286,709.8449999994754,4.518263e-05,709.8449999994754,6.212985e-05
709.8599999994753,4.105312e-05,709.8599999994753,0.0001005944,709.8599999994753,4.582961e-05,709.8599999994753,6.98049e-05
709.8749999994753,3.947456e-05,709.8749999994753,8.554566e-05,709.8749999994753,4.593645e-05,709.8749999994753,7.204586e-05
709.8899999994753,3.9446e-05,709.8899999994753,8.194619e-05,709.8899999994753,4.497138e-05,709.8899999994753,7.204586e-05
709.9049999994753,4.045236e-05,709.9049999994753,7.912698e-05,709.9049999994753,4.368146e-05,709.9049999994753,7.202845e-05
709.9199999994753,3.819336e-05,709.9199999994753,7.636255e-05,709.9199999994753,4.236889e-05,709.9199999994753,7.161775e-05
709.9349999994753,3.726215e-05,709.9349999994753,7.577143e-05,709.9349999994753,3.778323e-05,709.9349999994753,7.156384e-05
709.9499999994753,3.765327e-05,709.9499999994753,7.453376e-05,709.9499999994753,2.76381e-05,709.9499999994753,7.225008e-05
709.9649999994753,3.831488e-05,709.9649999994753,7.119757e-05,709.9649999994753,2.586894e-05,709.9649999994753,7.218649e-05
709.9799999994752,3.709278e-05,709.9799999994752,6.974091e-05,709.9799999994752,2.335096e-05,709.9799999994752,7.233095e-05
709.9949999994752,3.835052e-05,709.9949999994752,7.186202e-05,709.9949999994752,1.539462e-05,709.9949999994752,7.034385e-05
710.0099999994752,3.807626e-05,710.0099999994752,7.309849e-05,710.0099999994752,1.49659e-05,710.0099999994752,6.970939e-05
710.0249999994752,3.976043e-05,710.0249999994752,7.330017e-05,710.0249999994752,1.484968e-05,710.0249999994752,6.779551e-05
710.0399999994752,3.958894e-05,710.0399999994752,7.378669e-05,710.0399999994752,1.480217e-05,710.0399999994752,6.759742e-05
710.0549999994752,3.896706e-05,710.0549999994752,7.351529e-05,710.0549999994752,1.445454e-05,710.0549999994752,6.327338e-05
710.0699999994752,3.724022e-05,710.0699999994752,7.511549e-05,710.0699999994752,1.412828e-05,710.0699999994752,5.099938e-05
710.0849999994751,3.685046e-05,710.0849999994751,7.127765e-05,710.0849999994751,1.400712e-05,710.0849999994751,4.841367e-05
710.0999999994751,3.65688e-05,710.0999999994751,5.89103e-05,710.0999999994751,1.209097e-05,710.0999999994751,3.843271e-05
710.1149999994751,3.67881e-05,710.1149999994751,5.7619e-05,710.1149999994751,1.05184e-05,710.1149999994751,2.74232e-05
710.1299999994751,3.822691e-05,710.1299999994751,5.688406e-05,710.1299999994751,9.577708e-06,710.1299999994751,1.839233e-05
710.1449999994751,3.678465e-05,710.1449999994751,5.632311e-05,710.1449999994751,8.803689e-06,710.1449999994751,1.783709e-05
710.1599999994751,3.642367e-05,710.1599999994751,5.678516e-05,710.1599999994751,8.673113e-06,710.1599999994751,1.729254e-05
710.1749999994751,3.600474e-05,710.1749999994751,6.07438e-05,710.1749999994751,8.50749e-06,710.1749999994751,1.750628e-05
710.189999999475,3.423713e-05,710.189999999475,6.367617e-05,710.189999999475,8.39414e-06,710.189999999475,1.678912e-05
710.204999999475,3.257054e-05,710.204999999475,6.419219e-05,710.204999999475,8.480955e-06,710.204999999475,1.276758e-05
710.219999999475,3.083085e-05,710.219999999475,6.61622e-05,710.219999999475,8.580036e-06,710.219999999475,1.201618e-05
710.234999999475,2.800518e-05,710.234999999475,6.585212e-05,710.234999999475,8.035755e-06,710.234999999475,9.648047e-06
710.249999999475,2.735325e-05,710.249999999475,6.422312e-05,710.249999999475,7.940529e-06,710.249999999475,9.003043e-06
710.264999999475,3.055363e-05,710.264999999475,6.378249e-05,710.264999999475,8.15236e-06,710.264999999475,8.729774e-06
710.279999999475,2.787207e-05,710.279999999475,6.45753e-05,710.279999999475,8.303025e-06,710.279999999475,8.843601e-06
710.294999999475,2.80469e-05,710.294999999475,6.528537e-05,710.294999999475,8.321666e-06,710.294999999475,9.013988e-06
710.3099999994749,2.776726e-05,710.3099999994749,6.665158e-05,710.3099999994749,9.076284e-06,710.3099999994749,9.068521e-06
710.3249999994749,2.817868e-05,710.3249999994749,6.458707e-05,710.3249999994749,9.360511e-06,710.3249999994749,9.439935e-06
710.3399999994749,2.848793e-05,710.3399999994749,6.36184e-05,710.3399999994749,9.514254e-06,710.3399999994749,9.576237e-06
710.3549999994749,2.984084e-05,710.3549999994749,6.331455e-05,710.3549999994749,9.824559e-06,710.3549999994749,9.552672e-06
710.3699999994749,2.964048e-05,710.3699999994749,6.364563e-05,710.3699999994749,9.876042e-06,710.3699999994749,9.821691e-06
710.3849999994749,2.882466e-05,710.3849999994749,6.301593e-05,710.3849999994749,1.010307e-05,710.3849999994749,1.001063e-05
710.3999999994749,2.906992e-05,710.3999999994749,6.084715e-05,710.3999999994749,1.005976e-05,710.3999999994749,1.004154e-05
710.4149999994748,3.064249e-05,710.4149999994748,5.747556e-05,710.4149999994748,1.280504e-05,710.4149999994748,1.00975e-05
710.4299999994748,3.11074e-05,710.4299999994748,5.834711e-05,710.4299999994748,1.348029e-05,710.4299999994748,9.691749e-06
710.4449999994748,3.291472e-05,710.4449999994748,5.364641e-05,710.4449999994748,1.358231e-05,710.4449999994748,9.580649e-06
710.4599999994748,3.355936e-05,710.4599999994748,5.54703e-05,710.4599999994748,1.399806e-05,710.4599999994748,9.648047e-06
710.4749999994748,3.392881e-05,710.4749999994748,5.613371e-05,710.4749999994748,1.478694e-05,710.4749999994748,9.54382e-06
710.4899999994748,3.333403e-05,710.4899999994748,5.716271e-05,710.4899999994748,1.500445e-05,710.4899999994748,9.612942e-06
710.5049999994748,3.22406e-05,710.5049999994748,5.81614e-05,710.5049999994748,1.505693e-05,710.5049999994748,9.529049e-06
710.5199999994747,3.002813e-05,710.5199999994747,6.143856e-05,710.5199999994747,1.516971e-05,710.5199999994747,9.565934e-06
710.5349999994747,2.97917e-05,710.5349999994747,6.236994e-05,710.5349999994747,1.5433e-05,710.5349999994747,9.489051e-06
710.5499999994747,2.978083e-05,710.5499999994747,6.27141e-05,710.5499999994747,1.549858e-05,710.5499999994747,9.23781e-06
710.5649999994747,2.986868e-05,710.5649999994747,6.284559e-05,710.5649999994747,1.540834e-05,710.5649999994747,8.710389e-06
710.5799999994747,2.929823e-05,710.5799999994747,6.266287e-05,710.5799999994747,1.69561e-05,710.5799999994747,8.851561e-06
710.5949999994747,2.858862e-05,710.5949999994747,6.246383e-05,710.5949999994747,1.926906e-05,710.5949999994747,8.611173e-06
710.6099999994747,2.786095e-05,710.6099999994747,6.575557e-05,710.6099999994747,1.980052e-05,710.6099999994747,8.072484e-06
710.6249999994747,2.716774e-05,710.6249999994747,6.638093e-05,710.6249999994747,1.984671e-05,710.6249999994747,7.513949e-06
710.6399999994746,2.719002e-05,710.6399999994746,6.691209e-05,710.6399999994746,1.96928e-05,710.6399999994746,7.678988e-06
710.6549999994746,2.635607e-05,710.6549999994746,6.952242e-05,710.6549999994746,1.96928e-05,710.6549999994746,7.474476e-06
710.6699999994746,2.481389e-05,710.6699999994746,7.054282e-05,710.6699999994746,1.804516e-05,710.6699999994746,7.800928e-06
710.6849999994746,2.565898e-05,710.6849999994746,7.153037e-05,710.6849999994746,1.758416e-05,710.6849999994746,7.568121e-06
710.6999999994746,2.363815e-05,710.6999999994746,7.294107e-05,710.6999999994746,1.771823e-05,710.6999999994746,7.40822e-06
710.7149999994746,2.17415e-05,710.7149999994746,7.337642e-05,710.7149999994746,1.69403e-05,710.7149999994746,7.366268e-06
710.7299999994746,2.134261e-05,710.7299999994746,7.199539e-05,710.7299999994746,1.655422e-05,710.7299999994746,7.320229e-06
710.7449999994745,2.16213e-05,710.7449999994745,7.082264e-05,710.7449999994745,1.646806e-05,710.7449999994745,6.896133e-06
710.7599999994745,2.133403e-05,710.7599999994745,6.907216e-05,710.7599999994745,1.626666e-05,710.7599999994745,7.021637e-06
710.7749999994745,2.307668e-05,710.7749999994745,6.677151e-05,710.7749999994745,1.633493e-05,710.7749999994745,6.828391e-06
710.7899999994745,2.411778e-05,710.7899999994745,6.658793e-05,710.7899999994745,1.587573e-05,710.7899999994745,6.795303e-06
710.8049999994745,2.553295e-05,710.8049999994745,6.469146e-05,710.8049999994745,1.539645e-05,710.8049999994745,6.842817e-06
710.8199999994745,2.566283e-05,710.8199999994745,6.555883e-05,710.8199999994745,1.457295e-05,710.8199999994745,6.625263e-06
710.8349999994745,2.560898e-05,710.8349999994745,6.7172e-05,710.8349999994745,1.228858e-05,710.8349999994745,6.654963e-06
710.8499999994744,2.539853e-05,710.8499999994744,6.943057e-05,710.8499999994744,1.038633e-05,710.8499999994744,6.610363e-06
710.8649999994744,2.497459e-05,710.8649999994744,6.623456e-05,710.8649999994744,9.904527e-06,710.8649999994744,6.567604e-06
710.8799999994744,2.539188e-05,710.8799999994744,6.639408e-05,710.8799999994744,1.021815e-05,710.8799999994744,6.444187e-06
710.8949999994744,2.544397e-05,710.8949999994744,6.307045e-05,710.8949999994744,1.094114e-05,710.8949999994744,6.813935e-06
710.9099999994744,2.561118e-05,710.9099999994744,6.07795e-05,710.9099999994744,1.095401e-05,710.9099999994744,6.483414e-06
710.9249999994744,2.609125e-05,710.9249999994744,5.7619e-05,710.9249999994744,1.112753e-05,710.9249999994744,6.65708e-06
710.9399999994744,2.555281e-05,710.9399999994744,5.484459e-05,710.9399999994744,1.106533e-05,710.9399999994744,6.74119e-06
710.9549999994744,2.583843e-05,710.9549999994744,5.565285e-05,710.9549999994744,1.088305e-05,710.9549999994744,6.79323e-06
710.9699999994743,2.594126e-05,710.9699999994743,5.258961e-05,710.9699999994743,1.106915e-05,710.9699999994743,6.720261e-06
710.9849999994743,2.57423e-05,710.9849999994743,5.257728e-05,710.9849999994743,1.131334e-05,710.9849999994743,6.809799e-06
710.9999999994743,2.678077e-05,710.9999999994743,5.132263e-05,710.9999999994743,1.116923e-05,710.9999999994743,7.089519e-06
711.0149999994743,2.579587e-05,711.0149999994743,5.048273e-05,711.0149999994743,1.127717e-05,711.0149999994743,7.083556e-06
711.0299999994743,2.574941e-05,711.0299999994743,5.001823e-05,711.0299999994743,1.113259e-05,711.0299999994743,7.362442e-06
711.0449999994743,2.274094e-05,711.0449999994743,4.930998e-05,711.0449999994743,1.103601e-05,711.0449999994743,7.329844e-06
711.0599999994743,2.448931e-05,711.0599999994743,4.805826e-05,711.0599999994743,1.111486e-05,711.0599999994743,7.827967e-06
711.0749999994742,2.477184e-05,711.0749999994742,4.669468e-05,711.0749999994742,1.099509e-05,711.0749999994742,7.724713e-06
711.0899999994742,2.505343e-05,711.0899999994742,3.930863e-05,711.0899999994742,1.024568e-05,711.0899999994742,7.750201e-06
711.1049999994742,2.476843e-05,711.1049999994742,3.893162e-05,711.1049999994742,1.016008e-05,711.1049999994742,7.791894e-06
711.1199999994742,2.721436e-05,711.1199999994742,3.721903e-05,711.1199999994742,9.938602e-06,711.1199999994742,7.739288e-06
711.1349999994742,2.842159e-05,711.1349999994742,3.580032e-05,711.1349999994742,9.429483e-06,711.1349999994742,7.949394e-06
711.1499999994742,3.060108e-05,711.1499999994742,3.546389e-05,711.1499999994742,9.729466e-06,711.1499999994742,8.45767e-06
711.1649999994742,3.043584e-05,711.1649999994742,3.552144e-05,711.1649999994742,9.608544e-06,711.1649999994742,8.763595e-06
711.1799999994741,2.965046e-05,711.1799999994741,3.613791e-05,711.1799999994741,9.375548e-06,711.1799999994741,1.05184e-05
711.1949999994741,2.985453e-05,711.1949999994741,3.49195e-05,711.1949999994741,9.39656e-06,711.1949999994741,1.121705e-05
711.2099999994741,3.172351e-05,711.2099999994741,3.583807e-05,711.2099999994741,9.365025e-06,711.2099999994741,1.314914e-05
711.2249999994741,3.215704e-05,711.2249999994741,3.681106e-05,711.2249999994741,9.372543e-06,711.2249999994741,1.334375e-05
711.2399999994741,3.273663e-05,711.2399999994741,4.407026e-05,711.2399999994741,9.35449e-06,711.2399999994741,1.355844e-05
711.2549999994741,3.264873e-05,711.2549999994741,4.464947e-05,711.2549999994741,9.693203e-06,711.2549999994741,1.389301e-05
711.2699999994741,3.324305e-05,711.2699999994741,4.499487e-05,711.2699999994741,9.401056e-06,711.2699999994741,1.565863e-05
711.284999999474,3.318876e-05,711.284999999474,4.510712e-05,711.284999999474,9.401056e-06,711.284999999474,1.809739e-05
711.299999999474,3.307312e-05,711.299999999474,4.483649e-05,711.299999999474,9.383058e-06,711.299999999474,2.025211e-05
711.314999999474,3.183034e-05,711.314999999474,4.931141e-05,711.314999999474,9.291028e-06,711.314999999474,2.162977e-05
711.329999999474,3.157083e-05,711.329999999474,5.495211e-05,711.329999999474,9.410042e-06,711.329999999474,2.225506e-05
711.344999999474,3.305906e-05,711.344999999474,6.194569e-05,711.344999999474,1.015176e-05,711.344999999474,2.259365e-05
711.359999999474,3.280498e-05,711.359999999474,6.338971e-05,711.359999999474,1.035645e-05,711.359999999474,2.28534e-05
711.374999999474,3.13694e-05,711.374999999474,6.421654e-05,711.374999999474,1.038904e-05,711.374999999474,2.333708e-05
711.389999999474,3.278779e-05,711.389999999474,6.807213e-05,711.389999999474,1.058782e-05,711.389999999474,2.351268e-05
711.404999999474,3.814353e-05,711.404999999474,6.932438e-05,711.404999999474,1.073973e-05,711.404999999474,2.382573e-05
711.4199999994739,3.890049e-05,711.4199999994739,7.234458e-05,711.4199999994739,1.387982e-05,711.4199999994739,2.3684e-05
711.4349999994739,3.915963e-05,711.4349999994739,9.929017e-05,711.4349999994739,1.441062e-05,711.4349999994739,2.4374e-05
711.4499999994739,3.684702e-05,711.4499999994739,0.0001003665,711.4499999994739,1.789465e-05,711.4499999994739,2.887885e-05
711.4649999994739,3.767384e-05,711.4649999994739,0.0001021205,711.4649999994739,1.782603e-05,711.4649999994739,3.205876e-05
711.4799999994739,3.988142e-05,711.4799999994739,0.0001046347,711.4799999994739,1.785761e-05,711.4799999994739,3.51559e-05
711.4949999994739,3.930863e-05,711.4949999994739,0.0001255352,711.4949999994739,1.811139e-05,711.4949999994739,3.547739e-05
711.5099999994738,4.065175e-05,711.5099999994738,0.0001413138,711.5099999994738,1.81642e-05,711.5099999994738,3.53963e-05
711.5249999994738,4.099715e-05,711.5249999994738,0.0001725688,711.5249999994738,1.95593e-05,711.5249999994738,3.499566e-05
711.5399999994738,4.285089e-05,711.5399999994738,0.0001727033,711.5399999994738,2.051472e-05,711.5399999994738,3.571838e-05
711.5549999994738,4.420685e-05,711.5549999994738,0.000178368,711.5549999994738,2.156781e-05,711.5549999994738,3.570655e-05
711.5699999994738,4.50005e-05,711.5699999994738,0.0001951333,711.5699999994738,2.153055e-05,711.5699999994738,3.602468e-05
711.5849999994738,4.504212e-05,711.5849999994738,0.0001946,711.5849999994738,2.137756e-05,711.5849999994738,3.59793e-05
711.5999999994738,4.468543e-05,711.5999999994738,0.0001942087,711.5999999994738,2.11763e-05,711.5999999994738,3.580661e-05
711.6149999994738,4.497639e-05,711.6149999994738,0.0001951849,711.6149999994738,2.108162e-05,711.6149999994738,3.587696e-05
711.6299999994737,4.504431e-05,711.6299999994737,0.0002134304,711.6299999994737,2.080721e-05,711.6299999994737,3.592013e-05
711.6449999994737,4.236955e-05,711.6449999994737,0.0002220592,711.6449999994737,2.078215e-05,711.6449999994737,3.601804e-05
711.6599999994737,3.797847e-05,711.6599999994737,0.0002231807,711.6599999994737,2.170648e-05,711.6599999994737,3.565878e-05
711.6749999994737,3.680647e-05,711.6749999994737,0.0002201805,711.6749999994737,2.139732e-05,711.6749999994737,3.591229e-05
711.6899999994737,3.651367e-05,711.6899999994737,0.000210815,711.6899999994737,1.909133e-05,711.6899999994737,3.511541e-05
711.7049999994737,3.699239e-05,711.7049999994737,0.0002103631,711.7049999994737,1.808181e-05,711.7049999994737,2.865949e-05
711.7199999994737,3.630009e-05,711.7199999994737,0.0002088031,711.7199999994737,1.80475e-05,711.7199999994737,2.685902e-05
711.7349999994736,3.339103e-05,711.7349999994736,0.0002056024,711.7349999994736,2.062634e-05,711.7349999994736,2.384109e-05
711.7499999994736,3.270261e-05,711.7499999994736,0.0001898028,711.7499999994736,2.060858e-05,711.7499999994736,2.345089e-05
711.7649999994736,3.074208e-05,711.7649999994736,0.0001779152,711.7649999994736,2.088155e-05,711.7649999994736,2.30131e-05
711.7799999994736,2.816718e-05,711.7799999994736,0.0001567753,711.7799999994736,1.917085e-05,711.7799999994736,1.999098e-05
711.7949999994736,2.652284e-05,711.7949999994736,0.0001569517,711.7949999994736,1.936459e-05,711.7949999994736,1.871274e-05
711.8099999994736,2.523886e-05,711.8099999994736,0.0001490658,711.8099999994736,1.865922e-05,711.8099999994736,1.642523e-05
711.8249999994736,2.461897e-05,711.8249999994736,0.0001257614,711.8249999994736,2.070813e-05,711.8249999994736,1.531941e-05
711.8399999994735,2.432482e-05,711.8399999994735,0.0001245527,711.8399999994735,2.129041e-05,711.8399999994735,1.552038e-05
711.8549999994735,2.358805e-05,711.8549999994735,0.0001230285,711.8549999994735,2.24454e-05,711.8549999994735,1.51083e-05
711.8699999994735,2.171232e-05,711.8699999994735,0.0001140713,711.8699999994735,2.34082e-05,711.8699999994735,1.459323e-05
711.8849999994735,2.163303e-05,711.8849999994735,7.828867e-05,711.8849999994735,2.417262e-05,711.8849999994735,1.411531e-05
711.8999999994735,2.142101e-05,711.8999999994735,5.555252e-05,711.8999999994735,2.415397e-05,711.8999999994735,1.3602e-05
711.9149999994735,2.099257e-05,711.9149999994735,5.66212e-05,711.9149999994735,2.32124e-05,711.9149999994735,1.351473e-05
711.9299999994735,2.122281e-05,711.9299999994735,5.5279e-05,711.9299999994735,2.446111e-05,711.9299999994735,1.176023e-05
711.9449999994735,2.019569e-05,711.9449999994735,5.722428e-05,711.9449999994735,2.472118e-05,711.9449999994735,1.182236e-05
711.9599999994734,2.103614e-05,711.9599999994734,5.786589e-05,711.9599999994734,2.759117e-05,711.9599999994734,1.159618e-05
711.9749999994734,1.97699e-05,711.9749999994734,5.829156e-05,711.9749999994734,2.788572e-05,711.9749999994734,1.145317e-05
711.9899999994734,1.978415e-05,711.9899999994734,5.845107e-05,711.9899999994734,2.776117e-05,711.9899999994734,1.14014e-05
712.0049999994734,1.945024e-05,712.0049999994734,5.79092e-05,712.0049999994734,2.835708e-05,712.0049999994734,1.127592e-05
712.0199999994734,2.001351e-05,712.0199999994734,5.380033e-05,712.0199999994734,2.805092e-05,712.0199999994734,1.11174e-05
712.0349999994734,2.001844e-05,712.0349999994734,5.200754e-05,712.0349999994734,2.811613e-05,712.0349999994734,1.073054e-05
712.0499999994734,2.03451e-05,712.0499999994734,5.46181e-05,712.0499999994734,3.011573e-05,712.0499999994734,1.105896e-05
712.0649999994733,2.033333e-05,712.0649999994733,5.318702e-05,712.0649999994733,2.992992e-05,712.0649999994733,1.132578e-05
712.0799999994733,1.990978e-05,712.0799999994733,5.380007e-05,712.0799999994733,3.045712e-05,712.0799999994733,1.061041e-05
712.0949999994733,2.075705e-05,712.0949999994733,5.405267e-05,712.0949999994733,3.290573e-05,712.0949999994733,1.004995e-05
712.1099999994733,2.146109e-05,712.1099999994733,5.349442e-05,712.1099999994733,3.273577e-05,712.1099999994733,9.921579e-06
712.1249999994733,2.071833e-05,712.1249999994733,5.266964e-05,712.1249999994733,3.196415e-05,712.1249999994733,9.827426e-06
712.1399999994733,2.188422e-05,712.1399999994733,5.90598e-05,712.1399999994733,3.14922e-05,712.1399999994733,9.759823e-06
712.1549999994733,2.213829e-05,712.1549999994733,5.927075e-05,712.1549999994733,3.117074e-05,712.1549999994733,9.784329e-06
712.1699999994732,2.16037e-05,712.1699999994732,5.75155e-05,712.1699999994732,2.99746e-05,712.1699999994732,9.239335e-06
712.1849999994732,2.138744e-05,712.1849999994732,5.663538e-05,712.1849999994732,3.108793e-05,712.1849999994732,8.883333e-06
712.1999999994732,2.140456e-05,712.1999999994732,5.439248e-05,712.1999999994732,3.114135e-05,712.1999999994732,8.563602e-06
712.2149999994732,2.187778e-05,712.2149999994732,5.769254e-05,712.2149999994732,2.925203e-05,712.2149999994732,8.392462e-06
712.2299999994732,2.49571e-05,712.2299999994732,5.795127e-05,712.2299999994732,2.837695e-05,712.2299999994732,8.291141e-06
712.2449999994732,2.57598e-05,712.2449999994732,5.715113e-05,712.2449999994732,2.7362e-05,712.2449999994732,8.086432e-06
712.2599999994732,2.565514e-05,712.2599999994732,5.760066e-05,712.2599999994732,2.756307e-05,712.2599999994732,8.606265e-06
712.2749999994732,2.543179e-05,712.2749999994732,5.966255e-05,712.2749999994732,2.754058e-05,712.2749999994732,8.771629e-06
712.2899999994731,2.537856e-05,712.2899999994731,5.811294e-05,712.2899999994731,2.738773e-05,712.2899999994731,8.55208e-06
712.3049999994731,2.483431e-05,712.3049999994731,5.83075e-05,712.3049999994731,2.452553e-05,712.3049999994731,8.004139e-06
712.3199999994731,2.645051e-05,712.3199999994731,6.415882e-05,712.3199999994731,2.514884e-05,712.3199999994731,7.603404e-06
712.3349999994731,2.677866e-05,712.3349999994731,6.59703e-05,712.3349999994731,2.420116e-05,712.3349999994731,7.612662e-06
712.3499999994731,2.575488e-05,712.3499999994731,6.940622e-05,712.3499999994731,2.051541e-05,712.3499999994731,7.901403e-06
712.3649999994731,2.532967e-05,712.3649999994731,7.520264e-05,712.3649999994731,2.052776e-05,712.3649999994731,7.799122e-06
712.379999999473,2.60123e-05,712.379999999473,7.519796e-05,712.379999999473,2.084442e-05,712.379999999473,8.002378e-06
712.394999999473,2.633308e-05,712.394999999473,7.144643e-05,712.394999999473,2.068567e-05,712.394999999473,7.840554e-06
712.409999999473,2.752881e-05,712.409999999473,7.058575e-05,712.409999999473,2.193758e-05,712.409999999473,7.573703e-06
712.424999999473,3.002109e-05,712.424999999473,6.993132e-05,712.424999999473,2.024376e-05,712.424999999473,7.466933e-06
712.439999999473,3.022871e-05,712.439999999473,6.99287e-05,712.439999999473,1.983819e-05,712.439999999473,7.530803e-06
712.454999999473,3.108657e-05,712.454999999473,6.951451e-05,712.454999999473,1.978344e-05,712.454999999473,7.764728e-06
712.469999999473,3.112959e-05,712.469999999473,6.761491e-05,712.469999999473,1.871274e-05,712.469999999473,7.733825e-06
712.484999999473,2.904762e-05,712.484999999473,6.896051e-05,712.484999999473,1.94256e-05,712.484999999473,7.974164e-06
712.499999999473,2.930784e-05,712.499999999473,7.200791e-05,712.499999999473,1.972139e-05,712.499999999473,7.766543e-06
712.5149999994729,3.169552e-05,712.5149999994729,7.209217e-05,712.5149999994729,1.940311e-05,712.5149999994729,7.762914e-06
712.5299999994729,3.217456e-05,712.5299999994729,6.955666e-05,712.5299999994729,1.950954e-05,712.5299999994729,7.929877e-06
712.5449999994729,3.220388e-05,712.5449999994729,6.969423e-05,712.5449999994729,1.95629e-05,712.5449999994729,8.183403e-06
712.5599999994729,3.127316e-05,712.5599999994729,6.985473e-05,712.5599999994729,1.945604e-05,712.5599999994729,8.429308e-06
712.5749999994729,3.035659e-05,712.5749999994729,6.563635e-05,712.5749999994729,1.802251e-05,712.5749999994729,8.547137e-06
712.5899999994729,3.231828e-05,712.5899999994729,6.216521e-05,712.5899999994729,1.880661e-05,712.5899999994729,8.512456e-06
712.6049999994729,3.226724e-05,712.6049999994729,5.490749e-05,712.6049999994729,1.888285e-05,712.6049999994729,8.454338e-06
712.6199999994728,3.331247e-05,712.6199999994728,5.114309e-05,712.6199999994728,1.833249e-05,712.6199999994728,8.138525e-06
712.6349999994728,3.223099e-05,712.6349999994728,4.901916e-05,712.6349999994728,1.866526e-05,712.6349999994728,8.200599e-06
712.6499999994728,3.142504e-05,712.6499999994728,4.796232e-05,712.6499999994728,1.898181e-05,712.6499999994728,8.217759e-06
712.6649999994728,3.041825e-05,712.6649999994728,5.411388e-05,712.6649999994728,1.998393e-05,712.6649999994728,8.303025e-06
712.6799999994728,3.029016e-05,712.6799999994728,5.428619e-05,712.6799999994728,2.022287e-05,712.6799999994728,8.357139e-06
712.6949999994728,3.05278e-05,712.6949999994728,5.446391e-05,712.6949999994728,1.997547e-05,712.6949999994728,8.31828e-06
712.7099999994728,2.911737e-05,712.7099999994728,5.289196e-05,712.7099999994728,1.979554e-05,712.7099999994728,8.345331e-06
712.7249999994727,3.193109e-05,712.7249999994727,5.250838e-05,712.7249999994727,1.95384e-05,712.7249999994727,8.405879e-06
712.7399999994727,3.368254e-05,712.7399999994727,4.825892e-05,712.7399999994727,1.858509e-05,712.7399999994727,7.942303e-06
712.7549999994727,3.368087e-05,712.7549999994727,4.836156e-05,712.7549999994727,1.804516e-05,712.7549999994727,7.869248e-06
712.7699999994727,3.241707e-05,712.7699999994727,4.804712e-05,712.7699999994727,1.742967e-05,712.7699999994727,7.379642e-06
712.7849999994727,3.417907e-05,712.7849999994727,4.789883e-05,712.7849999994727,1.716664e-05,712.7849999994727,7.103415e-06
712.7999999994727,3.433532e-05,712.7999999994727,5.10637e-05,712.7999999994727,1.699841e-05,712.7999999994727,7.071614e-06
712.8149999994727,3.406802e-05,712.8149999994727,5.025088e-05,712.8149999994727,1.588727e-05,712.8149999994727,7.753835e-06
712.8299999994726,3.368672e-05,712.8299999994726,4.905105e-05,712.8299999994726,1.570714e-05,712.8299999994726,7.40822e-06
712.8449999994726,3.640394e-05,712.8449999994726,5.717922e-05,712.8449999994726,1.42662e-05,712.8449999994726,7.786468e-06
712.8599999994726,3.951237e-05,712.8599999994726,6.019449e-05,712.8599999994726,1.401315e-05,712.8599999994726,8.121197e-06
712.8749999994726,3.92078e-05,712.8749999994726,6.217178e-05,712.8749999994726,1.367534e-05,712.8749999994726,1.022779e-05
712.8899999994726,3.940884e-05,712.8899999994726,6.557129e-05,712.8899999994726,1.338275e-05,712.8899999994726,1.183783e-05
712.9049999994726,4.097206e-05,712.9049999994726,6.632615e-05,712.9049999994726,1.135311e-05,712.9049999994726,1.2669e-05
712.9199999994726,4.091977e-05,712.9199999994726,6.498389e-05,712.9199999994726,8.487596e-06,712.9199999994726,1.263449e-05
712.9349999994726,4.032716e-05,712.9349999994726,6.707924e-05,712.9349999994726,8.019962e-06,712.9349999994726,1.344786e-05
712.9499999994725,4.046977e-05,712.9499999994725,7.069164e-05,712.9499999994725,8.192006e-06,712.9499999994725,1.702905e-05
712.9649999994725,4.058899e-05,712.9649999994725,9.572574e-05,712.9649999994725,8.583318e-06,712.9649999994725,1.755129e-05
712.9799999994725,3.781528e-05,712.9799999994725,0.0001069132,712.9799999994725,8.845193e-06,712.9799999994725,1.963621e-05
712.9949999994725,3.726556e-05,712.9949999994725,0.000106201,712.9949999994725,9.497953e-06,712.9949999994725,3.842611e-05
713.0099999994725,3.677929e-05,713.0099999994725,0.0001047702,713.0099999994725,9.439935e-06,713.0099999994725,4.411307e-05
713.0249999994725,3.618933e-05,713.0249999994725,0.0001049799,713.0249999994725,1.032648e-05,713.0249999994725,4.473237e-05
713.0399999994725,3.50017e-05,713.0399999994725,0.0001053553,713.0399999994725,1.141128e-05,713.0399999994725,4.498266e-05
713.0549999994724,3.67946e-05,713.0549999994724,0.0001074269,713.0549999994724,1.262891e-05,713.0549999994724,4.503743e-05
713.0699999994724,3.744167e-05,713.0699999994724,0.0001078155,713.0699999994724,1.467505e-05,713.0699999994724,4.53572e-05
713.0849999994724,3.785921e-05,713.0849999994724,0.0001088976,713.0849999994724,1.477359e-05,713.0849999994724,4.596833e-05
713.0999999994724,3.132536e-05,713.0999999994724,0.0001075434,713.0999999994724,1.480693e-05,713.0999999994724,4.679894e-05
713.1149999994724,3.074575e-05,713.1149999994724,0.0001106719,713.1149999994724,1.511016e-05,713.1149999994724,5.01448e-05
713.1299999994724,3.054672e-05,713.1299999994724,0.0001190355,713.1299999994724,1.581795e-05,713.1299999994724,5.267606e-05
713.1449999994724,3.305735e-05,713.1449999994724,0.0001195559,713.1449999994724,1.615543e-05,713.1449999994724,5.369969e-05
713.1599999994723,3.249866e-05,713.1599999994723,0.0001245859,713.1599999994723,1.690784e-05,713.1599999994723,5.534293e-05
713.1749999994723,3.953304e-05,713.1749999994723,0.0001245452,713.1749999994723,1.6826e-05,713.1749999994723,5.699934e-05
713.1899999994723,3.886571e-05,713.1899999994723,0.0001426476,713.1899999994723,1.682265e-05,713.1899999994723,5.77616e-05
713.2049999994723,5.25738e-05,713.2049999994723,0.0001842921,713.2049999994723,1.671428e-05,713.2049999994723,5.862842e-05
713.2199999994723,5.477958e-05,713.2199999994723,0.0001748385,713.2199999994723,1.659672e-05,713.2199999994723,5.887682e-05
713.2349999994723,5.577547e-05,713.2349999994723,0.0001818979,713.2349999994723,1.657803e-05,713.2349999994723,5.801832e-05
713.2499999994723,5.68112e-05,713.2499999994723,0.0001840942,713.2499999994723,1.640034e-05,713.2499999994723,4.371272e-05
713.2649999994723,5.884044e-05,713.2649999994723,0.0001846284,713.2649999994723,1.646207e-05,713.2649999994723,4.337109e-05
713.2799999994722,5.851948e-05,713.2799999994722,0.0001872471,713.2799999994722,1.576622e-05,713.2799999994722,4.297826e-05
713.2949999994722,5.816648e-05,713.2949999994722,0.0001999442,713.2949999994722,1.443894e-05,713.2949999994722,4.304703e-05
713.3099999994722,5.724594e-05,713.3099999994722,0.0002036183,713.3099999994722,1.417208e-05,713.3099999994722,4.302117e-05
713.3249999994722,5.668336e-05,713.3249999994722,0.000205341,713.3249999994722,1.253711e-05,713.3249999994722,4.229734e-05
713.3399999994722,5.682782e-05,713.3399999994722,0.0002050546,713.3399999994722,1.198566e-05,713.3399999994722,4.188604e-05
713.3549999994722,5.766568e-05,713.3549999994722,0.0002030798,713.3549999994722,1.206882e-05,713.3549999994722,4.046385e-05
713.3699999994722,5.810857e-05,713.3699999994722,0.0002019831,713.3699999994722,1.176143e-05,713.3699999994722,3.640201e-05
713.3849999994721,5.817036e-05,713.3849999994721,0.0002023129,713.3849999994721,1.104876e-05,713.3849999994721,3.144655e-05
713.3999999994721,5.687811e-05,713.3999999994721,0.0002025273,713.3999999994721,9.733809e-06,713.3999999994721,2.982148e-05
713.4149999994721,5.440051e-05,713.4149999994721,0.0001996077,713.4149999994721,9.031162e-06,713.4149999994721,2.674076e-05
713.4299999994721,5.315312e-05,713.4299999994721,0.000199424,713.4299999994721,8.854743e-06,713.4299999994721,2.343947e-05
713.4449999994721,5.279039e-05,713.4449999994721,0.0001605783,713.4449999994721,8.758771e-06,713.4449999994721,1.702905e-05
713.4599999994721,4.126054e-05,713.4599999994721,0.0001452242,713.4599999994721,8.509145e-06,713.4599999994721,1.589613e-05
713.4749999994721,3.749205e-05,713.4749999994721,0.000138438,713.4749999994721,8.45767e-06,713.4749999994721,1.453229e-05
713.489999999472,3.76985e-05,713.489999999472,0.0001292974,713.489999999472,8.17996e-06,713.489999999472,1.409834e-05
713.504999999472,3.538635e-05,713.504999999472,0.0001290063,713.504999999472,7.845942e-06,713.504999999472,1.225644e-05
713.519999999472,3.337415e-05,713.519999999472,0.0001280953,713.519999999472,1.215024e-05,713.519999999472,1.178894e-05
713.534999999472,3.293825e-05,713.534999999472,0.0001197864,713.534999999472,1.6003e-05,713.534999999472,1.126842e-05
713.549999999472,3.299038e-05,713.549999999472,9.815005e-05,713.549999999472,1.64278e-05,713.549999999472,1.085843e-05
713.564999999472,3.299977e-05,713.564999999472,9.438457e-05,713.564999999472,1.628138e-05,713.564999999472,1.017117e-05
713.579999999472,3.310462e-05,713.579999999472,9.340007e-05,713.579999999472,1.653635e-05,713.579999999472,1.006536e-05
713.594999999472,3.220694e-05,713.594999999472,9.279149e-05,713.594999999472,1.730395e-05,713.594999999472,1.061041e-05
713.6099999994719,3.002016e-05,713.6099999994719,9.361174e-05,713.6099999994719,2.192473e-05,713.6099999994719,1.085065e-05
713.6249999994719,2.921879e-05,713.6249999994719,8.089254e-05,713.6249999994719,2.192987e-05,713.6249999994719,9.605612e-06
713.6399999994719,2.886616e-05,713.6399999994719,7.454718e-05,713.6399999994719,2.207967e-05,713.6399999994719,9.592404e-06
713.6549999994719,2.892905e-05,713.6549999994719,7.542503e-05,713.6549999994719,2.226709e-05,713.6549999994719,9.37104e-06
713.6699999994719,2.58967e-05,713.6699999994719,7.396878e-05,713.6699999994719,2.241966e-05,713.6699999994719,1.045123e-05
713.6849999994719,2.575543e-05,713.6849999994719,6.373035e-05,713.6849999994719,2.304736e-05,713.6849999994719,1.04647e-05
713.6999999994719,2.547883e-05,713.6999999994719,6.381539e-05,713.6999999994719,2.309071e-05,713.6999999994719,1.110726e-05
713.7149999994718,2.21402e-05,713.7149999994718,6.916896e-05,713.7149999994718,2.389775e-05,713.7149999994718,1.123963e-05
713.7299999994718,2.195748e-05,713.7299999994718,6.834144e-05,713.7299999994718,2.419708e-05,713.7299999994718,1.121454e-05
713.7449999994718,2.09442e-05,713.7449999994718,6.526984e-05,713.7449999994718,2.426801e-05,713.7449999994718,1.120323e-05
713.7599999994718,2.081737e-05,713.7599999994718,6.972798e-05,713.7599999994718,2.40347e-05,713.7599999994718,1.11288e-05
713.7749999994718,2.175575e-05,713.7749999994718,7.218591e-05,713.7749999994718,2.162782e-05,713.7749999994718,1.102451e-05
713.7899999994718,2.417554e-05,713.7899999994718,7.405975e-05,713.7899999994718,2.07394e-05,713.7899999994718,1.100277e-05
713.8049999994718,2.421571e-05,713.8049999994718,7.114452e-05,713.8049999994718,2.247049e-05,713.8049999994718,1.179133e-05
713.8199999994717,2.517795e-05,713.8199999994717,6.63563e-05,713.8199999994717,2.274837e-05,713.8199999994717,1.18414e-05
713.8349999994717,2.581715e-05,713.8349999994717,6.682698e-05,713.8349999994717,2.247112e-05,713.8349999994717,1.16483e-05
713.8499999994717,2.62162e-05,713.8499999994717,6.609915e-05,713.8499999994717,2.093074e-05,713.8499999994717,1.200327e-05
713.8649999994717,2.654142e-05,713.8649999994717,6.717955e-05,713.8649999994717,1.762017e-05,713.8649999994717,1.178297e-05
713.8799999994717,2.614356e-05,713.8799999994717,7.472854e-05,713.8799999994717,1.750145e-05,713.8799999994717,1.182831e-05
713.8949999994717,3.015313e-05,713.8949999994717,7.514699e-05,713.8949999994717,1.727543e-05,713.8949999994717,1.149982e-05
713.9099999994717,3.146088e-05,713.9099999994717,7.423131e-05,713.9099999994717,1.707283e-05,713.9099999994717,1.159375e-05
713.9249999994717,3.168174e-05,713.9249999994717,7.56205e-05,713.9249999994717,1.686029e-05,713.9249999994717,1.035101e-05
713.9399999994716,3.244444e-05,713.9399999994716,7.740362e-05,713.9399999994716,1.624239e-05,713.9399999994716,1.019883e-05
713.9549999994716,3.22703e-05,713.9549999994716,7.97427e-05,713.9549999994716,1.629348e-05,713.9549999994716,1.00275e-05
713.9699999994716,3.116577e-05,713.9699999994716,7.805639e-05,713.9699999994716,1.514927e-05,713.9699999994716,1.213981e-05
713.9849999994716,3.114813e-05,713.9849999994716,8.009364e-05,713.9849999994716,1.501852e-05,713.9849999994716,1.278632e-05
713.9999999994716,3.185158e-05,713.9999999994716,8.472996e-05,713.9999999994716,1.489609e-05,713.9999999994716,1.401214e-05
714.0149999994716,3.140575e-05,714.0149999994716,8.804329e-05,714.0149999994716,1.45507e-05,714.0149999994716,1.43145e-05
714.0299999994716,3.220869e-05,714.0299999994716,9.576957e-05,714.0299999994716,1.400108e-05,714.0299999994716,1.44155e-05
714.0449999994715,3.138063e-05,714.0449999994715,9.825649e-05,714.0449999994715,1.267123e-05,714.0449999994715,1.439595e-05
714.0599999994715,3.1201e-05,714.0599999994715,9.868023e-05,714.0599999994715,9.268258e-06,714.0599999994715,1.367946e-05
714.0749999994715,3.224715e-05,714.0749999994715,0.0001058542,714.0749999994715,9.040516e-06,714.0749999994715,1.377591e-05
714.0899999994715,3.197737e-05,714.0899999994715,0.0001061284,714.0899999994715,8.984247e-06,714.0899999994715,1.340169e-05
714.1049999994715,3.201039e-05,714.1049999994715,0.0001092081,714.1049999994715,9.29406e-06,714.1049999994715,1.322073e-05
714.1199999994715,3.262067e-05,714.1199999994715,0.0001066614,714.1199999994715,9.389061e-06,714.1199999994715,1.32058e-05
714.1349999994715,3.270391e-05,714.1349999994715,0.0001074635,714.1349999994715,9.685934e-06,714.1349999994715,1.322286e-05
714.1499999994714,2.789127e-05,714.1499999994714,0.0001094552,714.1499999994714,1.015731e-05,714.1499999994714,1.334586e-05
714.1649999994714,2.713505e-05,714.1649999994714,0.0001096435,714.1649999994714,1.027314e-05,714.1649999994714,1.323457e-05
714.1799999994714,2.726866e-05,714.1799999994714,0.0001056883,714.1799999994714,1.022228e-05,714.1799999994714,1.317697e-05
714.1949999994714,2.714232e-05,714.1949999994714,0.0001045624,714.1949999994714,1.026765e-05,714.1949999994714,1.287416e-05
714.2099999994714,2.677971e-05,714.2099999994714,0.0001030422,714.2099999994714,1.106151e-05,714.2099999994714,1.277199e-05
714.2249999994714,2.720504e-05,714.2249999994714,0.0001043187,714.2249999994714,1.156334e-05,714.2249999994714,9.958426e-06
714.2399999994714,2.85245e-05,714.2399999994714,0.000105592,714.2399999994714,1.11982e-05,714.2399999994714,9.37104e-06
714.2549999994714,2.871056e-05,714.2549999994714,0.0001025766,714.2549999994714,1.174705e-05,714.2549999994714,7.410121e-06
714.2699999994713,2.977468e-05,714.2699999994713,0.0001009095,714.2699999994713,1.171463e-05,714.2699999994713,7.053663e-06
714.2849999994713,2.904374e-05,714.2849999994713,9.371505e-05,714.2849999994713,1.17746e-05,714.2849999994713,6.836638e-06
714.2999999994713,2.867325e-05,714.2999999994713,9.297954e-05,714.2999999994713,1.155359e-05,714.2999999994713,6.713969e-06
714.3149999994713,2.813916e-05,714.3149999994713,8.415493e-05,714.3149999994713,1.141004e-05,714.3149999994713,6.809799e-06
714.3299999994713,2.73146e-05,714.3299999994713,8.296983e-05,714.3299999994713,1.114777e-05,714.3299999994713,6.483414e-06
714.3449999994713,2.829592e-05,714.3449999994713,7.954531e-05,714.3449999994713,1.079207e-05,714.3449999994713,6.472542e-06
714.3599999994713,2.783111e-05,714.3599999994713,7.814496e-05,714.3599999994713,1.063958e-05,714.3599999994713,6.576178e-06
714.3749999994712,2.774036e-05,714.3749999994712,7.655453e-05,714.3749999994712,1.040124e-05,714.3749999994712,6.684531e-06
714.3899999994712,2.809858e-05,714.3899999994712,7.689309e-05,714.3899999994712,1.010029e-05,714.3899999994712,6.541815e-06
714.4049999994712,2.843497e-05,714.4049999994712,7.410596e-05,714.4049999994712,1.03333e-05,714.4049999994712,6.404719e-06
714.4199999994712,2.776421e-05,714.4199999994712,7.524777e-05,714.4199999994712,1.049024e-05,714.4199999994712,6.65708e-06
714.4349999994712,2.764116e-05,714.4349999994712,7.560709e-05,714.4349999994712,1.04983e-05,714.4349999994712,6.569749e-06
714.4499999994712,2.808655e-05,714.4499999994712,7.752582e-05,714.4499999994712,1.038497e-05,714.4499999994712,6.669763e-06
714.4649999994712,2.8072e-05,714.4649999994712,7.751128e-05,714.4649999994712,8.749116e-06,714.4649999994712,6.753716e-06
714.4799999994711,2.679391e-05,714.4799999994711,7.618932e-05,714.4799999994711,8.611173e-06,714.4799999994711,6.730734e-06
714.4949999994711,2.555997e-05,714.4949999994711,7.655324e-05,714.4949999994711,8.599714e-06,714.4949999994711,6.940926e-06
714.5099999994711,2.485926e-05,714.5099999994711,7.324307e-05,714.5099999994711,8.115992e-06,714.5099999994711,6.938897e-06
714.5249999994711,2.34635e-05,714.5249999994711,6.98878e-05,714.5249999994711,8.209184e-06,714.5249999994711,6.890002e-06
714.5399999994711,2.43844e-05,714.5399999994711,6.698931e-05,714.5399999994711,8.121197e-06,714.5399999994711,6.855157e-06
714.5549999994711,2.433525e-05,714.5549999994711,6.288682e-05,714.5549999994711,8.150632e-06,714.5549999994711,6.764137e-06
714.5699999994711,2.413238e-05,714.5699999994711,6.403971e-05,714.5699999994711,8.154087e-06,714.5699999994711,6.749543e-06
714.584999999471,2.412187e-05,714.584999999471,6.389723e-05,714.584999999471,8.250264e-06,714.584999999471,7.190141e-06
714.599999999471,2.271367e-05,714.599999999471,6.552616e-05,714.599999999471,8.221186e-06,714.599999999471,6.926705e-06
714.614999999471,2.294199e-05,714.614999999471,6.493315e-05,714.614999999471,7.913874e-06,714.614999999471,6.973323e-06
714.629999999471,2.318994e-05,714.629999999471,6.084344e-05,714.629999999471,8.055015e-06,714.629999999471,6.920602e-06
714.644999999471,2.383755e-05,714.644999999471,5.91194e-05,714.644999999471,7.963557e-06,714.644999999471,6.669763e-06
714.659999999471,2.433467e-05,714.659999999471,5.908246e-05,714.659999999471,7.246734e-06,714.659999999471,6.565459e-06
714.674999999471,2.42349e-05,714.674999999471,6.037139e-05,714.674999999471,6.910417e-06,714.674999999471,6.922637e-06
714.689999999471,2.477355e-05,714.689999999471,6.377299e-05,714.689999999471,6.930771e-06,714.689999999471,7.784659e-06
714.7049999994709,2.712518e-05,714.7049999994709,6.203364e-05,714.7049999994709,7.123218e-06,714.7049999994709,7.775606e-06
714.7199999994709,2.915846e-05,714.7199999994709,5.739511e-05,714.7199999994709,6.99148e-06,714.7199999994709,8.348708e-06
714.7349999994709,3.012648e-05,714.7349999994709,5.571508e-05,714.7349999994709,6.930771e-06,714.7349999994709,8.451005e-06
714.7499999994709,3.175768e-05,714.7499999994709,6.00105e-05,714.7499999994709,7.063642e-06,714.7499999994709,8.353768e-06
714.7649999994709,3.022778e-05,714.7649999994709,6.277135e-05,714.7649999994709,6.975343e-06,714.7649999994709,8.479295e-06
714.7799999994709,3.117029e-05,714.7799999994709,8.042641e-05,714.7799999994709,7.364355e-06,714.7799999994709,9.31979e-06
714.7949999994709,3.199631e-05,714.7949999994709,8.298155e-05,714.7949999994709,7.406318e-06,714.7949999994709,9.506848e-06
714.8099999994708,3.568682e-05,714.8099999994708,8.416297e-05,714.8099999994708,7.573703e-06,714.8099999994708,9.690296e-06
714.8249999994708,3.614336e-05,714.8249999994708,9.237597e-05,714.8249999994708,7.711938e-06,714.8249999994708,1.004294e-05
714.8399999994708,3.649553e-05,714.8399999994708,9.525174e-05,714.8399999994708,7.438582e-06,714.8399999994708,1.017394e-05
714.8549999994708,3.883888e-05,714.8549999994708,9.564182e-05,714.8549999994708,7.871038e-06,714.8549999994708,1.070162e-05
714.8699999994708,3.931329e-05,714.8699999994708,9.627862e-05,714.8699999994708,1.501571e-05,714.8699999994708,1.074497e-05
714.8849999994708,3.82711e-05,714.8849999994708,9.725353e-05,714.8849999994708,2.547993e-05,714.8849999994708,1.072135e-05
714.8999999994708,3.756412e-05,714.8999999994708,0.0001072325,714.8999999994708,2.557925e-05,714.8999999994708,1.136799e-05
714.9149999994708,3.81679e-05,714.9149999994708,0.0001068293,714.9149999994708,2.578057e-05,714.9149999994708,1.180924e-05
714.9299999994707,3.828692e-05,714.9299999994707,0.0001057149,714.9299999994707,2.591138e-05,714.9299999994707,1.137047e-05
714.9449999994707,3.777727e-05,714.9449999994707,0.0001025368,714.9449999994707,2.611499e-05,714.9449999994707,1.1207e-05
714.9599999994707,3.510658e-05,714.9599999994707,0.0001032116,714.9599999994707,2.615703e-05,714.9599999994707,1.104749e-05
714.9749999994707,3.384192e-05,714.9749999994707,0.0001066737,714.9749999994707,2.62076e-05,714.9749999994707,1.134442e-05
714.9899999994707,3.250127e-05,714.9899999994707,0.0001063654,714.9899999994707,2.706748e-05,714.9899999994707,1.352098e-05
715.0049999994707,3.241142e-05,715.0049999994707,0.0001076707,715.0049999994707,2.699922e-05,715.0049999994707,1.496402e-05
715.0199999994707,3.244791e-05,715.0199999994707,0.0001070839,715.0199999994707,2.705967e-05,715.0199999994707,1.505412e-05
715.0349999994706,3.124161e-05,715.0349999994706,0.0001197735,715.0349999994706,2.701747e-05,715.0349999994706,1.878112e-05
715.0499999994706,3.141697e-05,715.0499999994706,0.0001266813,715.0499999994706,2.725677e-05,715.0499999994706,1.890596e-05
715.0649999994706,2.845874e-05,715.0649999994706,0.0001230919,715.0649999994706,2.763402e-05,715.0649999994706,1.868638e-05
715.0799999994706,2.812765e-05,715.0799999994706,0.0001270502,715.0799999994706,2.761362e-05,715.0799999994706,1.875635e-05
715.0949999994706,2.673338e-05,715.0949999994706,0.0001450683,715.0949999994706,2.757329e-05,715.0949999994706,1.98055e-05
715.1099999994706,2.46607e-05,715.1099999994706,0.0001456218,715.1099999994706,2.740984e-05,715.1099999994706,1.959815e-05
715.1249999994706,2.366436e-05,715.1249999994706,0.0001453972,715.1249999994706,1.414622e-05,715.1249999994706,1.968708e-05
715.1399999994705,2.408622e-05,715.1399999994705,0.0001422753,715.1399999994705,1.261664e-05,715.1399999994705,1.982754e-05
715.1549999994705,2.605343e-05,715.1549999994705,0.0001420207,715.1549999994705,1.222652e-05,715.1549999994705,1.977204e-05
715.1699999994705,2.51466e-05,715.1699999994705,0.0001428892,715.1699999994705,1.204428e-05,715.1699999994705,1.963693e-05
715.1849999994705,2.505512e-05,715.1849999994705,0.0001432897,715.1849999994705,1.19102e-05,715.1849999994705,1.985735e-05
715.1999999994705,2.48938e-05,715.1999999994705,0.0001446181,715.1999999994705,1.141868e-05,715.1999999994705,1.970067e-05
715.2149999994705,2.481502e-05,715.2149999994705,0.0001570038,715.2149999994705,1.133821e-05,715.2149999994705,1.98765e-05
715.2299999994705,2.532911e-05,715.2299999994705,0.0001564595,715.2299999994705,9.521654e-06,715.2299999994705,1.898404e-05
715.2449999994705,2.51309e-05,715.2449999994705,0.000154096,715.2449999994705,8.758771e-06,715.2449999994705,1.709427e-05
715.2599999994704,2.505624e-05,715.2599999994704,0.0001536625,715.2599999994704,8.776445e-06,715.2599999994704,1.720762e-05
715.2749999994704,2.474396e-05,715.2749999994704,0.0001537105,715.2749999994704,1.063825e-05,715.2749999994704,1.691451e-05
715.2899999994704,2.416446e-05,715.2899999994704,0.0001351866,715.2899999994704,1.064487e-05,715.2899999994704,1.264897e-05
715.3049999994704,2.189902e-05,715.3049999994704,0.0001387147,715.3049999994704,9.599744e-06,715.3049999994704,1.287634e-05
715.3199999994704,2.16213e-05,715.3199999994704,0.0001382491,715.3199999994704,9.932932e-06,715.3199999994704,1.335641e-05
715.3349999994704,2.22424e-05,715.3349999994704,0.0001232018,715.3349999994704,1.020711e-05,715.3349999994704,1.29124e-05
715.3499999994704,2.228732e-05,715.3499999994704,0.0001070647,715.3499999994704,1.015315e-05,715.3499999994704,1.147529e-05
715.3649999994703,2.154821e-05,715.3649999994703,0.0001099984,715.3649999994703,1.013509e-05,715.3649999994703,1.141868e-05
715.3799999994703,2.149781e-05,715.3799999994703,0.0001103163,715.3799999994703,1.019745e-05,715.3799999994703,1.142362e-05
715.3949999994703,2.136504e-05,715.3949999994703,0.0001061569,715.3949999994703,1.078423e-05,715.3949999994703,1.07266e-05
715.4099999994703,2.070881e-05,715.4099999994703,0.0001055227,715.4099999994703,1.06779e-05,715.4099999994703,1.059447e-05
715.4249999994703,2.011601e-05,715.4249999994703,0.0001059437,715.4249999994703,1.086881e-05,715.4249999994703,1.042964e-05
715.4399999994703,1.991119e-05,715.4399999994703,0.0001046441,715.4399999994703,1.09643e-05,715.4399999994703,1.030326e-05
715.4549999994703,1.998746e-05,715.4549999994703,0.0001013265,715.4549999994703,1.234805e-05,715.4549999994703,1.038904e-05
715.4699999994702,2.029657e-05,715.4699999994702,8.169897e-05,715.4699999994702,1.416313e-05,715.4699999994702,1.065942e-05
715.4849999994702,2.035618e-05,715.4849999994702,7.887182e-05,715.4849999994702,1.430958e-05,715.4849999994702,1.071346e-05
715.4999999994702,1.983606e-05,715.4999999994702,7.976372e-05,715.4999999994702,1.439986e-05,715.4999999994702,1.100021e-05
715.5149999994702,2.030282e-05,715.5149999994702,8.044935e-05,715.5149999994702,1.507563e-05,715.5149999994702,1.111486e-05
715.5299999994702,1.986586e-05,715.5299999994702,8.420044e-05,715.5299999994702,1.741269e-05,715.5299999994702,1.136427e-05
715.5449999994702,1.971782e-05,715.5449999994702,8.29554e-05,715.5449999994702,1.737057e-05,715.5449999994702,1.117427e-05
715.5599999994702,1.98687e-05,715.5599999994702,7.81873e-05,715.5599999994702,1.778727e-05,715.5599999994702,1.074628e-05
715.5749999994702,1.982043e-05,715.5749999994702,8.118388e-05,715.5749999994702,2.028269e-05,715.5749999994702,1.061837e-05
715.5899999994701,1.912819e-05,715.5899999994701,8.216079e-05,715.5899999994701,2.080247e-05,715.5899999994701,1.032375e-05
715.6049999994701,1.874358e-05,715.6049999994701,8.160874e-05,715.6049999994701,2.113235e-05,715.6049999994701,1.057983e-05
715.6199999994701,1.853955e-05,715.6199999994701,8.674234e-05,715.6199999994701,2.137756e-05,715.6199999994701,1.057317e-05
715.6349999994701,1.785288e-05,715.6349999994701,9.018723e-05,715.6349999994701,2.197479e-05,715.6349999994701,1.192557e-05
715.6499999994701,1.638831e-05,715.6499999994701,9.038428e-05,715.6499999994701,2.252809e-05,715.6499999994701,1.234576e-05
715.6649999994701,1.692949e-05,715.6649999994701,8.966355e-05,715.6649999994701,2.264161e-05,715.6649999994701,1.242425e-05
715.67999999947,1.759697e-05,715.67999999947,8.986708e-05,715.67999999947,2.31948e-05,715.67999999947,1.250561e-05
715.69499999947,1.795281e-05,715.69499999947,8.971852e-05,715.69499999947,2.336724e-05,715.69499999947,1.200562e-05
715.70999999947,1.772221e-05,715.70999999947,8.993541e-05,715.70999999947,2.254622e-05,715.70999999947,1.1705e-05
715.72499999947,1.644666e-05,715.72499999947,9.030461e-05,715.72499999947,2.282935e-05,715.72499999947,1.145686e-05
715.73999999947,1.56829e-05,715.73999999947,9.271647e-05,715.73999999947,2.297757e-05,715.73999999947,1.140264e-05
715.75499999947,1.549949e-05,715.75499999947,9.324445e-05,715.75499999947,2.273536e-05,715.75499999947,1.134442e-05
715.76999999947,1.517342e-05,715.76999999947,9.29809e-05,715.76999999947,2.194464e-05,715.76999999947,1.085973e-05
715.78499999947,1.508404e-05,715.78499999947,8.375476e-05,715.78499999947,1.950449e-05,715.78499999947,1.065281e-05
715.79999999947,1.569278e-05,715.79999999947,8.573499e-05,715.79999999947,1.939875e-05,715.79999999947,1.07266e-05
715.8149999994699,1.729988e-05,715.8149999994699,8.268019e-05,715.8149999994699,1.756813e-05,715.8149999994699,1.042153e-05
715.8299999994699,1.697851e-05,715.8299999994699,8.179599e-05,715.8299999994699,1.569009e-05,715.8299999994699,1.050902e-05
715.8449999994699,1.840075e-05,715.8449999994699,8.906661e-05,715.8449999994699,1.55865e-05,715.8449999994699,1.05585e-05
715.8599999994699,2.016288e-05,715.8599999994699,8.548323e-05,715.8599999994699,1.534054e-05,715.8599999994699,1.041748e-05
715.8749999994699,2.104685e-05,715.8749999994699,8.207982e-05,715.8749999994699,1.44711e-05,715.8749999994699,1.007934e-05
715.8899999994699,2.321604e-05,715.8899999994699,8.230434e-05,715.8899999994699,1.373803e-05,715.8899999994699,8.705536e-06
715.9049999994699,2.398248e-05,715.9049999994699,8.612269e-05,715.9049999994699,1.280284e-05,715.9049999994699,8.528988e-06
715.9199999994698,2.371609e-05,715.9199999994698,8.68827e-05,715.9199999994698,1.227941e-05,715.9199999994698,8.731387e-06
715.9349999994698,2.350609e-05,715.9349999994698,8.843122e-05,715.9349999994698,1.138038e-05,715.9349999994698,9.009299e-06
715.9499999994698,2.350728e-05,715.9499999994698,9.452953e-05,715.9499999994698,1.048487e-05,715.9499999994698,9.310717e-06
715.9649999994698,2.434335e-05,715.9649999994698,9.899562e-05,715.9649999994698,8.749116e-06,715.9649999994698,9.21185e-06
715.9799999994698,2.451921e-05,715.9799999994698,0.0001007108,715.9799999994698,8.209184e-06,715.9799999994698,9.496471e-06
715.9949999994698,2.674919e-05,715.9949999994698,9.992487e-05,715.9949999994698,7.860292e-06,715.9949999994698,9.53496e-06
716.0099999994698,3.114406e-05,716.0099999994698,9.88689e-05,716.0099999994698,8.014691e-06,716.0099999994698,9.68448e-06
716.0249999994697,3.127991e-05,716.0249999994697,0.0001017616,716.0249999994697,8.100356e-06,716.0249999994697,9.932932e-06
716.0399999994697,3.126865e-05,716.0399999994697,0.0001067289,716.0399999994697,8.296236e-06,716.0399999994697,1.027999e-05
716.0549999994697,3.109699e-05,716.0549999994697,0.0001090974,716.0549999994697,8.129866e-06,716.0549999994697,1.023743e-05
716.0699999994697,3.237707e-05,716.0699999994697,0.0001076259,716.0699999994697,8.31828e-06,716.0699999994697,1.024568e-05
716.0849999994697,3.303774e-05,716.0849999994697,0.0001076075,716.0849999994697,8.46433e-06,716.0849999994697,9.864624e-06
716.0999999994697,3.373227e-05,716.0999999994697,0.0001112261,716.0999999994697,8.487596e-06,716.0999999994697,9.901682e-06
716.1149999994697,3.401464e-05,716.1149999994697,0.0001167575,716.1149999994697,8.512456e-06,716.1149999994697,9.735256e-06
716.1299999994696,3.397652e-05,716.1299999994696,0.0001215295,716.1299999994696,8.477633e-06,716.1299999994696,1.000077e-05
716.1449999994696,3.271338e-05,716.1449999994696,0.0001196771,716.1449999994696,8.357139e-06,716.1449999994696,9.93435e-06
716.1599999994696,3.290445e-05,716.1599999994696,0.0001175095,716.1599999994696,8.169621e-06,716.1599999994696,9.86748e-06
716.1749999994696,3.34492e-05,716.1749999994696,0.0001234793,716.1749999994696,8.207468e-06,716.1749999994696,9.749715e-06
716.1899999994696,3.38698e-05,716.1899999994696,0.0001205147,716.1899999994696,8.212614e-06,716.1899999994696,9.342435e-06
716.2049999994696,3.396076e-05,716.2049999994696,0.0001175618,716.2049999994696,8.136793e-06,716.2049999994696,9.474194e-06
716.2199999994696,3.47095e-05,716.2199999994696,0.0001149345,716.2199999994696,8.219473e-06,716.2199999994696,9.68448e-06
716.2349999994696,3.524194e-05,716.2349999994696,0.0001140945,716.2349999994696,8.186846e-06,716.2349999994696,9.034282e-06
716.2499999994695,3.138422e-05,716.2499999994695,0.0001145657,716.2499999994695,8.331817e-06,716.2499999994695,9.277373e-06
716.2649999994695,2.971406e-05,716.2649999994695,0.0001136471,716.2649999994695,8.202317e-06,716.2649999994695,9.21185e-06
716.2799999994695,3.101898e-05,716.2799999994695,0.0001104528,716.2799999994695,8.240013e-06,716.2799999994695,8.800488e-06
716.2949999994695,3.095442e-05,716.2949999994695,0.0001057256,716.2949999994695,8.291141e-06,716.2949999994695,8.565246e-06
716.3099999994695,3.187501e-05,716.3099999994695,0.000102429,716.3099999994695,7.854914e-06,716.3099999994695,8.606265e-06
716.3249999994695,2.976474e-05,716.3249999994695,0.0001018263,716.3249999994695,7.735647e-06,716.3249999994695,8.832443e-06
716.3399999994695,3.210311e-05,716.3399999994695,9.600067e-05,716.3399999994695,7.988284e-06,716.3399999994695,8.784466e-06
716.3549999994694,3.109563e-05,716.3549999994694,9.336825e-05,716.3549999994694,7.887128e-06,716.3549999994694,8.867461e-06
716.3699999994694,2.979549e-05,716.3699999994694,8.426952e-05,716.3699999994694,8.303025e-06,716.3699999994694,9.003043e-06
716.3849999994694,2.951332e-05,716.3849999994694,7.917896e-05,716.3849999994694,8.36893e-06,716.3849999994694,8.789276e-06
716.3999999994694,2.925878e-05,716.3999999994694,8.69613e-05,716.3999999994694,8.677985e-06,716.3999999994694,8.869049e-06
716.4149999994694,2.885055e-05,716.4149999994694,8.835091e-05,716.4149999994694,8.650345e-06,716.4149999994694,8.771629e-06
716.4299999994694,2.991062e-05,716.4299999994694,8.792497e-05,716.4299999994694,8.500864e-06,716.4299999994694,8.651973e-06
716.4449999994694,3.364195e-05,716.4449999994694,8.751322e-05,716.4449999994694,8.287742e-06,716.4449999994694,8.62425e-06
716.4599999994693,3.441114e-05,716.4599999994693,8.465794e-05,716.4599999994693,8.241723e-06,716.4599999994693,8.469321e-06
716.4749999994693,3.36298e-05,716.4749999994693,8.473461e-05,716.4749999994693,8.309809e-06,716.4749999994693,8.299631e-06
716.4899999994693,3.328328e-05,716.4899999994693,8.865523e-05,716.4899999994693,8.340267e-06,716.4899999994693,7.883556e-06
716.5049999994693,3.331839e-05,716.5049999994693,8.614772e-05,716.5049999994693,8.148903e-06,716.5049999994693,7.71011e-06
716.5199999994693,3.269271e-05,716.5199999994693,8.550712e-05,716.5199999994693,8.138525e-06,716.5199999994693,7.555081e-06
716.5349999994693,3.300277e-05,716.5349999994693,8.516592e-05,716.5349999994693,7.922768e-06,716.5349999994693,7.391086e-06
716.5499999994693,3.239708e-05,716.5499999994693,8.49128e-05,716.5499999994693,8.096878e-06,716.5499999994693,7.519571e-06
716.5649999994693,3.435255e-05,716.5649999994693,8.776317e-05,716.5649999994693,8.260502e-06,716.5649999994693,7.264208e-06
716.5799999994692,3.361723e-05,716.5799999994692,8.838661e-05,716.5799999994692,8.100356e-06,716.5799999994692,7.03967e-06
716.5949999994692,3.336782e-05,716.5949999994692,9.531014e-05,716.5949999994692,7.383459e-06,716.5949999994692,6.873626e-06
716.6099999994692,3.470382e-05,716.6099999994692,9.923326e-05,716.6099999994692,7.655103e-06,716.6099999994692,6.569749e-06
716.6249999994692,3.458224e-05,716.6249999994692,9.964225e-05,716.6249999994692,7.279705e-06,716.6249999994692,6.745368e-06
716.6399999994692,3.57381e-05,716.6399999994692,9.627189e-05,716.6399999994692,7.364355e-06,716.6399999994692,6.347276e-06
716.6549999994692,3.578694e-05,716.6549999994692,8.36654e-05,716.6549999994692,7.238955e-06,716.6549999994692,6.239839e-06
716.6699999994692,3.612972e-05,716.6699999994692,7.900423e-05,716.6699999994692,7.275834e-06,716.6699999994692,5.931993e-06
716.6849999994691,3.496949e-05,716.6849999994691,7.603385e-05,716.6849999994691,7.131124e-06,716.6849999994691,5.979298e-06
716.6999999994691,3.096716e-05,716.6999999994691,7.763858e-05,716.6999999994691,7.262268e-06,716.6999999994691,6.007502e-06
716.7149999994691,3.108475e-05,716.7149999994691,8.106945e-05,716.7149999994691,7.125195e-06,716.7149999994691,6.023894e-06
716.7299999994691,3.099217e-05,716.7299999994691,8.017362e-05,716.7299999994691,6.896133e-06,716.7299999994691,6.116717e-06
716.7449999994691,3.129297e-05,716.7449999994691,7.972115e-05,716.7449999994691,6.867475e-06,716.7449999994691,6.282586e-06
716.7599999994691,3.502584e-05,716.7599999994691,7.80665e-05,716.7599999994691,6.846933e-06,716.7599999994691,6.235322e-06
716.7749999994691,3.4037e-05,716.7749999994691,7.649249e-05,716.7749999994691,6.780777e-06,716.7749999994691,6.541815e-06
716.789999999469,3.411636e-05,716.789999999469,7.632749e-05,716.789999999469,6.79323e-06,716.789999999469,6.789081e-06
716.804999999469,3.369383e-05,716.804999999469,7.604701e-05,716.804999999469,6.33617e-06,716.804999999469,8.358825e-06
716.819999999469,3.221088e-05,716.819999999469,7.365369e-05,716.819999999469,6.625263e-06,716.819999999469,8.343643e-06
716.834999999469,3.171996e-05,716.834999999469,7.084113e-05,716.834999999469,6.474718e-06,716.834999999469,9.195013e-06
716.849999999469,3.039601e-05,716.849999999469,5.841395e-05,716.849999999469,6.194524e-06,716.849999999469,9.549722e-06
716.864999999469,3.710038e-05,716.864999999469,5.168394e-05,716.864999999469,6.242096e-06,716.864999999469,9.552672e-06
716.879999999469,3.772988e-05,716.879999999469,5.358099e-05,716.879999999469,8.096878e-06,716.879999999469,9.79584e-06
716.894999999469,3.700153e-05,716.894999999469,5.774599e-05,716.894999999469,8.635676e-06,716.894999999469,1.049158e-05
716.9099999994689,3.881493e-05,716.9099999994689,6.652592e-05,716.9099999994689,9.287995e-06,716.9099999994689,1.076855e-05
716.9249999994689,3.861919e-05,716.9249999994689,6.884909e-05,716.9249999994689,9.472707e-06,716.9249999994689,1.121454e-05
716.9399999994689,3.92254e-05,716.9399999994689,8.126192e-05,716.9399999994689,9.515735e-06,716.9399999994689,2.456971e-05
716.9549999994689,3.874374e-05,716.9549999994689,8.769734e-05,716.9549999994689,9.618801e-06,716.9549999994689,2.546058e-05
716.9699999994689,3.928927e-05,716.9699999994689,9.327496e-05,716.9699999994689,1.002188e-05,716.9699999994689,2.688995e-05
716.9849999994689,4.098169e-05,716.9849999994689,9.528102e-05,716.9849999994689,1.023468e-05,716.9849999994689,2.686532e-05
716.9999999994689,3.856809e-05,716.9999999994689,0.0001018998,716.9999999994689,1.044583e-05,716.9999999994689,2.705551e-05
717.0149999994688,3.919882e-05,717.0149999994688,0.0001108144,717.0149999994688,1.053981e-05,717.0149999994688,2.738361e-05
717.0299999994688,4.013352e-05,717.0299999994688,0.0001393246,717.0299999994688,1.058249e-05,717.0299999994688,2.762841e-05
717.0449999994688,4.243632e-05,717.0449999994688,0.0001438644,717.0449999994688,1.43597e-05,717.0449999994688,2.778298e-05
717.0599999994688,4.324065e-05,717.0599999994688,0.0001461625,717.0599999994688,1.498754e-05,717.0599999994688,2.76707e-05
717.0749999994688,4.295203e-05,717.0749999994688,0.0001508193,717.0749999994688,1.547494e-05,717.0749999994688,2.774594e-05
717.0899999994688,4.291626e-05,717.0899999994688,0.0001820945,717.0899999994688,1.602059e-05,717.0899999994688,2.810861e-05
717.1049999994688,4.407377e-05,717.1049999994688,0.0001860387,717.1049999994688,1.65065e-05,717.1049999994688,2.8714e-05
717.1199999994687,3.893668e-05,717.1199999994687,0.0001876327,717.1199999994687,1.649455e-05,717.1199999994687,2.895436e-05
717.1349999994687,3.835823e-05,717.1349999994687,0.0001863142,717.1349999994687,1.577158e-05,717.1349999994687,2.920336e-05
717.1499999994687,3.799663e-05,717.1499999994687,0.00018531,717.1499999994687,1.527428e-05,717.1499999994687,2.907912e-05
717.1649999994687,3.64631e-05,717.1649999994687,0.0001844286,717.1649999994687,1.509057e-05,717.1649999994687,2.923132e-05
717.1799999994687,3.655146e-05,717.1799999994687,0.0001821519,717.1799999994687,1.507376e-05,717.1799999994687,2.766357e-05
717.1949999994687,3.654876e-05,717.1949999994687,0.0001774822,717.1949999994687,1.509244e-05,717.1949999994687,1.954056e-05
717.2099999994687,3.746499e-05,717.2099999994687,0.0001734148,717.2099999994687,1.523919e-05,717.2099999994687,1.808181e-05
717.2249999994687,3.681566e-05,717.2249999994687,0.0001692511,717.2249999994687,1.50354e-05,717.2249999994687,1.700753e-05
717.2399999994686,3.503348e-05,717.2399999994686,0.0001699337,717.2399999994686,1.538089e-05,717.2399999994686,1.732998e-05
717.2549999994686,3.514829e-05,717.2549999994686,0.0001695452,717.2549999994686,1.521422e-05,717.2549999994686,1.714447e-05
717.2699999994686,3.301301e-05,717.2699999994686,0.0001621474,717.2699999994686,1.517806e-05,717.2699999994686,1.655422e-05
717.2849999994686,3.238882e-05,717.2849999994686,0.0001412234,717.2849999994686,1.494707e-05,717.2849999994686,1.709675e-05
717.2999999994686,3.008812e-05,717.2999999994686,0.0001401109,717.2999999994686,1.144948e-05,717.2999999994686,1.679835e-05
717.3149999994686,2.940094e-05,717.3149999994686,0.00013748,717.3149999994686,1.140511e-05,717.3149999994686,1.637627e-05
717.3299999994686,2.943494e-05,717.3299999994686,0.0001138629,717.3299999994686,1.063163e-05,717.3299999994686,1.61179e-05
717.3449999994685,2.75784e-05,717.3449999994685,8.792817e-05,717.3449999994685,1.075415e-05,717.3449999994685,1.52835e-05
717.3599999994685,2.682596e-05,717.3599999994685,8.268718e-05,717.3599999994685,9.883171e-06,717.3599999994685,1.399303e-05
717.3749999994685,2.710181e-05,717.3749999994685,8.297085e-05,717.3749999994685,1.039175e-05,717.3749999994685,1.407234e-05
717.3899999994685,2.741087e-05,717.3899999994685,8.246763e-05,717.3899999994685,1.140511e-05,717.3899999994685,1.421476e-05
717.4049999994685,2.808404e-05,717.4049999994685,8.257944e-05,717.4049999994685,1.172064e-05,717.4049999994685,1.428002e-05
717.4199999994685,2.728364e-05,717.4199999994685,8.263571e-05,717.4199999994685,1.374315e-05,717.4199999994685,1.352307e-05
717.4349999994685,2.808755e-05,717.4349999994685,9.682748e-05,717.4349999994685,1.409534e-05,717.4349999994685,1.319833e-05
717.4499999994684,2.675972e-05,717.4499999994684,9.922304e-05,717.4499999994684,1.61144e-05,717.4499999994684,1.32898e-05
717.4649999994684,2.659868e-05,717.4649999994684,9.974369e-05,717.4649999994684,1.657378e-05,717.4649999994684,1.347402e-05
717.4799999994684,2.757023e-05,717.4799999994684,9.936136e-05,717.4799999994684,1.686697e-05,717.4799999994684,1.342794e-05
717.4949999994684,3.004642e-05,717.4949999994684,9.584471e-05,717.4949999994684,1.685945e-05,717.4949999994684,1.319406e-05
717.5099999994684,3.089293e-05,717.5099999994684,9.074235e-05,717.5099999994684,1.698764e-05,717.5099999994684,1.332791e-05
717.5249999994684,3.162388e-05,717.5249999994684,8.90783e-05,717.5249999994684,1.75296e-05,717.5249999994684,1.332262e-05
717.5399999994684,3.159224e-05,717.5399999994684,8.872765e-05,717.5399999994684,1.832711e-05,717.5399999994684,1.233549e-05
717.5549999994684,3.329047e-05,717.5549999994684,8.679672e-05,717.5549999994684,1.83747e-05,717.5549999994684,1.226908e-05
717.5699999994683,3.340748e-05,717.5699999994683,8.479361e-05,717.5699999994683,1.851979e-05,717.5699999994683,1.199153e-05
717.5849999994683,3.618543e-05,717.5849999994683,8.560295e-05,717.5849999994683,1.828093e-05,717.5849999994683,1.178894e-05
717.5999999994683,3.697716e-05,717.5999999994683,7.919159e-05,717.5999999994683,1.829403e-05,717.5999999994683,1.17985e-05
717.6149999994683,3.808994e-05,717.6149999994683,7.840051e-05,717.6149999994683,1.838773e-05,717.6149999994683,1.141868e-05
717.6299999994683,4.020226e-05,717.6299999994683,7.710842e-05,717.6299999994683,1.793554e-05,717.6299999994683,1.066866e-05
717.6449999994683,4.162391e-05,717.6449999994683,7.698262e-05,717.6449999994683,1.791117e-05,717.6449999994683,1.067922e-05
717.6599999994683,4.191865e-05,717.6599999994683,7.672528e-05,717.6599999994683,1.768322e-05,717.6599999994683,1.054916e-05
717.6749999994682,4.436399e-05,717.6749999994682,7.012262e-05,717.6749999994682,1.604783e-05,717.6749999994682,1.096943e-05
717.6899999994682,4.630206e-05,717.6899999994682,5.409175e-05,717.6899999994682,1.505225e-05,717.6899999994682,1.216994e-05
717.7049999994682,4.725426e-05,717.7049999994682,6.682108e-05,717.7049999994682,1.391125e-05,717.7049999994682,1.094372e-05
717.7199999994682,4.667507e-05,717.7199999994682,7.318515e-05,717.7199999994682,1.323244e-05,717.7199999994682,1.091924e-05
717.7349999994682,4.631088e-05,717.7349999994682,7.481239e-05,717.7349999994682,1.301238e-05,717.7349999994682,1.08947e-05
717.7499999994682,4.455757e-05,717.7499999994682,7.428936e-05,717.7499999994682,1.279403e-05,717.7499999994682,1.01337e-05
717.7649999994682,4.485e-05,717.7649999994682,7.152446e-05,717.7649999994682,1.243671e-05,717.7649999994682,9.971149e-06
717.7799999994681,4.479846e-05,717.7799999994681,7.082144e-05,717.7799999994681,1.240609e-05,717.7799999994681,9.959841e-06
717.7949999994681,4.420112e-05,717.7949999994681,7.084889e-05,717.7949999994681,1.176622e-05,717.7949999994681,9.76848e-06
717.8099999994681,4.344637e-05,717.8099999994681,7.070359e-05,717.8099999994681,1.161682e-05,717.8099999994681,9.807338e-06
717.8249999994681,4.210173e-05,717.8249999994681,7.054223e-05,717.8249999994681,1.185567e-05,717.8249999994681,9.704822e-06
717.8399999994681,4.133354e-05,717.8399999994681,6.810564e-05,717.8399999994681,1.196919e-05,717.8399999994681,9.75838e-06
717.8549999994681,4.075316e-05,717.8549999994681,6.804688e-05,717.8549999994681,1.216415e-05,717.8549999994681,9.975386e-06
717.8699999994681,3.944921e-05,717.8699999994681,6.985493e-05,717.8699999994681,1.179969e-05,717.8699999994681,1.126592e-05
717.884999999468,3.68837e-05,717.884999999468,7.188809e-05,717.884999999468,1.163378e-05,717.884999999468,1.123211e-05
717.899999999468,3.521275e-05,717.899999999468,7.276686e-05,717.899999999468,1.16059e-05,717.899999999468,1.140387e-05
717.914999999468,3.460626e-05,717.914999999468,7.029738e-05,717.914999999468,1.191375e-05,717.914999999468,1.172184e-05
717.929999999468,3.037979e-05,717.929999999468,6.989163e-05,717.929999999468,1.173985e-05,717.929999999468,1.074104e-05
717.944999999468,2.812013e-05,717.944999999468,6.858238e-05,717.944999999468,1.141251e-05,717.944999999468,1.014204e-05
717.959999999468,2.764422e-05,717.959999999468,4.510525e-05,717.959999999468,1.115156e-05,717.959999999468,1.01933e-05
717.974999999468,2.766663e-05,717.974999999468,4.450221e-05,717.974999999468,1.101429e-05,717.974999999468,1.024705e-05
717.989999999468,2.841118e-05,717.989999999468,4.161036e-05,717.989999999468,1.094501e-05,717.989999999468,1.001063e-05
718.0049999994679,2.871351e-05,718.0049999994679,3.963588e-05,718.0049999994679,1.112627e-05,718.0049999994679,1.008074e-05
718.0199999994679,2.767986e-05,718.0199999994679,3.922289e-05,718.0199999994679,1.135435e-05,718.0199999994679,1.02704e-05
718.0349999994679,2.748272e-05,718.0349999994679,3.95957e-05,718.0349999994679,1.090633e-05,718.0349999994679,1.067131e-05
718.0499999994679,2.749041e-05,718.0499999994679,3.951665e-05,718.0499999994679,1.065149e-05,718.0499999994679,1.092439e-05
718.0649999994679,2.90088e-05,718.0649999994679,3.935125e-05,718.0649999994679,1.051171e-05,718.0649999994679,1.122458e-05
718.0799999994679,3.164882e-05,718.0799999994679,3.859584e-05,718.0799999994679,1.096558e-05,718.0799999994679,1.129215e-05
718.0949999994679,3.442178e-05,718.0949999994679,3.620217e-05,718.0949999994679,1.096172e-05,718.0949999994679,1.169658e-05
718.1099999994678,3.499486e-05,718.1099999994678,3.314587e-05,718.1099999994678,1.096815e-05,718.1099999994678,1.110979e-05
718.1249999994678,3.50821e-05,718.1249999994678,2.766255e-05,718.1249999994678,1.073186e-05,718.1249999994678,1.003733e-05
718.1399999994678,3.499405e-05,718.1399999994678,2.277003e-05,718.1399999994678,1.113892e-05,718.1399999994678,9.756936e-06
718.1549999994678,3.489973e-05,718.1549999994678,1.968207e-05,718.1549999994678,1.16616e-05,718.1549999994678,9.441426e-06
718.1699999994678,3.392631e-05,718.1699999994678,1.988854e-05,718.1699999994678,1.252925e-05,718.1699999994678,9.324323e-06
718.1849999994678,3.516912e-05,718.1849999994678,1.98389e-05,718.1849999994678,1.272559e-05,718.1849999994678,9.494987e-06
718.1999999994678,3.531302e-05,718.1999999994678,1.990553e-05,718.1999999994678,1.306424e-05,718.1999999994678,9.973975e-06
718.2149999994678,3.53517e-05,718.2149999994678,1.977703e-05,718.2149999994678,1.352723e-05,718.2149999994678,1.012536e-05
718.2299999994677,3.543965e-05,718.2299999994677,1.866375e-05,718.2299999994677,1.371853e-05,718.2299999994677,1.094243e-05
718.2449999994677,3.446555e-05,718.2449999994677,1.808882e-05,718.2449999994677,1.374828e-05,718.2449999994677,1.080511e-05
718.2599999994677,3.416258e-05,718.2599999994677,1.750709e-05,718.2599999994677,1.394362e-05,718.2599999994677,1.066338e-05
718.2749999994677,3.559591e-05,718.2749999994677,1.717976e-05,718.2749999994677,1.390821e-05,718.2749999994677,1.005836e-05
718.2899999994677,3.6477e-05,718.2899999994677,2.255559e-05,718.2899999994677,1.382083e-05,718.2899999994677,1.144702e-05
718.3049999994677,3.633578e-05,718.3049999994677,2.562602e-05,718.3049999994677,1.374418e-05,718.3049999994677,1.171703e-05
718.3199999994677,3.444551e-05,718.3199999994677,4.031807e-05,718.3199999994677,1.307501e-05,718.3199999994677,1.264675e-05
718.3349999994676,3.142818e-05,718.3349999994676,4.759051e-05,718.3349999994676,1.275102e-05,718.3349999994676,1.469328e-05
718.3499999994676,2.744322e-05,718.3499999994676,5.36577e-05,718.3499999994676,1.246952e-05,718.3499999994676,1.473732e-05
718.3649999994676,2.663202e-05,718.3649999994676,6.567712e-05,718.3649999994676,1.238791e-05,718.3649999994676,1.499975e-05
718.3799999994676,2.619847e-05,718.3799999994676,6.810958e-05,718.3799999994676,1.209214e-05,718.3799999994676,1.534329e-05
718.3949999994676,2.612901e-05,718.3949999994676,6.898093e-05,718.3949999994676,1.17038e-05,718.3949999994676,1.544304e-05
718.4099999994676,2.732233e-05,718.4099999994676,7.393755e-05,718.4099999994676,1.073973e-05,718.4099999994676,1.544943e-05
718.4249999994676,2.684749e-05,718.4249999994676,8.219558e-05,718.4249999994676,9.891719e-06,718.4249999994676,1.584643e-05
718.4399999994675,2.460065e-05,718.4399999994675,9.31344e-05,718.4399999994675,1.020849e-05,718.4399999994675,1.560818e-05
718.4549999994675,2.434277e-05,718.4549999994675,9.827784e-05,718.4549999994675,1.121328e-05,718.4549999994675,1.500632e-05
718.4699999994675,2.399422e-05,718.4699999994675,0.0001027329,718.4699999994675,1.128092e-05,718.4699999994675,1.500163e-05
718.4849999994675,2.414055e-05,718.4849999994675,0.0001178317,718.4849999994675,1.104494e-05,718.4849999994675,1.450027e-05
718.4999999994675,2.420873e-05,718.4999999994675,0.0001460731,718.4999999994675,1.092568e-05,718.4999999994675,1.45971e-05
718.5149999994675,2.315164e-05,718.5149999994675,0.0001555123,718.5149999994675,1.037004e-05,718.5149999994675,1.586508e-05
718.5299999994675,2.157369e-05,718.5299999994675,0.0001579312,718.5299999994675,1.026903e-05,718.5299999994675,1.5928e-05
718.5449999994674,1.936241e-05,718.5449999994674,0.0001598333,718.5449999994674,1.046604e-05,718.5449999994674,1.567032e-05
718.5599999994674,1.864865e-05,718.5599999994674,0.0001649025,718.5599999994674,1.042694e-05,718.5599999994674,1.646292e-05
718.5749999994674,1.942705e-05,718.5749999994674,0.0001696212,718.5749999994674,1.042424e-05,718.5749999994674,1.512228e-05
718.5899999994674,2.046385e-05,718.5899999994674,0.0001986542,718.5899999994674,1.068713e-05,718.5899999994674,1.376671e-05
718.6049999994674,2.097108e-05,718.6049999994674,0.0002113291,718.6049999994674,1.158889e-05,718.6049999994674,1.464431e-05
718.6199999994674,2.455996e-05,718.6199999994674,0.0002472291,718.6199999994674,1.171703e-05,718.6199999994674,1.506628e-05
718.6349999994674,2.413121e-05,718.6349999994674,0.0002528437,718.6349999994674,1.184973e-05,718.6349999994674,1.692533e-05
718.6499999994674,2.661033e-05,718.6499999994674,0.0003200117,718.6499999994674,1.239814e-05,718.6499999994674,1.88081e-05
718.6649999994673,2.862851e-05,718.6649999994673,0.0003311583,718.6649999994673,1.28391e-05,718.6649999994673,1.998746e-05
718.6799999994673,2.931073e-05,718.6799999994673,0.000335362,718.6799999994673,1.822537e-05,718.6799999994673,2.111968e-05
718.6949999994673,3.315862e-05,718.6949999994673,0.0003353349,718.6949999994673,2.700183e-05,718.6949999994673,2.282873e-05
718.7099999994673,3.474236e-05,718.7099999994673,0.0003344617,718.7099999994673,2.781288e-05,718.7099999994673,2.315833e-05
718.7249999994673,3.555275e-05,718.7249999994673,0.000332447,718.7249999994673,2.837099e-05,718.7249999994673,2.314677e-05
718.7399999994673,3.643218e-05,718.7399999994673,0.0003256539,718.7399999994673,2.867472e-05,718.7399999994673,2.317779e-05
718.7549999994673,4.037045e-05,718.7549999994673,0.0003146876,718.7549999994673,2.922506e-05,718.7549999994673,2.328209e-05
718.7699999994672,4.803481e-05,718.7699999994672,0.0003126666,718.7699999994672,2.924722e-05,718.7699999994672,2.441327e-05
718.7849999994672,4.828606e-05,718.7849999994672,0.0003110954,718.7849999994672,2.927321e-05,718.7849999994672,2.726814e-05
718.7999999994672,4.915003e-05,718.7999999994672,0.0003109181,718.7999999994672,2.912221e-05,718.7999999994672,2.929727e-05
718.8149999994672,4.99661e-05,718.8149999994672,0.0003075108,718.8149999994672,2.915411e-05,718.8149999994672,3.213557e-05
718.8299999994672,5.011474e-05,718.8299999994672,0.0003032539,718.8299999994672,2.91488e-05,718.8299999994672,3.592797e-05
718.8449999994672,4.988908e-05,718.8449999994672,0.0002850431,718.8449999994672,2.905877e-05,718.8449999994672,4.586187e-05
718.8599999994672,4.922535e-05,718.8599999994672,0.0002713449,718.8599999994672,2.871939e-05,718.8599999994672,4.59864e-05
718.8749999994671,4.915662e-05,718.8749999994671,0.0002436623,718.8749999994671,2.866195e-05,718.8749999994671,4.639354e-05
718.8899999994671,4.961386e-05,718.8899999994671,0.0002307116,718.8899999994671,2.864818e-05,718.8899999994671,4.684678e-05
718.9049999994671,4.838893e-05,718.9049999994671,0.0001226958,718.9049999994671,2.83009e-05,718.9049999994671,5.0619e-05
718.9199999994671,4.719639e-05,718.9199999994671,9.302952e-05,718.9199999994671,2.822164e-05,718.9199999994671,5.072658e-05
718.9349999994671,4.69675e-05,718.9349999994671,6.898829e-05,718.9349999994671,1.562982e-05,718.9349999994671,5.00233e-05
718.9499999994671,4.485628e-05,718.9499999994671,6.351203e-05,718.9499999994671,1.341954e-05,718.9499999994671,5.012907e-05
718.9649999994671,4.494475e-05,718.9649999994671,6.270849e-05,718.9649999994671,1.095144e-05,718.9649999994671,4.997569e-05
718.979999999467,4.470938e-05,718.979999999467,6.280343e-05,718.979999999467,1.024156e-05,718.979999999467,5.0014e-05
718.994999999467,4.367726e-05,718.994999999467,6.306308e-05,718.994999999467,1.020987e-05,718.994999999467,5.004723e-05
719.009999999467,3.795769e-05,719.009999999467,6.135619e-05,719.009999999467,7.90675e-06,719.009999999467,4.96933e-05
719.024999999467,3.005017e-05,719.024999999467,6.083534e-05,719.024999999467,7.708283e-06,719.024999999467,4.774064e-05
719.039999999467,2.943924e-05,719.039999999467,6.046605e-05,719.039999999467,7.582997e-06,719.039999999467,4.677576e-05
719.054999999467,2.775812e-05,719.054999999467,5.69489e-05,719.054999999467,8.171345e-06,719.054999999467,4.517796e-05
719.069999999467,2.749041e-05,719.069999999467,4.687804e-05,719.069999999467,8.728161e-06,719.069999999467,4.237254e-05
719.084999999467,2.688052e-05,719.084999999467,4.114087e-05,719.084999999467,8.723317e-06,719.084999999467,3.860095e-05
719.099999999467,2.734243e-05,719.099999999467,3.796808e-05,719.099999999467,8.853152e-06,719.099999999467,2.82411e-05
719.1149999994669,2.71807e-05,719.1149999994669,3.195754e-05,719.1149999994669,8.970124e-06,719.1149999994669,2.773578e-05
719.1299999994669,2.671124e-05,719.1299999994669,3.139544e-05,719.1299999994669,8.944963e-06,719.1299999994669,2.690985e-05
719.1449999994669,2.673496e-05,719.1449999994669,3.037979e-05,719.1449999994669,9.056085e-06,719.1449999994669,2.212047e-05
719.1599999994669,2.542736e-05,719.1599999994669,3.017227e-05,719.1599999994669,9.280408e-06,719.1599999994669,1.177101e-05
719.1749999994669,2.506805e-05,719.1749999994669,2.880021e-05,719.1749999994669,9.328855e-06,719.1749999994669,1.006116e-05
719.1899999994669,2.58466e-05,719.1899999994669,2.767833e-05,719.1899999994669,9.283444e-06,719.1899999994669,8.573465e-06
719.2049999994668,2.22443e-05,719.2049999994668,2.767426e-05,719.2049999994668,8.968555e-06,719.2049999994668,7.954708e-06
719.2199999994668,2.172529e-05,719.2199999994668,3.147878e-05,719.2199999994668,8.632413e-06,719.2199999994668,7.910313e-06
719.2349999994668,2.189645e-05,719.2349999994668,3.349844e-05,719.2349999994668,8.892842e-06,719.2349999994668,8.088174e-06
719.2499999994668,2.219104e-05,719.2499999994668,3.226812e-05,719.2499999994668,8.720087e-06,719.2499999994668,8.023475e-06
719.2649999994668,2.480878e-05,719.2649999994668,3.22406e-05,719.2649999994668,8.694202e-06,719.2649999994668,2.418136e-05
719.2799999994668,2.558201e-05,719.2799999994668,3.400346e-05,719.2799999994668,8.779654e-06,719.2799999994668,3.290616e-05
719.2949999994668,2.58057e-05,719.2949999994668,3.230738e-05,719.2949999994668,8.565246e-06,719.2949999994668,3.405065e-05
719.3099999994668,2.866047e-05,719.3099999994668,3.642406e-05,719.3099999994668,8.107309e-06,719.3099999994668,3.563428e-05
719.3249999994667,2.881537e-05,719.3249999994667,3.84569e-05,719.3249999994667,7.730182e-06,719.3249999994667,3.751759e-05
719.3399999994667,3.363776e-05,719.3399999994667,3.884504e-05,719.3399999994667,7.908532e-06,719.3399999994667,4.035195e-05
719.3549999994667,3.213075e-05,719.3549999994667,3.937594e-05,719.3549999994667,7.750201e-06,719.3549999994667,5.171391e-05
719.3699999994667,3.155923e-05,719.3699999994667,4.529069e-05,719.3699999994667,7.644054e-06,719.3699999994667,5.304965e-05
719.3849999994667,3.135952e-05,719.3849999994667,5.05137e-05,719.3849999994667,7.842351e-06,719.3849999994667,5.596281e-05
719.3999999994667,3.12398e-05,719.3999999994667,5.153792e-05,719.3999999994667,7.545752e-06,719.3999999994667,5.618188e-05
719.4149999994667,3.199587e-05,719.4149999994667,5.313297e-05,719.4149999994667,7.085544e-06,719.4149999994667,5.619241e-05
719.4299999994666,3.282386e-05,719.4299999994666,5.581763e-05,719.4299999994666,7.246734e-06,719.4299999994666,5.621221e-05
719.4449999994666,3.308717e-05,719.4449999994666,5.689594e-05,719.4449999994666,7.398706e-06,719.4449999994666,5.616959e-05
719.4599999994666,3.321973e-05,719.4599999994666,5.823425e-05,719.4599999994666,7.603404e-06,719.4599999994666,5.620093e-05
719.4749999994666,3.317348e-05,719.4749999994666,5.879565e-05,719.4749999994666,7.459384e-06,719.4749999994666,5.617561e-05
719.4899999994666,3.329767e-05,719.4899999994666,5.861569e-05,719.4899999994666,7.449935e-06,719.4899999994666,5.612844e-05
719.5049999994666,3.246136e-05,719.5049999994666,5.940678e-05,719.5049999994666,7.48201e-06,719.5049999994666,5.548706e-05
719.5199999994666,3.123124e-05,719.5199999994666,6.10009e-05,719.5199999994666,7.664298e-06,719.5199999994666,4.743753e-05
719.5349999994665,3.137344e-05,719.5349999994665,7.156738e-05,719.5349999994665,8.661737e-06,719.5349999994665,4.592694e-05
719.5499999994665,3.180688e-05,719.5499999994665,7.0863e-05,719.5499999994665,1.01184e-05,719.5499999994665,4.547444e-05
719.5649999994665,2.960006e-05,719.5649999994665,7.610015e-05,719.5649999994665,1.197743e-05,719.5649999994665,4.32224e-05
719.5799999994665,2.495315e-05,719.5799999994665,7.855506e-05,719.5799999994665,1.352307e-05,719.5799999994665,4.230201e-05
719.5949999994665,2.417087e-05,719.5949999994665,8.238286e-05,719.5949999994665,1.409734e-05,719.5949999994665,3.224366e-05
719.6099999994665,2.398835e-05,719.6099999994665,8.064523e-05,719.6099999994665,1.447791e-05,719.6099999994665,2.165971e-05
719.6249999994665,2.332138e-05,719.6249999994665,7.718985e-05,719.6249999994665,1.470574e-05,719.6249999994665,1.583131e-05
719.6399999994665,2.304919e-05,719.6399999994665,7.687312e-05,719.6399999994665,1.482974e-05,719.6399999994665,1.244577e-05
719.6549999994664,2.257182e-05,719.6549999994664,8.080298e-05,719.6549999994664,1.489231e-05,719.6549999994664,1.339643e-05
719.6699999994664,2.130099e-05,719.6699999994664,8.23673e-05,719.6699999994664,1.735353e-05,719.6699999994664,2.169155e-05
719.6849999994664,2.129041e-05,719.6849999994664,8.133279e-05,719.6849999994664,1.733404e-05,719.6849999994664,2.323242e-05
719.6999999994664,2.012372e-05,719.6999999994664,8.182026e-05,719.6999999994664,1.717402e-05,719.6999999994664,2.416446e-05
719.7149999994664,2.150895e-05,719.7149999994664,8.075729e-05,719.7149999994664,1.721498e-05,719.7149999994664,2.43971e-05
719.7299999994664,2.152924e-05,719.7299999994664,8.233514e-05,719.7299999994664,1.774366e-05,719.7299999994664,2.520646e-05
719.7449999994664,2.142101e-05,719.7449999994664,8.619332e-05,719.7449999994664,2.010341e-05,719.7449999994664,2.650584e-05
719.7599999994663,2.19562e-05,719.7599999994663,8.963228e-05,719.7599999994663,2.036517e-05,719.7599999994663,2.65308e-05
719.7749999994663,2.212429e-05,719.7749999994663,8.422688e-05,719.7749999994663,2.030837e-05,719.7749999994663,2.675761e-05
719.7899999994663,2.196389e-05,719.7899999994663,8.419793e-05,719.7899999994663,1.995007e-05,719.7899999994663,2.697207e-05
719.8049999994663,2.246548e-05,719.8049999994663,8.259377e-05,719.8049999994663,1.935368e-05,719.8049999994663,2.721126e-05
719.8199999994663,2.421629e-05,719.8199999994663,7.983045e-05,719.8199999994663,1.747648e-05,719.8199999994663,2.74232e-05
719.8349999994663,2.31565e-05,719.8349999994663,7.80425e-05,719.8349999994663,1.698432e-05,719.8349999994663,2.744014e-05
719.8499999994663,2.295058e-05,719.8499999994663,7.720335e-05,719.8499999994663,1.642437e-05,719.8499999994663,2.738619e-05
719.8649999994662,2.471092e-05,719.8649999994662,8.619381e-05,719.8649999994662,1.621375e-05,719.8649999994662,2.747554e-05
719.8799999994662,2.563646e-05,719.8799999994662,9.472097e-05,719.8799999994662,1.599419e-05,719.8799999994662,2.720815e-05
719.8949999994662,2.893343e-05,719.8949999994662,9.873717e-05,719.8949999994662,1.588017e-05,719.8949999994662,2.512474e-05
719.9099999994662,3.312631e-05,719.9099999994662,9.732391e-05,719.9099999994662,1.523365e-05,719.9099999994662,2.257869e-05
719.9249999994662,3.287789e-05,719.9249999994662,0.0001043285,719.9249999994662,1.348134e-05,719.9249999994662,1.836397e-05
719.9399999994662,3.275254e-05,719.9399999994662,0.0001148712,719.9399999994662,1.49612e-05,719.9399999994662,1.622504e-05
719.9549999994662,3.237315e-05,719.9549999994662,0.000115553,719.9549999994662,1.531205e-05,719.9549999994662,1.488284e-05
719.9699999994662,3.179669e-05,719.9699999994662,0.0001176922,719.9699999994662,1.56865e-05,719.9699999994662,1.493292e-05
719.9849999994661,3.149355e-05,719.9849999994661,0.0001189056,719.9849999994661,1.22484e-05,719.9849999994661,1.353972e-05
719.9999999994661,3.274652e-05,719.9999999994661,0.0001160883,719.9999999994661,1.135559e-05,719.9999999994661,1.220115e-05
720.0149999994661,3.289545e-05,720.0149999994661,0.0001130117,720.0149999994661,1.175784e-05,720.0149999994661,1.190547e-05
720.0299999994661,3.462987e-05,720.0299999994661,0.0001126068,720.0299999994661,1.176502e-05,720.0299999994661,1.171823e-05
720.0449999994661,3.435173e-05,720.0449999994661,0.0001107693,720.0449999994661,1.152551e-05,720.0449999994661,1.117049e-05
720.0599999994661,3.221219e-05,720.0599999994661,0.000110014,720.0599999994661,1.152551e-05,720.0599999994661,1.171823e-05
720.0749999994661,3.231872e-05,720.0749999994661,0.0001081615,720.0749999994661,1.172064e-05,720.0749999994661,1.134442e-05
720.089999999466,3.310164e-05,720.089999999466,0.0001067338,720.089999999466,1.173865e-05,720.089999999466,1.113386e-05
720.104999999466,3.246007e-05,720.104999999466,0.000103339,720.104999999466,1.182236e-05,720.104999999466,1.085973e-05
720.119999999466,3.149891e-05,720.119999999466,9.655009e-05,720.119999999466,1.181401e-05,720.119999999466,1.158281e-05
720.134999999466,3.03719e-05,720.134999999466,9.223724e-05,720.134999999466,1.192202e-05,720.134999999466,1.163983e-05
720.149999999466,2.839382e-05,720.149999999466,8.721573e-05,720.149999999466,1.186755e-05,720.149999999466,1.137666e-05
720.164999999466,2.563591e-05,720.164999999466,8.442066e-05,720.164999999466,1.194445e-05,720.164999999466,1.146424e-05
720.179999999466,2.551032e-05,720.179999999466,6.374405e-05,720.179999999466,1.12158e-05,720.179999999466,1.092955e-05
720.194999999466,2.536135e-05,720.194999999466,5.551523e-05,720.194999999466,1.032102e-05,720.194999999466,1.090762e-05
720.2099999994659,2.529294e-05,720.2099999994659,4.890955e-05,720.2099999994659,9.265217e-06,720.2099999994659,1.068845e-05
720.2249999994659,2.550535e-05,720.2249999994659,4.342822e-05,720.2249999994659,9.108818e-06,720.2249999994659,1.073842e-05
720.2399999994659,2.594235e-05,720.2399999994659,3.778808e-05,720.2399999994659,9.164322e-06,720.2399999994659,1.07777e-05
720.2549999994659,2.450541e-05,720.2549999994659,3.806072e-05,720.2549999994659,9.368033e-06,720.2549999994659,1.095401e-05
720.2699999994659,2.2109e-05,720.2699999994659,3.650441e-05,720.2699999994659,9.08404e-06,720.2699999994659,1.095273e-05
720.2849999994659,2.215483e-05,720.2849999994659,3.525793e-05,720.2849999994659,9.216436e-06,720.2849999994659,1.045392e-05
720.2999999994659,2.242406e-05,720.2999999994659,3.524234e-05,720.2999999994659,9.035841e-06,720.2999999994659,9.990908e-06
720.3149999994658,2.53191e-05,720.3149999994658,3.543209e-05,720.3149999994658,9.420515e-06,720.3149999994658,9.378553e-06
720.3299999994658,2.477298e-05,720.3299999994658,3.576016e-05,720.3299999994658,9.150478e-06,720.3299999994658,9.490535e-06
720.3449999994658,2.397602e-05,720.3449999994658,3.640781e-05,720.3449999994658,9.253046e-06,720.3449999994658,9.318279e-06
720.3599999994658,2.532411e-05,720.3599999994658,3.411678e-05,720.3599999994658,9.217965e-06,720.3599999994658,8.677985e-06
720.3749999994658,2.51281e-05,720.3749999994658,2.768342e-05,720.3749999994658,9.208791e-06,720.3749999994658,8.420948e-06
720.3899999994658,2.634698e-05,720.3899999994658,2.900297e-05,720.3899999994658,9.15971e-06,720.3899999994658,8.5866e-06
720.4049999994658,2.545449e-05,720.4049999994658,3.537161e-05,720.4049999994658,9.088692e-06,720.4049999994658,9.032722e-06
720.4199999994657,2.541018e-05,720.4199999994657,3.552183e-05,720.4199999994657,9.101082e-06,720.4199999994657,8.813284e-06
720.4349999994657,2.574394e-05,720.4349999994657,3.664038e-05,720.4349999994657,9.063859e-06,720.4349999994657,9.310717e-06
720.4499999994657,2.656423e-05,720.4499999994657,3.954943e-05,720.4499999994657,8.705536e-06,720.4499999994657,1.049561e-05
720.4649999994657,2.733625e-05,720.4649999994657,4.233662e-05,720.4649999994657,8.834038e-06,720.4649999994657,1.109076e-05
720.4799999994657,2.96856e-05,720.4799999994657,4.424157e-05,720.4799999994657,8.941813e-06,720.4799999994657,1.143225e-05
720.4949999994657,3.011666e-05,720.4949999994657,4.822592e-05,720.4949999994657,8.856334e-06,720.4949999994657,1.142978e-05
720.5099999994657,3.012087e-05,720.5099999994657,5.55439e-05,720.5099999994657,8.212614e-06,720.5099999994657,1.404528e-05
720.5249999994656,2.999011e-05,720.5249999994656,6.021625e-05,720.5249999994656,8.299631e-06,720.5249999994656,2.768749e-05
720.5399999994656,3.021426e-05,720.5399999994656,7.190827e-05,720.5399999994656,8.358825e-06,720.5399999994656,3.14743e-05
720.5549999994656,2.815918e-05,720.5549999994656,7.390534e-05,720.5549999994656,8.645458e-06,720.5549999994656,3.680954e-05
720.5699999994656,2.753802e-05,720.5699999994656,7.537739e-05,720.5699999994656,8.365563e-06,720.5699999994656,3.733089e-05
720.5849999994656,2.784882e-05,720.5849999994656,7.713691e-05,720.5849999994656,9.021799e-06,720.5849999994656,3.73818e-05
720.5999999994656,2.751806e-05,720.5999999994656,7.837248e-05,720.5999999994656,1.011144e-05,720.5999999994656,3.742624e-05
720.6149999994656,3.045897e-05,720.6149999994656,8.093154e-05,720.6149999994656,1.02209e-05,720.6149999994656,3.741495e-05
720.6299999994656,3.008016e-05,720.6299999994656,8.203433e-05,720.6299999994656,1.041477e-05,720.6299999994656,3.74157e-05
720.6449999994655,3.368003e-05,720.6449999994655,8.146794e-05,720.6449999994655,1.036053e-05,720.6449999994655,3.741683e-05
720.6599999994655,3.386522e-05,720.6599999994655,7.945211e-05,720.6599999994655,1.068582e-05,720.6599999994655,3.734674e-05
720.6749999994655,3.340748e-05,720.6749999994655,8.285719e-05,720.6749999994655,1.05745e-05,720.6749999994655,3.741946e-05
720.6899999994655,3.347867e-05,720.6899999994655,8.29425e-05,720.6899999994655,1.063295e-05,720.6899999994655,3.734863e-05
720.7049999994655,3.255194e-05,720.7049999994655,8.368088e-05,720.7049999994655,1.09347e-05,720.7049999994655,3.737992e-05
720.7199999994655,3.067235e-05,720.7199999994655,8.820617e-05,720.7199999994655,1.089857e-05,720.7199999994655,3.705973e-05
720.7349999994655,3.16074e-05,720.7349999994655,8.771741e-05,720.7349999994655,1.139275e-05,720.7349999994655,3.715767e-05
720.7499999994654,3.146043e-05,720.7499999994654,8.889848e-05,720.7499999994654,1.147652e-05,720.7499999994654,3.716942e-05
720.7649999994654,3.179669e-05,720.7649999994654,8.629786e-05,720.7649999994654,1.168453e-05,720.7649999994654,3.621306e-05
720.7799999994654,3.294423e-05,720.7799999994654,0.0001004684,720.7799999994654,1.158646e-05,720.7799999994654,2.754927e-05
720.7949999994654,3.341086e-05,720.7949999994654,9.510863e-05,720.7949999994654,1.176263e-05,720.7949999994654,1.9326e-05
720.8099999994654,3.59213e-05,720.8099999994654,9.436352e-05,720.8099999994654,1.173865e-05,720.8099999994654,1.562531e-05
720.8249999994654,3.618933e-05,720.8249999994654,9.746478e-05,720.8249999994654,1.180327e-05,720.8249999994654,1.579746e-05
720.8399999994654,3.646194e-05,720.8399999994654,0.000103806,720.8399999994654,1.07082e-05,720.8399999994654,1.598009e-05
720.8549999994653,3.567142e-05,720.8549999994653,0.0001050862,720.8549999994653,1.152062e-05,720.8549999994653,1.615805e-05
720.8699999994653,3.337457e-05,720.8699999994653,0.000104741,720.8699999994653,1.188652e-05,720.8699999994653,1.603729e-05
720.8849999994653,3.366497e-05,720.8849999994653,0.0001033755,720.8849999994653,1.201149e-05,720.8849999994653,1.625973e-05
720.8999999994653,3.144027e-05,720.8999999994653,0.0001048361,720.8999999994653,1.298637e-05,720.8999999994653,1.649711e-05
720.9149999994653,3.27263e-05,720.9149999994653,0.0001057489,720.9149999994653,1.29983e-05,720.9149999994653,1.654656e-05
720.9299999994653,3.457205e-05,720.9299999994653,0.000104702,720.9299999994653,1.331627e-05,720.9299999994653,1.694114e-05
720.9449999994653,3.585693e-05,720.9449999994653,0.0001035301,720.9449999994653,1.326115e-05,720.9449999994653,1.657633e-05
720.9599999994653,3.921391e-05,720.9599999994653,0.0001024802,720.9599999994653,1.36351e-05,720.9599999994653,1.626839e-05
720.9749999994652,3.881167e-05,720.9749999994652,9.890608e-05,720.9749999994652,1.335958e-05,720.9749999994652,1.671933e-05
720.9899999994652,3.765102e-05,720.9899999994652,0.0001014929,720.9899999994652,1.32484e-05,720.9899999994652,1.637799e-05
721.0049999994652,3.923366e-05,721.0049999994652,9.96216e-05,721.0049999994652,1.347193e-05,721.0049999994652,1.59845e-05
721.0199999994652,4.354612e-05,721.0199999994652,9.863582e-05,721.0199999994652,1.325265e-05,721.0199999994652,1.556479e-05
721.0349999994652,4.46848e-05,721.0349999994652,8.065745e-05,721.0349999994652,1.323138e-05,721.0349999994652,1.450804e-05
721.0499999994652,4.788677e-05,721.0499999994652,8.211379e-05,721.0499999994652,1.322818e-05,721.0499999994652,1.436362e-05
721.0649999994652,4.887181e-05,721.0649999994652,8.29588e-05,721.0649999994652,1.308578e-05,721.0649999994652,1.285992e-05
721.0799999994651,4.937621e-05,721.0799999994651,7.478979e-05,721.0799999994651,1.360511e-05,721.0799999994651,1.277751e-05
721.0949999994651,4.948764e-05,721.0949999994651,6.747811e-05,721.0949999994651,1.341639e-05,721.0949999994651,1.245369e-05
721.1099999994651,4.963629e-05,721.1099999994651,6.220576e-05,721.1099999994651,1.250336e-05,721.1099999994651,1.225874e-05
721.1249999994651,4.976383e-05,721.1249999994651,6.311623e-05,721.1249999994651,1.215024e-05,721.1249999994651,1.217225e-05
721.1399999994651,4.876244e-05,721.1399999994651,6.468536e-05,721.1399999994651,1.193501e-05,721.1399999994651,1.173265e-05
721.1549999994651,4.809049e-05,721.1549999994651,5.942953e-05,721.1549999994651,1.070689e-05,721.1549999994651,1.153529e-05
721.1699999994651,4.804888e-05,721.1699999994651,5.798626e-05,721.1699999994651,1.038362e-05,721.1699999994651,1.134442e-05
721.184999999465,4.764672e-05,721.184999999465,5.981771e-05,721.184999999465,1.037276e-05,721.184999999465,1.09643e-05
721.199999999465,4.644968e-05,721.199999999465,5.807729e-05,721.199999999465,1.010029e-05,721.199999999465,1.156821e-05
721.214999999465,4.61619e-05,721.214999999465,5.696028e-05,721.214999999465,1.003733e-05,721.214999999465,1.046604e-05
721.229999999465,4.596158e-05,721.229999999465,5.175258e-05,721.229999999465,1.012258e-05,721.229999999465,1.024431e-05
721.244999999465,4.5821e-05,721.244999999465,5.4393e-05,721.244999999465,1.005275e-05,721.244999999465,1.155846e-05
721.259999999465,4.040602e-05,721.259999999465,5.399061e-05,721.259999999465,1.016008e-05,721.259999999465,1.365162e-05
721.274999999465,3.864362e-05,721.274999999465,5.605461e-05,721.274999999465,1.048353e-05,721.274999999465,1.42405e-05
721.289999999465,4.012475e-05,721.289999999465,5.649642e-05,721.289999999465,1.025667e-05,721.289999999465,1.572775e-05
721.3049999994649,3.691577e-05,721.3049999994649,4.886489e-05,721.3049999994649,1.021952e-05,721.3049999994649,1.637111e-05
721.3199999994649,3.360801e-05,721.3199999994649,4.907316e-05,721.3199999994649,9.672836e-06,721.3199999994649,1.617635e-05
721.3349999994649,3.286203e-05,721.3349999994649,5.056192e-05,721.3349999994649,9.31979e-06,721.3349999994649,1.608378e-05
721.3499999994649,3.392216e-05,721.3499999994649,5.068547e-05,721.3499999994649,9.274335e-06,721.3499999994649,1.639948e-05
721.3649999994649,3.376316e-05,721.3649999994649,5.06927e-05,721.3649999994649,9.640744e-06,721.3649999994649,1.685026e-05
721.3799999994649,3.454311e-05,721.3799999994649,4.949077e-05,721.3799999994649,1.03714e-05,721.3799999994649,1.693032e-05
721.3949999994649,3.448597e-05,721.3949999994649,4.775539e-05,721.3949999994649,1.105259e-05,721.3949999994649,1.70216e-05
721.4099999994648,3.463922e-05,721.4099999994648,4.737483e-05,721.4099999994648,1.094887e-05,721.4099999994648,1.701995e-05
721.4249999994648,3.356985e-05,721.4249999994648,4.395215e-05,721.4249999994648,1.090374e-05,721.4249999994648,1.682767e-05
721.4399999994648,3.151545e-05,721.4399999994648,4.332234e-05,721.4399999994648,1.156456e-05,721.4399999994648,1.672186e-05
721.4549999994648,3.123124e-05,721.4549999994648,4.344281e-05,721.4549999994648,1.148511e-05,721.4549999994648,1.654145e-05
721.4699999994648,3.076178e-05,721.4699999994648,4.354418e-05,721.4699999994648,2.40552e-05,721.4699999994648,1.657293e-05
721.4849999994648,3.137075e-05,721.4849999994648,4.320121e-05,721.4849999994648,2.402884e-05,721.4849999994648,1.643123e-05
721.4999999994648,3.116532e-05,721.4999999994648,3.459364e-05,721.4999999994648,2.415922e-05,721.4999999994648,1.536164e-05
721.5149999994647,3.054856e-05,721.5149999994647,3.696915e-05,721.5149999994647,2.456111e-05,721.5149999994647,1.353452e-05
721.5299999994647,2.738104e-05,721.5299999994647,3.397444e-05,721.5299999994647,2.483602e-05,721.5299999994647,1.265454e-05
721.5449999994647,2.668592e-05,721.5449999994647,3.355306e-05,721.5449999994647,2.499827e-05,721.5449999994647,1.092568e-05
721.5599999994647,2.665476e-05,721.5599999994647,3.499526e-05,721.5599999994647,2.502474e-05,721.5599999994647,1.034147e-05
721.5749999994647,2.696371e-05,721.5749999994647,3.554047e-05,721.5749999994647,2.517403e-05,721.5749999994647,1.047008e-05
721.5899999994647,2.690619e-05,721.5899999994647,3.501095e-05,721.5899999994647,2.58417e-05,721.5899999994647,1.032102e-05
721.6049999994647,2.593366e-05,721.6049999994647,3.700191e-05,721.6049999994647,2.62672e-05,721.6049999994647,1.000641e-05
721.6199999994647,2.584987e-05,721.6199999994647,3.746762e-05,721.6199999994647,2.62205e-05,721.6199999994647,9.414533e-06
721.6349999994646,2.579532e-05,721.6349999994646,3.771382e-05,721.6349999994646,2.710336e-05,721.6349999994646,9.509811e-06
721.6499999994646,2.620169e-05,721.6499999994646,3.787186e-05,721.6499999994646,2.741446e-05,721.6499999994646,9.315255e-06
721.6649999994646,2.561997e-05,721.6649999994646,3.785103e-05,721.6649999994646,2.748477e-05,721.6649999994646,9.40555e-06
721.6799999994646,2.790288e-05,721.6799999994646,3.983512e-05,721.6799999994646,2.747554e-05,721.6799999994646,9.46378e-06
721.6949999994646,2.806046e-05,721.6949999994646,4.017702e-05,721.6949999994646,2.767528e-05,721.6949999994646,9.278891e-06
721.7099999994646,2.796038e-05,721.7099999994646,4.067739e-05,721.7099999994646,2.374577e-05,721.7099999994646,9.21338e-06
721.7249999994646,2.701799e-05,721.7249999994646,4.184398e-05,721.7249999994646,1.833326e-05,721.7249999994646,9.499437e-06
721.7399999994645,2.652868e-05,721.7399999994645,4.197339e-05,721.7399999994645,1.848629e-05,721.7399999994645,9.30012e-06
721.7549999994645,2.689257e-05,721.7549999994645,3.967496e-05,721.7549999994645,1.803345e-05,721.7549999994645,9.755493e-06
721.7699999994645,2.696476e-05,721.7699999994645,4.126805e-05,721.7699999994645,1.765133e-05,721.7699999994645,9.080939e-06
721.7849999994645,2.711895e-05,721.7849999994645,7.36862e-05,721.7849999994645,1.732591e-05,721.7849999994645,9.460803e-06
721.7999999994645,2.653186e-05,721.7999999994645,8.133105e-05,721.7999999994645,1.736895e-05,721.7999999994645,9.173541e-06
721.8149999994645,2.586022e-05,721.8149999994645,8.163653e-05,721.8149999994645,1.754807e-05,721.8149999994645,9.222548e-06
721.8299999994645,2.634859e-05,721.8299999994645,8.149854e-05,721.8299999994645,1.770074e-05,721.8299999994645,9.076284e-06
721.8449999994644,2.552799e-05,721.8449999994644,8.146725e-05,721.8449999994644,1.683018e-05,721.8449999994644,9.080939e-06
721.8599999994644,2.501348e-05,721.8599999994644,8.288371e-05,721.8599999994644,1.619637e-05,721.8599999994644,8.91973e-06
721.8749999994644,2.37997e-05,721.8749999994644,9.797652e-05,721.8749999994644,1.667969e-05,721.8749999994644,9.150478e-06
721.8899999994644,2.337749e-05,721.8899999994644,0.0001075627,721.8899999994644,1.627013e-05,721.8899999994644,9.023361e-06
721.9049999994644,2.231133e-05,721.9049999994644,0.0001128702,721.9049999994644,1.633321e-05,721.9049999994644,9.142777e-06
721.9199999994644,2.180426e-05,721.9199999994644,0.000113827,721.9199999994644,1.616415e-05,721.9199999994644,9.277373e-06
721.9349999994644,1.820062e-05,721.9349999994644,0.000117401,721.9349999994644,1.587573e-05,721.9349999994644,1.002047e-05
721.9499999994644,1.771187e-05,721.9499999994644,0.0001268261,721.9499999994644,1.59845e-05,721.9499999994644,1.046739e-05
721.9649999994643,1.737057e-05,721.9649999994643,0.0001322903,721.9649999994643,1.529548e-05,721.9649999994643,1.031146e-05
721.9799999994643,1.710663e-05,721.9799999994643,0.0001407773,721.9799999994643,1.435479e-05,721.9799999994643,1.003592e-05
721.9949999994643,1.717238e-05,721.9949999994643,0.0002021322,721.9949999994643,1.498472e-05,721.9949999994643,1.111993e-05
722.0099999994643,1.720844e-05,722.0099999994643,0.0002292145,722.0099999994643,1.484399e-05,722.0099999994643,1.097457e-05
722.0249999994643,1.647832e-05,722.0249999994643,0.0002353001,722.0249999994643,1.475833e-05,722.0249999994643,1.920316e-05
722.0399999994643,1.598362e-05,722.0399999994643,0.0002321905,722.0399999994643,1.471914e-05,722.0399999994643,2.322575e-05
722.0549999994643,1.779598e-05,722.0549999994643,0.0002333842,722.0549999994643,1.711733e-05,722.0549999994643,3.153824e-05
722.0699999994642,1.975565e-05,722.0699999994642,0.000242279,722.0699999994642,1.755851e-05,722.0699999994642,3.75555e-05
722.0849999994642,1.929682e-05,722.0849999994642,0.0002711329,722.0849999994642,1.764973e-05,722.0849999994642,6.287831e-05
722.0999999994642,2.454275e-05,722.0999999994642,0.0002718275,722.0999999994642,1.831481e-05,722.0999999994642,6.877416e-05
722.1149999994642,2.817218e-05,722.1149999994642,0.0002700727,722.1149999994642,1.792925e-05,722.1149999994642,7.239032e-05
722.1299999994642,2.977231e-05,722.1299999994642,0.0002731821,722.1299999994642,2.105488e-05,722.1299999994642,7.305203e-05
722.1449999994642,3.135323e-05,722.1449999994642,0.0002934003,722.1449999994642,2.287804e-05,722.1449999994642,7.966246e-05
722.1599999994642,3.406389e-05,722.1599999994642,0.000299412,722.1599999994642,2.375704e-05,722.1599999994642,8.363475e-05
722.1749999994641,3.683096e-05,722.1749999994641,0.0002995519,722.1749999994641,2.511745e-05,722.1749999994641,8.369586e-05
722.1899999994641,3.696191e-05,722.1899999994641,0.0002967503,722.1899999994641,2.552909e-05,722.1899999994641,8.386132e-05
722.2049999994641,4.185307e-05,722.2049999994641,0.000293485,722.2049999994641,2.552854e-05,722.2049999994641,8.422052e-05
722.2199999994641,4.274392e-05,722.2199999994641,0.0002933466,722.2199999994641,2.560678e-05,722.2199999994641,8.468555e-05
722.2349999994641,4.52493e-05,722.2349999994641,0.0002892136,722.2349999994641,2.573518e-05,722.2349999994641,8.887011e-05
722.2499999994641,4.948508e-05,722.2499999994641,0.0002431553,722.2499999994641,2.571163e-05,722.2499999994641,9.130181e-05
722.2649999994641,5.033351e-05,722.2649999994641,0.0002298457,722.2649999994641,2.587221e-05,722.2649999994641,0.0001000584
722.279999999464,5.117833e-05,722.279999999464,0.0002249583,722.279999999464,2.586131e-05,722.279999999464,0.0001010137
722.294999999464,5.137284e-05,722.294999999464,0.0002247052,722.294999999464,2.576144e-05,722.294999999464,0.0001010144
722.309999999464,5.066851e-05,722.309999999464,0.000222082,722.309999999464,2.413763e-05,722.309999999464,9.973974e-05
722.324999999464,5.006214e-05,722.324999999464,0.0002131919,722.324999999464,2.372797e-05,722.324999999464,9.475726e-05
722.339999999464,4.952861e-05,722.339999999464,0.0001769113,722.339999999464,2.319298e-05,722.339999999464,8.23117e-05
722.354999999464,4.625001e-05,722.354999999464,0.0001783779,722.354999999464,2.314555e-05,722.354999999464,7.783121e-05
722.369999999464,4.473552e-05,722.369999999464,0.0001786528,722.369999999464,2.30724e-05,722.369999999464,7.658856e-05
722.384999999464,4.474686e-05,722.384999999464,0.0001503096,722.384999999464,1.834631e-05,722.384999999464,7.732314e-05
722.399999999464,4.256195e-05,722.399999999464,0.0001071001,722.399999999464,1.498378e-05,722.399999999464,7.061467e-05
722.4149999994639,4.107131e-05,722.4149999994639,0.0001004262,722.4149999994639,1.430466e-05,722.4149999994639,6.784183e-05
722.4299999994639,3.949668e-05,722.4299999994639,0.0001005403,722.4299999994639,1.065942e-05,722.4299999994639,6.778616e-05
722.4449999994639,3.952128e-05,722.4449999994639,0.0001008201,722.4449999994639,1.039582e-05,722.4449999994639,6.748312e-05
722.4599999994639,3.500733e-05,722.4599999994639,0.0001000043,722.4599999994639,1.018639e-05,722.4599999994639,6.691545e-05
722.4749999994639,3.804073e-05,722.4749999994639,9.640437e-05,722.4749999994639,1.058915e-05,722.4749999994639,6.629471e-05
722.4899999994639,3.876555e-05,722.4899999994639,9.313742e-05,722.4899999994639,1.000641e-05,722.4899999994639,5.833287e-05
722.5049999994638,3.513266e-05,722.5049999994638,9.092132e-05,722.5049999994638,9.557095e-06,722.5049999994638,5.301406e-05
722.5199999994638,3.477924e-05,722.5199999994638,8.153708e-05,722.5199999994638,9.131986e-06,722.5199999994638,3.410315e-05
722.5349999994638,3.457083e-05,722.5349999994638,7.079438e-05,722.5349999994638,9.046747e-06,722.5349999994638,3.250907e-05
722.5499999994638,3.474601e-05,722.5499999994638,6.293362e-05,722.5499999994638,8.540542e-06,722.5499999994638,2.844884e-05
722.5649999994638,3.492515e-05,722.5649999994638,5.900086e-05,722.5649999994638,8.553727e-06,722.5649999994638,2.59342e-05
722.5799999994638,3.551707e-05,722.5799999994638,5.95678e-05,722.5799999994638,8.336888e-06,722.5799999994638,2.593366e-05
722.5949999994638,3.615116e-05,722.5949999994638,5.347151e-05,722.5949999994638,8.459336e-06,722.5949999994638,2.560898e-05
722.6099999994638,3.779889e-05,722.6099999994638,4.909268e-05,722.6099999994638,8.520726e-06,722.6099999994638,2.491473e-05
722.6249999994637,3.951914e-05,722.6249999994637,5.624152e-05,722.6249999994637,9.06075e-06,722.6249999994637,2.402356e-05
722.6399999994637,4.075489e-05,722.6399999994637,5.731111e-05,722.6399999994637,9.243908e-06,722.6399999994637,1.294726e-05
722.6549999994637,4.300447e-05,722.6549999994637,5.944233e-05,722.6549999994637,9.624658e-06,722.6549999994637,1.130586e-05
722.6699999994637,4.341329e-05,722.6699999994637,6.308966e-05,722.6699999994637,9.775687e-06,722.6699999994637,1.113512e-05
722.6849999994637,4.446104e-05,722.6849999994637,6.257828e-05,722.6849999994637,1.012536e-05,722.6849999994637,1.108949e-05
722.6999999994637,4.819291e-05,722.6999999994637,6.732764e-05,722.6999999994637,1.045662e-05,722.6999999994637,1.124966e-05
722.7149999994637,4.864472e-05,722.7149999994637,8.326642e-05,722.7149999994637,1.011422e-05,722.7149999994637,1.130337e-05
722.7299999994636,4.456137e-05,722.7299999994636,8.433618e-05,722.7299999994636,1.014343e-05,722.7299999994636,1.140758e-05
722.7449999994636,4.462802e-05,722.7449999994636,8.443034e-05,722.7449999994636,1.026765e-05,722.7449999994636,1.218151e-05
722.7599999994636,4.565654e-05,722.7599999994636,8.470767e-05,722.7599999994636,1.020987e-05,722.7599999994636,1.258981e-05
722.7749999994636,4.538235e-05,722.7749999994636,8.510039e-05,722.7749999994636,1.055183e-05,722.7749999994636,1.208281e-05
722.7899999994636,4.763696e-05,722.7899999994636,8.271954e-05,722.7899999994636,1.062898e-05,722.7899999994636,1.261217e-05
722.8049999994636,4.718355e-05,722.8049999994636,8.543048e-05,722.8049999994636,1.05358e-05,722.8049999994636,1.234348e-05
722.8199999994636,4.872169e-05,722.8199999994636,8.43275e-05,722.8199999994636,1.181043e-05,722.8199999994636,1.224149e-05
722.8349999994635,4.953743e-05,722.8349999994635,8.48831e-05,722.8349999994635,1.196802e-05,722.8349999994635,1.157551e-05
722.8499999994635,5.000217e-05,722.8499999994635,8.511562e-05,722.8499999994635,1.167126e-05,722.8499999994635,1.199741e-05
722.8649999994635,4.857546e-05,722.8649999994635,8.184936e-05,722.8649999994635,1.171222e-05,722.8649999994635,1.187822e-05
722.8799999994635,4.913484e-05,722.8799999994635,8.110106e-05,722.8799999994635,1.105131e-05,722.8799999994635,1.16616e-05
722.8949999994635,4.755765e-05,722.8949999994635,8.473994e-05,722.8949999994635,1.131085e-05,722.8949999994635,1.201031e-05
722.9099999994635,4.610694e-05,722.9099999994635,8.575634e-05,722.9099999994635,1.113765e-05,722.9099999994635,1.194563e-05
722.9249999994635,4.630662e-05,722.9249999994635,8.508252e-05,722.9249999994635,1.190074e-05,722.9249999994635,1.194091e-05
722.9399999994635,4.564759e-05,722.9399999994635,8.442366e-05,722.9399999994635,1.201383e-05,722.9399999994635,1.192439e-05
722.9549999994634,4.172396e-05,722.9549999994634,7.151599e-05,722.9549999994634,1.17722e-05,722.9549999994634,1.165193e-05
722.9699999994634,4.034322e-05,722.9699999994634,6.765074e-05,722.9699999994634,1.169055e-05,722.9699999994634,1.199271e-05
722.9849999994634,4.132399e-05,722.9849999994634,7.211972e-05,722.9849999994634,1.157308e-05,722.9849999994634,1.184497e-05
722.9999999994634,3.968951e-05,722.9999999994634,7.279337e-05,722.9999999994634,1.141004e-05,722.9999999994634,1.0972e-05
723.0149999994634,3.845103e-05,723.0149999994634,7.312084e-05,723.0149999994634,1.148633e-05,723.0149999994634,1.092697e-05
723.0299999994634,4.004638e-05,723.0299999994634,7.261337e-05,723.0299999994634,1.34876e-05,723.0299999994634,1.026903e-05
723.0449999994634,3.768094e-05,723.0449999994634,7.130808e-05,723.0449999994634,1.436264e-05,723.0449999994634,9.962669e-06
723.0599999994633,3.928174e-05,723.0599999994633,6.920052e-05,723.0599999994633,1.416313e-05,723.0599999994633,1.00289e-05
723.0749999994633,3.735466e-05,723.0749999994633,7.247629e-05,723.0749999994633,1.333953e-05,723.0749999994633,1.035237e-05
723.0899999994633,3.687072e-05,723.0899999994633,8.015096e-05,723.0899999994633,1.361443e-05,723.0899999994633,1.160347e-05
723.1049999994633,3.540306e-05,723.1049999994633,8.336229e-05,723.1049999994633,1.348656e-05,723.1049999994633,1.149982e-05
723.1199999994633,3.443528e-05,723.1199999994633,8.62376e-05,723.1199999994633,1.36227e-05,723.1199999994633,1.168573e-05
723.1349999994633,3.31446e-05,723.1349999994633,8.483729e-05,723.1349999994633,1.747326e-05,723.1349999994633,1.19786e-05
723.1499999994633,3.317815e-05,723.1499999994633,8.197111e-05,723.1499999994633,1.732429e-05,723.1499999994633,1.183188e-05
723.1649999994632,3.435214e-05,723.1649999994632,8.552458e-05,723.1649999994632,1.707036e-05,723.1649999994632,1.19173e-05
723.1799999994632,3.665114e-05,723.1799999994632,8.986411e-05,723.1799999994632,1.701581e-05,723.1799999994632,1.196684e-05
723.1949999994632,3.677316e-05,723.1949999994632,9.065709e-05,723.1949999994632,1.698764e-05,723.1949999994632,1.182712e-05
723.2099999994632,3.631832e-05,723.2099999994632,9.223663e-05,723.2099999994632,1.766249e-05,723.2099999994632,1.132205e-05
723.2249999994632,3.574558e-05,723.2249999994632,9.198705e-05,723.2249999994632,1.875485e-05,723.2249999994632,1.157916e-05
723.2399999994632,3.327227e-05,723.2399999994632,9.285219e-05,723.2399999994632,2.060311e-05,723.2399999994632,1.17722e-05
723.2549999994632,3.292841e-05,723.2549999994632,9.424806e-05,723.2549999994632,2.072649e-05,723.2549999994632,1.162167e-05
723.2699999994632,3.316201e-05,723.2699999994632,9.581428e-05,723.2699999994632,2.07163e-05,723.2699999994632,1.197508e-05
723.2849999994631,3.142369e-05,723.2849999994631,9.528916e-05,723.2849999994631,1.990412e-05,723.2849999994631,1.228055e-05
723.2999999994631,3.114271e-05,723.2999999994631,9.701454e-05,723.2999999994631,2.041698e-05,723.2999999994631,1.260435e-05
723.3149999994631,2.987669e-05,723.3149999994631,9.732188e-05,723.3149999994631,2.083969e-05,723.3149999994631,1.235033e-05
723.3299999994631,2.967278e-05,723.3299999994631,0.0001001759,723.3299999994631,2.042181e-05,723.3299999994631,1.275654e-05
723.3449999994631,2.944546e-05,723.3449999994631,9.450717e-05,723.3449999994631,2.092536e-05,723.3449999994631,1.218498e-05
723.3599999994631,2.963003e-05,723.3599999994631,9.203084e-05,723.3599999994631,2.129768e-05,723.3599999994631,1.222076e-05
723.3749999994631,2.979123e-05,723.3749999994631,9.382667e-05,723.3749999994631,2.279353e-05,723.3749999994631,1.201383e-05
723.389999999463,2.977468e-05,723.389999999463,9.522941e-05,723.389999999463,2.159131e-05,723.389999999463,1.205597e-05
723.404999999463,2.874783e-05,723.404999999463,9.350348e-05,723.404999999463,2.166036e-05,723.404999999463,1.22023e-05
723.419999999463,2.759066e-05,723.419999999463,9.439994e-05,723.419999999463,2.178163e-05,723.419999999463,1.195742e-05
723.434999999463,2.34749e-05,723.434999999463,9.198567e-05,723.434999999463,2.185008e-05,723.434999999463,1.210145e-05
723.449999999463,2.46224e-05,723.449999999463,8.719748e-05,723.449999999463,2.141114e-05,723.449999999463,1.207932e-05
723.464999999463,2.46184e-05,723.464999999463,8.644757e-05,723.464999999463,2.10348e-05,723.464999999463,1.204896e-05
723.479999999463,2.477468e-05,723.479999999463,8.961452e-05,723.479999999463,1.893203e-05,723.479999999463,1.232521e-05
723.494999999463,2.466413e-05,723.494999999463,9.449242e-05,723.494999999463,1.901592e-05,723.494999999463,1.2397e-05
723.5099999994629,2.444844e-05,723.5099999994629,9.619299e-05,723.5099999994629,1.934349e-05,723.5099999994629,1.216762e-05
723.5249999994629,2.309376e-05,723.5249999994629,9.474938e-05,723.5249999994629,1.903295e-05,723.5249999994629,1.186399e-05
723.5399999994629,2.331111e-05,723.5399999994629,9.410865e-05,723.5399999994629,1.801156e-05,723.5399999994629,1.132578e-05
723.5549999994629,2.254934e-05,723.5549999994629,9.171483e-05,723.5549999994629,1.73649e-05,723.5549999994629,1.108186e-05
723.5699999994629,2.215991e-05,723.5699999994629,8.911435e-05,723.5699999994629,1.715268e-05,723.5699999994629,1.086362e-05
723.5849999994629,2.127717e-05,723.5849999994629,8.509211e-05,723.5849999994629,1.749743e-05,723.5849999994629,1.001344e-05
723.5999999994629,2.053394e-05,723.5999999994629,8.145411e-05,723.5999999994629,1.706541e-05,723.5999999994629,9.75838e-06
