X[s],a: EMG RMS 1-1,X[s].1,a: EMG RMS 1-2,X[s].2,a: EMG RMS 1-3,X[s].3,a: EMG RMS 1-4
579.0149999995944,2.489097e-05,579.0149999995944,3.92272e-05,579.0149999995944,3.064203e-05,579.0149999995944,6.509889e-05
579.0299999995943,2.497685e-05,579.0299999995943,3.938882e-05,579.0299999995943,3.035752e-05,579.0299999995943,7.958036e-05
579.0449999995943,2.525225e-05,579.0449999995943,3.935125e-05,579.0449999995943,3.157217e-05,579.0449999995943,8.9307e-05
579.0599999995943,2.472403e-05,579.0599999995943,4.192772e-05,579.0599999995943,3.192711e-05,579.0599999995943,9.839875e-05
579.0749999995943,2.432598e-05,579.0749999995943,4.399924e-05,579.0749999995943,3.271166e-05,579.0749999995943,9.984885e-05
579.0899999995943,2.39907e-05,579.0899999995943,4.39002e-05,579.0899999995943,3.268323e-05,579.0899999995943,9.992247e-05
579.1049999995943,2.096235e-05,579.1049999995943,4.29635e-05,579.1049999995943,3.257443e-05,579.1049999995943,9.99291e-05
579.1199999995943,2.053531e-05,579.1199999995943,4.186283e-05,579.1199999995943,3.295535e-05,579.1199999995943,9.996504e-05
579.1349999995942,2.049823e-05,579.1349999995942,3.727274e-05,579.1349999995942,3.295407e-05,579.1349999995942,0.0001001211
579.1499999995942,2.218279e-05,579.1499999995942,2.930111e-05,579.1499999995942,2.944212e-05,579.1499999995942,0.0001001288
579.1649999995942,2.296715e-05,579.1649999995942,2.769055e-05,579.1649999995942,2.866293e-05,579.1649999995942,0.0001001346
579.1799999995942,2.559522e-05,579.1799999995942,2.652496e-05,579.1799999995942,2.808254e-05,579.1799999995942,0.0001001624
579.1949999995942,2.585914e-05,579.1949999995942,2.538522e-05,579.1949999995942,2.304675e-05,579.1949999995942,0.0001000594
579.2099999995942,2.640466e-05,579.2099999995942,2.395015e-05,579.2099999995942,2.08586e-05,579.2099999995942,9.786532e-05
579.2249999995942,2.699191e-05,579.2249999995942,2.368995e-05,579.2249999995942,1.866979e-05,579.2249999995942,9.438815e-05
579.2399999995941,2.691404e-05,579.2399999995941,2.363279e-05,579.2399999995941,1.764015e-05,579.2399999995941,9.083684e-05
579.2549999995941,2.705811e-05,579.2549999995941,2.336242e-05,579.2549999995941,1.751835e-05,579.2549999995941,8.590061e-05
579.2699999995941,2.557981e-05,579.2699999995941,2.36602e-05,579.2699999995941,1.70951e-05,579.2699999995941,7.559219e-05
579.2849999995941,2.733882e-05,579.2849999995941,2.352705e-05,579.2849999995941,1.693116e-05,579.2849999995941,5.076767e-05
579.2999999995941,3.067511e-05,579.2999999995941,2.56491e-05,579.2999999995941,1.467697e-05,579.2999999995941,3.288389e-05
579.3149999995941,4.004638e-05,579.3149999995941,1.938859e-05,579.3149999995941,1.425237e-05,579.3149999995941,1.798025e-05
579.3299999995941,4.157142e-05,579.3299999995941,1.641408e-05,579.3299999995941,1.248194e-05,579.3299999995941,1.034556e-05
579.344999999594,4.380769e-05,579.344999999594,1.759217e-05,579.344999999594,1.24469e-05,579.344999999594,1.09643e-05
579.359999999594,4.419187e-05,579.359999999594,1.84428e-05,579.359999999594,1.147038e-05,579.359999999594,1.166764e-05
579.374999999594,4.907517e-05,579.374999999594,2.30724e-05,579.374999999594,1.018915e-05,579.374999999594,1.122333e-05
579.389999999594,4.97256e-05,579.389999999594,2.362445e-05,579.389999999594,1.016978e-05,579.389999999594,1.143594e-05
579.404999999594,4.877429e-05,579.404999999594,2.393721e-05,579.404999999594,8.687718e-06,579.404999999594,1.131209e-05
579.419999999594,4.793294e-05,579.419999999594,2.401476e-05,579.419999999594,9.026482e-06,579.419999999594,1.411032e-05
579.434999999594,4.688045e-05,579.434999999594,2.398424e-05,579.434999999594,8.824465e-06,579.434999999594,1.452842e-05
579.449999999594,4.633855e-05,579.449999999594,2.357789e-05,579.449999999594,8.78607e-06,579.449999999594,1.48639e-05
579.4649999995939,4.598855e-05,579.4649999995939,2.359999e-05,579.4649999995939,8.832443e-06,579.4649999995939,1.522347e-05
579.4799999995939,4.600998e-05,579.4799999995939,2.360536e-05,579.4799999995939,8.813284e-06,579.4799999995939,1.532768e-05
579.4949999995939,4.537583e-05,579.4949999995939,2.338833e-05,579.4949999995939,9.295575e-06,579.4949999995939,1.57179e-05
579.5099999995939,4.523155e-05,579.5099999995939,2.309681e-05,579.5099999995939,1.045527e-05,579.5099999995939,1.578319e-05
579.5249999995939,4.520102e-05,579.5249999995939,2.261422e-05,579.5249999995939,1.101173e-05,579.5249999995939,1.550586e-05
579.5399999995939,4.403988e-05,579.5399999995939,2.24272e-05,579.5399999995939,1.123713e-05,579.5399999995939,1.506722e-05
579.5549999995939,3.613479e-05,579.5549999995939,1.952398e-05,579.5549999995939,1.051573e-05,579.5549999995939,1.493009e-05
579.5699999995938,3.174215e-05,579.5699999995938,1.941109e-05,579.5699999995938,1.014065e-05,579.5699999995938,1.489041e-05
579.5849999995938,2.922747e-05,579.5849999995938,1.909944e-05,579.5849999995938,1.031829e-05,579.5849999995938,1.419393e-05
579.5999999995938,2.642706e-05,579.5999999995938,1.812616e-05,579.5999999995938,1.040801e-05,579.5999999995938,1.373495e-05
579.6149999995938,2.351148e-05,579.6149999995938,1.612838e-05,579.6149999995938,1.058249e-05,579.6149999995938,1.329086e-05
579.6299999995938,1.394766e-05,579.6299999995938,8.940237e-06,579.6299999995938,1.18164e-05,579.6299999995938,1.306208e-05
579.6449999995938,1.355844e-05,579.6449999995938,7.924546e-06,579.6449999995938,1.136799e-05,579.6449999995938,1.236743e-05
579.6599999995938,1.47917e-05,579.6599999995938,7.556945e-06,579.6599999995938,1.135063e-05,579.6599999995938,1.135559e-05
579.6749999995938,1.486011e-05,579.6749999995938,7.466933e-06,579.6749999995938,1.151451e-05,579.6749999995938,7.804539e-06
579.6899999995937,1.495931e-05,579.6899999995937,1.121328e-05,579.6899999995937,1.211658e-05,579.6899999995937,8.014691e-06
579.7049999995937,1.485632e-05,579.7049999995937,1.161197e-05,579.7049999995937,1.24469e-05,579.7049999995937,7.664298e-06
579.7199999995937,1.495084e-05,579.7199999995937,1.267901e-05,579.7199999995937,1.271783e-05,579.7199999995937,7.623756e-06
579.7349999995937,1.466833e-05,579.7349999995937,1.281164e-05,579.7349999995937,1.332685e-05,579.7349999995937,7.289374e-06
579.7499999995937,1.507282e-05,579.7499999995937,1.27731e-05,579.7499999995937,1.318017e-05,579.7499999995937,6.466009e-06
579.7649999995937,1.659672e-05,579.7649999995937,1.275765e-05,579.7649999995937,1.214329e-05,579.7649999995937,6.384893e-06
579.7799999995937,1.671091e-05,579.7799999995937,1.277861e-05,579.7799999995937,1.161803e-05,579.7799999995937,6.533196e-06
579.7949999995936,1.699841e-05,579.7949999995936,1.259093e-05,579.7949999995936,1.125341e-05,579.7949999995936,6.747456e-06
579.8099999995936,1.712227e-05,579.8099999995936,1.263895e-05,579.8099999995936,1.119694e-05,579.8099999995936,6.753716e-06
579.8249999995936,1.713296e-05,579.8249999995936,1.264452e-05,579.8249999995936,1.126217e-05,579.8249999995936,6.616753e-06
579.8399999995936,1.717238e-05,579.8399999995936,1.262557e-05,579.8399999995936,1.116671e-05,579.8399999995936,6.450741e-06
579.8549999995936,1.939294e-05,579.8549999995936,1.248645e-05,579.8549999995936,1.122333e-05,579.8549999995936,6.535352e-06
579.8699999995936,1.876386e-05,579.8699999995936,1.244237e-05,579.8699999995936,1.05958e-05,579.8699999995936,6.565459e-06
579.8849999995936,1.874959e-05,579.8849999995936,1.253599e-05,579.8849999995936,9.662636e-06,579.8849999995936,6.584741e-06
579.8999999995935,1.771028e-05,579.8999999995935,1.267901e-05,579.8999999995935,1.003312e-05,579.8999999995935,6.642251e-06
579.9149999995935,1.781892e-05,579.9149999995935,1.276979e-05,579.9149999995935,9.972562e-06,579.9149999995935,6.75163e-06
579.9299999995935,1.757695e-05,579.9299999995935,1.273997e-05,579.9299999995935,9.222548e-06,579.9299999995935,6.682424e-06
579.9449999995935,1.71272e-05,579.9449999995935,9.502402e-06,579.9449999995935,8.557019e-06,579.9449999995935,6.69506e-06
579.9599999995935,1.823387e-05,579.9599999995935,1.059048e-05,579.9599999995935,8.321666e-06,579.9599999995935,5.889093e-06
579.9749999995935,1.810439e-05,579.9749999995935,9.78145e-06,579.9749999995935,7.640368e-06,579.9749999995935,5.967507e-06
579.9899999995935,1.927345e-05,579.9899999995935,1.113259e-05,579.9899999995935,7.331766e-06,579.9899999995935,6.610363e-06
580.0049999995935,1.88836e-05,580.0049999995935,1.111486e-05,580.0049999995935,7.644054e-06,580.0049999995935,6.365006e-06
580.0199999995934,2.407979e-05,580.0199999995934,1.213168e-05,580.0199999995934,9.813081e-06,580.0199999995934,6.461651e-06
580.0349999995934,2.885201e-05,580.0349999995934,1.412629e-05,580.0349999995934,1.065942e-05,580.0349999995934,6.676097e-06
580.0499999995934,2.964571e-05,580.0499999995934,1.456618e-05,580.0499999995934,1.075677e-05,580.0499999995934,7.109361e-06
580.0649999995934,3.038581e-05,580.0649999995934,1.530284e-05,580.0649999995934,1.088305e-05,580.0649999995934,7.176414e-06
580.0799999995934,3.130962e-05,580.0799999995934,1.550949e-05,580.0799999995934,1.09231e-05,580.0799999995934,7.3106e-06
580.0949999995934,3.39508e-05,580.0949999995934,1.60329e-05,580.0949999995934,1.227482e-05,580.0949999995934,7.779228e-06
580.1099999995934,3.334839e-05,580.1099999995934,1.61179e-05,580.1099999995934,1.268123e-05,580.1099999995934,8.570179e-06
580.1249999995933,3.533575e-05,580.1249999995933,1.694363e-05,580.1249999995933,1.338802e-05,580.1249999995933,9.745379e-06
580.1399999995933,3.738557e-05,580.1399999995933,1.803266e-05,580.1399999995933,1.573223e-05,580.1399999995933,1.008074e-05
580.1549999995933,4.041439e-05,580.1549999995933,1.938495e-05,580.1549999995933,1.659672e-05,580.1549999995933,1.095401e-05
580.1699999995933,4.30215e-05,580.1699999995933,2.624305e-05,580.1699999995933,1.708026e-05,580.1699999995933,1.203843e-05
580.1849999995933,4.434461e-05,580.1849999995933,2.753239e-05,580.1849999995933,2.007466e-05,580.1849999995933,1.256069e-05
580.1999999995933,4.578132e-05,580.1999999995933,2.719935e-05,580.1999999995933,2.260238e-05,580.1999999995933,1.301779e-05
580.2149999995933,4.767746e-05,580.2149999995933,2.760291e-05,580.2149999995933,2.271987e-05,580.2149999995933,1.344786e-05
580.2299999995932,5.179448e-05,580.2299999995932,3.125919e-05,580.2299999995932,2.377127e-05,580.2299999995932,1.472488e-05
580.2449999995932,5.448227e-05,580.2449999995932,3.14564e-05,580.2449999995932,2.501967e-05,580.2449999995932,1.455747e-05
580.2599999995932,5.62951e-05,580.2599999995932,3.347951e-05,580.2599999995932,2.543401e-05,580.2599999995932,1.48658e-05
580.2749999995932,5.269718e-05,580.2749999995932,3.359585e-05,580.2749999995932,2.491756e-05,580.2749999995932,1.502884e-05
580.2899999995932,5.472657e-05,580.2899999995932,3.332304e-05,580.2899999995932,2.51869e-05,580.2899999995932,1.482784e-05
580.3049999995932,5.634337e-05,580.3049999995932,3.562756e-05,580.3049999995932,2.528848e-05,580.3049999995932,1.478598e-05
580.3199999995932,5.822458e-05,580.3199999995932,3.604931e-05,580.3199999995932,2.538134e-05,580.3199999995932,1.47067e-05
580.3349999995932,5.892656e-05,580.3349999995932,3.707911e-05,580.3349999995932,2.533356e-05,580.3349999995932,1.48658e-05
580.3499999995931,5.960444e-05,580.3499999995931,3.7258e-05,580.3499999995931,2.455537e-05,580.3499999995931,1.438224e-05
580.3649999995931,6.090592e-05,580.3649999995931,3.733769e-05,580.3649999995931,2.438555e-05,580.3649999995931,1.541657e-05
580.3799999995931,5.982901e-05,580.3799999995931,3.660884e-05,580.3799999995931,2.382986e-05,580.3799999995931,2.055999e-05
580.3949999995931,6.024268e-05,580.3949999995931,3.594522e-05,580.3949999995931,2.247676e-05,580.3949999995931,3.723757e-05
580.4099999995931,6.077556e-05,580.4099999995931,3.507768e-05,580.4099999995931,2.226266e-05,580.4099999995931,5.834614e-05
580.4249999995931,5.929427e-05,580.4249999995931,3.139185e-05,580.4249999995931,2.161544e-05,580.4249999995931,6.283909e-05
580.439999999593,5.866997e-05,580.439999999593,3.054441e-05,580.439999999593,1.660096e-05,580.439999999593,6.956475e-05
580.454999999593,5.732734e-05,580.454999999593,3.067878e-05,580.454999999593,1.665095e-05,580.454999999593,7.376893e-05
580.469999999593,5.586001e-05,580.469999999593,2.806648e-05,580.469999999593,1.648686e-05,580.469999999593,7.607479e-05
580.484999999593,5.122345e-05,580.484999999593,2.658649e-05,580.484999999593,1.367637e-05,580.484999999593,0.0001248116
580.499999999593,4.877631e-05,580.499999999593,2.726401e-05,580.499999999593,1.341954e-05,580.499999999593,0.0001288311
580.514999999593,4.69252e-05,580.514999999593,2.468697e-05,580.514999999593,1.973282e-05,580.514999999593,0.0001299049
580.529999999593,4.614664e-05,580.529999999593,2.446111e-05,580.529999999593,3.309994e-05,580.529999999593,0.0001299774
580.544999999593,4.626127e-05,580.544999999593,2.326332e-05,580.544999999593,4.569601e-05,580.544999999593,0.0001299981
580.559999999593,4.926139e-05,580.559999999593,2.096839e-05,580.559999999593,4.767834e-05,580.559999999593,0.0001300584
580.5749999995929,4.671851e-05,580.5749999995929,1.906401e-05,580.5749999995929,5.275168e-05,580.5749999995929,0.0001301589
580.5899999995929,4.713098e-05,580.5899999995929,1.819055e-05,580.5899999995929,5.411205e-05,580.5899999995929,0.0001301746
580.6049999995929,4.485251e-05,580.6049999995929,1.809972e-05,580.6049999995929,5.436295e-05,580.6049999995929,0.0001302645
580.6199999995929,4.415584e-05,580.6199999995929,1.799904e-05,580.6199999995929,5.442458e-05,580.6199999995929,0.0001301567
580.6349999995929,4.392779e-05,580.6349999995929,1.866224e-05,580.6349999995929,5.448124e-05,580.6349999995929,0.0001292428
580.6499999995929,4.183354e-05,580.6499999995929,1.889553e-05,580.6499999995929,5.449416e-05,580.6499999995929,0.0001179814
580.6649999995929,3.970016e-05,580.6649999995929,1.898033e-05,580.6649999995929,5.450192e-05,580.6649999995929,0.0001168741
580.6799999995928,3.964832e-05,580.6799999995928,1.881634e-05,580.6799999995928,5.454558e-05,580.6799999995928,0.0001140035
580.6949999995928,3.82398e-05,580.6949999995928,1.830249e-05,580.6949999995928,5.446469e-05,580.6949999995928,0.0001108714
580.7099999995928,3.867641e-05,580.7099999995928,1.848553e-05,580.7099999995928,5.447219e-05,580.7099999995928,0.0001073956
580.7249999995928,3.887876e-05,580.7249999995928,1.959599e-05,580.7249999995928,5.467971e-05,580.7249999995928,9.797925e-05
580.7399999995928,3.924264e-05,580.7399999995928,1.79426e-05,580.7399999995928,5.463022e-05,580.7399999995928,3.0279e-05
580.7549999995928,3.984997e-05,580.7549999995928,1.771664e-05,580.7549999995928,5.469722e-05,580.7549999995928,2.531298e-05
580.7699999995928,3.980364e-05,580.7699999995928,1.983109e-05,580.7699999995928,4.998668e-05,580.7699999995928,2.218152e-05
580.7849999995927,3.898766e-05,580.7849999995927,2.016707e-05,580.7849999995927,3.81845e-05,580.7849999995927,2.503543e-05
580.7999999995927,3.604032e-05,580.7999999995927,2.079706e-05,580.7999999995927,3.111284e-05,580.7999999995927,2.538966e-05
580.8149999995927,2.973254e-05,580.8149999995927,2.136834e-05,580.8149999995927,2.482694e-05,580.8149999995927,2.516451e-05
580.8299999995927,2.706071e-05,580.8299999995927,2.131818e-05,580.8299999995927,1.662301e-05,580.8299999995927,2.475136e-05
580.8449999995927,2.605883e-05,580.8449999995927,2.135976e-05,580.8449999995927,1.21572e-05,580.8449999995927,2.531465e-05
580.8599999995927,2.324697e-05,580.8599999995927,2.125995e-05,580.8599999995927,1.155968e-05,580.8599999995927,2.492038e-05
580.8749999995927,2.297144e-05,580.8749999995927,2.082481e-05,580.8749999995927,1.126217e-05,580.8749999995927,2.520087e-05
580.8899999995926,2.340218e-05,580.8899999995926,2.049755e-05,580.8899999995926,1.059181e-05,580.8899999995926,2.572094e-05
580.9049999995926,2.270498e-05,580.9049999995926,2.019011e-05,580.9049999995926,1.043909e-05,580.9049999995926,2.57986e-05
580.9199999995926,2.114501e-05,580.9199999995926,2.025072e-05,580.9199999995926,1.010029e-05,580.9199999995926,2.699922e-05
580.9349999995926,2.156324e-05,580.9349999995926,2.013981e-05,580.9349999995926,1.034692e-05,580.9349999995926,2.819617e-05
580.9499999995926,2.105421e-05,580.9499999995926,2.086941e-05,580.9499999995926,1.038904e-05,580.9499999995926,2.815968e-05
580.9649999995926,2.112368e-05,580.9649999995926,2.131884e-05,580.9649999995926,8.968555e-06,580.9649999995926,2.767986e-05
580.9799999995926,2.066251e-05,580.9799999995926,2.29002e-05,580.9799999995926,7.856707e-06,580.9799999995926,2.767681e-05
580.9949999995926,1.898478e-05,580.9949999995926,2.797549e-05,580.9949999995926,7.283574e-06,580.9949999995926,2.495145e-05
581.0099999995925,2.11989e-05,581.0099999995925,3.149936e-05,581.0099999995925,6.663425e-06,581.0099999995925,2.460695e-05
581.0249999995925,2.112235e-05,581.0249999995925,3.212373e-05,581.0249999995925,6.680315e-06,581.0249999995925,2.273103e-05
581.0399999995925,2.056342e-05,581.0399999995925,3.149802e-05,581.0399999995925,6.360578e-06,581.0399999995925,2.102877e-05
581.0549999995925,1.849696e-05,581.0549999995925,2.97761e-05,581.0549999995925,6.53104e-06,581.0549999995925,2.109432e-05
581.0699999995925,1.818281e-05,581.0699999995925,2.980919e-05,581.0699999995925,6.543968e-06,581.0699999995925,2.100196e-05
581.0849999995925,1.826937e-05,581.0849999995925,3.100035e-05,581.0849999995925,6.33617e-06,581.0849999995925,2.012932e-05
581.0999999995925,1.799904e-05,581.0999999995925,3.157619e-05,581.0999999995925,6.402519e-06,581.0999999995925,1.950376e-05
581.1149999995924,1.764893e-05,581.1149999995924,3.222006e-05,581.1149999995924,6.459471e-06,581.1149999995924,1.915983e-05
581.1299999995924,1.719124e-05,581.1299999995924,3.224235e-05,581.1299999995924,6.356147e-06,581.1299999995924,1.840381e-05
581.1449999995924,1.648515e-05,581.1449999995924,3.235792e-05,581.1449999995924,6.505105e-06,581.1449999995924,1.780943e-05
581.1599999995924,1.638659e-05,581.1599999995924,3.22489e-05,581.1599999995924,6.322817e-06,581.1599999995924,1.605397e-05
581.1749999995924,1.560005e-05,581.1749999995924,3.198178e-05,581.1749999995924,6.404719e-06,581.1749999995924,1.503165e-05
581.1899999995924,1.512786e-05,581.1899999995924,3.170396e-05,581.1899999995924,5.920107e-06,581.1899999995924,1.251237e-05
581.2049999995924,1.396481e-05,581.2049999995924,3.041362e-05,581.2049999995924,6.139704e-06,581.2049999995924,1.2015e-05
581.2199999995923,1.351265e-05,581.2199999995923,2.842258e-05,581.2199999995923,6.834577e-06,581.2199999995923,1.216067e-05
581.2349999995923,1.329404e-05,581.2349999995923,2.677077e-05,581.2349999995923,7.001547e-06,581.2349999995923,9.652426e-06
581.2499999995923,1.088564e-05,581.2499999995923,2.232079e-05,581.2499999995923,7.188182e-06,581.2499999995923,9.42201e-06
581.2649999995923,7.252564e-06,581.2649999995923,1.604519e-05,581.2649999995923,7.233115e-06,581.2649999995923,8.78607e-06
581.2799999995923,6.42229e-06,581.2799999995923,1.262891e-05,581.2799999995923,7.099447e-06,581.2799999995923,8.21433e-06
581.2949999995923,6.697164e-06,581.2949999995923,1.228285e-05,581.2949999995923,7.043671e-06,581.2949999995923,7.766543e-06
581.3099999995923,6.759971e-06,581.3099999995923,1.219769e-05,581.3099999995923,6.873626e-06,581.3099999995923,7.746566e-06
581.3249999995923,6.747456e-06,581.3249999995923,1.194091e-05,581.3249999995923,6.881819e-06,581.3249999995923,8.200599e-06
581.3399999995922,7.194059e-06,581.3399999995922,1.10194e-05,581.3399999995922,6.959168e-06,581.3399999995922,8.395818e-06
581.3549999995922,8.723317e-06,581.3549999995922,1.045392e-05,581.3549999995922,7.035667e-06,581.3549999995922,8.524032e-06
581.3699999995922,8.240013e-06,581.3699999995922,9.897414e-06,581.3699999995922,7.470705e-06,581.3699999995922,8.542191e-06
581.3849999995922,8.258797e-06,581.3849999995922,1.091407e-05,581.3849999995922,7.46882e-06,581.3849999995922,8.306418e-06
581.3999999995922,8.326743e-06,581.3999999995922,1.106151e-05,581.3999999995922,7.410121e-06,581.3999999995922,8.747506e-06
581.4149999995922,8.325052e-06,581.4149999995922,1.110345e-05,581.4149999995922,7.333686e-06,581.4149999995922,8.405879e-06
581.4299999995922,8.319974e-06,581.4299999995922,1.078554e-05,581.4299999995922,7.071614e-06,581.4299999995922,8.495891e-06
581.4449999995921,8.695822e-06,581.4449999995921,1.068318e-05,581.4449999995921,6.749543e-06,581.4449999995921,8.345331e-06
581.4599999995921,9.384559e-06,581.4599999995921,1.11174e-05,581.4599999995921,6.701369e-06,581.4599999995921,8.202317e-06
581.4749999995921,9.706273e-06,581.4749999995921,1.117301e-05,581.4749999995921,6.298262e-06,581.4749999995921,8.162721e-06
581.4899999995921,1.017809e-05,581.4899999995921,1.139893e-05,581.4899999995921,6.176305e-06,581.4899999995921,8.442667e-06
581.5049999995921,1.040124e-05,581.5049999995921,1.145932e-05,581.5049999995921,6.255622e-06,581.5049999995921,8.462665e-06
581.5199999995921,1.05505e-05,581.5199999995921,1.186399e-05,581.5199999995921,6.284828e-06,581.5199999995921,8.41258e-06
581.5349999995921,1.033739e-05,581.5349999995921,1.224034e-05,581.5349999995921,6.224016e-06,581.5349999995921,8.323359e-06
581.549999999592,1.026903e-05,581.549999999592,1.205714e-05,581.549999999592,6.273611e-06,581.549999999592,8.286042e-06
581.564999999592,1.021401e-05,581.564999999592,1.202087e-05,581.564999999592,6.275856e-06,581.564999999592,7.806343e-06
581.579999999592,1.008773e-05,581.579999999592,1.079337e-05,581.579999999592,6.203613e-06,581.579999999592,7.3106e-06
581.594999999592,9.557095e-06,581.594999999592,1.019606e-05,581.594999999592,6.369431e-06,581.594999999592,7.017624e-06
581.609999999592,8.270727e-06,581.609999999592,1.022779e-05,581.609999999592,6.2781e-06,581.609999999592,6.764137e-06
581.624999999592,9.399558e-06,581.624999999592,9.876042e-06,581.624999999592,5.853103e-06,581.624999999592,6.563313e-06
581.639999999592,9.374045e-06,581.639999999592,8.741063e-06,581.639999999592,6.11211e-06,581.639999999592,5.931993e-06
581.654999999592,1.018915e-05,581.654999999592,8.792481e-06,581.654999999592,6.189974e-06,581.654999999592,5.809621e-06
581.6699999995919,1.020297e-05,581.6699999995919,8.798887e-06,581.6699999995919,6.174023e-06,581.6699999995919,5.979298e-06
581.6849999995919,1.07999e-05,581.6849999995919,8.682853e-06,581.6849999995919,6.255622e-06,581.6849999995919,5.927241e-06
581.6999999995919,1.104239e-05,581.6999999995919,8.576751e-06,581.6999999995919,6.42229e-06,581.6999999995919,6.107498e-06
581.7149999995919,1.067394e-05,581.7149999995919,8.150632e-06,581.7149999995919,6.194524e-06,581.7149999995919,6.089019e-06
581.7299999995919,1.095401e-05,581.7299999995919,7.813558e-06,581.7299999995919,6.158032e-06,581.7299999995919,5.642331e-06
581.7449999995919,1.219307e-05,581.7449999995919,6.853102e-06,581.7449999995919,5.929618e-06,581.7449999995919,5.14616e-06
581.7599999995919,1.280394e-05,581.7599999995919,6.851046e-06,581.7599999995919,6.311667e-06,581.7599999995919,5.143422e-06
581.7749999995918,1.438028e-05,581.7749999995918,6.404719e-06,581.7749999995918,7.05566e-06,581.7749999995918,5.165286e-06
581.7899999995918,1.756172e-05,581.7899999995918,5.941484e-06,581.7899999995918,7.27777e-06,581.7899999995918,5.22494e-06
581.8049999995918,1.820758e-05,581.8049999995918,5.988714e-06,581.8049999995918,7.190141e-06,581.8049999995918,5.469929e-06
581.8199999995918,2.082413e-05,581.8199999995918,6.280343e-06,581.8199999995918,8.43432e-06,581.8199999995918,5.302549e-06
581.8349999995918,2.135844e-05,581.8349999995918,6.494269e-06,581.8349999995918,8.749116e-06,581.8349999995918,6.307202e-06
581.8499999995918,2.166686e-05,581.8499999995918,7.273898e-06,581.8499999995918,8.494233e-06,581.8499999995918,6.811867e-06
581.8649999995918,2.263228e-05,581.8649999995918,1.173025e-05,581.8649999995918,8.345331e-06,581.8649999995918,7.47636e-06
581.8799999995917,2.688314e-05,581.8799999995917,2.334191e-05,581.8799999995917,8.734614e-06,581.8799999995917,1.294944e-05
581.8949999995917,3.20491e-05,581.8949999995917,2.377542e-05,581.8949999995917,9.756936e-06,581.8949999995917,1.390922e-05
581.9099999995917,3.264959e-05,581.9099999995917,2.402766e-05,581.9099999995917,1.030053e-05,581.9099999995917,1.763216e-05
581.9249999995917,3.385232e-05,581.9249999995917,2.753137e-05,581.9249999995917,1.068054e-05,581.9249999995917,1.828555e-05
581.9399999995917,3.633616e-05,581.9399999995917,2.814867e-05,581.9399999995917,1.100533e-05,581.9399999995917,1.945531e-05
581.9549999995917,3.840778e-05,581.9549999995917,2.833174e-05,581.9549999995917,1.14667e-05,581.9549999995917,1.97642e-05
581.9699999995917,3.874773e-05,581.9699999995917,2.883443e-05,581.9699999995917,1.15609e-05,581.9699999995917,1.979127e-05
581.9849999995917,3.954301e-05,581.9849999995917,2.902433e-05,581.9849999995917,1.255844e-05,581.9849999995917,2.009219e-05
581.9999999995916,4.075247e-05,581.9999999995916,2.936115e-05,581.9999999995916,1.270786e-05,581.9999999995916,2.038315e-05
582.0149999995916,4.124142e-05,582.0149999995916,3.012929e-05,582.0149999995916,1.250674e-05,582.0149999995916,2.039696e-05
582.0299999995916,4.156633e-05,582.0299999995916,3.035427e-05,582.0299999995916,1.247064e-05,582.0299999995916,2.050236e-05
582.0449999995916,4.103734e-05,582.0449999995916,3.093348e-05,582.0449999995916,1.29983e-05,582.0449999995916,2.080247e-05
582.0599999995916,4.167329e-05,582.0599999995916,3.119513e-05,582.0599999995916,1.31277e-05,582.0599999995916,2.096436e-05
582.0749999995916,4.04447e-05,582.0749999995916,3.366413e-05,582.0749999995916,1.246726e-05,582.0749999995916,2.07896e-05
582.0899999995916,4.061536e-05,582.0899999995916,3.477964e-05,582.0899999995916,1.328874e-05,582.0899999995916,2.090515e-05
582.1049999995915,4.076284e-05,582.1049999995915,3.555354e-05,582.1049999995915,1.38035e-05,582.1049999995915,2.102408e-05
582.1199999995915,4.026493e-05,582.1199999995915,3.257313e-05,582.1199999995915,1.397591e-05,582.1199999995915,2.070133e-05
582.1349999995915,3.765289e-05,582.1349999995915,2.870173e-05,582.1349999995915,1.404428e-05,582.1349999995915,1.941182e-05
582.1499999995915,3.504554e-05,582.1499999995915,2.964809e-05,582.1499999995915,1.540468e-05,582.1499999995915,1.883056e-05
582.1649999995915,3.472533e-05,582.1649999995915,2.957673e-05,582.1649999995915,1.517806e-05,582.1649999995915,1.538913e-05
582.1799999995915,3.372642e-05,582.1799999995915,3.006095e-05,582.1799999995915,1.538547e-05,582.1799999995915,1.505506e-05
582.1949999995915,3.170707e-05,582.1949999995915,3.092437e-05,582.1949999995915,1.554215e-05,582.1949999995915,1.332896e-05
582.2099999995914,3.293526e-05,582.2099999995914,3.189312e-05,582.2099999995914,1.540377e-05,582.2099999995914,1.347193e-05
582.2249999995914,3.333192e-05,582.2249999995914,3.317433e-05,582.2249999995914,1.446136e-05,582.2249999995914,1.350222e-05
582.2399999995914,3.284746e-05,582.2399999995914,3.656841e-05,582.2399999995914,1.448569e-05,582.2399999995914,1.318979e-05
582.2549999995914,3.208819e-05,582.2549999995914,3.958254e-05,582.2549999995914,1.443894e-05,582.2549999995914,1.284458e-05
582.2699999995914,3.309739e-05,582.2699999995914,3.945528e-05,582.2699999995914,1.439399e-05,582.2699999995914,1.281054e-05
582.2849999995914,3.180156e-05,582.2849999995914,4.755646e-05,582.2849999995914,1.417208e-05,582.2849999995914,1.25775e-05
582.2999999995914,3.079702e-05,582.2999999995914,4.848723e-05,582.2999999995914,1.38717e-05,582.2999999995914,1.242651e-05
582.3149999995914,3.039091e-05,582.3149999995914,5.145093e-05,582.3149999995914,1.380656e-05,582.3149999995914,1.265788e-05
582.3299999995913,3.109744e-05,582.3299999995913,5.742848e-05,582.3299999995913,1.349804e-05,582.3299999995913,1.289056e-05
582.3449999995913,3.056055e-05,582.3449999995913,6.261452e-05,582.3449999995913,1.273223e-05,582.3449999995913,1.282922e-05
582.3599999995913,3.051119e-05,582.3599999995913,6.324621e-05,582.3599999995913,1.237084e-05,582.3599999995913,1.144948e-05
582.3749999995913,3.165683e-05,582.3749999995913,6.347498e-05,582.3749999995913,1.23697e-05,582.3749999995913,1.133573e-05
582.3899999995913,3.105347e-05,582.3899999995913,6.483588e-05,582.3899999995913,1.269788e-05,582.3899999995913,1.077508e-05
582.4049999995913,3.084501e-05,582.4049999995913,6.558998e-05,582.4049999995913,1.037955e-05,582.4049999995913,1.467025e-05
582.4199999995913,3.104757e-05,582.4199999995913,6.579755e-05,582.4199999995913,1.036461e-05,582.4199999995913,1.762737e-05
582.4349999995912,3.056976e-05,582.4349999995912,6.574807e-05,582.4349999995912,9.72657e-06,582.4349999995912,2.574503e-05
582.4499999995912,2.823911e-05,582.4499999995912,6.69771e-05,582.4499999995912,9.29709e-06,582.4499999995912,2.870762e-05
582.4649999995912,2.72888e-05,582.4649999995912,6.789455e-05,582.4649999995912,9.523133e-06,582.4649999995912,2.945647e-05
582.4799999995912,2.568642e-05,582.4799999995912,6.709835e-05,582.4799999995912,9.490535e-06,582.4799999995912,3.038257e-05
582.4949999995912,2.521875e-05,582.4949999995912,6.632849e-05,582.4949999995912,9.480139e-06,582.4949999995912,3.062179e-05
582.5099999995912,2.450771e-05,582.5099999995912,6.505365e-05,582.5099999995912,9.292544e-06,582.5099999995912,3.069072e-05
582.5249999995912,2.258867e-05,582.5249999995912,6.375996e-05,582.5249999995912,9.295575e-06,582.5249999995912,3.069072e-05
582.5399999995911,2.269567e-05,582.5399999995911,5.960657e-05,582.5399999995911,9.176611e-06,582.5399999995911,3.076636e-05
582.5549999995911,2.332138e-05,582.5549999995911,5.785712e-05,582.5549999995911,9.176611e-06,582.5549999995911,3.063375e-05
582.5699999995911,2.444556e-05,582.5699999995911,5.524357e-05,582.5699999995911,9.76271e-06,582.5699999995911,3.059049e-05
582.5849999995911,2.390128e-05,582.5849999995911,4.754135e-05,582.5849999995911,9.969736e-06,582.5849999995911,3.04326e-05
582.5999999995911,2.394133e-05,582.5999999995911,4.554687e-05,582.5999999995911,1.107932e-05,582.5999999995911,3.041176e-05
582.6149999995911,2.325606e-05,582.6149999995911,4.446294e-05,582.6149999995911,1.192911e-05,582.6149999995911,3.107116e-05
582.6299999995911,2.253435e-05,582.6299999995911,4.483146e-05,582.6299999995911,1.161197e-05,582.6299999995911,3.961598e-05
582.644999999591,2.259116e-05,582.644999999591,4.492437e-05,582.644999999591,1.086621e-05,582.644999999591,4.335809e-05
582.659999999591,2.231638e-05,582.659999999591,4.330022e-05,582.659999999591,1.131707e-05,582.659999999591,6.385313e-05
582.674999999591,2.233026e-05,582.674999999591,5.107749e-05,582.674999999591,1.256069e-05,582.674999999591,6.861462e-05
582.689999999591,2.433293e-05,582.689999999591,5.003203e-05,582.689999999591,1.257526e-05,582.689999999591,6.557687e-05
582.704999999591,2.3179e-05,582.704999999591,4.914745e-05,582.704999999591,1.222998e-05,582.704999999591,6.573671e-05
582.719999999591,2.286203e-05,582.719999999591,4.891762e-05,582.719999999591,1.218382e-05,582.719999999591,6.635312e-05
582.734999999591,2.29739e-05,582.734999999591,5.00171e-05,582.734999999591,1.230462e-05,582.734999999591,6.603561e-05
582.749999999591,2.364173e-05,582.749999999591,5.215063e-05,582.749999999591,1.234805e-05,582.749999999591,6.602601e-05
582.7649999995909,2.319298e-05,582.7649999995909,5.207359e-05,582.7649999995909,1.226908e-05,582.7649999995909,6.601129e-05
582.7799999995909,2.361013e-05,582.7799999995909,5.437331e-05,582.7799999995909,1.225529e-05,582.7799999995909,6.622839e-05
582.7949999995909,2.336363e-05,582.7949999995909,5.458663e-05,582.7949999995909,1.271673e-05,582.7949999995909,6.618902e-05
582.8099999995909,2.304491e-05,582.8099999995909,5.483792e-05,582.8099999995909,1.269233e-05,582.8099999995909,6.628451e-05
582.8249999995909,2.226772e-05,582.8249999995909,5.398695e-05,582.8249999995909,1.240155e-05,582.8249999995909,6.708533e-05
582.8399999995909,2.156585e-05,582.8399999995909,5.476414e-05,582.8399999995909,1.189718e-05,582.8399999995909,6.982307e-05
582.8549999995909,2.161218e-05,582.8549999995909,5.413105e-05,582.8549999995909,1.11604e-05,582.8549999995909,7.002734e-05
582.8699999995908,2.098183e-05,582.8699999995908,5.485949e-05,582.8699999995908,1.05545e-05,582.8699999995908,6.961799e-05
582.8849999995908,1.988358e-05,582.8849999995908,5.546497e-05,582.8849999995908,1.025667e-05,582.8849999995908,6.414982e-05
582.8999999995908,1.912082e-05,582.8999999995908,5.589758e-05,582.8999999995908,1.035509e-05,582.8999999995908,5.688208e-05
582.9149999995908,1.918775e-05,582.9149999995908,5.455049e-05,582.9149999995908,9.204201e-06,582.9149999995908,3.762557e-05
582.9299999995908,1.804594e-05,582.9299999995908,4.859315e-05,582.9299999995908,8.395818e-06,582.9299999995908,2.952286e-05
582.9449999995908,1.588106e-05,582.9449999995908,5.063319e-05,582.9449999995908,8.616079e-06,582.9449999995908,2.839878e-05
582.9599999995908,1.637541e-05,582.9599999995908,5.079152e-05,582.9599999995908,8.648716e-06,582.9599999995908,2.623876e-05
582.9749999995908,1.65372e-05,582.9749999995908,5.173815e-05,582.9749999995908,8.81648e-06,582.9749999995908,2.536468e-05
582.9899999995907,1.662216e-05,582.9899999995907,4.946742e-05,582.9899999995907,8.737838e-06,582.9899999995907,2.538134e-05
583.0049999995907,1.517064e-05,583.0049999995907,4.857256e-05,583.0049999995907,8.60299e-06,583.0049999995907,2.524221e-05
583.0199999995907,1.472871e-05,583.0199999995907,4.757838e-05,583.0199999995907,8.566891e-06,583.0199999995907,2.522825e-05
583.0349999995907,1.40242e-05,583.0349999995907,4.750282e-05,583.0349999995907,8.596438e-06,583.0349999995907,2.464813e-05
583.0499999995907,1.355428e-05,583.0499999995907,4.717609e-05,583.0499999995907,8.234882e-06,583.0499999995907,2.463784e-05
583.0649999995907,1.323138e-05,583.0649999995907,4.597262e-05,583.0649999995907,8.253678e-06,583.0649999995907,2.331776e-05
583.0799999995907,1.32569e-05,583.0799999995907,4.527731e-05,583.0799999995907,7.908532e-06,583.0799999995907,1.814558e-05
583.0949999995906,1.302536e-05,583.0949999995906,4.508338e-05,583.0949999995906,7.926324e-06,583.0949999995906,9.853194e-06
583.1099999995906,1.257638e-05,583.1099999995906,4.515051e-05,583.1099999995906,7.897837e-06,583.1099999995906,8.859515e-06
583.1249999995906,1.268789e-05,583.1249999995906,4.317805e-05,583.1249999995906,7.621908e-06,583.1249999995906,7.737468e-06
583.1399999995906,1.264897e-05,583.1399999995906,4.095005e-05,583.1399999995906,7.860292e-06,583.1399999995906,7.333686e-06
583.1549999995906,1.219422e-05,583.1549999995906,3.867787e-05,583.1549999995906,7.508323e-06,583.1549999995906,7.413922e-06
583.1699999995906,1.227367e-05,583.1699999995906,3.850705e-05,583.1699999995906,7.50457e-06,583.1699999995906,7.667973e-06
583.1849999995906,1.206998e-05,583.1849999995906,3.776384e-05,583.1849999995906,8.186846e-06,583.1849999995906,8.867461e-06
583.1999999995905,1.206181e-05,583.1999999995905,3.548017e-05,583.1999999995905,9.971149e-06,583.1999999995905,9.580649e-06
583.2149999995905,1.213516e-05,583.2149999995905,3.45802e-05,583.2149999995905,1.103856e-05,583.2149999995905,9.752604e-06
583.2299999995905,1.23697e-05,583.2299999995905,3.478045e-05,583.2299999995905,1.090504e-05,583.2299999995905,1.037547e-05
583.2449999995905,1.233092e-05,583.2449999995905,3.336402e-05,583.2449999995905,1.082465e-05,583.2449999995905,1.04983e-05
583.2599999995905,1.358128e-05,583.2599999995905,3.294252e-05,583.2599999995905,1.090504e-05,583.2599999995905,1.119191e-05
583.2749999995905,1.546856e-05,583.2749999995905,2.928428e-05,583.2749999995905,1.095658e-05,583.2749999995905,1.138533e-05
583.2899999995905,1.772698e-05,583.2899999995905,3.381361e-05,583.2899999995905,1.280724e-05,583.2899999995905,1.145686e-05
583.3049999995904,2.19562e-05,583.3049999995904,3.416711e-05,583.3049999995904,1.353036e-05,583.3049999995904,1.125341e-05
583.3199999995904,2.463384e-05,583.3199999995904,3.478329e-05,583.3199999995904,1.397288e-05,583.3199999995904,1.123462e-05
583.3349999995904,2.623876e-05,583.3349999995904,3.639349e-05,583.3349999995904,1.450124e-05,583.3349999995904,1.132703e-05
583.3499999995904,2.653293e-05,583.3499999995904,3.642212e-05,583.3499999995904,1.440671e-05,583.3499999995904,1.117931e-05
583.3649999995904,2.973349e-05,583.3649999995904,3.621734e-05,583.3649999995904,1.535339e-05,583.3649999995904,1.129465e-05
583.3799999995904,3.033106e-05,583.3799999995904,3.705555e-05,583.3799999995904,1.54904e-05,583.3799999995904,1.160104e-05
583.3949999995904,3.064203e-05,583.3949999995904,3.892619e-05,583.3949999995904,1.549131e-05,583.3949999995904,1.146792e-05
583.4099999995904,3.098172e-05,583.4099999995904,4.011421e-05,583.4099999995904,1.575013e-05,583.4099999995904,1.159861e-05
583.4249999995903,3.130917e-05,583.4249999995903,3.979195e-05,583.4249999995903,1.579567e-05,583.4249999995903,1.215256e-05
583.4399999995903,3.208161e-05,583.4399999995903,4.070751e-05,583.4399999995903,1.564513e-05,583.4399999995903,2.320937e-05
583.4549999995903,3.210048e-05,583.4549999995903,3.954658e-05,583.4549999995903,1.420782e-05,583.4549999995903,2.948849e-05
583.4699999995903,3.180511e-05,583.4699999995903,3.811509e-05,583.4699999995903,1.492443e-05,583.4699999995903,3.100853e-05
583.4849999995903,3.196724e-05,583.4849999995903,3.783651e-05,583.4849999995903,1.54904e-05,583.4849999995903,3.091344e-05
583.4999999995903,3.254631e-05,583.4999999995903,3.791127e-05,583.4999999995903,1.543939e-05,583.4999999995903,3.134739e-05
583.5149999995903,3.23466e-05,583.5149999995903,3.726934e-05,583.5149999995903,1.541565e-05,583.5149999995903,3.164793e-05
583.5299999995902,3.213382e-05,583.5299999995902,3.59166e-05,583.5299999995902,1.521422e-05,583.5299999995902,3.163235e-05
583.5449999995902,3.531342e-05,583.5449999995902,3.264787e-05,583.5449999995902,1.333636e-05,583.5449999995902,3.180599e-05
583.5599999995902,3.417742e-05,583.5599999995902,3.230128e-05,583.5599999995902,1.29983e-05,583.5599999995902,3.195975e-05
583.5749999995902,3.149534e-05,583.5749999995902,2.959863e-05,583.5749999995902,1.243331e-05,583.5749999995902,3.191431e-05
583.5899999995902,3.170485e-05,583.5899999995902,2.649627e-05,583.5899999995902,1.210378e-05,583.5899999995902,3.189445e-05
583.6049999995902,3.144655e-05,583.6049999995902,2.560733e-05,583.6049999995902,1.234348e-05,583.6049999995902,3.195402e-05
583.6199999995902,2.853684e-05,583.6199999995902,2.338412e-05,583.6199999995902,1.213052e-05,583.6199999995902,3.194388e-05
583.6349999995901,2.848298e-05,583.6349999995901,2.314129e-05,583.6349999995901,1.229087e-05,583.6349999995901,3.186749e-05
583.6499999995901,2.88095e-05,583.6499999995901,1.906475e-05,583.6499999995901,1.2015e-05,583.6499999995901,3.195754e-05
583.6649999995901,2.854819e-05,583.6649999995901,1.787811e-05,583.6649999995901,1.193265e-05,583.6649999995901,3.182636e-05
583.6799999995901,2.773426e-05,583.6799999995901,1.482879e-05,583.6799999995901,1.179492e-05,583.6799999995901,3.039045e-05
583.6949999995901,2.715114e-05,583.6949999995901,1.160711e-05,583.6949999995901,1.157551e-05,583.6949999995901,1.730232e-05
583.7099999995901,2.668645e-05,583.7099999995901,9.964083e-06,583.7099999995901,1.144579e-05,583.7099999995901,1.351994e-05
583.7249999995901,0.0002662641,583.7249999995901,9.803028e-06,583.7249999995901,9.962669e-06,583.7249999995901,1.122082e-05
583.73999999959,0.0003082958,583.73999999959,9.552672e-06,583.73999999959,9.949936e-06,583.73999999959,1.092697e-05
583.75499999959,0.0003769557,583.75499999959,9.732362e-06,583.75499999959,1.029916e-05,583.75499999959,8.62425e-06
583.76999999959,0.0003849334,583.76999999959,9.649507e-06,583.76999999959,1.053446e-05,583.76999999959,7.63668e-06
583.78499999959,0.0003853582,583.78499999959,9.785769e-06,583.78499999959,1.030736e-05,583.78499999959,7.502692e-06
583.79999999959,0.0003878083,583.79999999959,9.704822e-06,583.79999999959,1.058515e-05,583.79999999959,6.722357e-06
583.81499999959,0.000389963,583.81499999959,8.390783e-06,583.81499999959,1.08947e-05,583.81499999959,6.329497e-06
583.82999999959,0.0003903218,583.82999999959,8.284342e-06,583.82999999959,1.103856e-05,583.82999999959,6.345057e-06
583.84499999959,0.0003903285,583.84499999959,8.270727e-06,583.84499999959,1.096044e-05,583.84499999959,6.183143e-06
583.85999999959,0.0003906086,583.85999999959,8.313199e-06,583.85999999959,9.68157e-06,583.85999999959,5.812045e-06
583.8749999995899,0.0003906764,583.8749999995899,8.77805e-06,583.8749999995899,9.643665e-06,583.8749999995899,6.11211e-06
583.8899999995899,0.0003906726,583.8899999995899,9.65972e-06,583.8899999995899,9.266738e-06,583.8899999995899,5.787757e-06
583.9049999995899,0.0003907375,583.9049999995899,1.028274e-05,583.9049999995899,9.162785e-06,583.9049999995899,5.809621e-06
583.9199999995899,0.0003908061,583.9199999995899,1.070689e-05,583.9199999995899,8.673113e-06,583.9199999995899,5.584614e-06
583.9349999995899,0.0003908472,583.9349999995899,1.172304e-05,583.9349999995899,8.673113e-06,583.9349999995899,5.464775e-06
583.9499999995899,0.0003908472,583.9499999995899,1.209912e-05,583.9499999995899,8.810087e-06,583.9499999995899,5.339611e-06
583.9649999995898,0.0003908338,583.9649999995898,1.287963e-05,583.9649999995898,8.998348e-06,583.9649999995898,5.358047e-06
583.9799999995898,0.0002633502,583.9799999995898,1.2601e-05,583.9799999995898,8.663363e-06,583.9799999995898,5.310512e-06
583.9949999995898,0.0001934712,583.9949999995898,1.247064e-05,583.9949999995898,9.176611e-06,583.9949999995898,5.281253e-06
584.0099999995898,7.431155e-05,584.0099999995898,1.227367e-05,584.0099999995898,8.971695e-06,584.0099999995898,5.254512e-06
584.0249999995898,5.680724e-05,584.0249999995898,1.223574e-05,584.0249999995898,9.414533e-06,584.0249999995898,5.227635e-06
584.0399999995898,5.411856e-05,584.0399999995898,1.25831e-05,584.0399999995898,9.631973e-06,584.0399999995898,5.60727e-06
584.0549999995898,3.928784e-05,584.0549999995898,1.234576e-05,584.0549999995898,9.445902e-06,584.0549999995898,5.807196e-06
584.0699999995898,2.493112e-05,584.0699999995898,1.203843e-05,584.0699999995898,9.168933e-06,584.0699999995898,5.967507e-06
584.0849999995897,2.378608e-05,584.0849999995897,1.19173e-05,584.0849999995897,9.012426e-06,584.0849999995897,6.056544e-06
584.0999999995897,2.250683e-05,584.0999999995897,1.194091e-05,584.0999999995897,8.790878e-06,584.0999999995897,5.836232e-06
584.1149999995897,1.885897e-05,584.1149999995897,1.223574e-05,584.1149999995897,8.770023e-06,584.1149999995897,5.313164e-06
584.1299999995897,1.677485e-05,584.1299999995897,1.203024e-05,584.1299999995897,9.024921e-06,584.1299999995897,5.071714e-06
584.1449999995897,1.515391e-05,584.1449999995897,1.07777e-05,584.1449999995897,9.672836e-06,584.1449999995897,5.420777e-06
584.1599999995897,1.220115e-05,584.1599999995897,1.07082e-05,584.1599999995897,9.669923e-06,584.1599999995897,5.392116e-06
584.1749999995897,1.125341e-05,584.1749999995897,1.035509e-05,584.1749999995897,9.722225e-06,584.1749999995897,5.410373e-06
584.1899999995896,1.001766e-05,584.1899999995896,9.205732e-06,584.1899999995896,1.001344e-05,584.1899999995896,5.376418e-06
584.2049999995896,1.004855e-05,584.2049999995896,8.697441e-06,584.2049999995896,9.985267e-06,584.2049999995896,5.379038e-06
584.2199999995896,1.018501e-05,584.2199999995896,7.896054e-06,584.2199999995896,1.003592e-05,584.2199999995896,5.821732e-06
584.2349999995896,1.018777e-05,584.2349999995896,8.173069e-06,584.2349999995896,1.020987e-05,584.2349999995896,5.879517e-06
584.2499999995896,1.01933e-05,584.2499999995896,8.343643e-06,584.2499999995896,9.487566e-06,584.2499999995896,5.922486e-06
584.2649999995896,1.048621e-05,584.2649999995896,9.265217e-06,584.2649999995896,9.438442e-06,584.2649999995896,5.922486e-06
584.2799999995896,1.124465e-05,584.2799999995896,9.719326e-06,584.2799999995896,9.742488e-06,584.2799999995896,5.934367e-06
584.2949999995895,1.35875e-05,584.2949999995895,9.979622e-06,584.2949999995895,9.62173e-06,584.2949999995895,5.379038e-06
584.3099999995895,1.589436e-05,584.3099999995895,1.118309e-05,584.3099999995895,9.63051e-06,584.3099999995895,5.365928e-06
584.3249999995895,1.629089e-05,584.3249999995895,1.266567e-05,584.3249999995895,9.677204e-06,584.3249999995895,5.206033e-06
584.3399999995895,1.75087e-05,584.3399999995895,1.290803e-05,584.3399999995895,1.29124e-05,584.3399999995895,5.216845e-06
584.3549999995895,1.785682e-05,584.3549999995895,1.291567e-05,584.3549999995895,1.815645e-05,584.3549999995895,5.085583e-06
584.3699999995895,1.802798e-05,584.3699999995895,1.316627e-05,584.3699999995895,2.133535e-05,584.3699999995895,5.189773e-06
584.3849999995895,1.891788e-05,584.3849999995895,1.335325e-05,584.3849999995895,2.304186e-05,584.3849999995895,5.219545e-06
584.3999999995895,1.93835e-05,584.3999999995895,1.391631e-05,584.3999999995895,2.317353e-05,584.3999999995895,5.032679e-06
584.4149999995894,2.02938e-05,584.4149999995894,1.391226e-05,584.4149999995894,2.343106e-05,584.4149999995894,4.982041e-06
584.4299999995894,2.05106e-05,584.4299999995894,1.393755e-05,584.4299999995894,2.365186e-05,584.4299999995894,5.102175e-06
584.4449999995894,2.100866e-05,584.4449999995894,1.42494e-05,584.4449999995894,2.354441e-05,584.4449999995894,5.093886e-06
584.4599999995894,2.255621e-05,584.4599999995894,1.46212e-05,584.4599999995894,2.35486e-05,584.4599999995894,5.751133e-06
584.4749999995894,2.281083e-05,584.4749999995894,1.498472e-05,584.4749999995894,2.339977e-05,584.4749999995894,5.659781e-06
584.4899999995894,2.278302e-05,584.4899999995894,1.536164e-05,584.4899999995894,2.325424e-05,584.4899999995894,5.93674e-06
584.5049999995894,2.398659e-05,584.5049999995894,1.56208e-05,584.5049999995894,2.320573e-05,584.5049999995894,6.068162e-06
584.5199999995893,2.52154e-05,584.5199999995893,1.693864e-05,584.5199999995893,2.319662e-05,584.5199999995893,6.128222e-06
584.5349999995893,2.468411e-05,584.5349999995893,1.816653e-05,584.5349999995893,2.291434e-05,584.5349999995893,6.185421e-06
584.5499999995893,2.63015e-05,584.5499999995893,2.112835e-05,584.5499999995893,2.288297e-05,584.5499999995893,6.174023e-06
584.5649999995893,3.053657e-05,584.5649999995893,2.083901e-05,584.5649999995893,2.298677e-05,584.5649999995893,6.242096e-06
584.5799999995893,3.077414e-05,584.5799999995893,2.07652e-05,584.5799999995893,2.306507e-05,584.5799999995893,6.550423e-06
584.5949999995893,3.03357e-05,584.5949999995893,2.170908e-05,584.5949999995893,1.79826e-05,584.5949999995893,7.215565e-06
584.6099999995893,3.230695e-05,584.6099999995893,2.398365e-05,584.6099999995893,1.612926e-05,584.6099999995893,7.928101e-06
584.6249999995892,3.577513e-05,584.6249999995892,4.268786e-05,584.6249999995892,1.214677e-05,584.6249999995892,8.219473e-06
584.6399999995892,3.558246e-05,584.6399999995892,4.557965e-05,584.6399999995892,9.696108e-06,584.6399999995892,8.183403e-06
584.6549999995892,3.615973e-05,584.6549999995892,4.977289e-05,584.6549999995892,9.315255e-06,584.6549999995892,8.604628e-06
584.6699999995892,3.877644e-05,584.6699999995892,5.69004e-05,584.6699999995892,8.856334e-06,584.6699999995892,9.165859e-06
584.6849999995892,4.021977e-05,584.6849999995892,5.836666e-05,584.6849999995892,8.655229e-06,584.6849999995892,9.301635e-06
584.6999999995892,4.080912e-05,584.6999999995892,6.038865e-05,584.6999999995892,8.640569e-06,584.6999999995892,1.074104e-05
584.7149999995892,4.287094e-05,584.7149999995892,6.190361e-05,584.7149999995892,8.81648e-06,584.7149999995892,1.078684e-05
584.7299999995892,4.592847e-05,584.7299999995892,6.475827e-05,584.7299999995892,8.940237e-06,584.7299999995892,1.320793e-05
584.7449999995891,4.711932e-05,584.7449999995891,6.760471e-05,584.7449999995891,9.007736e-06,584.7449999995891,1.421575e-05
584.7599999995891,4.706638e-05,584.7599999995891,6.920174e-05,584.7599999995891,8.977973e-06,584.7599999995891,1.451969e-05
584.7749999995891,4.632153e-05,584.7749999995891,6.933312e-05,584.7749999995891,8.673113e-06,584.7749999995891,1.462987e-05
584.7899999995891,4.624879e-05,584.7899999995891,6.915511e-05,584.7899999995891,8.95126e-06,584.7899999995891,1.47421e-05
584.8049999995891,4.430425e-05,584.8049999995891,7.079498e-05,584.8049999995891,8.747506e-06,584.8049999995891,1.501102e-05
584.8199999995891,4.317153e-05,584.8199999995891,7.312276e-05,584.8199999995891,9.560042e-06,584.8199999995891,1.513345e-05
584.8349999995891,4.354612e-05,584.8349999995891,7.484138e-05,584.8349999995891,9.191949e-06,584.8349999995891,1.513717e-05
584.849999999589,4.351312e-05,584.849999999589,7.585709e-05,584.849999999589,9.272816e-06,584.849999999589,1.492915e-05
584.864999999589,4.155142e-05,584.864999999589,7.486415e-05,584.864999999589,8.461e-06,584.864999999589,1.486485e-05
584.879999999589,3.989307e-05,584.879999999589,7.091367e-05,584.879999999589,8.282642e-06,584.879999999589,1.510923e-05
584.894999999589,4.021592e-05,584.894999999589,7.077667e-05,584.894999999589,8.284342e-06,584.894999999589,1.522902e-05
584.909999999589,4.012369e-05,584.909999999589,6.789911e-05,584.909999999589,7.813558e-06,584.909999999589,1.512507e-05
584.924999999589,3.746649e-05,584.924999999589,6.850223e-05,584.924999999589,8.079462e-06,584.924999999589,1.48819e-05
584.939999999589,3.701219e-05,584.939999999589,6.849504e-05,584.939999999589,9.116548e-06,584.939999999589,1.421377e-05
584.954999999589,3.584711e-05,584.954999999589,6.805536e-05,584.954999999589,9.139696e-06,584.954999999589,1.325584e-05
584.9699999995889,3.063789e-05,584.9699999995889,6.637562e-05,584.9699999995889,9.153557e-06,584.9699999995889,1.296031e-05
584.9849999995889,3.106345e-05,584.9849999995889,6.542526e-05,584.9849999995889,9.133529e-06,584.9849999995889,1.074891e-05
584.9999999995889,2.995627e-05,584.9999999995889,6.439617e-05,584.9999999995889,9.119637e-06,584.9999999995889,1.004294e-05
585.0149999995889,3.175369e-05,585.0149999995889,6.34077e-05,585.0149999995889,9.097987e-06,585.0149999995889,1.019468e-05
585.0299999995889,3.19897e-05,585.0299999995889,6.430467e-05,585.0299999995889,9.333384e-06,585.0299999995889,9.958426e-06
585.0449999995889,3.099853e-05,585.0449999995889,6.400847e-05,585.0449999995889,9.074732e-06,585.0449999995889,9.653885e-06
585.0599999995889,3.042705e-05,585.0599999995889,6.245661e-05,585.0599999995889,8.716856e-06,585.0599999995889,9.423506e-06
585.0749999995888,3.112913e-05,585.0749999995888,6.092141e-05,585.0749999995888,8.24514e-06,585.0749999995888,9.331874e-06
585.0899999995888,3.326338e-05,585.0899999995888,6.155812e-05,585.0899999995888,7.982992e-06,585.0899999995888,8.908669e-06
585.1049999995888,3.427455e-05,585.1049999995888,6.113147e-05,585.1049999995888,9.359006e-06,585.1049999995888,9.927257e-06
585.1199999995888,3.445287e-05,585.1199999995888,5.938187e-05,585.1199999995888,9.890295e-06,585.1199999995888,9.432471e-06
585.1349999995888,3.474925e-05,585.1349999995888,5.594166e-05,585.1349999995888,1.001344e-05,585.1349999995888,9.328855e-06
585.1499999995888,3.417124e-05,585.1499999995888,5.579794e-05,585.1499999995888,9.836022e-06,585.1499999995888,9.278891e-06
585.1649999995888,3.369048e-05,585.1649999995888,5.228551e-05,585.1649999995888,9.526091e-06,585.1649999995888,9.131986e-06
585.1799999995887,3.304073e-05,585.1799999995887,4.906397e-05,585.1799999995887,9.456335e-06,585.1799999995887,9.274335e-06
585.1949999995887,3.383068e-05,585.1949999995887,4.7174e-05,585.1949999995887,8.604628e-06,585.1949999995887,9.147398e-06
585.2099999995887,3.387978e-05,585.2099999995887,4.759258e-05,585.2099999995887,8.869049e-06,585.2099999995887,9.225602e-06
585.2249999995887,3.633384e-05,585.2249999995887,4.836913e-05,585.2249999995887,9.623194e-06,585.2249999995887,9.313742e-06
585.2399999995887,3.705098e-05,585.2399999995887,4.556821e-05,585.2399999995887,9.742488e-06,585.2399999995887,9.227129e-06
585.2549999995887,3.715842e-05,585.2549999995887,4.493754e-05,585.2549999995887,9.990908e-06,585.2549999995887,9.054529e-06
585.2699999995887,3.835309e-05,585.2699999995887,4.715906e-05,585.2699999995887,1.130836e-05,585.2699999995887,9.868907e-06
585.2849999995886,4.056191e-05,585.2849999995886,4.665545e-05,585.2849999995886,1.387982e-05,585.2849999995886,1.001485e-05
585.2999999995886,4.500676e-05,585.2999999995886,4.479531e-05,585.2999999995886,1.519383e-05,585.2999999995886,1.106787e-05
585.3149999995886,4.727095e-05,585.3149999995886,4.700288e-05,585.3149999995886,1.836243e-05,585.3149999995886,1.123462e-05
585.3299999995886,5.013778e-05,585.3299999995886,4.538421e-05,585.3299999995886,1.878487e-05,585.3299999995886,1.133324e-05
585.3449999995886,4.847212e-05,585.3449999995886,4.088396e-05,585.3449999995886,1.873907e-05,585.3449999995886,1.061306e-05
585.3599999995886,4.984642e-05,585.3599999995886,4.122741e-05,585.3599999995886,1.872253e-05,585.3599999995886,1.053714e-05
585.3749999995886,5.006946e-05,585.3749999995886,4.011351e-05,585.3749999995886,1.951243e-05,585.3749999995886,1.056517e-05
585.3899999995886,5.049613e-05,585.3899999995886,4.024638e-05,585.3899999995886,1.957586e-05,585.3899999995886,1.046335e-05
585.4049999995885,5.050896e-05,585.4049999995885,3.917977e-05,585.4049999995885,1.970067e-05,585.4049999995885,1.070689e-05
585.4199999995885,5.222944e-05,585.4199999995885,4.016755e-05,585.4199999995885,2.030213e-05,585.4199999995885,1.093213e-05
585.4349999995885,5.580022e-05,585.4349999995885,4.017878e-05,585.4349999995885,2.039006e-05,585.4349999995885,1.085584e-05
585.4499999995885,5.501206e-05,585.4499999995885,3.946671e-05,585.4499999995885,2.04418e-05,585.4499999995885,1.084675e-05
585.4649999995885,5.378488e-05,585.4649999995885,3.966928e-05,585.4649999995885,2.018522e-05,585.4649999995885,1.082335e-05
585.4799999995885,5.20116e-05,585.4799999995885,3.802887e-05,585.4799999995885,2.011671e-05,585.4799999995885,1.123086e-05
585.4949999995885,5.201133e-05,585.4949999995885,3.794284e-05,585.4949999995885,2.00985e-05,585.4949999995885,1.154139e-05
585.5099999995884,5.10648e-05,585.5099999995884,3.885592e-05,585.5099999995884,2.015869e-05,585.5099999995884,1.132703e-05
585.5249999995884,4.916894e-05,585.5249999995884,3.712922e-05,585.5249999995884,1.816343e-05,585.5249999995884,1.25225e-05
585.5399999995884,4.832309e-05,585.5399999995884,4.309936e-05,585.5399999995884,1.768083e-05,585.5399999995884,1.764254e-05
585.5549999995884,4.307942e-05,585.5549999995884,4.48478e-05,585.5549999995884,1.695028e-05,585.5549999995884,3.833105e-05
585.5699999995884,4.151954e-05,585.5699999995884,4.288113e-05,585.5699999995884,1.497908e-05,585.5699999995884,7.443257e-05
585.5849999995884,3.795101e-05,585.5849999995884,4.836476e-05,585.5849999995884,1.577961e-05,585.5849999995884,8.867811e-05
585.5999999995884,3.543329e-05,585.5999999995884,5.006102e-05,585.5999999995884,1.671681e-05,585.5999999995884,9.92957e-05
585.6149999995883,3.481041e-05,585.6149999995883,5.780427e-05,585.6149999995883,1.635906e-05,585.6149999995883,0.0001073798
585.6299999995883,3.346057e-05,585.6299999995883,6.482415e-05,585.6299999995883,1.620071e-05,585.6299999995883,0.0001087863
585.6449999995883,3.277017e-05,585.6449999995883,6.628366e-05,585.6449999995883,1.64278e-05,585.6449999995883,0.0001087786
585.6599999995883,3.136985e-05,585.6599999995883,6.675231e-05,585.6599999995883,1.701912e-05,585.6599999995883,0.0001087998
585.6749999995883,2.939567e-05,585.6749999995883,6.705677e-05,585.6749999995883,1.689534e-05,585.6749999995883,0.0001088021
585.6899999995883,2.34701e-05,585.6899999995883,7.270915e-05,585.6899999995883,1.68653e-05,585.6899999995883,0.0001089802
585.7049999995883,2.391543e-05,585.7049999995883,7.461196e-05,585.7049999995883,1.694197e-05,585.7049999995883,0.0001100623
585.7199999995883,2.377423e-05,585.7199999995883,7.649507e-05,585.7199999995883,1.716746e-05,585.7199999995883,0.0001101241
585.7349999995882,2.373806e-05,585.7349999995882,7.785202e-05,585.7349999995882,1.714858e-05,585.7349999995882,0.0001100653
585.7499999995882,2.331172e-05,585.7499999995882,7.848743e-05,585.7499999995882,1.726972e-05,585.7499999995882,0.0001100641
585.7649999995882,2.331715e-05,585.7649999995882,7.723163e-05,585.7649999995882,1.731453e-05,585.7649999995882,0.0001101783
585.7799999995882,2.390541e-05,585.7799999995882,7.705505e-05,585.7799999995882,1.742563e-05,585.7799999995882,0.0001096821
585.7949999995882,2.366734e-05,585.7949999995882,7.42408e-05,585.7949999995882,1.688283e-05,585.7949999995882,0.0001079676
585.8099999995882,2.306874e-05,585.8099999995882,7.393125e-05,585.8099999995882,1.667716e-05,585.8099999995882,8.915102e-05
585.8249999995882,2.805895e-05,585.8249999995882,7.404016e-05,585.8249999995882,1.5619e-05,585.8249999995882,7.95901e-05
585.8399999995881,3.006142e-05,585.8399999995881,7.3148e-05,585.8399999995881,1.526321e-05,585.8399999995881,6.376085e-05
585.8549999995881,3.091435e-05,585.8549999995881,7.277112e-05,585.8549999995881,1.436362e-05,585.8549999995881,4.402004e-05
585.8699999995881,3.117616e-05,585.8699999995881,6.322438e-05,585.8699999995881,1.372777e-05,585.8699999995881,2.465042e-05
585.8849999995881,3.160963e-05,585.8849999995881,5.947929e-05,585.8849999995881,1.34876e-05,585.8849999995881,2.314312e-05
585.8999999995881,3.246614e-05,585.8999999995881,5.973476e-05,585.8999999995881,1.329828e-05,585.8999999995881,2.445362e-05
585.9149999995881,3.368212e-05,585.9149999995881,6.216294e-05,585.9149999995881,1.263783e-05,585.9149999995881,2.460523e-05
585.9299999995881,3.388726e-05,585.9299999995881,6.333657e-05,585.9299999995881,1.196448e-05,585.9299999995881,2.460752e-05
585.944999999588,3.372893e-05,585.944999999588,5.913774e-05,585.944999999588,1.174225e-05,585.944999999588,2.185588e-05
585.959999999588,3.450272e-05,585.959999999588,5.527136e-05,585.959999999588,1.137419e-05,585.959999999588,1.864789e-05
585.974999999588,3.438452e-05,585.974999999588,5.338186e-05,585.974999999588,1.237312e-05,585.974999999588,1.85555e-05
585.989999999588,3.395371e-05,585.989999999588,5.481299e-05,585.989999999588,1.244237e-05,585.989999999588,1.848858e-05
586.004999999588,3.366078e-05,586.004999999588,5.925673e-05,586.004999999588,1.331733e-05,586.004999999588,1.849239e-05
586.019999999588,3.272113e-05,586.019999999588,6.380435e-05,586.019999999588,1.37534e-05,586.019999999588,1.788047e-05
586.034999999588,3.173949e-05,586.034999999588,6.390936e-05,586.034999999588,1.42108e-05,586.034999999588,1.764494e-05
586.049999999588,3.168574e-05,586.049999999588,6.496546e-05,586.049999999588,1.452939e-05,586.049999999588,1.626839e-05
586.0649999995879,3.061029e-05,586.0649999995879,6.370161e-05,586.0649999995879,1.452939e-05,586.0649999995879,1.547312e-05
586.0799999995879,2.59179e-05,586.0799999995879,6.35679e-05,586.0799999995879,1.478789e-05,586.0799999995879,1.513159e-05
586.0949999995879,2.472175e-05,586.0949999995879,6.249156e-05,586.0949999995879,1.624673e-05,586.0949999995879,1.458744e-05
586.1099999995879,2.381745e-05,586.1099999995879,6.383569e-05,586.1099999995879,1.832788e-05,586.1099999995879,1.430958e-05
586.1249999995879,2.368043e-05,586.1249999995879,6.457049e-05,586.1249999995879,1.893872e-05,586.1249999995879,1.330569e-05
586.1399999995879,2.181588e-05,586.1399999995879,6.469799e-05,586.1399999995879,1.887166e-05,586.1399999995879,1.399706e-05
586.1549999995879,2.072649e-05,586.1549999995879,6.374029e-05,586.1549999995879,1.902999e-05,586.1549999995879,1.154871e-05
586.1699999995878,1.815877e-05,586.1699999995878,6.258256e-05,586.1699999995878,2.077537e-05,586.1699999995878,1.197155e-05
586.1849999995878,1.752719e-05,586.1849999995878,6.013525e-05,586.1849999995878,2.120621e-05,586.1849999995878,1.213284e-05
586.1999999995878,1.441159e-05,586.1999999995878,6.004664e-05,586.1999999995878,2.214147e-05,586.1999999995878,1.197743e-05
586.2149999995878,1.402621e-05,586.2149999995878,6.018677e-05,586.2149999995878,2.313094e-05,586.2149999995878,1.153529e-05
586.2299999995878,1.448083e-05,586.2299999995878,5.980146e-05,586.2299999995878,2.374696e-05,586.2299999995878,1.213865e-05
586.2449999995878,1.525952e-05,586.2449999995878,6.656381e-05,586.2449999995878,2.633468e-05,586.2449999995878,1.204311e-05
586.2599999995878,1.894095e-05,586.2599999995878,6.424703e-05,586.2599999995878,2.616726e-05,586.2599999995878,1.174225e-05
586.2749999995877,2.945503e-05,586.2749999995877,6.889756e-05,586.2749999995877,2.648031e-05,586.2749999995877,1.181878e-05
586.2899999995877,2.991015e-05,586.2899999995877,7.14058e-05,586.2899999995877,2.633415e-05,586.2899999995877,1.177101e-05
586.3049999995877,3.056931e-05,586.3049999995877,7.42372e-05,586.3049999995877,2.654938e-05,586.3049999995877,1.233892e-05
586.3199999995877,3.756749e-05,586.3199999995877,8.088052e-05,586.3199999995877,2.788622e-05,586.3199999995877,1.227023e-05
586.3349999995877,3.750558e-05,586.3349999995877,8.179616e-05,586.3349999995877,2.853881e-05,586.3349999995877,1.235831e-05
586.3499999995877,3.796882e-05,586.3499999995877,8.197095e-05,586.3499999995877,2.950902e-05,586.3499999995877,1.279623e-05
586.3649999995877,4.125849e-05,586.3649999995877,8.192367e-05,586.3649999995877,2.831433e-05,586.3649999995877,1.293855e-05
586.3799999995877,4.168309e-05,586.3799999995877,8.229784e-05,586.3799999995877,2.823611e-05,586.3799999995877,1.234919e-05
586.3949999995876,4.30431e-05,586.3949999995876,8.216319e-05,586.3949999995876,2.852894e-05,586.3949999995876,1.193973e-05
586.4099999995876,4.386425e-05,586.4099999995876,8.156212e-05,586.4099999995876,2.901754e-05,586.4099999995876,1.316841e-05
586.4249999995876,4.420367e-05,586.4249999995876,7.954354e-05,586.4249999995876,2.828546e-05,586.4249999995876,1.274992e-05
586.4399999995876,4.446738e-05,586.4399999995876,7.893823e-05,586.4399999995876,2.817768e-05,586.4399999995876,1.318659e-05
586.4549999995876,4.498328e-05,586.4549999995876,7.855058e-05,586.4549999995876,2.772817e-05,586.4549999995876,1.318552e-05
586.4699999995876,4.495321e-05,586.4699999995876,7.82534e-05,586.4699999995876,2.681651e-05,586.4699999995876,1.287853e-05
586.4849999995876,4.481355e-05,586.4849999995876,7.727576e-05,586.4849999995876,2.475591e-05,586.4849999995876,1.256741e-05
586.4999999995875,4.421418e-05,586.4999999995875,6.879997e-05,586.4999999995875,2.419767e-05,586.4999999995875,1.26211e-05
586.5149999995875,3.732712e-05,586.5149999995875,6.317824e-05,586.5149999995875,2.417437e-05,586.5149999995875,1.271229e-05
586.5299999995875,3.71751e-05,586.5299999995875,5.650888e-05,586.5299999995875,2.466299e-05,586.5299999995875,1.442039e-05
586.5449999995875,3.684931e-05,586.5449999995875,5.185645e-05,586.5449999995875,2.507142e-05,586.5449999995875,1.441355e-05
586.5599999995875,3.668687e-05,586.5599999995875,3.872628e-05,586.5599999995875,2.480821e-05,586.5599999995875,1.37134e-05
586.5749999995875,3.021846e-05,586.5749999995875,3.30582e-05,586.5749999995875,2.280342e-05,586.5749999995875,1.395977e-05
586.5899999995875,3.031945e-05,586.5899999995875,2.828197e-05,586.5899999995875,2.154102e-05,586.5899999995875,1.817661e-05
586.6049999995874,2.95429e-05,586.6049999995874,1.756813e-05,586.6049999995874,2.075502e-05,586.6049999995874,1.835092e-05
586.6199999995874,2.510735e-05,586.6199999995874,1.541017e-05,586.6199999995874,2.101939e-05,586.6199999995874,1.899517e-05
586.6349999995874,2.444959e-05,586.6349999995874,1.157795e-05,586.6349999995874,2.107026e-05,586.6349999995874,1.882682e-05
586.6499999995874,2.078554e-05,586.6499999995874,1.022779e-05,586.6499999995874,2.070337e-05,586.6499999995874,1.881335e-05
586.6649999995874,1.942995e-05,586.6649999995874,1.085843e-05,586.6649999995874,2.04018e-05,586.6649999995874,1.773889e-05
586.6799999995874,1.980123e-05,586.6799999995874,1.16785e-05,586.6799999995874,1.982469e-05,586.6799999995874,1.765133e-05
586.6949999995874,1.825626e-05,586.6949999995874,1.339748e-05,586.6949999995874,1.939149e-05,586.6949999995874,1.704476e-05
586.7099999995874,1.895582e-05,586.7099999995874,1.352931e-05,586.7099999995874,1.961898e-05,586.7099999995874,1.710828e-05
586.7249999995873,1.874809e-05,586.7249999995873,1.37892e-05,586.7249999995873,1.946762e-05,586.7249999995873,1.683939e-05
586.7399999995873,1.887166e-05,586.7399999995873,1.404528e-05,586.7399999995873,1.938205e-05,586.7399999995873,1.66611e-05
586.7549999995873,2.006975e-05,586.7549999995873,1.393755e-05,586.7549999995873,1.840687e-05,586.7549999995873,1.642523e-05
586.7699999995873,2.060789e-05,586.7699999995873,1.37134e-05,586.7699999995873,1.751191e-05,586.7699999995873,1.608816e-05
586.7849999995873,1.98318e-05,586.7849999995873,1.332579e-05,586.7849999995873,1.63004e-05,586.7849999995873,1.458648e-05
586.7999999995873,1.953768e-05,586.7999999995873,1.324521e-05,586.7999999995873,1.586775e-05,586.7999999995873,1.448569e-05
586.8149999995873,1.81448e-05,586.8149999995873,1.27731e-05,586.8149999995873,1.630299e-05,586.8149999995873,1.446915e-05
586.8299999995872,1.892979e-05,586.8299999995872,1.26211e-05,586.8299999995872,1.606099e-05,586.8299999995872,1.367534e-05
586.8449999995872,1.868035e-05,586.8449999995872,1.298203e-05,586.8449999995872,1.500163e-05,586.8449999995872,8.583318e-06
586.8599999995872,1.982896e-05,586.8599999995872,1.361236e-05,586.8599999995872,1.463661e-05,586.8599999995872,6.333946e-06
586.8749999995872,2.198056e-05,586.8749999995872,1.343947e-05,586.8749999995872,1.383102e-05,586.8749999995872,5.544109e-06
586.8899999995872,2.246736e-05,586.8899999995872,1.340799e-05,586.8899999995872,1.318765e-05,586.8899999995872,5.869926e-06
586.9049999995872,2.261671e-05,586.9049999995872,1.361443e-05,586.9049999995872,1.264006e-05,586.9049999995872,5.746233e-06
586.9199999995872,2.265965e-05,586.9199999995872,1.385443e-05,586.9199999995872,1.143594e-05,586.9199999995872,5.627332e-06
586.9349999995871,2.238759e-05,586.9349999995871,1.320687e-05,586.9349999995871,1.114777e-05,586.9349999995871,5.836232e-06
586.9499999995871,2.652815e-05,586.9499999995871,1.281823e-05,586.9499999995871,1.102196e-05,586.9499999995871,6.633762e-06
586.9649999995871,2.791046e-05,586.9649999995871,1.448569e-05,586.9649999995871,1.034556e-05,586.9649999995871,6.567604e-06
586.9799999995871,3.09758e-05,586.9799999995871,1.47421e-05,586.9799999995871,1.044449e-05,586.9799999995871,7.053663e-06
586.9949999995871,3.25238e-05,586.9949999995871,1.632889e-05,586.9949999995871,1.014065e-05,586.9949999995871,7.12124e-06
587.0099999995871,3.563981e-05,587.0099999995871,1.888584e-05,587.0099999995871,1.010029e-05,587.0099999995871,8.550433e-06
587.0249999995871,3.549843e-05,587.0249999995871,1.910387e-05,587.0249999995871,1.012536e-05,587.0249999995871,1.106915e-05
587.039999999587,3.839311e-05,587.039999999587,2.034856e-05,587.039999999587,1.012118e-05,587.039999999587,1.116923e-05
587.054999999587,4.19915e-05,587.054999999587,2.04838e-05,587.054999999587,1.077639e-05,587.054999999587,1.188534e-05
587.069999999587,4.455251e-05,587.069999999587,2.137163e-05,587.069999999587,1.084285e-05,587.069999999587,1.282812e-05
587.084999999587,4.620582e-05,587.084999999587,2.405052e-05,587.084999999587,1.109076e-05,587.084999999587,1.308255e-05
587.099999999587,4.617502e-05,587.099999999587,2.412245e-05,587.099999999587,1.12459e-05,587.099999999587,1.319193e-05
587.114999999587,4.823527e-05,587.114999999587,2.555777e-05,587.114999999587,1.185329e-05,587.114999999587,1.344786e-05
587.129999999587,4.837263e-05,587.129999999587,3.142055e-05,587.129999999587,1.197978e-05,587.129999999587,1.362373e-05
587.144999999587,5.043584e-05,587.144999999587,3.587893e-05,587.144999999587,1.246839e-05,587.144999999587,1.416115e-05
587.159999999587,5.087881e-05,587.159999999587,3.950559e-05,587.159999999587,1.314379e-05,587.159999999587,1.427804e-05
587.1749999995869,5.52048e-05,587.1749999995869,3.985456e-05,587.1749999995869,1.508123e-05,587.1749999995869,1.434006e-05
587.1899999995869,5.518719e-05,587.1899999995869,3.995693e-05,587.1899999995869,1.539645e-05,587.1899999995869,1.426126e-05
587.2049999995869,5.39953e-05,587.2049999995869,4.251857e-05,587.2049999995869,1.528903e-05,587.2049999995869,1.424644e-05
587.2199999995869,5.435828e-05,587.2199999995869,4.293431e-05,587.2199999995869,1.535064e-05,587.2199999995869,1.470191e-05
587.2349999995869,5.354338e-05,587.2349999995869,4.45288e-05,587.2349999995869,1.548222e-05,587.2349999995869,1.773413e-05
587.2499999995869,5.065934e-05,587.2499999995869,4.538204e-05,587.2499999995869,1.544213e-05,587.2499999995869,1.853348e-05
587.2649999995868,5.096374e-05,587.2649999995868,5.632261e-05,587.2649999995868,1.535155e-05,587.2649999995868,2.028547e-05
587.2799999995868,5.117778e-05,587.2799999995868,5.864188e-05,587.2799999995868,1.512321e-05,587.2799999995868,1.981261e-05
587.2949999995868,4.925768e-05,587.2949999995868,5.884379e-05,587.2949999995868,1.467889e-05,587.2949999995868,2.001422e-05
587.3099999995868,4.773209e-05,587.3099999995868,5.97647e-05,587.3099999995868,1.36227e-05,587.3099999995868,1.955065e-05
587.3249999995868,4.673208e-05,587.3249999995868,6.286374e-05,587.3249999995868,1.310192e-05,587.3249999995868,1.927856e-05
587.3399999995868,4.752891e-05,587.3399999995868,6.401353e-05,587.3399999995868,1.305345e-05,587.3399999995868,1.952037e-05
587.3549999995868,4.763874e-05,587.3549999995868,6.490624e-05,587.3549999995868,1.272116e-05,587.3549999995868,1.940166e-05
587.3699999995868,4.565006e-05,587.3699999995868,6.451942e-05,587.3699999995868,1.226449e-05,587.3699999995868,1.914659e-05
587.3849999995867,4.442491e-05,587.3849999995867,6.583329e-05,587.3849999995867,1.220808e-05,587.3849999995867,1.899442e-05
587.3999999995867,4.353253e-05,587.3999999995867,6.427311e-05,587.3999999995867,1.214097e-05,587.3999999995867,1.875936e-05
587.4149999995867,4.084914e-05,587.4149999995867,6.440513e-05,587.4149999995867,1.099252e-05,587.4149999995867,1.873005e-05
587.4299999995867,3.786814e-05,587.4299999995867,6.488128e-05,587.4299999995867,9.480139e-06,587.4299999995867,1.877587e-05
587.4449999995867,3.735127e-05,587.4449999995867,6.50034e-05,587.4449999995867,8.91973e-06,587.4449999995867,1.882532e-05
587.4599999995867,3.798291e-05,587.4599999995867,6.532743e-05,587.4599999995867,8.872225e-06,587.4599999995867,1.853272e-05
587.4749999995867,3.732599e-05,587.4749999995867,6.531148e-05,587.4749999995867,8.773234e-06,587.4749999995867,1.819288e-05
587.4899999995866,3.549843e-05,587.4899999995866,6.438238e-05,587.4899999995866,8.269024e-06,587.4899999995866,1.402621e-05
587.5049999995866,3.589541e-05,587.5049999995866,6.271208e-05,587.5049999995866,8.279239e-06,587.5049999995866,1.183664e-05
587.5199999995866,3.888383e-05,587.5199999995866,5.77716e-05,587.5199999995866,1.010447e-05,587.5199999995866,9.739596e-06
587.5349999995866,3.977779e-05,587.5349999995866,5.649393e-05,587.5349999995866,1.043639e-05,587.5349999995866,9.546771e-06
587.5499999995866,3.812358e-05,587.5499999995866,5.847083e-05,587.5499999995866,1.047008e-05,587.5499999995866,9.577708e-06
587.5649999995866,4.058864e-05,587.5649999995866,5.995602e-05,587.5649999995866,1.315771e-05,587.5649999995866,9.469733e-06
587.5799999995866,3.869171e-05,587.5799999995866,5.85409e-05,587.5799999995866,1.319726e-05,587.5799999995866,9.35449e-06
587.5949999995865,3.657034e-05,587.5949999995865,5.876809e-05,587.5949999995865,1.319406e-05,587.5949999995865,8.854743e-06
587.6099999995865,3.627175e-05,587.6099999995865,6.156407e-05,587.6099999995865,1.343213e-05,587.6099999995865,9.127357e-06
587.6249999995865,3.6111e-05,587.6249999995865,6.078924e-05,587.6249999995865,1.382287e-05,587.6249999995865,9.761266e-06
587.6399999995865,3.60989e-05,587.6399999995865,5.816236e-05,587.6399999995865,1.38035e-05,587.6399999995865,9.589467e-06
587.6549999995865,3.732485e-05,587.6549999995865,5.974466e-05,587.6549999995865,1.3989e-05,587.6549999995865,9.733809e-06
587.6699999995865,3.813688e-05,587.6699999995865,5.902592e-05,587.6699999995865,1.384833e-05,587.6699999995865,9.62173e-06
587.6849999995865,3.789306e-05,587.6849999995865,6.04213e-05,587.6849999995865,1.408834e-05,587.6849999995865,9.489051e-06
587.6999999995865,3.716032e-05,587.6999999995865,5.959499e-05,587.6999999995865,1.454295e-05,587.6999999995865,9.307691e-06
587.7149999995864,3.549446e-05,587.7149999995864,6.019145e-05,587.7149999995864,1.486769e-05,587.7149999995864,9.780009e-06
587.7299999995864,3.765701e-05,587.7299999995864,6.143328e-05,587.7299999995864,1.931579e-05,587.7299999995864,1.199153e-05
587.7449999995864,3.979443e-05,587.7449999995864,6.104892e-05,587.7449999995864,2.07231e-05,587.7449999995864,1.226334e-05
587.7599999995864,3.829023e-05,587.7599999995864,5.941105e-05,587.7599999995864,2.073261e-05,587.7599999995864,1.220577e-05
587.7749999995864,3.509856e-05,587.7749999995864,5.876761e-05,587.7749999995864,2.008588e-05,587.7749999995864,1.209563e-05
587.7899999995864,3.464044e-05,587.7899999995864,5.753043e-05,587.7899999995864,1.994583e-05,587.7899999995864,2.142167e-05
587.8049999995864,3.450925e-05,587.8049999995864,5.467662e-05,587.8049999995864,2.004587e-05,587.8049999995864,3.00736e-05
587.8199999995863,3.101898e-05,587.8199999995863,5.45794e-05,587.8199999995863,1.877887e-05,587.8199999995863,3.587893e-05
587.8349999995863,3.144744e-05,587.8349999995863,5.537143e-05,587.8349999995863,1.885822e-05,587.8349999995863,4.204716e-05
587.8499999995863,3.130107e-05,587.8499999995863,5.267606e-05,587.8499999995863,1.891193e-05,587.8499999995863,4.595545e-05
587.8649999995863,3.06434e-05,587.8649999995863,4.947312e-05,587.8649999995863,1.910166e-05,587.8649999995863,4.660772e-05
587.8799999995863,3.063743e-05,587.8799999995863,4.901399e-05,587.8799999995863,1.910977e-05,587.8799999995863,4.850814e-05
587.8949999995863,2.977704e-05,587.8949999995863,4.855835e-05,587.8949999995863,1.904775e-05,587.8949999995863,4.891877e-05
587.9099999995863,2.776269e-05,587.9099999995863,4.617136e-05,587.9099999995863,1.872027e-05,587.9099999995863,4.888824e-05
587.9249999995862,2.887592e-05,587.9249999995862,4.581608e-05,587.9249999995862,1.851446e-05,587.9249999995862,4.900278e-05
587.9399999995862,2.931313e-05,587.9399999995862,4.611091e-05,587.9399999995862,1.817583e-05,587.9399999995862,5.010996e-05
587.9549999995862,2.973775e-05,587.9549999995862,4.573853e-05,587.9549999995862,1.774763e-05,587.9549999995862,5.043723e-05
587.9699999995862,2.972069e-05,587.9699999995862,4.429789e-05,587.9699999995862,1.769118e-05,587.9699999995862,5.054213e-05
587.9849999995862,2.425988e-05,587.9849999995862,4.285254e-05,587.9849999995862,1.157065e-05,587.9849999995862,5.009871e-05
587.9999999995862,2.376356e-05,587.9999999995862,4.216626e-05,587.9999999995862,1.051439e-05,587.9999999995862,5.012289e-05
588.0149999995862,2.472004e-05,588.0149999995862,4.390533e-05,588.0149999995862,1.052644e-05,588.0149999995862,5.014424e-05
588.0299999995862,2.473257e-05,588.0299999995862,4.336167e-05,588.0299999995862,1.20021e-05,588.0299999995862,4.964792e-05
588.0449999995861,2.491756e-05,588.0449999995861,5.671417e-05,588.0449999995861,1.217457e-05,588.0449999995861,4.594319e-05
588.0599999995861,2.403118e-05,588.0599999995861,5.509164e-05,588.0599999995861,1.243445e-05,588.0599999995861,4.067981e-05
588.0749999995861,2.288358e-05,588.0749999995861,5.344885e-05,588.0749999995861,1.232064e-05,588.0749999995861,3.463678e-05
588.0899999995861,2.266338e-05,588.0899999995861,5.174468e-05,588.0899999995861,1.206882e-05,588.0899999995861,2.343586e-05
588.1049999995861,2.232269e-05,588.1049999995861,5.184015e-05,588.1049999995861,1.184378e-05,588.1049999995861,2.285463e-05
588.1199999995861,2.345629e-05,588.1199999995861,5.153327e-05,588.1199999995861,1.154261e-05,588.1199999995861,2.14427e-05
588.1349999995861,2.277684e-05,588.1349999995861,5.137339e-05,588.1349999995861,1.480693e-05,588.1349999995861,1.550222e-05
588.149999999586,2.307668e-05,588.149999999586,5.182031e-05,588.149999999586,1.693365e-05,588.149999999586,1.525675e-05
588.164999999586,1.94401e-05,588.164999999586,5.254834e-05,588.164999999586,2.625433e-05,588.164999999586,1.532216e-05
588.179999999586,1.936169e-05,588.179999999586,4.881528e-05,588.179999999586,2.675551e-05,588.179999999586,1.411731e-05
588.194999999586,1.898404e-05,588.194999999586,4.748977e-05,588.194999999586,2.735016e-05,588.194999999586,1.047815e-05
588.209999999586,1.816188e-05,588.209999999586,5.106177e-05,588.209999999586,2.728157e-05,588.209999999586,8.275836e-06
588.224999999586,1.794103e-05,588.224999999586,5.127403e-05,588.224999999586,2.713557e-05,588.224999999586,7.931653e-06
588.239999999586,1.961324e-05,588.239999999586,5.672187e-05,588.239999999586,2.742936e-05,588.239999999586,8.21433e-06
588.254999999586,1.950593e-05,588.254999999586,5.718907e-05,588.254999999586,2.785185e-05,588.254999999586,8.477633e-06
588.2699999995859,2.051884e-05,588.2699999995859,5.94293e-05,588.2699999995859,2.811963e-05,588.2699999995859,1.009052e-05
588.2849999995859,2.182492e-05,588.2849999995859,6.375554e-05,588.2849999995859,2.784882e-05,588.2849999995859,1.018501e-05
588.2999999995859,2.218025e-05,588.2999999995859,5.536227e-05,588.2999999995859,2.783009e-05,588.2999999995859,9.954182e-06
588.3149999995859,2.296531e-05,588.3149999995859,5.598848e-05,588.3149999995859,2.782756e-05,588.3149999995859,1.018086e-05
588.3299999995859,2.335398e-05,588.3299999995859,5.643729e-05,588.3299999995859,2.792559e-05,588.3299999995859,1.024843e-05
588.3449999995859,2.34887e-05,588.3449999995859,5.765322e-05,588.3449999995859,2.83203e-05,588.3449999995859,1.040665e-05
588.3599999995859,2.359999e-05,588.3599999995859,5.90598e-05,588.3599999995859,2.844042e-05,588.3599999995859,1.037955e-05
588.3749999995858,2.325242e-05,588.3749999995858,6.04241e-05,588.3749999995858,2.95753e-05,588.3749999995858,1.062102e-05
588.3899999995858,2.341662e-05,588.3899999995858,6.054823e-05,588.3899999995858,2.775051e-05,588.3899999995858,1.104876e-05
588.4049999995858,2.295856e-05,588.4049999995858,6.091332e-05,588.4049999995858,1.874283e-05,588.4049999995858,1.094501e-05
588.4199999995858,2.30388e-05,588.4199999995858,6.157254e-05,588.4199999995858,1.758416e-05,588.4199999995858,1.158646e-05
588.4349999995858,2.277251e-05,588.4349999995858,6.1573e-05,588.4349999995858,1.650394e-05,588.4349999995858,1.165797e-05
588.4499999995858,2.24918e-05,588.4499999995858,6.115335e-05,588.4499999995858,1.606976e-05,588.4499999995858,1.151084e-05
588.4649999995858,2.227151e-05,588.4649999995858,5.854282e-05,588.4649999995858,1.609078e-05,588.4649999995858,1.136303e-05
588.4799999995857,2.197415e-05,588.4799999995857,5.748831e-05,588.4799999995857,1.590853e-05,588.4799999995857,1.081423e-05
588.4949999995857,2.064955e-05,588.4949999995857,5.321774e-05,588.4949999995857,1.514462e-05,588.4949999995857,1.021539e-05
588.5099999995857,1.962257e-05,588.5099999995857,5.223807e-05,588.5099999995857,1.534513e-05,588.5099999995857,8.998348e-06
588.5249999995857,1.825471e-05,588.5249999995857,4.633582e-05,588.5249999995857,1.403324e-05,588.5249999995857,8.653601e-06
588.5399999995857,1.69561e-05,588.5399999995857,3.745032e-05,588.5399999995857,1.474687e-05,588.5399999995857,8.46433e-06
588.5549999995857,1.558469e-05,588.5549999995857,3.694323e-05,588.5549999995857,1.606187e-05,588.5549999995857,8.350395e-06
588.5699999995857,1.493481e-05,588.5699999995857,3.438165e-05,588.5699999995857,1.613799e-05,588.5699999995857,8.042764e-06
588.5849999995856,1.444967e-05,588.5849999995856,3.367208e-05,588.5849999995856,1.563432e-05,588.5849999995856,8.042764e-06
588.5999999995856,1.385443e-05,588.5999999995856,3.173461e-05,588.5999999995856,1.497249e-05,588.5999999995856,7.791894e-06
588.6149999995856,1.199388e-05,588.6149999995856,2.646648e-05,588.6149999995856,1.412728e-05,588.6149999995856,7.521444e-06
588.6299999995856,1.285554e-05,588.6299999995856,2.518074e-05,588.6299999995856,1.174345e-05,588.6299999995856,6.686639e-06
588.6449999995856,1.334269e-05,588.6449999995856,2.584442e-05,588.6449999995856,1.191966e-05,588.6449999995856,6.597564e-06
588.6599999995856,1.448764e-05,588.6599999995856,2.189323e-05,588.6599999995856,1.226793e-05,588.6599999995856,6.574036e-06
588.6749999995856,1.725013e-05,588.6749999995856,2.297451e-05,588.6749999995856,1.2527e-05,588.6749999995856,5.001795e-06
588.6899999995856,1.723298e-05,588.6899999995856,2.564525e-05,588.6899999995856,1.257862e-05,588.6899999995856,5.162558e-06
588.7049999995855,1.722644e-05,588.7049999995855,2.594289e-05,588.7049999995855,1.268123e-05,588.7049999995855,4.853136e-06
588.7199999995855,1.72485e-05,588.7199999995855,2.667536e-05,588.7199999995855,1.269788e-05,588.7199999995855,4.861837e-06
588.7349999995855,1.755048e-05,588.7349999995855,2.468126e-05,588.7349999995855,1.301454e-05,588.7349999995855,5.02147e-06
588.7499999995855,1.744663e-05,588.7499999995855,2.395662e-05,588.7499999995855,1.27001e-05,588.7499999995855,4.82986e-06
588.7649999995855,1.636423e-05,588.7649999995855,2.325787e-05,588.7649999995855,1.278412e-05,588.7649999995855,4.418613e-06
588.7799999995855,1.628051e-05,588.7799999995855,2.336604e-05,588.7799999995855,1.293964e-05,588.7799999995855,4.485062e-06
588.7949999995855,1.625367e-05,588.7949999995855,2.332984e-05,588.7949999995855,9.996546e-06,588.7949999995855,4.459865e-06
588.8099999995854,1.616067e-05,588.8099999995854,2.335096e-05,588.8099999995854,1.065016e-05,588.8099999995854,4.596741e-06
588.8249999995854,1.680589e-05,588.8249999995854,2.333044e-05,588.8249999995854,1.053847e-05,588.8249999995854,4.544346e-06
588.8399999995854,1.689951e-05,588.8399999995854,2.322514e-05,588.8399999995854,1.040259e-05,588.8399999995854,4.463023e-06
588.8549999995854,1.890447e-05,588.8549999995854,2.31869e-05,588.8549999995854,1.075677e-05,588.8549999995854,4.47563e-06
588.8699999995854,2.123409e-05,588.8699999995854,2.42221e-05,588.8699999995854,1.075153e-05,588.8699999995854,4.376973e-06
588.8849999995854,2.139864e-05,588.8849999995854,2.364769e-05,588.8849999995854,1.085454e-05,588.8849999995854,4.503868e-06
588.8999999995854,2.194336e-05,588.8999999995854,2.1944e-05,588.8999999995854,1.117805e-05,588.8999999995854,4.35115e-06
588.9149999995853,1.989633e-05,588.9149999995853,2.19594e-05,588.9149999995853,1.150104e-05,588.9149999995853,4.279333e-06
588.9299999995853,1.934276e-05,588.9299999995853,1.623979e-05,588.9299999995853,1.132329e-05,588.9299999995853,3.986198e-06
588.9449999995853,1.940239e-05,588.9449999995853,1.581617e-05,588.9449999995853,1.165797e-05,588.9449999995853,3.972038e-06
588.9599999995853,2.034441e-05,588.9599999995853,1.560456e-05,588.9599999995853,1.525213e-05,588.9599999995853,4.506994e-06
588.9749999995853,2.036517e-05,588.9749999995853,1.470478e-05,588.9749999995853,1.529087e-05,588.9749999995853,4.488202e-06
588.9899999995853,2.04666e-05,588.9899999995853,1.466257e-05,588.9899999995853,1.515484e-05,588.9899999995853,4.522595e-06
589.0049999995853,2.067478e-05,589.0049999995853,1.564693e-05,589.0049999995853,1.485063e-05,589.0049999995853,4.472482e-06
589.0199999995853,2.103882e-05,589.0199999995853,1.514648e-05,589.0199999995853,1.480883e-05,589.0199999995853,4.409039e-06
589.0349999995852,2.15299e-05,589.0349999995852,1.531389e-05,589.0349999995852,1.510363e-05,589.0349999995852,4.321914e-06
589.0499999995852,2.220437e-05,589.0499999995852,1.533595e-05,589.0499999995852,1.502415e-05,589.0499999995852,4.236323e-06
589.0649999995852,2.343406e-05,589.0649999995852,1.558921e-05,589.0649999995852,1.435577e-05,589.0649999995852,4.11145e-06
589.0799999995852,2.413471e-05,589.0799999995852,1.627792e-05,589.0799999995852,1.434399e-05,589.0799999995852,4.236323e-06
589.0949999995852,2.710129e-05,589.0949999995852,1.651845e-05,589.0949999995852,1.445649e-05,589.0949999995852,4.48192e-06
589.1099999995852,3.179979e-05,589.1099999995852,1.549131e-05,589.1099999995852,1.460578e-05,589.1099999995852,4.605925e-06
589.1249999995852,4.690958e-05,589.1249999995852,1.587219e-05,589.1249999995852,1.454489e-05,589.1249999995852,4.726678e-06
589.1399999995851,5.090317e-05,589.1399999995851,1.592004e-05,589.1399999995851,1.500163e-05,589.1399999995851,4.627284e-06
589.1549999995851,5.082563e-05,589.1549999995851,1.538364e-05,589.1549999995851,1.443894e-05,589.1549999995851,4.67875e-06
589.1699999995851,5.173488e-05,589.1699999995851,1.519847e-05,589.1699999995851,1.421377e-05,589.1699999995851,4.651575e-06
589.1849999995851,5.301991e-05,589.1849999995851,1.473254e-05,589.1849999995851,1.452357e-05,589.1849999995851,4.651575e-06
589.1999999995851,5.362671e-05,589.1999999995851,1.444674e-05,589.1999999995851,1.359993e-05,589.1999999995851,4.68176e-06
589.2149999995851,5.354391e-05,589.2149999995851,1.464142e-05,589.2149999995851,1.037411e-05,589.2149999995851,4.094283e-06
589.2299999995851,5.446132e-05,589.2299999995851,1.468081e-05,589.2299999995851,1.066602e-05,589.2299999995851,4.148967e-06
589.244999999585,5.453964e-05,589.244999999585,1.39234e-05,589.244999999585,1.096686e-05,589.244999999585,3.925663e-06
589.259999999585,5.455513e-05,589.259999999585,1.391429e-05,589.259999999585,1.080642e-05,589.259999999585,4.035369e-06
589.274999999585,5.439973e-05,589.274999999585,1.39416e-05,589.274999999585,1.092826e-05,589.274999999585,4.042345e-06
589.289999999585,5.423894e-05,589.289999999585,1.37575e-05,589.289999999585,1.106278e-05,589.289999999585,4.094283e-06
589.304999999585,5.402399e-05,589.304999999585,1.466449e-05,589.304999999585,1.087399e-05,589.304999999585,4.29248e-06
589.319999999585,5.286665e-05,589.319999999585,1.415617e-05,589.319999999585,1.085324e-05,589.319999999585,4.262842e-06
589.334999999585,5.259898e-05,589.334999999585,1.368666e-05,589.334999999585,1.084155e-05,589.334999999585,4.249604e-06
589.349999999585,5.014508e-05,589.349999999585,1.349491e-05,589.349999999585,1.034692e-05,589.349999999585,4.049309e-06
589.3649999995849,4.354289e-05,589.3649999995849,1.331945e-05,589.3649999995849,1.030873e-05,589.3649999995849,4.189512e-06
589.3799999995849,2.760954e-05,589.3799999995849,1.362373e-05,589.3799999995849,1.06356e-05,589.3799999995849,4.125132e-06
589.3949999995849,2.171881e-05,589.3949999995849,1.661284e-05,589.3949999995849,1.107042e-05,589.3949999995849,4.373753e-06
589.4099999995849,2.150043e-05,589.4099999995849,1.738273e-05,589.4099999995849,1.095915e-05,589.4099999995849,4.347911e-06
589.4249999995849,2.023819e-05,589.4249999995849,1.762337e-05,589.4249999995849,1.105259e-05,589.4249999995849,4.328428e-06
589.4399999995849,1.849086e-05,589.4399999995849,1.988429e-05,589.4399999995849,1.09347e-05,589.4399999995849,4.256228e-06
589.4549999995849,1.771505e-05,589.4549999995849,2.037623e-05,589.4549999995849,1.103856e-05,589.4549999995849,4.279333e-06
589.4699999995848,1.787259e-05,589.4699999995848,2.118893e-05,589.4699999995848,1.100149e-05,589.4699999995848,4.562907e-06
589.4849999995848,1.666871e-05,589.4849999995848,2.130562e-05,589.4849999995848,1.034011e-05,589.4849999995848,4.572159e-06
589.4999999995848,1.715432e-05,589.4999999995848,2.137888e-05,589.4999999995848,1.013648e-05,589.4999999995848,4.52882e-06
589.5149999995848,1.75553e-05,589.5149999995848,2.059832e-05,589.5149999995848,1.016701e-05,589.5149999995848,4.485062e-06
589.5299999995848,1.735191e-05,589.5299999995848,2.145321e-05,589.5299999995848,1.020987e-05,589.5299999995848,4.559819e-06
589.5449999995848,1.786234e-05,589.5449999995848,2.279106e-05,589.5449999995848,1.042153e-05,589.5449999995848,4.367307e-06
589.5599999995848,1.847638e-05,589.5599999995848,2.326332e-05,589.5599999995848,1.035237e-05,589.5599999995848,4.338181e-06
589.5749999995847,1.902184e-05,589.5749999995847,2.334312e-05,589.5749999995847,1.041207e-05,589.5749999995847,4.415424e-06
589.5899999995847,1.937187e-05,589.5899999995847,2.41353e-05,589.5899999995847,1.038226e-05,589.5899999995847,4.279333e-06
589.6049999995847,1.904257e-05,589.6049999995847,2.423548e-05,589.6049999995847,1.042964e-05,589.6049999995847,3.954266e-06
589.6199999995847,1.968064e-05,589.6199999995847,2.363279e-05,589.6199999995847,1.033057e-05,589.6199999995847,3.936414e-06
589.6349999995847,1.972639e-05,589.6349999995847,2.29168e-05,589.6349999995847,8.643829e-06,589.6349999995847,3.889614e-06
589.6499999995847,2.143481e-05,589.6499999995847,2.167401e-05,589.6499999995847,1.123963e-05,589.6499999995847,3.719291e-06
589.6649999995847,2.158348e-05,589.6649999995847,2.114434e-05,589.6649999995847,1.133697e-05,589.6649999995847,4.090841e-06
589.6799999995847,2.161283e-05,589.6799999995847,1.904479e-05,589.6799999995847,1.116923e-05,589.6799999995847,4.189512e-06
589.6949999995846,2.186619e-05,589.6949999995846,1.950015e-05,589.6949999995846,1.109457e-05,589.6949999995846,4.236323e-06
589.7099999995846,2.20273e-05,589.7099999995846,1.894467e-05,589.7099999995846,1.082075e-05,589.7099999995846,4.073587e-06
589.7249999995846,2.077673e-05,589.7249999995846,1.833479e-05,589.7249999995846,1.070294e-05,589.7249999995846,3.996786e-06
589.7399999995846,2.16896e-05,589.7399999995846,1.899887e-05,589.7399999995846,1.074366e-05,589.7399999995846,4.070128e-06
589.7549999995846,2.385822e-05,589.7549999995846,1.980479e-05,589.7549999995846,1.062368e-05,589.7549999995846,4.165909e-06
589.7699999995846,2.653399e-05,589.7699999995846,2.131487e-05,589.7699999995846,1.041477e-05,589.7699999995846,4.131956e-06
589.7849999995846,2.698565e-05,589.7849999995846,2.603071e-05,589.7849999995846,9.555621e-06,589.7849999995846,4.028382e-06
589.7999999995845,2.777436e-05,589.7999999995845,2.566008e-05,589.7999999995845,9.29406e-06,589.7999999995845,4.05626e-06
589.8149999995845,2.819518e-05,589.8149999995845,2.540685e-05,589.8149999995845,9.254569e-06,589.8149999995845,4.087396e-06
589.8299999995845,2.882417e-05,589.8299999995845,2.46607e-05,589.8299999995845,9.236285e-06,589.8299999995845,4.080498e-06
589.8449999995845,2.993651e-05,589.8449999995845,2.452438e-05,589.8449999995845,9.33791e-06,589.8449999995845,4.128545e-06
589.8599999995845,3.125694e-05,589.8599999995845,2.463784e-05,589.8599999995845,1.036325e-05,589.8599999995845,4.216325e-06
589.8749999995845,3.09567e-05,589.8749999995845,2.513315e-05,589.8749999995845,1.138161e-05,589.8749999995845,4.219664e-06
589.8899999995845,3.084592e-05,589.8899999995845,2.671757e-05,589.8899999995845,9.007736e-06,589.8899999995845,4.155752e-06
589.9049999995844,2.984367e-05,589.9049999995844,2.696162e-05,589.9049999995844,1.361546e-05,589.9049999995844,4.101159e-06
589.9199999995844,2.975054e-05,589.9199999995844,2.736715e-05,589.9199999995844,1.385341e-05,589.9199999995844,3.756974e-06
589.9349999995844,3.136446e-05,589.9349999995844,2.767732e-05,589.9349999995844,1.414821e-05,589.9349999995844,3.711708e-06
589.9499999995844,3.129792e-05,589.9499999995844,2.785842e-05,589.9499999995844,2.084306e-05,589.9499999995844,3.607783e-06
589.9649999995844,3.159224e-05,589.9649999995844,3.01162e-05,589.9649999995844,2.101604e-05,589.9649999995844,3.662038e-06
589.9799999995844,3.124251e-05,589.9799999995844,3.032038e-05,589.9799999995844,2.12394e-05,589.9799999995844,3.599965e-06
589.9949999995844,2.974912e-05,589.9949999995844,2.938321e-05,589.9949999995844,2.145255e-05,589.9949999995844,3.415227e-06
590.0099999995844,2.738722e-05,590.0099999995844,2.923517e-05,590.0099999995844,2.158479e-05,590.0099999995844,3.36955e-06
590.0249999995843,2.686794e-05,590.0249999995843,2.351447e-05,590.0249999995843,2.159849e-05,590.0249999995843,3.468433e-06
590.0399999995843,2.623715e-05,590.0399999995843,2.230564e-05,590.0399999995843,2.163628e-05,590.0399999995843,3.775675e-06
590.0549999995843,2.498192e-05,590.0549999995843,2.34617e-05,590.0549999995843,2.184105e-05,590.0549999995843,3.696496e-06
590.0699999995843,2.432946e-05,590.0699999995843,2.352406e-05,590.0699999995843,2.190867e-05,590.0699999995843,3.638885e-06
590.0849999995843,2.318022e-05,590.0849999995843,2.352226e-05,590.0849999995843,2.199402e-05,590.0849999995843,3.801702e-06
590.0999999995843,2.059285e-05,590.0999999995843,2.344488e-05,590.0999999995843,2.1978e-05,590.0999999995843,3.779404e-06
590.1149999995843,2.055725e-05,590.1149999995843,2.363935e-05,590.1149999995843,2.134855e-05,590.1149999995843,3.67356e-06
590.1299999995842,2.104484e-05,590.1299999995842,2.263041e-05,590.1299999995842,2.103413e-05,590.1299999995842,3.611685e-06
590.1449999995842,2.088627e-05,590.1449999995842,2.119558e-05,590.1449999995842,2.05949e-05,590.1449999995842,3.730636e-06
590.1599999995842,2.04783e-05,590.1599999995842,2.139206e-05,590.1599999995842,1.828479e-05,590.1599999995842,3.794284e-06
590.1749999995842,1.996418e-05,590.1749999995842,2.136636e-05,590.1749999995842,1.797085e-05,590.1749999995842,3.86418e-06
590.1899999995842,1.789544e-05,590.1899999995842,2.137427e-05,590.1899999995842,1.688283e-05,590.1899999995842,4.338181e-06
590.2049999995842,1.761458e-05,590.2049999995842,2.020754e-05,590.2049999995842,9.846043e-06,590.2049999995842,4.373753e-06
590.2199999995842,1.831096e-05,590.2199999995842,1.666194e-05,590.2199999995842,1.311696e-05,590.2199999995842,4.38019e-06
590.2349999995841,1.812072e-05,590.2349999995841,1.655848e-05,590.2349999995841,1.270675e-05,590.2349999995841,4.331681e-06
590.2499999995841,1.752558e-05,590.2499999995841,1.729417e-05,590.2499999995841,1.330993e-05,590.2499999995841,4.305587e-06
590.2649999995841,1.680924e-05,590.2649999995841,1.731127e-05,590.2649999995841,1.379533e-05,590.2649999995841,4.279333e-06
590.2799999995841,1.631336e-05,590.2799999995841,1.642008e-05,590.2799999995841,1.595451e-05,590.2799999995841,4.223002e-06
590.2949999995841,1.595804e-05,590.2949999995841,1.607151e-05,590.2949999995841,1.660266e-05,590.2949999995841,4.114875e-06
590.3099999995841,1.55004e-05,590.3099999995841,1.466449e-05,590.3099999995841,1.648088e-05,590.3099999995841,4.172666e-06
590.3249999995841,1.560998e-05,590.3249999995841,1.491121e-05,590.3249999995841,1.676393e-05,590.3249999995841,4.189512e-06
590.339999999584,1.54631e-05,590.339999999584,1.495366e-05,590.339999999584,1.824931e-05,590.339999999584,4.097722e-06
590.354999999584,1.625627e-05,590.354999999584,1.468657e-05,590.354999999584,1.939875e-05,590.354999999584,4.447213e-06
590.369999999584,1.592888e-05,590.369999999584,1.419592e-05,590.369999999584,1.995289e-05,590.369999999584,4.812329e-06
590.384999999584,1.675468e-05,590.384999999584,1.635389e-05,590.384999999584,2.125398e-05,590.384999999584,4.953686e-06
590.399999999584,1.741269e-05,590.399999999584,1.699593e-05,590.399999999584,2.271553e-05,590.399999999584,5.091119e-06
590.414999999584,2.067818e-05,590.414999999584,1.619462e-05,590.414999999584,2.307546e-05,590.414999999584,5.28392e-06
590.429999999584,2.138876e-05,590.429999999584,1.611527e-05,590.429999999584,2.453357e-05,590.429999999584,5.407768e-06
590.444999999584,2.157565e-05,590.444999999584,1.602059e-05,590.444999999584,2.437226e-05,590.444999999584,5.259872e-06
590.4599999995839,2.142232e-05,590.4599999995839,1.643123e-05,590.4599999995839,2.424826e-05,590.4599999995839,5.243778e-06
590.4749999995839,2.080247e-05,590.4749999995839,1.841299e-05,590.4749999995839,2.263477e-05,590.4749999995839,6.428867e-06
590.4899999995839,2.092266e-05,590.4899999995839,1.952398e-05,590.4899999995839,2.271243e-05,590.4899999995839,7.558809e-06
590.5049999995839,2.25356e-05,590.5049999995839,1.973639e-05,590.5049999995839,2.265903e-05,590.5049999995839,7.647739e-06
590.5199999995839,2.461897e-05,590.5199999995839,2.385822e-05,590.5199999995839,2.186683e-05,590.5199999995839,7.786468e-06
590.5349999995839,2.581225e-05,590.5349999995839,2.614626e-05,590.5349999995839,2.041836e-05,590.5349999995839,7.838757e-06
590.5499999995839,2.814717e-05,590.5499999995839,2.843695e-05,590.5499999995839,2.069793e-05,590.5499999995839,7.919212e-06
590.5649999995838,2.876595e-05,590.5649999995838,3.585654e-05,590.5649999995838,2.213702e-05,590.5649999995838,8.58496e-06
590.5799999995838,2.945455e-05,590.5799999995838,3.605869e-05,590.5799999995838,2.195234e-05,590.5799999995838,9.454845e-06
590.5949999995838,3.131727e-05,590.5949999995838,3.734787e-05,590.5949999995838,2.013841e-05,590.5949999995838,1.005275e-05
590.6099999995838,3.33353e-05,590.6099999995838,3.772017e-05,590.6099999995838,2.016707e-05,590.6099999995838,1.143225e-05
590.6249999995838,3.403451e-05,590.6249999995838,3.824753e-05,590.6249999995838,1.956794e-05,590.6249999995838,1.249998e-05
590.6399999995838,3.479705e-05,590.6399999995838,4.268258e-05,590.6399999995838,1.762577e-05,590.6399999995838,1.289821e-05
590.6549999995838,3.716411e-05,590.6549999995838,4.373496e-05,590.6549999995838,1.74232e-05,590.6549999995838,1.295922e-05
590.6699999995838,3.705555e-05,590.6699999995838,4.635284e-05,590.6699999995838,1.926175e-05,590.6699999995838,1.343004e-05
590.6849999995837,3.654607e-05,590.6849999995837,4.655449e-05,590.6849999995837,1.867054e-05,590.6849999995837,1.476596e-05
590.6999999995837,3.796622e-05,590.6999999995837,4.789207e-05,590.6999999995837,1.883505e-05,590.6999999995837,1.484968e-05
590.7149999995837,3.85246e-05,590.7149999995837,5.165559e-05,590.7149999995837,1.886345e-05,590.7149999995837,1.485158e-05
590.7299999995837,4.046977e-05,590.7299999995837,5.341167e-05,590.7299999995837,1.911345e-05,590.7299999995837,1.490365e-05
590.7449999995837,4.049448e-05,590.7449999995837,5.465678e-05,590.7449999995837,1.884402e-05,590.7449999995837,1.511482e-05
590.7599999995837,4.087844e-05,590.7599999995837,6.043039e-05,590.7599999995837,1.880136e-05,590.7599999995837,1.559463e-05
590.7749999995837,4.114259e-05,590.7749999995837,5.992829e-05,590.7749999995837,1.919068e-05,590.7749999995837,1.558017e-05
590.7899999995836,4.072999e-05,590.7899999995836,6.263138e-05,590.7899999995836,1.946545e-05,590.7899999995836,1.635389e-05
590.8049999995836,4.081637e-05,590.8049999995836,6.285276e-05,590.8049999995836,1.795281e-05,590.8049999995836,1.648174e-05
590.8199999995836,4.154667e-05,590.8199999995836,6.102514e-05,590.8199999995836,1.803188e-05,590.8199999995836,1.644922e-05
590.8349999995836,4.294416e-05,590.8349999995836,6.462436e-05,590.8349999995836,1.783235e-05,590.8349999995836,1.589258e-05
590.8499999995836,4.437795e-05,590.8499999995836,6.917711e-05,590.8499999995836,1.765771e-05,590.8499999995836,1.556479e-05
590.8649999995836,4.473647e-05,590.8649999995836,6.98747e-05,590.8649999995836,1.749823e-05,590.8649999995836,1.415617e-05
590.8799999995836,4.544842e-05,590.8799999995836,7.072252e-05,590.8799999995836,1.723298e-05,590.8799999995836,1.410833e-05
590.8949999995835,4.604855e-05,590.8949999995835,6.948249e-05,590.8949999995835,1.70216e-05,590.8949999995835,1.386459e-05
590.9099999995835,4.378195e-05,590.9099999995835,7.050547e-05,590.9099999995835,1.558198e-05,590.9099999995835,1.394665e-05
590.9249999995835,4.608738e-05,590.9249999995835,7.184418e-05,590.9249999995835,1.303293e-05,590.9249999995835,1.329616e-05
590.9399999995835,4.628958e-05,590.9399999995835,7.429827e-05,590.9399999995835,1.233092e-05,590.9399999995835,1.227826e-05
590.9549999995835,4.606506e-05,590.9549999995835,7.424289e-05,590.9549999995835,1.211076e-05,590.9549999995835,1.243671e-05
590.9699999995835,4.727572e-05,590.9699999995835,7.416658e-05,590.9699999995835,1.272226e-05,590.9699999995835,1.320367e-05
590.9849999995835,4.753513e-05,590.9849999995835,7.303024e-05,590.9849999995835,1.196684e-05,590.9849999995835,1.220346e-05
590.9999999995835,4.764849e-05,590.9999999995835,7.059932e-05,590.9999999995835,1.200093e-05,590.9999999995835,1.16616e-05
591.0149999995834,4.766653e-05,591.0149999995834,7.468216e-05,591.0149999995834,1.891044e-05,591.0149999995834,1.170621e-05
591.0299999995834,4.696841e-05,591.0299999995834,7.51721e-05,591.0299999995834,2.035202e-05,591.0299999995834,1.151206e-05
591.0449999995834,4.670735e-05,591.0449999995834,7.200419e-05,591.0449999995834,2.206627e-05,591.0449999995834,1.093599e-05
591.0599999995834,4.570618e-05,591.0599999995834,7.228224e-05,591.0599999995834,2.190095e-05,591.0599999995834,1.055183e-05
591.0749999995834,4.720475e-05,591.0749999995834,7.24199e-05,591.0749999995834,2.18133e-05,591.0749999995834,1.025255e-05
591.0899999995834,4.671007e-05,591.0899999995834,6.902625e-05,591.0899999995834,2.221452e-05,591.0899999995834,1.0306e-05
591.1049999995834,4.808112e-05,591.1049999995834,6.792339e-05,591.1049999995834,2.22791e-05,591.1049999995834,1.040395e-05
591.1199999995833,4.513054e-05,591.1199999995833,6.590087e-05,591.1199999995833,2.228479e-05,591.1199999995833,1.028958e-05
591.1349999995833,4.579886e-05,591.1349999995833,6.752172e-05,591.1349999995833,2.236367e-05,591.1349999995833,1.038768e-05
591.1499999995833,4.498861e-05,591.1499999995833,6.877335e-05,591.1499999995833,2.238507e-05,591.1499999995833,1.049158e-05
591.1649999995833,4.427658e-05,591.1649999995833,6.573521e-05,591.1649999995833,2.253685e-05,591.1649999995833,1.027451e-05
591.1799999995833,4.189209e-05,591.1799999995833,6.52571e-05,591.1799999995833,2.255372e-05,591.1799999995833,9.908794e-06
591.1949999995833,4.141525e-05,591.1949999995833,6.24715e-05,591.1949999995833,2.255497e-05,591.1949999995833,1.264563e-05
591.2099999995833,4.03523e-05,591.2099999995833,6.047839e-05,591.2099999995833,2.274342e-05,591.2099999995833,1.385646e-05
591.2249999995832,3.89309e-05,591.2249999995832,5.952072e-05,591.2249999995832,2.242782e-05,591.2249999995832,2.141312e-05
591.2399999995832,3.572627e-05,591.2399999995832,6.024011e-05,591.2399999995832,2.243599e-05,591.2399999995832,2.665951e-05
591.2549999995832,3.5875e-05,591.2549999995832,5.682286e-05,591.2549999995832,2.065091e-05,591.2549999995832,4.439478e-05
591.2699999995832,3.619477e-05,591.2699999995832,5.076378e-05,591.2699999995832,1.691034e-05,591.2699999995832,4.937736e-05
591.2849999995832,3.504675e-05,591.2849999995832,5.080484e-05,591.2849999995832,1.454295e-05,591.2849999995832,9.460252e-05
591.2999999995832,3.54754e-05,591.2999999995832,5.436191e-05,591.2999999995832,1.249096e-05,591.2999999995832,9.803128e-05
591.3149999995832,3.283502e-05,591.3149999995832,5.514608e-05,591.3149999995832,1.241971e-05,591.3149999995832,9.990809e-05
591.3299999995832,3.266641e-05,591.3299999995832,5.813039e-05,591.3299999995832,1.291785e-05,591.3299999995832,0.00010092
591.3449999995831,2.876889e-05,591.3449999995831,5.684764e-05,591.3449999995831,1.237198e-05,591.3449999995831,0.000101313
591.3599999995831,2.455595e-05,591.3599999995831,5.89593e-05,591.3599999995831,1.292766e-05,591.3599999995831,0.0001017441
591.3749999995831,2.294813e-05,591.3749999995831,5.874651e-05,591.3749999995831,1.337854e-05,591.3749999995831,0.0001017331
591.3899999995831,2.297819e-05,591.3899999995831,5.46743e-05,591.3899999995831,1.344576e-05,591.3899999995831,0.0001017405
591.4049999995831,2.276756e-05,591.4049999995831,5.435984e-05,591.4049999995831,1.328768e-05,591.4049999995831,0.0001017065
591.4199999995831,2.506692e-05,591.4199999995831,6.2388e-05,591.4199999995831,1.312126e-05,591.4199999995831,0.0001018037
591.434999999583,2.785387e-05,591.434999999583,6.288458e-05,591.434999999583,1.305561e-05,591.434999999583,0.0001017864
591.449999999583,2.912849e-05,591.449999999583,6.338326e-05,591.449999999583,1.295052e-05,591.449999999583,0.0001013423
591.464999999583,2.856151e-05,591.464999999583,6.507552e-05,591.464999999583,1.272891e-05,591.464999999583,0.0001012739
591.479999999583,0.00025477,591.479999999583,6.502008e-05,591.479999999583,1.43744e-05,591.479999999583,9.982402e-05
591.494999999583,0.0002829145,591.494999999583,6.548165e-05,591.494999999583,1.41502e-05,591.494999999583,9.789986e-05
591.509999999583,0.0003479047,591.509999999583,6.734249e-05,591.509999999583,1.352515e-05,591.509999999583,8.973391e-05
591.524999999583,0.000365409,591.524999999583,6.60386e-05,591.524999999583,1.333002e-05,591.524999999583,8.840159e-05
591.539999999583,0.000365978,591.539999999583,6.459863e-05,591.539999999583,1.341114e-05,591.539999999583,3.286847e-05
591.554999999583,0.0003687438,591.554999999583,6.083395e-05,591.554999999583,1.354804e-05,591.554999999583,2.457315e-05
591.5699999995829,0.0003714825,591.5699999995829,5.741229e-05,591.5699999995829,1.377182e-05,591.5699999995829,1.848172e-05
591.5849999995829,0.0003722956,591.5849999995829,5.478112e-05,591.5849999995829,1.397792e-05,591.5849999995829,1.404929e-05
591.5999999995829,0.000372605,591.5999999995829,5.295903e-05,591.5999999995829,1.378511e-05,591.5999999995829,9.602679e-06
591.6149999995829,0.0003725967,591.6149999995829,5.021274e-05,591.6149999995829,1.332156e-05,591.6149999995829,9.080939e-06
591.6299999995829,0.0003725885,591.6299999995829,4.963572e-05,591.6299999995829,1.305345e-05,591.6299999995829,8.908669e-06
591.6449999995829,0.0003725815,591.6449999995829,4.925195e-05,591.6449999995829,1.341954e-05,591.6449999995829,9.028043e-06
591.6599999995829,0.0003725999,591.6599999995829,4.923308e-05,591.6599999995829,1.360925e-05,591.6599999995829,9.185817e-06
591.6749999995828,0.0003723032,591.6749999995828,3.600239e-05,591.6749999995828,1.350743e-05,591.6749999995828,8.074229e-06
591.6899999995828,0.0003722819,591.6899999995828,3.694628e-05,591.6899999995828,1.326965e-05,591.6899999995828,9.048304e-06
591.7049999995828,0.0003721879,591.7049999995828,3.24618e-05,591.7049999995828,1.324415e-05,591.7049999995828,8.859515e-06
591.7199999995828,0.0003674928,591.7199999995828,3.009046e-05,591.7199999995828,1.312126e-05,591.7199999995828,1.098227e-05
591.7349999995828,0.0002516297,591.7349999995828,3.200688e-05,591.7349999995828,1.196919e-05,591.7349999995828,1.353764e-05
591.7499999995828,0.0002046762,591.7499999995828,4.239249e-05,591.7499999995828,1.26144e-05,591.7499999995828,1.385239e-05
591.7649999995828,0.0001017621,591.7649999995828,5.30539e-05,591.7649999995828,1.367018e-05,591.7649999995828,1.408134e-05
591.7799999995827,5.830436e-05,591.7799999995827,5.799865e-05,591.7799999995827,1.503633e-05,591.7799999995827,1.424446e-05
591.7949999995827,5.860223e-05,591.7949999995827,6.177035e-05,591.7949999995827,1.646634e-05,591.7949999995827,1.42948e-05
591.8099999995827,4.52798e-05,591.8099999995827,6.229016e-05,591.8099999995827,1.675889e-05,591.8099999995827,1.47755e-05
591.8249999995827,3.505358e-05,591.8249999995827,6.287181e-05,591.8249999995827,1.674543e-05,591.8249999995827,1.51892e-05
591.8399999995827,3.289888e-05,591.8399999995827,6.884929e-05,591.8399999995827,1.67286e-05,591.8399999995827,1.445844e-05
591.8549999995827,3.15369e-05,591.8549999995827,7.038929e-05,591.8549999995827,1.693947e-05,591.8549999995827,1.570265e-05
591.8699999995827,3.20917e-05,591.8699999995827,7.114412e-05,591.8699999995827,1.659332e-05,591.8699999995827,1.680505e-05
591.8849999995826,3.341844e-05,591.8849999995826,7.122941e-05,591.8849999995826,1.737138e-05,591.8849999995826,1.739731e-05
591.8999999995826,3.508972e-05,591.8999999995826,7.204976e-05,591.8999999995826,1.770471e-05,591.8999999995826,1.724033e-05
591.9149999995826,3.627913e-05,591.9149999995826,7.30204e-05,591.9149999995826,1.773413e-05,591.9149999995826,1.729988e-05
591.9299999995826,3.60063e-05,591.9299999995826,7.372022e-05,591.9299999995826,1.872704e-05,591.9299999995826,1.770233e-05
591.9449999995826,3.597617e-05,591.9449999995826,7.346717e-05,591.9449999995826,1.876236e-05,591.9449999995826,1.738273e-05
591.9599999995826,3.59793e-05,591.9599999995826,7.343323e-05,591.9599999995826,1.87135e-05,591.9599999995826,1.769914e-05
591.9749999995826,3.624067e-05,591.9749999995826,7.344186e-05,591.9749999995826,1.849391e-05,591.9749999995826,1.841911e-05
591.9899999995826,3.636755e-05,591.9899999995826,7.312951e-05,591.9899999995826,1.830096e-05,591.9899999995826,1.982469e-05
592.0049999995825,3.609344e-05,592.0049999995825,6.57395e-05,592.0049999995825,1.791117e-05,592.0049999995825,2.07394e-05
592.0199999995825,3.586165e-05,592.0199999995825,5.468074e-05,592.0199999995825,1.74789e-05,592.0199999995825,2.079977e-05
592.0349999995825,3.428236e-05,592.0349999995825,5.24273e-05,592.0349999995825,1.614148e-05,592.0349999995825,2.077198e-05
592.0499999995825,3.156994e-05,592.0499999995825,4.888852e-05,592.0499999995825,1.510736e-05,592.0499999995825,2.075298e-05
592.0649999995825,3.055732e-05,592.0649999995825,4.773504e-05,592.0649999995825,1.453229e-05,592.0649999995825,2.04666e-05
592.0799999995825,2.713401e-05,592.0799999995825,4.853572e-05,592.0799999995825,1.420782e-05,592.0799999995825,2.03541e-05
592.0949999995825,2.453988e-05,592.0949999995825,3.752547e-05,592.0949999995825,1.352515e-05,592.0949999995825,2.050373e-05
592.1099999995824,2.362683e-05,592.1099999995824,3.633926e-05,592.1099999995824,1.312019e-05,592.1099999995824,1.974852e-05
592.1249999995824,2.320208e-05,592.1249999995824,3.538834e-05,592.1249999995824,1.293964e-05,592.1249999995824,1.844586e-05
592.1399999995824,2.148405e-05,592.1399999995824,3.453169e-05,592.1399999995824,1.208165e-05,592.1399999995824,1.845044e-05
592.1549999995824,1.587307e-05,592.1549999995824,3.472167e-05,592.1549999995824,1.13878e-05,592.1549999995824,1.850609e-05
592.1699999995824,1.547494e-05,592.1699999995824,3.199191e-05,592.1699999995824,1.118939e-05,592.1699999995824,1.879462e-05
592.1849999995824,1.610566e-05,592.1849999995824,2.977988e-05,592.1849999995824,1.046873e-05,592.1849999995824,1.812927e-05
592.1999999995824,1.624413e-05,592.1999999995824,3.05135e-05,592.1999999995824,1.04889e-05,592.1999999995824,1.81921e-05
592.2149999995823,1.566223e-05,592.2149999995823,3.255237e-05,592.2149999995823,1.032102e-05,592.2149999995823,1.782366e-05
592.2299999995823,1.932381e-05,592.2299999995823,3.252769e-05,592.2299999995823,1.045123e-05,592.2299999995823,1.269011e-05
592.2449999995823,1.936823e-05,592.2449999995823,3.093394e-05,592.2449999995823,1.064222e-05,592.2449999995823,9.917319e-06
592.2599999995823,1.956722e-05,592.2599999995823,2.913526e-05,592.2599999995823,1.046335e-05,592.2599999995823,9.490535e-06
592.2749999995823,2.068227e-05,592.2749999995823,2.951618e-05,592.2749999995823,9.554146e-06,592.2749999995823,9.217965e-06
592.2899999995823,2.036102e-05,592.2899999995823,3.121545e-05,592.2899999995823,1.001344e-05,592.2899999995823,9.645126e-06
592.3049999995823,2.01461e-05,592.3049999995823,3.127991e-05,592.3049999995823,1.025255e-05,592.3049999995823,9.486082e-06
592.3199999995823,1.991473e-05,592.3199999995823,3.054672e-05,592.3199999995823,1.011422e-05,592.3199999995823,9.038959e-06
592.3349999995822,1.993877e-05,592.3349999995822,2.919371e-05,592.3349999995822,1.024431e-05,592.3349999995822,9.049861e-06
592.3499999995822,1.994018e-05,592.3499999995822,2.874391e-05,592.3499999995822,1.082465e-05,592.3499999995822,8.570179e-06
592.3649999995822,1.976064e-05,592.3649999995822,2.879777e-05,592.3649999995822,1.086751e-05,592.3649999995822,8.181682e-06
592.3799999995822,1.924858e-05,592.3799999995822,2.937985e-05,592.3799999995822,1.033057e-05,592.3799999995822,8.520726e-06
592.3949999995822,1.806155e-05,592.3949999995822,2.939567e-05,592.3949999995822,1.047277e-05,592.3949999995822,8.338578e-06
592.4099999995822,1.83862e-05,592.4099999995822,2.805242e-05,592.4099999995822,1.041883e-05,592.4099999995822,8.224612e-06
592.4249999995822,1.841835e-05,592.4249999995822,2.736252e-05,592.4249999995822,1.047143e-05,592.4249999995822,7.413922e-06
592.4399999995821,1.745148e-05,592.4399999995821,2.730376e-05,592.4399999995821,9.898837e-06,592.4399999995821,7.337527e-06
592.4549999995821,1.737544e-05,592.4549999995821,2.439364e-05,592.4549999995821,1.011422e-05,592.4549999995821,6.900217e-06
592.4699999995821,1.652441e-05,592.4699999995821,2.216055e-05,592.4699999995821,1.095273e-05,592.4699999995821,6.896133e-06
592.4849999995821,1.275102e-05,592.4849999995821,2.125995e-05,592.4849999995821,1.090762e-05,592.4849999995821,6.944984e-06
592.4999999995821,1.275102e-05,592.4999999995821,2.166036e-05,592.4999999995821,1.051171e-05,592.4999999995821,7.176414e-06
592.5149999995821,1.230462e-05,592.5149999995821,2.230564e-05,592.5149999995821,1.020711e-05,592.5149999995821,6.606099e-06
592.5299999995821,1.14014e-05,592.5299999995821,2.0573e-05,592.5299999995821,1.002328e-05,592.5299999995821,6.358363e-06
592.544999999582,1.146915e-05,592.544999999582,1.980336e-05,592.544999999582,1.019745e-05,592.544999999582,5.986361e-06
592.559999999582,1.150227e-05,592.559999999582,2.038591e-05,592.559999999582,1.020711e-05,592.559999999582,5.812045e-06
592.574999999582,1.181163e-05,592.574999999582,2.026045e-05,592.574999999582,1.023468e-05,592.574999999582,5.782887e-06
592.589999999582,1.191375e-05,592.589999999582,1.99218e-05,592.589999999582,1.011979e-05,592.589999999582,5.305204e-06
592.604999999582,1.259093e-05,592.604999999582,1.997335e-05,592.604999999582,9.562988e-06,592.604999999582,5.206033e-06
592.619999999582,1.371648e-05,592.619999999582,1.901666e-05,592.619999999582,9.593873e-06,592.619999999582,5.02147e-06
592.634999999582,1.471149e-05,592.634999999582,1.936605e-05,592.634999999582,9.430977e-06,592.634999999582,4.565993e-06
592.649999999582,1.493198e-05,592.649999999582,1.904775e-05,592.649999999582,9.411539e-06,592.649999999582,4.525708e-06
592.6649999995819,1.506628e-05,592.6649999995819,1.904479e-05,592.6649999995819,1.011144e-05,592.6649999995819,4.52882e-06
592.6799999995819,1.497531e-05,592.6799999995819,1.829249e-05,592.6799999995819,9.861767e-06,592.6799999995819,4.547444e-06
592.6949999995819,1.50279e-05,592.6949999995819,1.821996e-05,592.6949999995819,9.499437e-06,592.6949999995819,4.79767e-06
592.7099999995819,1.508964e-05,592.7099999995819,2.029935e-05,592.7099999995819,8.721702e-06,592.7099999995819,4.824024e-06
592.7249999995819,1.482879e-05,592.7249999995819,2.239388e-05,592.7249999995819,8.255384e-06,592.7249999995819,4.765263e-06
592.7399999995819,1.487148e-05,592.7399999995819,2.31352e-05,592.7399999995819,8.041013e-06,592.7399999995819,4.572159e-06
592.7549999995819,1.4652e-05,592.7549999995819,2.120222e-05,592.7549999995819,8.651973e-06,592.7549999995819,4.186148e-06
592.7699999995818,1.574118e-05,592.7699999995818,2.229869e-05,592.7699999995818,8.865873e-06,592.7699999995818,3.8751e-06
592.7849999995818,1.704806e-05,592.7849999995818,2.320633e-05,592.7849999995818,7.919212e-06,592.7849999995818,3.764466e-06
592.7999999995818,1.870446e-05,592.7999999995818,2.328753e-05,592.7999999995818,7.913874e-06,592.7999999995818,3.764466e-06
592.8149999995818,1.921489e-05,592.8149999995818,2.331051e-05,592.8149999995818,7.995334e-06,592.8149999995818,3.885991e-06
592.8299999995818,1.917453e-05,592.8299999995818,2.312546e-05,592.8299999995818,7.974164e-06,592.8299999995818,4.199587e-06
592.8449999995818,1.892309e-05,592.8449999995818,2.326998e-05,592.8449999995818,7.96002e-06,592.8449999995818,4.29248e-06
592.8599999995818,1.879462e-05,592.8599999995818,2.388242e-05,592.8599999995818,7.782849e-06,592.8599999995818,4.29576e-06
592.8749999995817,1.855323e-05,592.8749999995817,2.409791e-05,592.8749999995817,7.669811e-06,592.8749999995817,4.17604e-06
592.8899999995817,1.982256e-05,592.8899999995817,2.420465e-05,592.8899999995817,8.044515e-06,592.8899999995817,4.155752e-06
592.9049999995817,1.976064e-05,592.9049999995817,2.409265e-05,592.9049999995817,7.560672e-06,592.9049999995817,4.262842e-06
592.9199999995817,1.938641e-05,592.9199999995817,2.40552e-05,592.9199999995817,7.083556e-06,592.9199999995817,4.302314e-06
592.9349999995817,1.937187e-05,592.9349999995817,2.462412e-05,592.9349999995817,7.549485e-06,592.9349999995817,4.090841e-06
592.9499999995817,2.005149e-05,592.9499999995817,2.496839e-05,592.9499999995817,7.59599e-06,592.9499999995817,3.957827e-06
592.9649999995817,2.062019e-05,592.9649999995817,2.365186e-05,592.9649999995817,7.562535e-06,592.9649999995817,4.031877e-06
592.9799999995817,2.293339e-05,592.9799999995817,2.274837e-05,592.9799999995817,7.555081e-06,592.9799999995817,4.272744e-06
592.9949999995816,2.370421e-05,592.9949999995816,2.249368e-05,592.9949999995816,7.461272e-06,592.9949999995816,4.405843e-06
593.0099999995816,2.478264e-05,593.0099999995816,2.215991e-05,593.0099999995816,6.426676e-06,593.0099999995816,4.624239e-06
593.0249999995816,2.495992e-05,593.0249999995816,2.09778e-05,593.0249999995816,6.144291e-06,593.0249999995816,4.627284e-06
593.0399999995816,2.486379e-05,593.0399999995816,2.042319e-05,593.0399999995816,6.042573e-06,593.0399999995816,4.612038e-06
593.0549999995816,2.368162e-05,593.0549999995816,2.024446e-05,593.0549999995816,5.819312e-06,593.0549999995816,4.639445e-06
593.0699999995816,2.411252e-05,593.0699999995816,2.017475e-05,593.0699999995816,5.539025e-06,593.0699999995816,4.538142e-06
593.0849999995816,2.414638e-05,593.0849999995816,2.03264e-05,593.0849999995816,5.485359e-06,593.0849999995816,4.285911e-06
593.0999999995815,2.436533e-05,593.0999999995815,2.157108e-05,593.0999999995815,5.61731e-06,593.0999999995815,4.39624e-06
593.1149999995815,2.416679e-05,593.1149999995815,2.095966e-05,593.1149999995815,5.649817e-06,593.1149999995815,4.440873e-06
593.1299999995815,2.375171e-05,593.1299999995815,2.149519e-05,593.1299999995815,5.642331e-06,593.1299999995815,4.466178e-06
593.1449999995815,2.26584e-05,593.1449999995815,2.141969e-05,593.1449999995815,4.942298e-06,593.1449999995815,4.453544e-06
593.1599999995815,2.300514e-05,593.1599999995815,2.298493e-05,593.1599999995815,4.979213e-06,593.1599999995815,4.246287e-06
593.1749999995815,2.316988e-05,593.1749999995815,2.344909e-05,593.1749999995815,4.553636e-06,593.1749999995815,4.179412e-06
593.1899999995815,2.331594e-05,593.1899999995815,2.262481e-05,593.1899999995815,4.347911e-06,593.1899999995815,4.20629e-06
593.2049999995814,2.279415e-05,593.2049999995814,2.322757e-05,593.2049999995814,4.39624e-06,593.2049999995814,4.249604e-06
593.2199999995814,2.227657e-05,593.2199999995814,2.365841e-05,593.2199999995814,4.744526e-06,593.2199999995814,4.246287e-06
593.2349999995814,1.975137e-05,593.2349999995814,2.427033e-05,593.2349999995814,4.853136e-06,593.2349999995814,4.021382e-06
593.2499999995814,1.873682e-05,593.2499999995814,2.403763e-05,593.2499999995814,4.93374e-06,593.2499999995814,3.84957e-06
593.2649999995814,1.89833e-05,593.2649999995814,2.396662e-05,593.2649999995814,4.876302e-06,593.2649999995814,3.911283e-06
593.2799999995814,1.605222e-05,593.2799999995814,2.324152e-05,593.2799999995814,4.841512e-06,593.2799999995814,4.066665e-06
593.2949999995814,1.565414e-05,593.2949999995814,2.384582e-05,593.2949999995814,4.791795e-06,593.2949999995814,4.052786e-06
593.3099999995814,1.591207e-05,593.3099999995814,2.481843e-05,593.3099999995814,4.777073e-06,593.3099999995814,4.052786e-06
593.3249999995813,1.496779e-05,593.3249999995813,2.569793e-05,593.3249999995813,5.113207e-06,593.3249999995813,4.05626e-06
593.3399999995813,1.724278e-05,593.3399999995813,2.519808e-05,593.3399999995813,5.007424e-06,593.3399999995813,3.756974e-06
593.3549999995813,1.721416e-05,593.3549999995813,2.500052e-05,593.3549999995813,5.093886e-06,593.3549999995813,3.73818e-06
593.3699999995813,1.67488e-05,593.3699999995813,2.486832e-05,593.3699999995813,5.162558e-06,593.3699999995813,3.842245e-06
593.3849999995813,1.665941e-05,593.3849999995813,2.503318e-05,593.3849999995813,5.574516e-06,593.3849999995813,3.771943e-06
593.3999999995813,1.600564e-05,593.3999999995813,2.495541e-05,593.3999999995813,5.995767e-06,593.3999999995813,3.805405e-06
593.4149999995813,1.619549e-05,593.4149999995813,2.345089e-05,593.4149999995813,6.102884e-06,593.4149999995813,3.922073e-06
593.4299999995812,1.724687e-05,593.4299999995812,2.31084e-05,593.4299999995812,5.979298e-06,593.4299999995812,3.996786e-06
593.4449999995812,1.699427e-05,593.4449999995812,2.155082e-05,593.4449999995812,6.007502e-06,593.4449999995812,3.86418e-06
593.4599999995812,1.718304e-05,593.4599999995812,2.027505e-05,593.4599999995812,6.049562e-06,593.4599999995812,3.827552e-06
593.4749999995812,1.724768e-05,593.4749999995812,2.298187e-05,593.4749999995812,6.327271e-06,593.4749999995812,3.838577e-06
593.4899999995812,1.827323e-05,593.4899999995812,2.291434e-05,593.4899999995812,6.296025e-06,593.4899999995812,3.67356e-06
593.5049999995812,1.882233e-05,593.5049999995812,2.287927e-05,593.5049999995812,6.466009e-06,593.5049999995812,3.711708e-06
593.5199999995812,1.83747e-05,593.5199999995812,2.334855e-05,593.5199999995812,6.638008e-06,593.5199999995812,3.580347e-06
593.5349999995811,1.863807e-05,593.5349999995811,2.50731e-05,593.5349999995811,7.00557e-06,593.5349999995811,3.456227e-06
593.5499999995811,1.836703e-05,593.5499999995811,2.826354e-05,593.5499999995811,7.03967e-06,593.5499999995811,3.635012e-06
593.5649999995811,1.834708e-05,593.5649999995811,2.772461e-05,593.5649999995811,6.989465e-06,593.5649999995811,3.552699e-06
593.5799999995811,1.821996e-05,593.5799999995811,2.731047e-05,593.5799999995811,6.955118e-06,593.5799999995811,3.688867e-06
593.5949999995811,1.752237e-05,593.5949999995811,2.710856e-05,593.5949999995811,7.011599e-06,593.5949999995811,3.688867e-06
593.6099999995811,1.749743e-05,593.6099999995811,2.739184e-05,593.6099999995811,7.308674e-06,593.6099999995811,3.726858e-06
