X[s],a: EMG RMS 1-1,X[s].1,a: EMG RMS 1-2,X[s].2,a: EMG RMS 1-3,X[s].3,a: EMG RMS 1-4
609.0149999995671,2.113035e-05,609.0149999995671,9.028573e-05,609.0149999995671,3.457124e-05,609.0149999995671,1.919142e-05
609.029999999567,2.229301e-05,609.029999999567,8.940489e-05,609.029999999567,3.337668e-05,609.029999999567,1.924785e-05
609.044999999567,2.327785e-05,609.044999999567,8.631923e-05,609.044999999567,3.255713e-05,609.044999999567,2.040042e-05
609.059999999567,2.328088e-05,609.059999999567,8.530804e-05,609.059999999567,2.844488e-05,609.059999999567,2.077605e-05
609.074999999567,2.390364e-05,609.074999999567,8.288524e-05,609.074999999567,2.786297e-05,609.074999999567,2.268388e-05
609.089999999567,2.39954e-05,609.089999999567,8.024651e-05,609.089999999567,2.146699e-05,609.089999999567,2.235863e-05
609.104999999567,2.401828e-05,609.104999999567,7.675869e-05,609.104999999567,1.860024e-05,609.104999999567,2.276137e-05
609.119999999567,2.303635e-05,609.119999999567,7.095299e-05,609.119999999567,1.720516e-05,609.119999999567,2.286757e-05
609.134999999567,2.316928e-05,609.134999999567,5.947053e-05,609.134999999567,1.656188e-05,609.134999999567,2.308156e-05
609.149999999567,2.322757e-05,609.149999999567,5.101126e-05,609.149999999567,1.639862e-05,609.149999999567,2.280218e-05
609.1649999995669,2.186232e-05,609.1649999995669,4.470528e-05,609.1649999995669,1.564423e-05,609.1649999995669,2.29002e-05
609.1799999995669,2.178551e-05,609.1799999995669,3.651599e-05,609.1799999995669,1.267123e-05,609.1799999995669,2.266151e-05
609.1949999995669,2.118959e-05,609.1949999995669,3.024083e-05,609.1949999995669,1.067394e-05,609.1949999995669,2.421745e-05
609.2099999995669,2.047761e-05,609.2099999995669,2.8369e-05,609.2099999995669,9.701918e-06,609.2099999995669,2.385881e-05
609.2249999995669,2.02535e-05,609.2249999995669,2.668381e-05,609.2249999995669,6.266871e-06,609.2249999995669,2.397484e-05
609.2399999995669,1.991402e-05,609.2399999995669,1.95629e-05,609.2399999995669,6.208153e-06,609.2399999995669,2.466527e-05
609.2549999995668,2.017126e-05,609.2549999995668,1.713214e-05,609.2549999995668,6.365006e-06,609.2549999995668,2.417204e-05
609.2699999995668,1.907435e-05,609.2699999995668,1.552129e-05,609.2699999995668,6.360578e-06,609.2699999995668,2.392661e-05
609.2849999995668,1.792061e-05,609.2849999995668,1.455264e-05,609.2849999995668,6.123622e-06,609.2849999995668,2.396955e-05
609.2999999995668,1.819675e-05,609.2999999995668,1.258422e-05,609.2999999995668,6.360578e-06,609.2999999995668,2.410142e-05
609.3149999995668,1.765771e-05,609.3149999995668,1.196684e-05,609.3149999995668,6.716067e-06,609.3149999995668,2.203944e-05
609.3299999995668,1.649626e-05,609.3299999995668,1.196802e-05,609.3299999995668,6.730734e-06,609.3299999995668,2.197223e-05
609.3449999995668,1.642094e-05,609.3449999995668,1.250449e-05,609.3449999995668,6.470365e-06,609.3449999995668,2.215991e-05
609.3599999995668,1.647062e-05,609.3599999995668,1.264675e-05,609.3599999995668,1.06779e-05,609.3599999995668,2.17214e-05
609.3749999995667,1.730232e-05,609.3749999995667,1.271783e-05,609.3749999995667,1.107423e-05,609.3749999995667,2.144007e-05
609.3899999995667,1.69893e-05,609.3899999995667,1.397893e-05,609.3899999995667,1.115408e-05,609.3899999995667,2.074551e-05
609.4049999995667,1.687281e-05,609.4049999995667,1.434596e-05,609.4049999995667,1.132951e-05,609.4049999995667,2.076316e-05
609.4199999995667,1.831327e-05,609.4199999995667,1.641322e-05,609.4199999995667,1.23936e-05,609.4199999995667,2.100464e-05
609.4349999995667,1.842829e-05,609.4349999995667,1.92939e-05,609.4349999995667,1.564603e-05,609.4349999995667,1.936532e-05
609.4499999995667,1.869844e-05,609.4499999995667,2.470123e-05,609.4499999995667,1.634614e-05,609.4499999995667,1.763376e-05
609.4649999995667,2.058464e-05,609.4649999995667,2.959959e-05,609.4649999995667,1.696606e-05,609.4649999995667,1.794575e-05
609.4799999995666,2.131619e-05,609.4799999995666,3.122627e-05,609.4799999995666,1.704806e-05,609.4799999995666,1.747165e-05
609.4949999995666,2.127717e-05,609.4949999995666,3.390596e-05,609.4949999995666,1.763536e-05,609.4949999995666,1.705467e-05
609.5099999995666,2.118494e-05,609.5099999995666,4.011597e-05,609.5099999995666,1.758897e-05,609.5099999995666,1.71855e-05
609.5249999995666,2.115167e-05,609.5249999995666,4.047047e-05,609.5249999995666,2.017196e-05,609.5249999995666,1.685778e-05
609.5399999995666,2.37991e-05,609.5399999995666,4.373592e-05,609.5399999995666,2.762331e-05,609.5399999995666,1.627532e-05
609.5549999995666,2.513034e-05,609.5549999995666,4.410732e-05,609.5549999995666,3.11237e-05,609.5549999995666,1.461831e-05
609.5699999995666,2.538467e-05,609.5699999995666,4.884067e-05,609.5699999995666,3.121138e-05,609.5699999995666,1.453035e-05
609.5849999995665,2.615218e-05,609.5849999995665,5.271268e-05,609.5849999995665,3.151769e-05,609.5849999995665,1.380656e-05
609.5999999995665,2.64851e-05,609.5999999995665,5.671715e-05,609.5999999995665,3.194255e-05,609.5999999995665,1.439008e-05
609.6149999995665,2.652602e-05,609.6149999995665,6.015821e-05,609.6149999995665,3.082034e-05,609.6149999995665,1.468849e-05
609.6299999995665,2.647872e-05,609.6299999995665,6.177946e-05,609.6299999995665,3.068521e-05,609.6299999995665,1.528258e-05
609.6449999995665,2.657536e-05,609.6449999995665,6.550251e-05,609.6449999995665,3.068521e-05,609.6449999995665,1.558921e-05
609.6599999995665,2.663519e-05,609.6599999995665,6.834206e-05,609.6599999995665,3.05564e-05,609.6599999995665,1.752156e-05
609.6749999995665,2.565404e-05,609.6749999995665,6.860046e-05,609.6749999995665,2.902094e-05,609.6749999995665,1.810517e-05
609.6899999995665,2.61538e-05,609.6899999995665,6.9054e-05,609.6899999995665,2.887739e-05,609.6899999995665,1.892384e-05
609.7049999995664,2.581225e-05,609.7049999995664,6.634845e-05,609.7049999995664,2.821316e-05,609.7049999995664,2.130694e-05
609.7199999995664,2.503431e-05,609.7199999995664,6.614048e-05,609.7199999995664,2.815618e-05,609.7199999995664,2.092603e-05
609.7349999995664,2.464928e-05,609.7349999995664,6.517956e-05,609.7349999995664,2.807551e-05,609.7349999995664,2.10281e-05
609.7499999995664,2.459951e-05,609.7499999995664,6.373035e-05,609.7499999995664,2.778399e-05,609.7499999995664,2.09731e-05
609.7649999995664,2.536801e-05,609.7649999995664,6.031583e-05,609.7649999995664,2.693706e-05,609.7649999995664,2.202154e-05
609.7799999995664,2.510679e-05,609.7799999995664,5.965878e-05,609.7799999995664,2.262418e-05,609.7799999995664,2.232584e-05
609.7949999995664,2.196389e-05,609.7949999995664,5.772721e-05,609.7949999995664,1.737057e-05,609.7949999995664,2.202857e-05
609.8099999995663,2.250369e-05,609.8099999995663,5.622599e-05,609.8099999995663,1.031966e-05,609.8099999995663,2.26963e-05
609.8249999995663,2.178357e-05,609.8249999995663,5.218492e-05,609.8249999995663,1.007235e-05,609.8249999995663,2.284045e-05
609.8399999995663,2.191767e-05,609.8399999995663,4.726499e-05,609.8399999995663,7.913874e-06,609.8399999995663,2.293769e-05
609.8549999995663,2.143613e-05,609.8549999995663,4.388544e-05,609.8549999995663,7.862084e-06,609.8549999995663,2.259927e-05
609.8699999995663,2.095697e-05,609.8699999995663,3.970584e-05,609.8699999995663,7.474476e-06,609.8699999995663,2.243096e-05
609.8849999995663,2.036379e-05,609.8849999995663,3.626515e-05,609.8849999995663,7.506446e-06,609.8849999995663,2.254435e-05
609.8999999995663,2.041767e-05,609.8999999995663,2.59054e-05,609.8999999995663,7.442368e-06,609.8999999995663,2.232521e-05
609.9149999995662,2.058259e-05,609.9149999995662,1.806856e-05,609.9149999995662,7.575563e-06,609.9149999995662,2.239199e-05
609.9299999995662,2.026532e-05,609.9299999995662,1.707531e-05,609.9299999995662,6.865424e-06,609.9299999995662,2.17965e-05
609.9449999995662,2.007115e-05,609.9449999995662,1.274992e-05,609.9449999995662,7.021637e-06,609.9449999995662,1.995713e-05
609.9599999995662,2.109565e-05,609.9599999995662,1.066866e-05,609.9599999995662,6.928738e-06,609.9599999995662,1.882757e-05
609.9749999995662,2.05209e-05,609.9749999995662,1.241971e-05,609.9749999995662,7.432898e-06,609.9749999995662,1.877887e-05
609.9899999995662,2.048999e-05,609.9899999995662,1.234691e-05,609.9899999995662,9.524612e-06,609.9899999995662,1.876461e-05
610.0049999995662,1.983961e-05,610.0049999995662,1.195388e-05,610.0049999995662,1.351577e-05,610.0049999995662,1.799826e-05
610.0199999995662,1.923833e-05,610.0199999995662,1.199153e-05,610.0199999995662,1.474018e-05,610.0199999995662,1.682097e-05
610.0349999995661,1.915321e-05,610.0349999995661,1.450707e-05,610.0349999995661,1.570445e-05,610.0349999995661,1.67387e-05
610.0499999995661,1.871801e-05,610.0499999995661,1.894541e-05,610.0499999995661,1.824314e-05,610.0499999995661,1.699676e-05
610.0649999995661,1.792768e-05,610.0649999995661,2.171622e-05,610.0649999995661,1.870145e-05,610.0649999995661,1.584465e-05
610.0799999995661,1.782761e-05,610.0799999995661,2.540741e-05,610.0799999995661,1.923687e-05,610.0799999995661,1.516228e-05
610.0949999995661,1.758256e-05,610.0949999995661,4.045793e-05,610.0949999995661,1.970782e-05,610.0949999995661,1.472967e-05
610.1099999995661,1.765053e-05,610.1099999995661,4.991109e-05,610.1099999995661,2.149519e-05,610.1099999995661,1.475928e-05
610.1249999995661,1.799826e-05,610.1249999995661,5.455333e-05,610.1249999995661,2.453931e-05,610.1249999995661,1.469136e-05
610.139999999566,1.841376e-05,610.139999999566,5.962193e-05,610.139999999566,2.487739e-05,610.139999999566,1.32367e-05
610.154999999566,1.926614e-05,610.154999999566,6.552164e-05,610.154999999566,2.604694e-05,610.154999999566,1.269788e-05
610.169999999566,2.117297e-05,610.169999999566,7.696359e-05,610.169999999566,2.710908e-05,610.169999999566,1.386154e-05
610.184999999566,2.211792e-05,610.184999999566,7.937175e-05,610.184999999566,2.793165e-05,610.184999999566,1.412728e-05
610.199999999566,2.223226e-05,610.199999999566,8.341128e-05,610.199999999566,2.86978e-05,610.199999999566,1.42405e-05
610.214999999566,2.21039e-05,610.214999999566,8.672431e-05,610.214999999566,2.988801e-05,610.214999999566,1.452842e-05
610.229999999566,2.283798e-05,610.229999999566,9.0888e-05,610.229999999566,3.156057e-05,610.229999999566,1.476501e-05
610.244999999566,2.319419e-05,610.244999999566,9.309385e-05,610.244999999566,3.025759e-05,610.244999999566,1.429283e-05
610.2599999995659,2.407627e-05,610.2599999995659,9.860739e-05,610.2599999995659,3.015406e-05,610.2599999995659,1.640463e-05
610.2749999995659,2.45439e-05,610.2749999995659,0.000101129,610.2749999995659,2.95095e-05,610.2749999995659,1.654571e-05
610.2899999995659,2.494186e-05,610.2899999995659,0.0001038382,610.2899999995659,2.878455e-05,610.2899999995659,1.843211e-05
610.3049999995659,2.586458e-05,610.3049999995659,0.0001046775,610.3049999995659,2.855559e-05,610.3049999995659,1.822382e-05
610.3199999995659,2.668328e-05,610.3199999995659,0.0001043879,610.3199999995659,2.841416e-05,610.3199999995659,1.816731e-05
610.3349999995659,2.712363e-05,610.3349999995659,0.0001040451,610.3349999995659,2.815167e-05,610.3349999995659,1.836627e-05
610.3499999995659,2.772613e-05,610.3499999995659,9.981683e-05,610.3499999995659,2.7537e-05,610.3499999995659,1.973353e-05
610.3649999995658,2.905344e-05,610.3649999995658,9.454443e-05,610.3649999995658,2.530797e-05,610.3649999995658,1.980265e-05
610.3799999995658,2.880314e-05,610.3799999995658,9.359428e-05,610.3799999995658,2.390718e-05,610.3799999995658,1.989845e-05
610.3949999995658,2.888763e-05,610.3949999995658,8.772495e-05,610.3949999995658,2.321604e-05,610.3949999995658,1.956938e-05
610.4099999995658,2.884615e-05,610.4099999995658,8.255146e-05,610.4099999995658,2.248052e-05,610.4099999995658,2.039075e-05
610.4249999995658,2.720297e-05,610.4249999995658,7.431458e-05,610.4249999995658,2.061405e-05,610.4249999995658,2.196966e-05
610.4399999995658,2.699348e-05,610.4399999995658,7.035246e-05,610.4399999995658,2.057437e-05,610.4399999995658,2.234665e-05
610.4549999995658,2.644625e-05,610.4549999995658,6.893027e-05,610.4549999995658,1.888434e-05,610.4549999995658,2.275271e-05
610.4699999995657,2.663995e-05,610.4699999995657,6.035272e-05,610.4699999995657,1.752076e-05,610.4699999995657,2.296776e-05
610.4849999995657,2.665687e-05,610.4849999995657,5.545049e-05,610.4849999995657,1.329722e-05,610.4849999995657,2.315346e-05
610.4999999995657,2.685063e-05,610.4999999995657,5.370336e-05,610.4999999995657,1.224724e-05,610.4999999995657,2.305591e-05
610.5149999995657,2.591681e-05,610.5149999995657,4.313268e-05,610.5149999995657,1.184854e-05,610.5149999995657,2.195684e-05
610.5299999995657,2.671599e-05,610.5299999995657,3.866221e-05,610.5299999995657,1.168814e-05,610.5299999995657,2.378075e-05
610.5449999995657,2.675129e-05,610.5449999995657,2.986302e-05,610.5449999995657,9.94427e-06,610.5449999995657,2.322757e-05
610.5599999995657,2.591355e-05,610.5599999995657,2.522322e-05,610.5599999995657,9.669923e-06,610.5599999995657,2.390246e-05
610.5749999995656,2.595049e-05,610.5749999995656,2.469552e-05,610.5749999995656,9.263696e-06,610.5749999995656,2.434277e-05
610.5899999995656,2.636783e-05,610.5899999995656,1.943575e-05,610.5899999995656,9.259134e-06,610.5899999995656,2.46367e-05
610.6049999995656,2.695535e-05,610.6049999995656,2.164279e-05,610.6049999995656,1.057717e-05,610.6049999995656,2.482354e-05
610.6199999995656,2.612254e-05,610.6199999995656,2.416971e-05,610.6199999995656,1.156943e-05,610.6199999995656,2.488645e-05
610.6349999995656,2.676235e-05,610.6349999995656,2.746528e-05,610.6349999995656,1.170621e-05,610.6349999995656,2.526563e-05
610.6499999995656,2.74463e-05,610.6499999995656,2.88608e-05,610.6499999995656,1.457875e-05,610.6499999995656,2.504443e-05
610.6649999995656,2.688681e-05,610.6649999995656,2.912656e-05,610.6649999995656,1.431352e-05,610.6649999995656,2.305102e-05
610.6799999995656,2.879581e-05,610.6799999995656,3.438985e-05,610.6799999995656,1.392542e-05,610.6799999995656,2.139469e-05
610.6949999995655,2.918695e-05,610.6949999995655,3.538236e-05,610.6949999995655,1.470861e-05,610.6949999995655,2.151288e-05
610.7099999995655,2.920191e-05,610.7099999995655,3.721525e-05,610.7099999995655,1.534788e-05,610.7099999995655,2.114034e-05
610.7249999995655,2.89952e-05,610.7249999995655,3.811767e-05,610.7249999995655,1.599948e-05,610.7249999995655,2.035548e-05
610.7399999995655,2.89271e-05,610.7399999995655,4.975053e-05,610.7399999995655,1.654486e-05,610.7399999995655,2.014051e-05
610.7549999995655,3.255799e-05,610.7549999995655,5.218627e-05,610.7549999995655,2.165971e-05,610.7549999995655,1.981759e-05
610.7699999995655,3.285561e-05,610.7699999995655,5.274848e-05,610.7699999995655,2.260674e-05,610.7699999995655,1.890224e-05
610.7849999995655,3.293568e-05,610.7849999995655,5.562398e-05,610.7849999995655,2.352825e-05,610.7849999995655,1.775953e-05
610.7999999995654,3.256362e-05,610.7999999995654,6.090476e-05,610.7999999995654,2.438151e-05,610.7999999995654,1.671765e-05
610.8149999995654,3.240316e-05,610.8149999995654,6.300766e-05,610.8149999995654,2.783566e-05,610.8149999995654,1.54476e-05
610.8299999995654,3.162255e-05,610.8299999995654,7.030559e-05,610.8299999995654,2.973065e-05,610.8299999995654,1.52318e-05
610.8449999995654,3.110152e-05,610.8449999995654,7.438505e-05,610.8449999995654,3.09949e-05,610.8449999995654,1.267679e-05
610.8599999995654,3.209127e-05,610.8599999995654,8.258234e-05,610.8599999995654,3.126279e-05,610.8599999995654,1.329192e-05
610.8749999995654,3.178473e-05,610.8749999995654,0.0001076526,610.8749999995654,3.13703e-05,610.8749999995654,1.360511e-05
610.8899999995654,3.143221e-05,610.8899999995654,0.0001137645,610.8899999995654,3.262369e-05,610.8899999995654,1.35314e-05
610.9049999995653,3.231392e-05,610.9049999995653,0.0001260078,610.9049999995653,3.288732e-05,610.9049999995653,1.399202e-05
610.9199999995653,3.313269e-05,610.9199999995653,0.0001337484,610.9199999995653,3.489811e-05,610.9199999995653,1.591207e-05
610.9349999995653,3.181529e-05,610.9349999995653,0.0001360522,610.9349999995653,3.59973e-05,610.9349999995653,1.755289e-05
610.9499999995653,3.127631e-05,610.9499999995653,0.0001407497,610.9499999995653,3.683134e-05,610.9499999995653,1.965987e-05
610.9649999995653,3.044463e-05,610.9649999995653,0.0001417453,610.9649999995653,3.669992e-05,610.9649999995653,1.978557e-05
610.9799999995653,3.078513e-05,610.9799999995653,0.0001423924,610.9799999995653,3.67287e-05,610.9799999995653,2.018243e-05
610.9949999995653,3.098626e-05,610.9949999995653,0.0001398698,610.9949999995653,3.578457e-05,610.9949999995653,2.153186e-05
611.0099999995653,2.770072e-05,611.0099999995653,0.0001399653,611.0099999995653,3.312844e-05,611.0099999995653,2.217453e-05
611.0249999995652,2.704874e-05,611.0249999995652,0.0001394684,611.0249999995652,3.257573e-05,611.0249999995652,2.212047e-05
611.0399999995652,2.772918e-05,611.0399999995652,0.0001379005,611.0399999995652,3.2354e-05,611.0399999995652,2.574613e-05
611.0549999995652,2.789885e-05,611.0549999995652,0.0001362087,611.0549999995652,3.072558e-05,611.0549999995652,2.608585e-05
611.0699999995652,2.807852e-05,611.0699999995652,0.0001318153,611.0699999995652,2.866784e-05,611.0699999995652,2.666427e-05
611.0849999995652,2.918309e-05,611.0849999995652,0.0001303944,611.0849999995652,2.580024e-05,611.0849999995652,2.729654e-05
611.0999999995652,2.857827e-05,611.0999999995652,0.0001271415,611.0999999995652,2.487229e-05,611.0999999995652,2.913236e-05
611.1149999995652,2.771597e-05,611.1149999995652,0.0001210339,611.1149999995652,2.366734e-05,611.1149999995652,2.889251e-05
611.1299999995651,2.781389e-05,611.1299999995651,9.785726e-05,611.1299999995651,2.339255e-05,611.1299999995651,2.882075e-05
611.1449999995651,2.633308e-05,611.1449999995651,9.263393e-05,611.1449999995651,2.098921e-05,611.1449999995651,3.077368e-05
611.1599999995651,2.525615e-05,611.1599999995651,6.334991e-05,611.1599999995651,1.693199e-05,611.1599999995651,3.130782e-05
611.1749999995651,2.565514e-05,611.1749999995651,5.928976e-05,611.1749999995651,1.315343e-05,611.1749999995651,3.07054e-05
611.1899999995651,2.534635e-05,611.1899999995651,5.053907e-05,611.1899999995651,1.211309e-05,611.1899999995651,3.071962e-05
611.2049999995651,2.574011e-05,611.2049999995651,3.275383e-05,611.2049999995651,7.885342e-06,611.2049999995651,2.97278e-05
611.2199999995651,2.566447e-05,611.2199999995651,3.235531e-05,611.2199999995651,7.41962e-06,611.2199999995651,2.969272e-05
611.234999999565,2.487682e-05,611.234999999565,2.197672e-05,611.234999999565,7.331766e-06,611.234999999565,2.938704e-05
611.249999999565,2.353124e-05,611.249999999565,1.58482e-05,611.249999999565,1.431942e-05,611.249999999565,2.899811e-05
611.264999999565,2.331897e-05,611.264999999565,2.029311e-05,611.264999999565,1.45507e-05,611.264999999565,2.868946e-05
611.279999999565,2.294874e-05,611.279999999565,2.060789e-05,611.279999999565,1.460385e-05,611.279999999565,2.785994e-05
611.294999999565,2.12818e-05,611.294999999565,2.086941e-05,611.294999999565,1.546947e-05,611.294999999565,2.511352e-05
611.309999999565,2.116432e-05,611.309999999565,2.091121e-05,611.309999999565,1.597745e-05,611.309999999565,2.485246e-05
611.324999999565,2.079231e-05,611.324999999565,2.562712e-05,611.324999999565,1.704641e-05,611.324999999565,2.451001e-05
611.339999999565,1.96835e-05,611.339999999565,3.6952e-05,611.339999999565,1.807947e-05,611.339999999565,2.301004e-05
611.3549999995649,1.935586e-05,611.3549999995649,4.208366e-05,611.3549999995649,1.854563e-05,611.3549999995649,2.109632e-05
611.3699999995649,1.903443e-05,611.3699999995649,4.301855e-05,611.3699999995649,1.93209e-05,611.3699999995649,2.093209e-05
611.3849999995649,1.942125e-05,611.3849999995649,4.433667e-05,611.3849999995649,2.065774e-05,611.3849999995649,1.975066e-05
611.3999999995649,1.982114e-05,611.3999999995649,4.66192e-05,611.3999999995649,2.112568e-05,611.3999999995649,1.656953e-05
611.4149999995649,1.830019e-05,611.4149999995649,4.859112e-05,611.4149999995649,2.166036e-05,611.4149999995649,1.922662e-05
611.4299999995649,1.73015e-05,611.4299999995649,5.3047e-05,611.4299999995649,2.223543e-05,611.4299999995649,1.855778e-05
611.4449999995649,1.784183e-05,611.4449999995649,5.684021e-05,611.4449999995649,2.274466e-05,611.4449999995649,2.111768e-05
611.4599999995648,1.854943e-05,611.4599999995648,6.394417e-05,611.4599999995648,2.598142e-05,611.4599999995648,2.228163e-05
611.4749999995648,1.984884e-05,611.4749999995648,7.660897e-05,611.4749999995648,2.621459e-05,611.4749999995648,2.344187e-05
611.4899999995648,2.047348e-05,611.4899999995648,8.359869e-05,611.4899999995648,2.574667e-05,611.4899999995648,2.34857e-05
611.5049999995648,2.151812e-05,611.5049999995648,8.459968e-05,611.5049999995648,2.593583e-05,611.5049999995648,2.38275e-05
611.5199999995648,2.199274e-05,611.5199999995648,8.871892e-05,611.5199999995648,2.633736e-05,611.5199999995648,2.401535e-05
611.5349999995648,2.205478e-05,611.5349999995648,0.0001026829,611.5349999995648,2.664947e-05,611.5349999995648,2.404817e-05
611.5499999995648,2.315772e-05,611.5499999995648,0.0001082859,611.5499999995648,2.640306e-05,611.5499999995648,2.584824e-05
611.5649999995647,2.384877e-05,611.5649999995647,0.0001125212,611.5649999995647,2.618125e-05,611.5649999995647,2.56749e-05
611.5799999995647,2.397014e-05,611.5799999995647,0.0001115261,611.5799999995647,2.570725e-05,611.5799999995647,2.579587e-05
611.5949999995647,2.40429e-05,611.5949999995647,0.0001132719,611.5949999995647,2.531353e-05,611.5949999995647,2.636783e-05
611.6099999995647,2.450886e-05,611.6099999995647,0.0001123059,611.6099999995647,2.472118e-05,611.6099999995647,2.676288e-05
611.6249999995647,2.489324e-05,611.6249999995647,0.000112825,611.6249999995647,2.421687e-05,611.6249999995647,2.756358e-05
611.6399999995647,2.539687e-05,611.6399999995647,0.0001139496,611.6399999995647,2.308644e-05,611.6399999995647,2.796995e-05
611.6549999995647,2.548436e-05,611.6549999995647,0.0001135176,611.6549999995647,2.291926e-05,611.6549999995647,2.846022e-05
611.6699999995647,2.561888e-05,611.6699999995647,0.0001128267,611.6699999995647,2.230375e-05,611.6699999995647,2.65955e-05
611.6849999995646,2.612362e-05,611.6849999995646,0.0001097992,611.6849999995646,2.140193e-05,611.6849999995646,2.577511e-05
611.6999999995646,2.599063e-05,611.6999999995646,0.0001080321,611.6999999995646,2.095294e-05,611.6999999995646,2.480253e-05
611.7149999995646,2.564361e-05,611.7149999995646,0.0001023465,611.7149999995646,1.697104e-05,611.7149999995646,2.625272e-05
611.7299999995646,2.501967e-05,611.7299999995646,9.322828e-05,611.7299999995646,1.655678e-05,611.7299999995646,2.568203e-05
611.7449999995646,2.467898e-05,611.7449999995646,8.912953e-05,611.7449999995646,1.330887e-05,611.7449999995646,2.549209e-05
611.7599999995646,2.37843e-05,611.7599999995646,8.785236e-05,611.7599999995646,1.117049e-05,611.7599999995646,2.502812e-05
611.7749999995646,2.446802e-05,611.7749999995646,8.080193e-05,611.7749999995646,1.049427e-05,611.7749999995646,2.48921e-05
611.7899999995645,2.424942e-05,611.7899999995645,5.801905e-05,611.7899999995645,9.489051e-06,611.7899999995645,2.453127e-05
611.8049999995645,2.271863e-05,611.8049999995645,5.366584e-05,611.8049999995645,8.872225e-06,611.8049999995645,2.320512e-05
611.8199999995645,2.234855e-05,611.8199999995645,4.558768e-05,611.8199999995645,7.180339e-06,611.8199999995645,2.409031e-05
611.8349999995645,2.236493e-05,611.8349999995645,4.259437e-05,611.8349999995645,7.480127e-06,611.8349999995645,2.399716e-05
611.8499999995645,2.118295e-05,611.8499999995645,3.052319e-05,611.8499999995645,7.545752e-06,611.8499999995645,2.437515e-05
611.8649999995645,2.260986e-05,611.8649999995645,3.015266e-05,611.8649999995645,7.470705e-06,611.8649999995645,2.417146e-05
611.8799999995645,2.142167e-05,611.8799999995645,2.996379e-05,611.8799999995645,7.510198e-06,611.8799999995645,2.413121e-05
611.8949999995644,2.031045e-05,611.8949999995644,2.403763e-05,611.8949999995644,8.148903e-06,611.8949999995644,2.379733e-05
611.9099999995644,2.079231e-05,611.9099999995644,2.409675e-05,611.9099999995644,8.198881e-06,611.9099999995644,2.28386e-05
611.9249999995644,2.162326e-05,611.9249999995644,3.274093e-05,611.9249999995644,8.755555e-06,611.9249999995644,2.191767e-05
611.9399999995644,2.051197e-05,611.9399999995644,3.998019e-05,611.9399999995644,1.071872e-05,611.9399999995644,2.159457e-05
611.9549999995644,2.008869e-05,611.9549999995644,4.069574e-05,611.9549999995644,1.641322e-05,611.9549999995644,1.843822e-05
611.9699999995644,2.021172e-05,611.9699999995644,4.3012e-05,611.9699999995644,1.745955e-05,611.9699999995644,1.667631e-05
611.9849999995644,1.972068e-05,611.9849999995644,5.341985e-05,611.9849999995644,1.879462e-05,611.9849999995644,1.694779e-05
611.9999999995644,1.913261e-05,611.9999999995644,5.596885e-05,611.9999999995644,1.955137e-05,611.9999999995644,1.722971e-05
612.0149999995643,1.932892e-05,612.0149999995643,5.790239e-05,612.0149999995643,2.008308e-05,612.0149999995643,1.740784e-05
612.0299999995643,1.848934e-05,612.0299999995643,5.897483e-05,612.0299999995643,2.238759e-05,612.0299999995643,1.763456e-05
612.0449999995643,1.809816e-05,612.0449999995643,6.268669e-05,612.0449999995643,2.270622e-05,612.0449999995643,1.796222e-05
612.0599999995643,1.848019e-05,612.0599999995643,6.993273e-05,612.0599999995643,2.303024e-05,612.0599999995643,1.6922e-05
612.0749999995643,1.947702e-05,612.0749999995643,7.887575e-05,612.0749999995643,2.704249e-05,612.0749999995643,1.662724e-05
612.0899999995643,2.040801e-05,612.0899999995643,9.064792e-05,612.0899999995643,2.84627e-05,612.0899999995643,1.671175e-05
612.1049999995643,2.072173e-05,612.1049999995643,0.0001004796,612.1049999995643,3.048671e-05,612.1049999995643,1.731778e-05
612.1199999995642,1.97756e-05,612.1199999995642,0.000103839,612.1199999995642,3.102442e-05,612.1199999995642,1.736003e-05
612.1349999995642,1.978629e-05,612.1349999995642,0.0001138352,612.1349999995642,3.221525e-05,612.1349999995642,1.979483e-05
612.1499999995642,1.94951e-05,612.1499999995642,0.0001164448,612.1499999995642,3.328201e-05,612.1499999995642,2.194978e-05
612.1649999995642,1.881409e-05,612.1649999995642,0.0001183848,612.1649999995642,3.353458e-05,612.1649999995642,2.199658e-05
612.1799999995642,1.981261e-05,612.1799999995642,0.000115703,612.1799999995642,3.407009e-05,612.1799999995642,2.234728e-05
612.1949999995642,2.04294e-05,612.1949999995642,0.0001171802,612.1949999995642,3.40312e-05,612.1949999995642,2.287619e-05
612.2099999995642,2.045214e-05,612.2099999995642,0.00011954,612.2099999995642,3.112959e-05,612.2099999995642,2.309437e-05
612.2249999995641,2.014051e-05,612.2249999995641,0.0001215137,612.2249999995641,3.068338e-05,612.2249999995641,2.326696e-05
612.2399999995641,2.127121e-05,612.2399999995641,0.0001206768,612.2399999995641,3.03603e-05,612.2399999995641,2.350549e-05
612.2549999995641,2.203944e-05,612.2549999995641,0.000119793,612.2549999995641,2.979974e-05,612.2549999995641,2.389067e-05
612.2699999995641,2.157826e-05,612.2699999995641,0.0001195845,612.2699999995641,2.786449e-05,612.2699999995641,2.381094e-05
612.2849999995641,2.158022e-05,612.2849999995641,0.0001180707,612.2849999995641,2.77429e-05,612.2849999995641,2.336182e-05
612.2999999995641,2.292725e-05,612.2999999995641,0.0001147904,612.2999999995641,2.746785e-05,612.2999999995641,2.358864e-05
612.3149999995641,2.27855e-05,612.3149999995641,0.0001123556,612.3149999995641,2.588418e-05,612.3149999995641,2.386353e-05
612.329999999564,2.252497e-05,612.329999999564,0.0001063831,612.329999999564,2.27397e-05,612.329999999564,2.408095e-05
612.344999999564,2.320694e-05,612.344999999564,9.361866e-05,612.344999999564,1.914217e-05,612.344999999564,2.442077e-05
612.359999999564,2.352645e-05,612.359999999564,8.561167e-05,612.359999999564,1.773254e-05,612.359999999564,2.352705e-05
612.374999999564,2.383341e-05,612.374999999564,7.924564e-05,612.374999999564,1.67866e-05,612.374999999564,2.760495e-05
612.389999999564,2.489607e-05,612.389999999564,6.435043e-05,612.389999999564,1.292657e-05,612.389999999564,2.806899e-05
612.404999999564,2.520758e-05,612.404999999564,5.971872e-05,612.404999999564,1.177819e-05,612.404999999564,2.82406e-05
612.419999999564,2.457086e-05,612.419999999564,5.541771e-05,612.419999999564,1.067131e-05,612.419999999564,2.80725e-05
612.434999999564,2.470921e-05,612.434999999564,5.383854e-05,612.434999999564,7.897837e-06,612.434999999564,2.80253e-05
612.4499999995639,2.482807e-05,612.4499999995639,4.37945e-05,612.4499999995639,6.973323e-06,612.4499999995639,2.848447e-05
612.4649999995639,2.485756e-05,612.4649999995639,4.122878e-05,612.4649999995639,6.881819e-06,612.4649999995639,3.013864e-05
612.4799999995639,2.430281e-05,612.4799999995639,2.571602e-05,612.4799999995639,6.678206e-06,612.4799999995639,3.104666e-05
612.4949999995639,2.337267e-05,612.4949999995639,1.788205e-05,612.4949999995639,6.784931e-06,612.4949999995639,3.106889e-05
612.5099999995639,2.392426e-05,612.5099999995639,1.886345e-05,612.5099999995639,8.581677e-06,612.5099999995639,3.059971e-05
612.5249999995639,2.423548e-05,612.5249999995639,1.915247e-05,612.5249999995639,8.853152e-06,612.5249999995639,3.054487e-05
612.5399999995639,2.375941e-05,612.5399999995639,1.935877e-05,612.5399999995639,8.651973e-06,612.5399999995639,3.052273e-05
612.5549999995638,2.246611e-05,612.5549999995638,2.228858e-05,612.5549999995638,9.483111e-06,612.5549999995638,3.021333e-05
612.5699999995638,2.314616e-05,612.5699999995638,2.670597e-05,612.5699999995638,9.481625e-06,612.5699999995638,2.993228e-05
612.5849999995638,2.243599e-05,612.5849999995638,2.956482e-05,612.5849999995638,9.407047e-06,612.5849999995638,3.006985e-05
612.5999999995638,2.149126e-05,612.5999999995638,3.228164e-05,612.5999999995638,9.717876e-06,612.5999999995638,2.922265e-05
612.6149999995638,2.079367e-05,612.6149999995638,3.531103e-05,612.6149999995638,2.059217e-05,612.6149999995638,2.861079e-05
612.6299999995638,2.118095e-05,612.6299999995638,4.303754e-05,612.6299999995638,2.178034e-05,612.6299999995638,2.493338e-05
612.6449999995638,2.068227e-05,612.6449999995638,4.470339e-05,612.6449999995638,2.230627e-05,612.6449999995638,2.055793e-05
612.6599999995638,2.007676e-05,612.6599999995638,4.541834e-05,612.6599999995638,2.25868e-05,612.6599999995638,2.024376e-05
612.6749999995637,1.95629e-05,612.6749999995637,4.97811e-05,612.6749999995637,2.5245e-05,612.6749999995637,2.018034e-05
612.6899999995637,1.859342e-05,612.6899999995637,5.774429e-05,612.6899999995637,2.561558e-05,612.6899999995637,1.978771e-05
612.7049999995637,2.083901e-05,612.7049999995637,6.203046e-05,612.7049999995637,2.782301e-05,612.7049999995637,1.883131e-05
612.7199999995637,2.199402e-05,612.7199999995637,6.79806e-05,612.7199999995637,2.792913e-05,612.7199999995637,1.558469e-05
612.7349999995637,2.22291e-05,612.7349999995637,7.656906e-05,612.7349999995637,2.793064e-05,612.7349999995637,1.486295e-05
612.7499999995637,2.222529e-05,612.7499999995637,8.293995e-05,612.7499999995637,2.903743e-05,612.7499999995637,1.598186e-05
612.7649999995637,2.317475e-05,612.7649999995637,8.391908e-05,612.7649999995637,3.19571e-05,612.7649999995637,1.594568e-05
612.7799999995636,2.700861e-05,612.7799999995636,9.450986e-05,612.7799999995636,3.267374e-05,612.7799999995636,1.632976e-05
612.7949999995636,2.851215e-05,612.7949999995636,0.0001044109,612.7949999995636,3.751646e-05,612.7949999995636,1.688367e-05
612.8099999995636,3.034313e-05,612.8099999995636,0.0001044636,612.8099999995636,3.819299e-05,612.8099999995636,1.710169e-05
612.8249999995636,2.948945e-05,612.8249999995636,0.000109126,612.8249999995636,3.982769e-05,612.8249999995636,1.843364e-05
612.8399999995636,2.919708e-05,612.8399999995636,0.000112171,612.8399999995636,4.136011e-05,612.8399999995636,1.842982e-05
612.8549999995636,2.930063e-05,612.8549999995636,0.0001150001,612.8549999995636,4.1608e-05,612.8549999995636,1.995854e-05
612.8699999995636,3.047469e-05,612.8699999995636,0.0001180236,612.8699999995636,3.740365e-05,612.8699999995636,1.999521e-05
612.8849999995635,3.071962e-05,612.8849999995635,0.0001187221,612.8849999995635,3.710076e-05,612.8849999995635,2.198184e-05
612.8999999995635,3.045296e-05,612.8999999995635,0.0001201117,612.8999999995635,3.692721e-05,612.8999999995635,2.202026e-05
612.9149999995635,3.15436e-05,612.9149999995635,0.0001202057,612.9149999995635,3.643566e-05,612.9149999995635,2.228922e-05
612.9299999995635,3.195049e-05,612.9299999995635,0.0001177648,612.9299999995635,3.498197e-05,612.9299999995635,2.437978e-05
612.9449999995635,3.186175e-05,612.9449999995635,0.0001144594,612.9449999995635,3.400677e-05,612.9449999995635,2.44686e-05
612.9599999995635,3.039786e-05,612.9599999995635,0.0001108457,612.9599999995635,3.295621e-05,612.9599999995635,2.390246e-05
612.9749999995635,3.102306e-05,612.9749999995635,0.000107242,612.9749999995635,3.290102e-05,612.9749999995635,2.499883e-05
612.9899999995635,3.147296e-05,612.9899999995635,0.0001013996,612.9899999995635,3.277533e-05,612.9899999995635,2.502361e-05
613.0049999995634,3.152886e-05,613.0049999995634,9.677888e-05,613.0049999995634,3.06434e-05,613.0049999995634,2.502587e-05
613.0199999995634,3.044371e-05,613.0199999995634,9.511974e-05,613.0199999995634,2.842605e-05,613.0199999995634,2.616403e-05
613.0349999995634,2.714803e-05,613.0349999995634,8.363408e-05,613.0349999995634,2.707893e-05,613.0349999995634,2.697468e-05
613.0499999995634,2.662144e-05,613.0499999995634,7.224092e-05,613.0499999995634,2.020127e-05,613.0499999995634,2.728467e-05
613.0649999995634,2.530073e-05,613.0649999995634,6.594531e-05,613.0649999995634,1.728929e-05,613.0649999995634,2.692607e-05
613.0799999995634,2.513371e-05,613.0799999995634,5.990807e-05,613.0799999995634,1.342794e-05,613.0799999995634,2.74422e-05
613.0949999995634,2.529962e-05,613.0949999995634,5.300875e-05,613.0949999995634,9.922999e-06,613.0949999995634,2.728054e-05
613.1099999995633,2.522881e-05,613.1099999995633,4.666269e-05,613.1099999995633,8.204034e-06,613.1099999995633,2.660238e-05
613.1249999995633,2.319419e-05,613.1249999995633,2.772512e-05,613.1249999995633,7.691819e-06,613.1249999995633,2.614518e-05
613.1399999995633,2.397954e-05,613.1399999995633,1.673365e-05,613.1399999995633,6.987449e-06,613.1399999995633,2.575269e-05
613.1549999995633,2.354381e-05,613.1549999995633,9.677204e-06,613.1549999995633,7.011599e-06,613.1549999995633,2.617856e-05
613.1699999995633,2.242468e-05,613.1699999995633,1.062102e-05,613.1699999995633,7.00959e-06,613.1699999995633,2.622372e-05
613.1849999995633,2.2817e-05,613.1849999995633,1.335008e-05,613.1849999995633,6.928738e-06,613.1849999995633,2.511352e-05
613.1999999995633,2.262169e-05,613.1999999995633,1.368563e-05,613.1999999995633,7.12124e-06,613.1999999995633,2.553682e-05
613.2149999995632,2.194336e-05,613.2149999995632,1.367225e-05,613.2149999995632,8.279239e-06,613.2149999995632,2.562162e-05
613.2299999995632,1.968135e-05,613.2299999995632,1.474305e-05,613.2299999995632,9.719326e-06,613.2299999995632,2.449737e-05
613.2449999995632,1.918701e-05,613.2449999995632,1.698847e-05,613.2449999995632,1.004434e-05,613.2449999995632,2.336483e-05
613.2599999995632,1.928952e-05,613.2599999995632,1.832326e-05,613.2599999995632,1.291567e-05,613.2599999995632,2.300637e-05
613.2749999995632,1.885897e-05,613.2749999995632,2.599117e-05,613.2749999995632,1.721007e-05,613.2749999995632,2.083631e-05
613.2899999995632,1.751191e-05,613.2899999995632,2.825207e-05,613.2899999995632,1.759137e-05,613.2899999995632,1.940021e-05
613.3049999995632,1.711404e-05,613.3049999995632,2.925781e-05,613.3049999995632,1.768561e-05,613.3049999995632,1.925736e-05
613.3199999995632,1.919068e-05,613.3199999995632,3.339188e-05,613.3199999995632,1.842447e-05,613.3199999995632,1.84084e-05
613.3349999995631,1.95521e-05,613.3349999995631,3.768169e-05,613.3349999995631,1.929974e-05,613.3349999995631,1.775001e-05
613.3499999995631,2.013491e-05,613.3499999995631,6.869013e-05,613.3499999995631,2.072445e-05,613.3499999995631,1.766808e-05
613.3649999995631,2.087076e-05,613.3649999995631,7.384756e-05,613.3649999995631,2.573737e-05,613.3649999995631,1.748454e-05
613.3799999995631,2.007536e-05,613.3799999995631,8.172759e-05,613.3799999995631,2.68758e-05,613.3799999995631,1.753523e-05
613.3949999995631,2.03451e-05,613.3949999995631,8.722413e-05,613.3949999995631,2.721281e-05,613.3949999995631,1.766489e-05
613.4099999995631,2.089908e-05,613.4099999995631,8.941608e-05,613.4099999995631,2.8369e-05,613.4099999995631,1.952326e-05
613.424999999563,2.145124e-05,613.424999999563,9.704503e-05,613.424999999563,3.638149e-05,613.424999999563,1.910461e-05
613.439999999563,2.165841e-05,613.439999999563,0.0001060808,613.439999999563,3.662577e-05,613.439999999563,1.868185e-05
613.454999999563,2.171232e-05,613.454999999563,0.0001078488,613.454999999563,3.67122e-05,613.454999999563,1.883056e-05
613.469999999563,2.237752e-05,613.469999999563,0.000115619,613.469999999563,3.774967e-05,613.469999999563,2.040042e-05
613.484999999563,2.375052e-05,613.484999999563,0.0001224156,613.484999999563,3.958361e-05,613.484999999563,2.148142e-05
613.499999999563,2.425639e-05,613.499999999563,0.0001269564,613.499999999563,3.93355e-05,613.499999999563,2.355398e-05
613.514999999563,2.480253e-05,613.514999999563,0.0001314584,613.514999999563,3.845836e-05,613.514999999563,2.409382e-05
613.529999999563,2.508546e-05,613.529999999563,0.0001329638,613.529999999563,3.821216e-05,613.529999999563,2.518298e-05
613.544999999563,2.540907e-05,613.544999999563,0.0001373907,613.544999999563,3.813873e-05,613.544999999563,2.568422e-05
613.5599999995629,2.558641e-05,613.5599999995629,0.0001382986,613.5599999995629,3.811398e-05,613.5599999995629,2.58575e-05
613.5749999995629,2.508658e-05,613.5749999995629,0.0001378064,613.5749999995629,3.773921e-05,613.5749999995629,2.604261e-05
613.5899999995629,2.774696e-05,613.5899999995629,0.0001347337,613.5899999995629,3.73241e-05,613.5899999995629,2.692869e-05
613.6049999995629,2.87189e-05,613.6049999995629,0.0001253323,613.6049999995629,3.386896e-05,613.6049999995629,2.701226e-05
613.6199999995629,3.181928e-05,613.6199999995629,0.0001202406,613.6199999995629,3.334037e-05,613.6199999995629,2.646488e-05
613.6349999995629,3.248826e-05,613.6349999995629,0.0001164933,613.6349999995629,3.229299e-05,613.6349999995629,2.837496e-05
613.6499999995629,3.194035e-05,613.6499999995629,0.0001137806,613.6499999995629,3.214171e-05,613.6499999995629,2.8629e-05
613.6649999995628,3.233789e-05,613.6649999995628,0.0001122256,613.6649999995628,2.544231e-05,613.6649999995628,2.723092e-05
613.6799999995628,3.290402e-05,613.6799999995628,0.0001040912,613.6799999995628,2.117164e-05,613.6799999995628,2.76707e-05
613.6949999995628,3.325491e-05,613.6949999995628,9.525174e-05,613.6949999995628,2.098787e-05,613.6949999995628,2.826304e-05
613.7099999995628,3.36231e-05,613.7099999995628,9.016598e-05,613.7099999995628,2.075434e-05,613.7099999995628,2.907719e-05
613.7249999995628,3.279123e-05,613.7249999995628,8.243363e-05,613.7249999995628,1.383408e-05,613.7249999995628,2.875518e-05
613.7399999995628,3.19046e-05,613.7399999995628,7.355379e-05,613.7399999995628,1.306747e-05,613.7399999995628,2.854178e-05
613.7549999995628,3.197121e-05,613.7549999995628,5.931375e-05,613.7549999995628,1.090245e-05,613.7549999995628,2.74011e-05
613.7699999995627,3.119694e-05,613.7699999995627,5.330793e-05,613.7699999995627,9.119637e-06,613.7699999995627,2.75881e-05
613.7849999995627,3.123259e-05,613.7849999995627,4.69267e-05,613.7849999995627,7.753835e-06,613.7849999995627,2.711791e-05
613.7999999995627,3.131817e-05,613.7999999995627,2.943159e-05,613.7999999995627,8.251971e-06,613.7999999995627,2.706852e-05
613.8149999995627,3.116848e-05,613.8149999995627,2.615811e-05,613.8149999995627,8.086432e-06,613.8149999995627,2.76024e-05
613.8299999995627,3.008109e-05,613.8299999995627,2.34863e-05,613.8299999995627,7.726537e-06,613.8299999995627,2.719987e-05
613.8449999995627,2.626398e-05,613.8449999995627,2.006343e-05,613.8449999995627,7.702799e-06,613.8449999995627,2.760801e-05
613.8599999995627,2.480764e-05,613.8599999995627,1.739164e-05,613.8599999995627,7.56626e-06,613.8599999995627,2.771394e-05
613.8749999995626,2.312911e-05,613.8749999995626,1.542388e-05,613.8749999995626,7.724713e-06,613.8749999995626,2.759678e-05
613.8899999995626,2.297206e-05,613.8899999995626,1.613711e-05,613.8899999995626,7.697311e-06,613.8899999995626,2.485303e-05
613.9049999995626,2.29739e-05,613.9049999995626,1.965557e-05,613.9049999995626,7.885342e-06,613.9049999995626,2.584987e-05
613.9199999995626,2.290573e-05,613.9199999995626,2.148995e-05,613.9199999995626,1.324627e-05,613.9199999995626,2.66299e-05
613.9349999995626,2.178487e-05,613.9349999995626,2.180232e-05,613.9349999995626,1.574208e-05,613.9349999995626,4.867599e-05
613.9499999995626,2.129636e-05,613.9499999995626,2.176028e-05,613.9499999995626,1.696938e-05,613.9499999995626,5.427477e-05
613.9649999995626,2.094487e-05,613.9649999995626,2.505624e-05,613.9649999995626,1.769676e-05,613.9649999995626,5.582369e-05
613.9799999995626,2.148208e-05,613.9799999995626,2.825905e-05,613.9799999995626,1.917893e-05,613.9799999995626,5.625479e-05
613.9949999995625,2.210518e-05,613.9949999995625,3.58251e-05,613.9949999995625,1.965342e-05,613.9949999995625,5.631311e-05
614.0099999995625,2.268512e-05,614.0099999995625,3.919343e-05,614.0099999995625,2.060448e-05,614.0099999995625,5.605361e-05
614.0249999995625,2.389421e-05,614.0249999995625,4.505119e-05,614.0249999995625,2.527399e-05,614.0249999995625,5.611615e-05
614.0399999995625,2.416563e-05,614.0399999995625,4.945859e-05,614.0399999995625,2.601501e-05,614.0399999995625,5.615103e-05
614.0549999995625,2.399833e-05,614.0549999995625,5.476723e-05,614.0549999995625,2.671599e-05,614.0549999995625,5.649542e-05
614.0699999995625,2.399246e-05,614.0699999995625,5.864644e-05,614.0699999995625,2.672653e-05,614.0699999995625,5.664583e-05
614.0849999995625,2.442884e-05,614.0849999995625,6.726358e-05,614.0849999995625,2.717707e-05,614.0849999995625,5.657889e-05
614.0999999995624,2.455595e-05,614.0999999995624,7.49531e-05,614.0999999995624,2.863343e-05,614.0999999995624,5.623125e-05
614.1149999995624,2.48031e-05,614.1149999995624,7.749492e-05,614.1149999995624,3.111601e-05,614.1149999995624,5.672212e-05
614.1299999995624,2.471947e-05,614.1299999995624,8.010296e-05,614.1299999995624,3.129342e-05,614.1299999995624,5.718685e-05
614.1449999995624,2.369946e-05,614.1449999995624,8.796677e-05,614.1449999995624,3.213951e-05,614.1449999995624,5.764809e-05
614.1599999995624,2.353004e-05,614.1599999995624,8.937937e-05,614.1599999995624,3.263535e-05,614.1599999995624,5.717528e-05
614.1749999995624,2.328027e-05,614.1749999995624,9.183808e-05,614.1749999995624,3.042288e-05,614.1749999995624,5.617511e-05
614.1899999995624,2.328874e-05,614.1899999995624,9.322102e-05,614.1899999995624,2.892808e-05,614.1899999995624,3.345804e-05
614.2049999995623,2.320451e-05,614.2049999995623,9.346219e-05,614.2049999995623,2.889104e-05,614.2049999995623,2.88227e-05
614.2199999995623,2.396015e-05,614.2199999995623,9.238359e-05,614.2199999995623,2.83213e-05,614.2199999995623,2.616672e-05
614.2349999995623,2.352645e-05,614.2349999995623,9.114878e-05,614.2349999995623,2.737693e-05,614.2349999995623,2.6122e-05
614.2499999995623,2.343647e-05,614.2499999995623,8.900458e-05,614.2499999995623,2.699452e-05,614.2499999995623,2.68758e-05
614.2649999995623,2.428599e-05,614.2649999995623,8.735259e-05,614.2649999995623,2.548104e-05,614.2649999995623,2.677288e-05
614.2799999995623,2.396544e-05,614.2799999995623,8.527435e-05,614.2799999995623,2.212874e-05,614.2799999995623,2.652549e-05
614.2949999995623,2.386294e-05,614.2949999995623,8.184471e-05,614.2949999995623,2.079367e-05,614.2949999995623,2.613764e-05
614.3099999995623,2.443576e-05,614.3099999995623,7.895233e-05,614.3099999995623,2.045627e-05,614.3099999995623,2.544508e-05
614.3249999995622,2.507928e-05,614.3249999995622,7.391239e-05,614.3249999995622,2.030074e-05,614.3249999995622,2.57319e-05
614.3399999995622,2.561832e-05,614.3399999995622,6.834268e-05,614.3399999995622,1.937041e-05,614.3399999995622,2.551419e-05
614.3549999995622,2.506861e-05,614.3549999995622,5.841081e-05,614.3549999995622,1.406733e-05,614.3549999995622,2.506805e-05
614.3699999995622,2.396485e-05,614.3699999995622,5.553071e-05,614.3699999995622,1.231606e-05,614.3699999995622,2.357311e-05
614.3849999995622,2.414405e-05,614.3849999995622,5.0536e-05,614.3849999995622,1.182355e-05,614.3849999995622,2.45955e-05
614.3999999995622,2.432714e-05,614.3999999995622,3.665306e-05,614.3999999995622,7.667973e-06,614.3999999995622,2.467783e-05
614.4149999995622,2.405345e-05,614.4149999995622,3.153244e-05,614.4149999995622,7.24479e-06,614.4149999995622,2.452208e-05
614.4299999995621,2.383814e-05,614.4299999995621,2.2165e-05,614.4299999995621,7.295169e-06,614.4299999995621,2.487569e-05
614.4449999995621,2.371075e-05,614.4449999995621,1.947413e-05,614.4449999995621,7.375824e-06,614.4449999995621,2.482581e-05
614.4599999995621,2.361789e-05,614.4599999995621,1.690868e-05,614.4599999995621,7.680822e-06,614.4599999995621,2.559137e-05
614.4749999995621,2.369054e-05,614.4749999995621,1.580815e-05,614.4749999995621,7.735647e-06,614.4749999995621,3.377025e-05
614.4899999995621,2.406808e-05,614.4899999995621,1.973353e-05,614.4899999995621,8.164447e-06,614.4899999995621,5.224751e-05
614.5049999995621,2.326151e-05,614.5049999995621,2.044456e-05,614.5049999995621,7.979462e-06,614.5049999995621,5.281733e-05
614.5199999995621,2.249681e-05,614.5199999995621,2.159523e-05,614.5199999995621,1.219076e-05,614.5199999995621,5.303531e-05
614.534999999562,2.233341e-05,614.534999999562,2.914348e-05,614.534999999562,1.278081e-05,614.534999999562,5.311865e-05
614.549999999562,2.201194e-05,614.549999999562,3.031666e-05,614.549999999562,1.367018e-05,614.549999999562,5.28829e-05
614.564999999562,2.134063e-05,614.564999999562,3.448311e-05,614.564999999562,1.439693e-05,614.564999999562,5.299041e-05
614.579999999562,2.034233e-05,614.579999999562,3.847484e-05,614.579999999562,1.569368e-05,614.579999999562,5.279332e-05
614.594999999562,1.953984e-05,614.594999999562,4.109737e-05,614.594999999562,1.61109e-05,614.594999999562,5.289062e-05
614.609999999562,2.063112e-05,614.609999999562,4.295859e-05,614.609999999562,1.661623e-05,614.609999999562,5.297685e-05
614.624999999562,1.98935e-05,614.624999999562,4.394093e-05,614.624999999562,1.804047e-05,614.624999999562,5.285466e-05
614.639999999562,1.985168e-05,614.639999999562,4.465989e-05,614.639999999562,1.99218e-05,614.639999999562,5.218897e-05
614.6549999995619,2.024306e-05,614.6549999995619,5.340139e-05,614.6549999995619,2.179198e-05,614.6549999995619,5.162012e-05
614.6699999995619,2.061405e-05,614.6699999995619,6.185558e-05,614.6699999995619,2.214211e-05,614.6699999995619,5.141395e-05
614.6849999995619,2.027088e-05,614.6849999995619,6.303627e-05,614.6849999995619,2.290143e-05,614.6849999995619,5.067769e-05
614.6999999995619,2.06775e-05,614.6999999995619,6.670608e-05,614.6999999995619,2.367507e-05,614.6999999995619,5.073714e-05
614.7149999995619,2.041146e-05,614.7149999995619,6.819969e-05,614.7149999995619,2.593746e-05,614.7149999995619,5.057835e-05
614.7299999995619,2.00114e-05,614.7299999995619,7.295613e-05,614.7299999995619,2.665476e-05,614.7299999995619,4.393516e-05
614.7449999995619,1.988854e-05,614.7449999995619,7.94826e-05,614.7449999995619,2.656105e-05,614.7449999995619,1.999168e-05
614.7599999995618,1.950521e-05,614.7599999995618,8.116392e-05,614.7599999995618,2.773071e-05,614.7599999995618,1.879162e-05
614.7749999995618,1.968565e-05,614.7749999995618,8.654854e-05,614.7749999995618,2.808555e-05,614.7749999995618,1.879537e-05
614.7899999995618,2.012722e-05,614.7899999995618,8.658955e-05,614.7899999995618,2.845428e-05,614.7899999995618,2.017126e-05
614.8049999995618,2.171946e-05,614.8049999995618,9.408739e-05,614.8049999995618,2.843001e-05,614.8049999995618,2.174992e-05
614.8199999995618,2.20241e-05,614.8199999995618,9.562518e-05,614.8199999995618,2.887153e-05,614.8199999995618,2.08775e-05
614.8349999995618,2.300759e-05,614.8349999995618,9.480763e-05,614.8349999995618,2.870713e-05,614.8349999995618,2.131289e-05
614.8499999995618,2.299412e-05,614.8499999995618,9.400336e-05,614.8499999995618,2.857384e-05,614.8499999995618,2.318629e-05
614.8649999995617,2.500616e-05,614.8649999995617,9.510626e-05,614.8649999995617,2.786297e-05,614.8649999995617,2.368519e-05
614.8799999995617,2.612254e-05,614.8799999995617,9.47846e-05,614.8799999995617,2.765542e-05,614.8799999995617,2.451461e-05
614.8949999995617,2.576636e-05,614.8949999995617,9.431813e-05,614.8949999995617,2.526061e-05,614.8949999995617,2.483999e-05
614.9099999995617,2.567106e-05,614.9099999995617,8.605446e-05,614.9099999995617,2.481729e-05,614.9099999995617,2.568422e-05
614.9249999995617,2.562492e-05,614.9249999995617,8.330279e-05,614.9249999995617,2.489437e-05,614.9249999995617,2.580897e-05
614.9399999995617,2.611984e-05,614.9399999995617,8.300446e-05,614.9399999995617,2.415805e-05,614.9399999995617,2.64276e-05
614.9549999995617,2.566228e-05,614.9549999995617,8.001798e-05,614.9549999995617,2.156716e-05,614.9549999995617,2.667905e-05
614.9699999995617,2.553626e-05,614.9699999995617,7.83572e-05,614.9699999995617,2.087683e-05,614.9699999995617,2.620868e-05
614.9849999995616,2.481275e-05,614.9849999995616,7.192746e-05,614.9849999995616,2.03257e-05,614.9849999995616,2.568203e-05
614.9999999995616,2.462469e-05,614.9999999995616,6.589574e-05,614.9999999995616,2.023541e-05,614.9999999995616,2.578385e-05
615.0149999995616,2.461554e-05,615.0149999995616,5.899775e-05,615.0149999995616,1.697436e-05,615.0149999995616,2.879825e-05
615.0299999995616,2.396779e-05,615.0299999995616,5.312714e-05,615.0299999995616,1.543392e-05,615.0299999995616,2.853733e-05
615.0449999995616,2.34629e-05,615.0449999995616,4.798111e-05,615.0449999995616,1.385951e-05,615.0449999995616,2.731408e-05
615.0599999995616,2.235422e-05,615.0599999995616,3.065214e-05,615.0599999995616,1.182116e-05,615.0599999995616,2.676288e-05
615.0749999995616,2.210072e-05,615.0749999995616,2.233467e-05,615.0749999995616,1.098483e-05,615.0749999995616,2.661191e-05
615.0899999995615,2.207457e-05,615.0899999995615,2.128048e-05,615.0899999995615,1.003031e-05,615.0899999995615,2.773325e-05
615.1049999995615,2.170129e-05,615.1049999995615,1.856992e-05,615.1049999995615,1.023468e-05,615.1049999995615,2.648404e-05
615.1199999995615,1.875936e-05,615.1199999995615,1.498096e-05,615.1199999995615,1.030873e-05,615.1199999995615,2.68779e-05
615.1349999995615,1.859267e-05,615.1349999995615,1.399202e-05,615.1349999995615,1.040395e-05,615.1349999995615,2.603936e-05
615.1499999995615,1.843134e-05,615.1499999995615,1.407634e-05,615.1499999995615,1.015731e-05,615.1499999995615,2.700183e-05
615.1649999995615,1.892905e-05,615.1649999995615,1.830711e-05,615.1649999995615,1.25831e-05,615.1649999995615,2.610366e-05
615.1799999995615,1.846265e-05,615.1799999995615,1.862219e-05,615.1799999995615,1.218498e-05,615.1799999995615,2.601826e-05
615.1949999995614,1.927418e-05,615.1949999995614,2.56502e-05,615.1949999995614,1.2838e-05,615.1949999995614,2.530574e-05
615.2099999995614,1.986444e-05,615.2099999995614,2.660503e-05,615.2099999995614,1.58233e-05,615.2099999995614,2.50163e-05
615.2249999995614,1.967061e-05,615.2249999995614,4.714174e-05,615.2249999995614,1.731046e-05,615.2249999995614,2.503881e-05
615.2399999995614,2.064409e-05,615.2399999995614,5.808457e-05,615.2399999995614,1.790724e-05,615.2399999995614,2.523272e-05
615.2549999995614,2.083833e-05,615.2549999995614,5.927788e-05,615.2549999995614,1.78978e-05,615.2549999995614,2.431961e-05
615.2699999995614,2.124072e-05,615.2699999995614,6.100852e-05,615.2699999995614,2.064682e-05,615.2699999995614,2.048174e-05
615.2849999995614,2.160501e-05,615.2849999995614,6.357011e-05,615.2849999995614,2.104149e-05,615.2849999995614,2.013911e-05
615.2999999995614,2.221134e-05,615.2999999995614,6.427201e-05,615.2999999995614,2.219295e-05,615.2999999995614,2.034649e-05
615.3149999995613,2.203049e-05,615.3149999995613,6.728013e-05,615.3149999995613,2.239577e-05,615.3149999995613,2.002759e-05
615.3299999995613,2.227531e-05,615.3299999995613,7.078941e-05,615.3299999995613,2.301433e-05,615.3299999995613,2.024933e-05
615.3449999995613,2.194208e-05,615.3449999995613,7.374391e-05,615.3449999995613,2.356116e-05,615.3449999995613,1.733729e-05
615.3599999995613,2.167986e-05,615.3599999995613,7.473458e-05,615.3599999995613,2.673233e-05,615.3599999995613,1.679248e-05
615.3749999995613,2.179327e-05,615.3749999995613,7.673226e-05,615.3749999995613,2.835013e-05,615.3749999995613,1.623546e-05
615.3899999995613,2.215483e-05,615.3899999995613,7.780261e-05,615.3899999995613,2.862605e-05,615.3899999995613,1.566223e-05
615.4049999995613,2.429469e-05,615.4049999995613,8.151911e-05,615.4049999995613,3.008999e-05,615.4049999995613,1.482309e-05
615.4199999995612,2.417903e-05,615.4199999995612,8.146102e-05,615.4199999995612,2.959863e-05,615.4199999995612,1.571341e-05
615.4349999995612,2.381804e-05,615.4349999995612,0.0001104884,615.4349999995612,3.132357e-05,615.4349999995612,1.808415e-05
615.4499999995612,2.312972e-05,615.4499999995612,0.0001106818,615.4499999995612,3.174259e-05,615.4499999995612,1.794967e-05
615.4649999995612,2.373272e-05,615.4649999995612,0.0001123269,615.4649999995612,3.091344e-05,615.4649999995612,1.959096e-05
615.4799999995612,2.383223e-05,615.4799999995612,0.0001069929,615.4799999995612,3.009374e-05,615.4799999995612,1.992887e-05
615.4949999995612,2.486493e-05,615.4949999995612,0.0001094946,615.4949999995612,3.001405e-05,615.4949999995612,2.284168e-05
615.5099999995612,2.590866e-05,615.5099999995612,0.0001115925,615.5099999995612,2.936834e-05,615.5099999995612,2.316684e-05
615.5249999995611,2.556493e-05,615.5249999995611,0.000111225,615.5249999995611,2.796844e-05,615.5249999995611,2.43254e-05
615.5399999995611,2.859552e-05,615.5399999995611,0.0001100289,615.5399999995611,2.74986e-05,615.5399999995611,2.435781e-05
615.5549999995611,2.816068e-05,615.5549999995611,0.0001089594,615.5549999995611,2.67239e-05,615.5549999995611,2.658755e-05
615.5699999995611,2.874097e-05,615.5699999995611,0.0001080129,615.5699999995611,2.658861e-05,615.5699999995611,2.676393e-05
615.5849999995611,3.127946e-05,615.5849999995611,0.0001057952,615.5849999995611,2.610258e-05,615.5849999995611,2.678866e-05
615.5999999995611,3.221569e-05,615.5999999995611,0.0001033397,615.5999999995611,2.455537e-05,615.5999999995611,2.67123e-05
615.6149999995611,3.301727e-05,615.6149999995611,0.0001027867,615.6149999995611,2.109498e-05,615.6149999995611,2.811362e-05
615.629999999561,3.278736e-05,615.629999999561,0.0001009028,615.629999999561,1.994654e-05,615.629999999561,2.875273e-05
615.644999999561,3.162299e-05,615.644999999561,0.0001001291,615.644999999561,1.80514e-05,615.644999999561,2.997789e-05
615.659999999561,3.043908e-05,615.659999999561,9.719833e-05,615.659999999561,1.689201e-05,615.659999999561,3.03148e-05
615.674999999561,3.031573e-05,615.674999999561,8.68955e-05,615.674999999561,1.47917e-05,615.674999999561,2.931073e-05
615.689999999561,3.034081e-05,615.689999999561,6.025671e-05,615.689999999561,1.203141e-05,615.689999999561,2.90675e-05
615.704999999561,3.013069e-05,615.704999999561,5.753778e-05,615.704999999561,9.605612e-06,615.704999999561,2.92424e-05
615.719999999561,2.938465e-05,615.719999999561,5.172971e-05,615.719999999561,7.929877e-06,615.719999999561,2.980919e-05
615.734999999561,2.848892e-05,615.734999999561,4.326377e-05,615.734999999561,7.079578e-06,615.734999999561,2.932898e-05
615.7499999995609,2.807702e-05,615.7499999995609,2.940956e-05,615.7499999995609,6.981399e-06,615.7499999995609,2.768648e-05
615.7649999995609,2.711688e-05,615.7649999995609,1.911861e-05,615.7649999995609,6.601833e-06,615.7649999995609,2.694438e-05
615.7799999995609,2.607882e-05,615.7799999995609,1.458841e-05,615.7799999995609,6.415707e-06,615.7799999995609,2.688838e-05
615.7949999995609,2.433988e-05,615.7949999995609,1.483924e-05,615.7949999995609,6.260124e-06,615.7949999995609,2.699035e-05
615.8099999995609,2.378549e-05,615.8099999995609,1.458648e-05,615.8099999995609,6.362793e-06,615.8099999995609,2.485189e-05
615.8249999995609,1.966488e-05,615.8249999995609,1.53488e-05,615.8249999995609,6.049562e-06,615.8249999995609,2.437978e-05
615.8399999995609,2.007957e-05,615.8399999995609,1.5433e-05,615.8399999995609,6.01219e-06,615.8399999995609,2.456283e-05
615.8549999995608,1.892086e-05,615.8549999995608,1.771664e-05,615.8549999995608,6.599699e-06,615.8549999995608,2.403294e-05
615.8699999995608,1.870747e-05,615.8699999995608,2.257182e-05,615.8699999995608,7.043671e-06,615.8699999995608,2.256121e-05
615.8849999995608,1.970281e-05,615.8849999995608,4.21559e-05,615.8849999995608,1.088305e-05,615.8849999995608,2.088493e-05
615.8999999995608,2.100129e-05,615.8999999995608,4.453828e-05,615.8999999995608,1.153162e-05,615.8999999995608,1.980265e-05
615.9149999995608,2.169739e-05,615.9149999995608,4.536093e-05,615.9149999995608,1.325265e-05,615.9149999995608,1.857599e-05
615.9299999995608,2.203241e-05,615.9299999995608,4.658867e-05,615.9299999995608,1.391429e-05,615.9299999995608,1.792061e-05
615.9449999995608,2.200042e-05,615.9449999995608,5.588321e-05,615.9449999995608,1.466065e-05,615.9449999995608,1.81145e-05
615.9599999995608,2.261297e-05,615.9599999995608,6.872683e-05,615.9599999995608,1.51827e-05,615.9599999995608,1.465104e-05
615.9749999995607,2.264348e-05,615.9749999995607,8.067788e-05,615.9749999995607,1.62528e-05,615.9749999995607,1.436754e-05
615.9899999995607,2.43115e-05,615.9899999995607,9.887417e-05,615.9899999995607,2.083157e-05,615.9899999995607,1.414622e-05
616.0049999995607,2.466242e-05,616.0049999995607,0.0001047843,616.0049999995607,2.135976e-05,616.0049999995607,1.3602e-05
616.0199999995607,2.423083e-05,616.0199999995607,0.0001072835,616.0199999995607,2.166686e-05,616.0199999995607,1.412828e-05
616.0349999995607,2.411953e-05,616.0349999995607,0.0001080138,616.0349999995607,2.180813e-05,616.0349999995607,1.354076e-05
616.0499999995607,2.523606e-05,616.0499999995607,0.0001113391,616.0499999995607,2.381153e-05,616.0499999995607,1.370106e-05
616.0649999995607,2.687318e-05,616.0649999995607,0.0001118357,616.0649999995607,2.504781e-05,616.0649999995607,1.361546e-05
616.0799999995606,2.714854e-05,616.0799999995606,0.0001393846,616.0799999995606,2.594778e-05,616.0799999995606,1.567032e-05
616.0949999995606,2.566886e-05,616.0949999995606,0.0001601821,616.0949999995606,2.658596e-05,616.0949999995606,1.57179e-05
616.1099999995606,2.527901e-05,616.1099999995606,0.0001724856,616.1099999995606,2.762739e-05,616.1099999995606,1.796065e-05
616.1249999995606,2.515444e-05,616.1249999995606,0.0001726485,616.1249999995606,2.807551e-05,616.1249999995606,1.855323e-05
616.1399999995606,2.461725e-05,616.1399999995606,0.0001706096,616.1399999995606,2.727899e-05,616.1399999995606,1.927126e-05
616.1549999995606,2.612739e-05,616.1549999995606,0.000176412,616.1549999995606,2.714128e-05,616.1549999995606,2.025489e-05
616.1699999995606,2.543068e-05,616.1699999995606,0.0001780394,616.1699999995606,2.638278e-05,616.1699999995606,2.054697e-05
616.1849999995605,2.571547e-05,616.1849999995605,0.0001768156,616.1849999995605,2.725005e-05,616.1849999995605,2.070065e-05
616.1999999995605,2.575652e-05,616.1999999995605,0.0001732336,616.1999999995605,2.69517e-05,616.1999999995605,2.084171e-05
616.2149999995605,2.605937e-05,616.2149999995605,0.0001678607,616.2149999995605,2.675761e-05,616.2149999995605,2.147487e-05
616.2299999995605,2.609664e-05,616.2299999995605,0.0001611142,616.2299999995605,2.585096e-05,616.2299999995605,2.207776e-05
616.2449999995605,2.47246e-05,616.2449999995605,0.0001544691,616.2449999995605,2.264161e-05,616.2449999995605,2.203944e-05
616.2599999995605,2.493564e-05,616.2599999995605,0.0001516736,616.2599999995605,2.191445e-05,616.2599999995605,2.178357e-05
616.2749999995605,2.506187e-05,616.2749999995605,0.0001509258,616.2749999995605,2.203433e-05,616.2749999995605,2.289528e-05
616.2899999995605,2.728157e-05,616.2899999995605,0.000149782,616.2899999995605,2.187392e-05,616.2899999995605,2.307057e-05
616.3049999995604,2.665898e-05,616.3049999995604,0.000148304,616.3049999995604,2.001351e-05,616.3049999995604,2.353603e-05
616.3199999995604,2.635607e-05,616.3199999995604,0.0001457896,616.3199999995604,1.769118e-05,616.3199999995604,2.366793e-05
616.3349999995604,2.661085e-05,616.3349999995604,0.000101013,616.3349999995604,1.704145e-05,616.3349999995604,2.285525e-05
616.3499999995604,2.651274e-05,616.3499999995604,8.416598e-05,616.3499999995604,1.584198e-05,616.3499999995604,2.332138e-05
616.3649999995604,2.659762e-05,616.3649999995604,6.491601e-05,616.3649999995604,1.378716e-05,616.3649999995604,2.26814e-05
616.3799999995604,2.644252e-05,616.3799999995604,6.303471e-05,616.3799999995604,1.234348e-05,616.3799999995604,2.261858e-05
616.3949999995604,2.516004e-05,616.3949999995604,5.36191e-05,616.3949999995604,1.181401e-05,616.3949999995604,2.278921e-05
616.4099999995603,2.450886e-05,616.4099999995603,3.654876e-05,616.4099999995603,1.139769e-05,616.4099999995603,2.316015e-05
616.4249999995603,2.450024e-05,616.4249999995603,2.731769e-05,616.4249999995603,1.101812e-05,616.4249999995603,2.318386e-05
616.4399999995603,2.474225e-05,616.4399999995603,2.533134e-05,616.4399999995603,8.136793e-06,616.4399999995603,2.293646e-05
616.4549999995603,2.485813e-05,616.4549999995603,1.341954e-05,616.4549999995603,7.879981e-06,616.4549999995603,2.253497e-05
616.4699999995603,2.412421e-05,616.4699999995603,1.222537e-05,616.4699999995603,7.713764e-06,616.4699999995603,2.18346e-05
616.4849999995603,2.384936e-05,616.4849999995603,1.342689e-05,616.4849999995603,7.634834e-06,616.4849999995603,2.202282e-05
616.4999999995603,2.367686e-05,616.4999999995603,1.81145e-05,616.4999999995603,7.838757e-06,616.4999999995603,2.251621e-05
616.5149999995602,2.305408e-05,616.5149999995602,2.069248e-05,616.5149999995602,7.68449e-06,616.5149999995602,2.25087e-05
616.5299999995602,2.205222e-05,616.5299999995602,2.206627e-05,616.5299999995602,7.603404e-06,616.5299999995602,2.138152e-05
616.5449999995602,1.97699e-05,616.5449999995602,2.249994e-05,616.5449999995602,7.256447e-06,616.5449999995602,2.091593e-05
616.5599999995602,1.960893e-05,616.5599999995602,2.570725e-05,616.5599999995602,8.444335e-06,616.5599999995602,2.033263e-05
616.5749999995602,1.821068e-05,616.5749999995602,2.890031e-05,616.5749999995602,9.181215e-06,616.5749999995602,2.012232e-05
616.5899999995602,1.878637e-05,616.5899999995602,3.269486e-05,616.5899999995602,9.076284e-06,616.5899999995602,1.906844e-05
616.6049999995602,1.888434e-05,616.6049999995602,4.153921e-05,616.6049999995602,9.178147e-06,616.6049999995602,1.823387e-05
616.6199999995602,1.851066e-05,616.6199999995602,4.471915e-05,616.6199999995602,1.382287e-05,616.6199999995602,1.696855e-05
616.6349999995601,1.97371e-05,616.6349999995601,4.519354e-05,616.6349999995601,2.084036e-05,616.6349999995601,1.679667e-05
616.6499999995601,1.917012e-05,616.6499999995601,4.786265e-05,616.6499999995601,2.938225e-05,616.6499999995601,1.567572e-05
616.6649999995601,1.895433e-05,616.6649999995601,5.294653e-05,616.6649999995601,3.091207e-05,616.6649999995601,1.395977e-05
616.6799999995601,1.912377e-05,616.6799999995601,6.931726e-05,616.6799999995601,3.100853e-05,616.6799999995601,1.419493e-05
616.6949999995601,1.815955e-05,616.6949999995601,7.674731e-05,616.6949999995601,3.167196e-05,616.6949999995601,1.514276e-05
616.7099999995601,1.943213e-05,616.7099999995601,8.41392e-05,616.7099999995601,3.518914e-05,616.7099999995601,1.496873e-05
616.72499999956,1.991685e-05,616.72499999956,9.124177e-05,616.72499999956,3.540585e-05,616.72499999956,1.487243e-05
616.73999999956,2.004446e-05,616.73999999956,9.927627e-05,616.73999999956,3.593542e-05,616.73999999956,1.497531e-05
616.75499999956,1.984884e-05,616.75499999956,0.0001084161,616.75499999956,3.651753e-05,616.75499999956,1.512879e-05
616.76999999956,2.003251e-05,616.76999999956,0.0001150094,616.76999999956,3.890882e-05,616.76999999956,1.714447e-05
616.78499999956,2.024446e-05,616.78499999956,0.0001342595,616.78499999956,3.923797e-05,616.78499999956,1.870521e-05
616.79999999956,2.10522e-05,616.79999999956,0.0001384601,616.79999999956,3.993366e-05,616.79999999956,2.053325e-05
616.81499999956,2.155148e-05,616.81499999956,0.0001391036,616.81499999956,3.993577e-05,616.81499999956,2.083225e-05
616.82999999956,2.247676e-05,616.82999999956,0.0001411768,616.82999999956,3.996469e-05,616.82999999956,2.203497e-05
616.84499999956,2.234287e-05,616.84499999956,0.0001404616,616.84499999956,3.994706e-05,616.84499999956,2.257993e-05
616.8599999995599,2.293769e-05,616.8599999995599,0.0001399653,616.8599999995599,4.013247e-05,616.8599999995599,2.30443e-05
616.8749999995599,2.307362e-05,616.8749999995599,0.0001394031,616.8749999995599,3.838613e-05,616.8749999995599,2.46327e-05
616.8899999995599,2.388124e-05,616.8899999995599,0.0001392691,616.8899999995599,2.894803e-05,616.8899999995599,2.496782e-05
616.9049999995599,2.469324e-05,616.9049999995599,0.0001382791,616.9049999995599,2.867472e-05,616.9049999995599,2.558696e-05
616.9199999995599,2.488871e-05,616.9199999995599,0.0001362045,616.9199999995599,2.713609e-05,616.9199999995599,2.561723e-05
616.9349999995599,2.484963e-05,616.9349999995599,0.0001283239,616.9349999995599,2.70732e-05,616.9349999995599,2.69773e-05
616.9499999995599,2.43688e-05,616.9499999995599,0.0001231261,616.9499999995599,2.524555e-05,616.9499999995599,2.679023e-05
616.9649999995598,2.358028e-05,616.9649999995598,0.0001190493,616.9649999995598,2.131421e-05,616.9649999995598,2.745451e-05
616.9799999995598,2.424942e-05,616.9799999995598,0.0001114069,616.9799999995598,2.10522e-05,616.9799999995598,2.788016e-05
616.9949999995598,2.52779e-05,616.9949999995598,0.0001050253,616.9949999995598,1.915983e-05,616.9949999995598,2.792307e-05
617.0099999995598,2.620653e-05,617.0099999995598,9.441113e-05,617.0099999995598,1.70621e-05,617.0099999995598,2.790137e-05
617.0249999995598,2.618663e-05,617.0249999995598,7.51408e-05,617.0249999995598,1.301887e-05,617.0249999995598,2.687947e-05
617.0399999995598,2.6199e-05,617.0399999995598,4.910185e-05,617.0399999995598,1.184259e-05,617.0399999995598,2.688524e-05
617.0549999995598,2.540186e-05,617.0549999995598,4.343113e-05,617.0549999995598,9.281926e-06,617.0549999995598,2.552909e-05
617.0699999995597,2.468297e-05,617.0699999995597,3.00422e-05,617.0699999995597,8.92131e-06,617.0699999995597,2.562987e-05
617.0849999995597,2.493395e-05,617.0849999995597,2.772563e-05,617.0849999995597,8.296236e-06,617.0849999995597,2.536801e-05
617.0999999995597,2.441788e-05,617.0999999995597,2.474738e-05,617.0999999995597,8.166172e-06,617.0999999995597,2.48241e-05
617.1149999995597,2.4013e-05,617.1149999995597,1.514089e-05,617.1149999995597,7.125195e-06,617.1149999995597,2.445535e-05
617.1299999995597,2.338592e-05,617.1299999995597,1.273444e-05,617.1299999995597,7.065636e-06,617.1299999995597,2.34953e-05
617.1449999995597,2.082548e-05,617.1449999995597,1.349178e-05,617.1449999995597,7.065636e-06,617.1449999995597,2.287743e-05
617.1599999995597,2.058669e-05,617.1599999995597,1.392744e-05,617.1599999995597,7.364355e-06,617.1599999995597,2.277251e-05
617.1749999995596,2.065432e-05,617.1749999995596,1.956002e-05,617.1749999995596,8.573465e-06,617.1749999995596,2.189387e-05
617.1899999995596,2.0536e-05,617.1899999995596,2.327725e-05,617.1899999995596,1.066734e-05,617.1899999995596,2.024306e-05
617.2049999995596,2.202474e-05,617.2049999995596,2.737796e-05,617.2049999995596,1.075677e-05,617.2049999995596,1.976349e-05
617.2199999995596,2.137493e-05,617.2199999995596,3.1238e-05,617.2199999995596,1.333002e-05,617.2199999995596,1.90544e-05
617.2349999995596,1.985026e-05,617.2349999995596,3.410976e-05,617.2349999995596,1.618505e-05,617.2349999995596,1.73446e-05
617.2499999995596,1.778964e-05,617.2499999995596,3.923653e-05,617.2499999995596,2.081263e-05,617.2499999995596,1.696689e-05
617.2649999995596,1.731208e-05,617.2649999995596,4.343049e-05,617.2649999995596,2.336664e-05,617.2649999995596,1.585265e-05
617.2799999995595,1.856765e-05,617.2799999995595,5.070964e-05,617.2799999995595,2.384995e-05,617.2799999995595,1.407834e-05
617.2949999995595,1.848019e-05,617.2949999995595,5.868918e-05,617.2949999995595,2.440807e-05,617.2949999995595,1.434694e-05
617.3099999995595,1.880136e-05,617.3099999995595,6.422027e-05,617.3099999995595,2.551364e-05,617.3099999995595,1.391327e-05
617.3249999995595,1.923321e-05,617.3249999995595,6.940764e-05,617.3249999995595,2.684906e-05,617.3249999995595,1.327708e-05
617.3399999995595,1.82948e-05,617.3399999995595,7.336663e-05,617.3399999995595,2.828446e-05,617.3399999995595,1.279403e-05
617.3549999995595,1.860024e-05,617.3549999995595,7.515374e-05,617.3549999995595,2.846814e-05,617.3549999995595,1.249547e-05
617.3699999995595,1.873607e-05,617.3699999995595,7.791225e-05,617.3699999995595,2.909414e-05,617.3699999995595,1.287634e-05
617.3849999995595,2.00943e-05,617.3849999995595,8.111721e-05,617.3849999995595,3.019467e-05,617.3849999995595,1.250111e-05
617.3999999995594,2.115233e-05,617.3999999995594,8.17829e-05,617.3999999995594,3.110061e-05,617.3999999995594,1.354596e-05
617.4149999995594,2.097175e-05,617.4149999995594,8.74203e-05,617.4149999995594,3.142593e-05,617.4149999995594,1.365575e-05
617.4299999995594,2.142167e-05,617.4299999995594,9.348209e-05,617.4299999995594,3.114678e-05,617.4299999995594,1.792532e-05
617.4449999995594,2.180103e-05,617.4449999995594,0.0001000379,617.4449999995594,3.069439e-05,617.4449999995594,1.909207e-05
617.4599999995594,2.059901e-05,617.4599999995594,9.939708e-05,617.4599999995594,3.101852e-05,617.4599999995594,2.000859e-05
617.4749999995594,2.135383e-05,617.4749999995594,0.000105264,617.4749999995594,3.131367e-05,617.4749999995594,2.179973e-05
617.4899999995594,2.259927e-05,617.4899999995594,0.0001062536,617.4899999995594,2.772156e-05,617.4899999995594,2.215292e-05
617.5049999995593,2.28423e-05,617.5049999995593,0.0001097028,617.5049999995593,2.702425e-05,617.5049999995593,2.252809e-05
617.5199999995593,2.342865e-05,617.5199999995593,0.0001080327,617.5199999995593,2.623447e-05,617.5199999995593,2.310962e-05
617.5349999995593,2.282009e-05,617.5349999995593,0.0001061673,617.5349999995593,2.59304e-05,617.5349999995593,2.312119e-05
617.5499999995593,2.256745e-05,617.5499999995593,0.0001013162,617.5499999995593,2.507816e-05,617.5499999995593,2.452553e-05
617.5649999995593,2.329056e-05,617.5649999995593,0.0001005383,617.5649999995593,2.380325e-05,617.5649999995593,2.447032e-05
617.5799999995593,2.308461e-05,617.5799999995593,9.703298e-05,617.5799999995593,2.266649e-05,617.5799999995593,2.451346e-05
617.5949999995593,2.335699e-05,617.5949999995593,9.469926e-05,617.5949999995593,2.100799e-05,617.5949999995593,2.531353e-05
617.6099999995592,2.301127e-05,617.6099999995592,9.261096e-05,617.6099999995592,2.105689e-05,617.6099999995592,2.528458e-05
617.6249999995592,2.268636e-05,617.6249999995592,9.094997e-05,617.6249999995592,1.90544e-05,617.6249999995592,2.507816e-05
617.6399999995592,2.333527e-05,617.6399999995592,8.867557e-05,617.6399999995592,1.811528e-05,617.6399999995592,2.490681e-05
617.6549999995592,2.48241e-05,617.6549999995592,8.75808e-05,617.6549999995592,1.64937e-05,617.6549999995592,2.471263e-05
617.6699999995592,2.480991e-05,617.6699999995592,8.095103e-05,617.6699999995592,1.580548e-05,617.6699999995592,2.502981e-05
617.6849999995592,2.506524e-05,617.6849999995592,6.951371e-05,617.6849999995592,1.566223e-05,617.6849999995592,2.230059e-05
617.6999999995592,2.464299e-05,617.6999999995592,6.375046e-05,617.6999999995592,1.59651e-05,617.6999999995592,2.098317e-05
617.7149999995592,2.46607e-05,617.7149999995592,5.951362e-05,617.7149999995592,1.731941e-05,617.7149999995592,2.013701e-05
617.7299999995591,2.506524e-05,617.7299999995591,4.851163e-05,617.7299999995591,1.762976e-05,617.7299999995591,1.973924e-05
617.7449999995591,2.427323e-05,617.7449999995591,3.96998e-05,617.7449999995591,1.790881e-05,617.7449999995591,2.026671e-05
617.7599999995591,2.360476e-05,617.7599999995591,3.127091e-05,617.7599999995591,2.050167e-05,617.7599999995591,2.006904e-05
617.7749999995591,2.355757e-05,617.7749999995591,2.845478e-05,617.7749999995591,1.988358e-05,617.7749999995591,2.115766e-05
617.7899999995591,2.392367e-05,617.7899999995591,1.95081e-05,617.7899999995591,2.000788e-05,617.7899999995591,2.087076e-05
617.8049999995591,2.404056e-05,617.8049999995591,1.483829e-05,617.8049999995591,2.000577e-05,617.8049999995591,2.028755e-05
617.8199999995591,2.396485e-05,617.8199999995591,1.222422e-05,617.8199999995591,2.002196e-05,617.8199999995591,2.16883e-05
617.834999999559,2.403528e-05,617.834999999559,1.280504e-05,617.834999999559,2.00304e-05,617.834999999559,2.197031e-05
617.849999999559,2.445132e-05,617.849999999559,1.3103e-05,617.849999999559,2.044043e-05,617.849999999559,2.108363e-05
617.864999999559,2.46184e-05,617.864999999559,1.468753e-05,617.864999999559,2.116432e-05,617.864999999559,2.147946e-05
617.879999999559,2.397896e-05,617.879999999559,1.532308e-05,617.879999999559,2.187263e-05,617.879999999559,2.12573e-05
617.894999999559,2.376475e-05,617.894999999559,1.648772e-05,617.894999999559,2.211728e-05,617.894999999559,2.118295e-05
617.909999999559,2.13261e-05,617.909999999559,2.00971e-05,617.909999999559,2.257245e-05,617.909999999559,2.083495e-05
617.924999999559,2.08194e-05,617.924999999559,2.324273e-05,617.924999999559,2.334613e-05,617.924999999559,2.038384e-05
617.939999999559,2.073668e-05,617.939999999559,2.540685e-05,617.939999999559,2.394192e-05,617.939999999559,2.037139e-05
617.9549999995589,2.103346e-05,617.9549999995589,2.834069e-05,617.9549999995589,2.428309e-05,617.9549999995589,1.992675e-05
617.9699999995589,2.020057e-05,617.9699999995589,3.045481e-05,617.9699999995589,2.254809e-05,617.9699999995589,1.938277e-05
617.9849999995589,2.045076e-05,617.9849999995589,3.846751e-05,617.9849999995589,2.446169e-05,617.9849999995589,1.968207e-05
617.9999999995589,2.027783e-05,617.9999999995589,4.017597e-05,617.9999999995589,2.358566e-05,617.9999999995589,1.917453e-05
618.0149999995589,2.01929e-05,618.0149999995589,4.109188e-05,618.0149999995589,2.227721e-05,618.0149999995589,1.849924e-05
618.0299999995589,2.023332e-05,618.0299999995589,5.918108e-05,618.0299999995589,2.229869e-05,618.0299999995589,1.881934e-05
618.0449999995589,1.971782e-05,618.0449999995589,6.167837e-05,618.0449999995589,2.374696e-05,618.0449999995589,1.777301e-05
618.0599999995588,2.045627e-05,618.0599999995588,6.428341e-05,618.0599999995588,2.594941e-05,618.0599999995588,1.792611e-05
618.0749999995588,2.049136e-05,618.0749999995588,6.868665e-05,618.0749999995588,2.672706e-05,618.0749999995588,1.763296e-05
618.0899999995588,2.035202e-05,618.0899999995588,7.323365e-05,618.0899999995588,2.68889e-05,618.0899999995588,1.7723e-05
618.1049999995588,2.042871e-05,618.1049999995588,7.799068e-05,618.1049999995588,2.782098e-05,618.1049999995588,1.909354e-05
618.1199999995588,2.043215e-05,618.1199999995588,8.735662e-05,618.1199999995588,3.258308e-05,618.1199999995588,1.944662e-05
618.1349999995588,2.231511e-05,618.1349999995588,0.0001077736,618.1349999995588,3.404817e-05,618.1349999995588,2.000929e-05
618.1499999995588,2.265654e-05,618.1499999995588,0.0001288203,618.1499999995588,3.548215e-05,618.1499999995588,2.080247e-05
618.1649999995587,2.278611e-05,618.1649999995587,0.0001312591,618.1649999995587,3.532579e-05,618.1649999995587,2.080518e-05
618.1799999995587,2.352106e-05,618.1799999995587,0.000131215,618.1799999995587,3.48755e-05,618.1799999995587,2.139337e-05
618.1949999995587,2.502981e-05,618.1949999995587,0.0001314385,618.1949999995587,3.449904e-05,618.1949999995587,2.22791e-05
618.2099999995587,2.631596e-05,618.2099999995587,0.000130991,618.2099999995587,3.409695e-05,618.2099999995587,2.267891e-05
618.2249999995587,2.690043e-05,618.2249999995587,0.0001303616,618.2249999995587,3.155655e-05,618.2249999995587,2.30498e-05
618.2399999995587,2.679023e-05,618.2399999995587,0.000128297,618.2399999995587,3.140261e-05,618.2399999995587,2.285956e-05
618.2549999995587,2.76936e-05,618.2549999995587,0.000127873,618.2549999995587,3.055363e-05,618.2549999995587,2.407511e-05
618.2699999995586,2.770631e-05,618.2699999995586,0.0001248858,618.2699999995586,3.062271e-05,618.2699999995586,2.363875e-05
618.2849999995586,2.826902e-05,618.2849999995586,0.0001195395,618.2849999995586,3.027528e-05,618.2849999995586,2.411486e-05
618.2999999995586,2.799915e-05,618.2999999995586,0.000119144,618.2999999995586,2.933427e-05,618.2999999995586,2.468868e-05
618.3149999995586,2.74617e-05,618.3149999995586,0.0001171996,618.3149999995586,2.720504e-05,618.3149999995586,2.632452e-05
618.3299999995586,2.73347e-05,618.3299999995586,0.0001151051,618.3299999995586,2.675235e-05,618.3299999995586,2.770224e-05
618.3449999995586,2.766255e-05,618.3449999995586,0.00011154,618.3449999995586,2.556989e-05,618.3449999995586,2.734552e-05
618.3599999995586,2.738722e-05,618.3599999995586,0.0001074845,618.3599999995586,2.372738e-05,618.3599999995586,2.783667e-05
618.3749999995586,2.74047e-05,618.3749999995586,0.0001003566,618.3749999995586,1.712309e-05,618.3749999995586,2.799109e-05
618.3899999995585,2.527232e-05,618.3899999995585,6.129899e-05,618.3899999995585,1.315021e-05,618.3899999995585,2.83213e-05
618.4049999995585,2.482013e-05,618.4049999995585,3.294081e-05,618.4049999995585,8.859515e-06,618.4049999995585,2.925974e-05
618.4199999995585,2.479174e-05,618.4199999995585,2.076452e-05,618.4199999995585,8.630781e-06,618.4199999995585,2.927658e-05
618.4349999995585,2.442653e-05,618.4349999995585,1.360511e-05,618.4349999995585,8.39414e-06,618.4349999995585,2.886421e-05
618.4499999995585,2.421105e-05,618.4499999995585,1.287963e-05,618.4499999995585,8.66011e-06,618.4499999995585,2.85906e-05
618.4649999995585,2.234161e-05,618.4649999995585,1.139646e-05,618.4649999995585,8.661737e-06,618.4649999995585,2.801222e-05
618.4799999995585,2.207776e-05,618.4799999995585,1.321326e-05,618.4799999995585,9.208791e-06,618.4799999995585,2.871645e-05
618.4949999995584,2.034302e-05,618.4949999995584,1.407334e-05,618.4949999995584,1.002188e-05,618.4949999995584,2.891005e-05
618.5099999995584,2.056068e-05,618.5099999995584,1.654997e-05,618.5099999995584,1.139275e-05,618.5099999995584,2.78938e-05
618.5249999995584,2.024306e-05,618.5249999995584,1.913776e-05,618.5249999995584,1.176023e-05,618.5249999995584,2.7537e-05
618.5399999995584,1.999943e-05,618.5399999995584,2.083157e-05,618.5399999995584,1.226334e-05,618.5399999995584,2.701278e-05
618.5549999995584,2.134921e-05,618.5549999995584,2.249743e-05,618.5549999995584,1.337749e-05,618.5549999995584,2.569793e-05
618.5699999995584,2.079706e-05,618.5699999995584,2.350549e-05,618.5699999995584,1.438322e-05,618.5699999995584,2.337568e-05
618.5849999995584,2.047348e-05,618.5849999995584,2.675024e-05,618.5849999995584,1.497343e-05,618.5849999995584,2.111567e-05
618.5999999995583,2.048311e-05,618.5999999995583,3.149176e-05,618.5999999995583,1.713789e-05,618.5999999995583,2.115433e-05
618.6149999995583,2.091862e-05,618.6149999995583,3.308206e-05,618.6149999995583,3.099353e-05,618.6149999995583,2.03707e-05
618.6299999995583,2.111234e-05,618.6299999995583,3.795992e-05,618.6299999995583,3.161096e-05,618.6299999995583,1.895285e-05
618.6449999995583,2.230564e-05,618.6449999995583,3.984891e-05,618.6449999995583,3.175191e-05,618.6449999995583,1.757775e-05
618.6599999995583,2.264348e-05,618.6599999995583,5.368999e-05,618.6599999995583,3.172129e-05,618.6599999995583,1.617199e-05
618.6749999995583,2.210135e-05,618.6749999995583,6.182164e-05,618.6749999995583,3.166039e-05,618.6749999995583,1.607239e-05
618.6899999995583,2.168246e-05,618.6899999995583,6.979481e-05,618.6899999995583,3.203547e-05,618.6899999995583,1.560456e-05
618.7049999995583,2.383105e-05,618.7049999995583,7.316052e-05,618.7049999995583,3.308078e-05,618.7049999995583,1.534054e-05
618.7199999995582,2.4415e-05,618.7199999995582,8.141536e-05,618.7199999995582,3.354298e-05,618.7199999995582,1.650309e-05
618.7349999995582,2.468525e-05,618.7349999995582,0.0001090837,618.7349999995582,3.366915e-05,618.7349999995582,1.596863e-05
618.7499999995582,2.476331e-05,618.7499999995582,0.0001180066,618.7499999995582,3.372851e-05,618.7499999995582,1.580281e-05
618.7649999995582,2.465328e-05,618.7649999995582,0.0001248493,618.7649999995582,3.436157e-05,618.7649999995582,1.60829e-05
618.7799999995582,2.555391e-05,618.7799999995582,0.0001256217,618.7799999995582,3.480677e-05,618.7799999995582,1.670248e-05
618.7949999995582,2.587983e-05,618.7949999995582,0.0001269431,618.7949999995582,3.472046e-05,618.7949999995582,1.873757e-05
618.8099999995582,2.486493e-05,618.8099999995582,0.000129453,618.8099999995582,3.472208e-05,618.8099999995582,1.919949e-05
618.8249999995581,2.524332e-05,618.8249999995581,0.0001310093,618.8249999995581,3.453414e-05,618.8249999995581,1.973995e-05
618.8399999995581,2.531576e-05,618.8399999995581,0.0001300375,618.8399999995581,3.440541e-05,618.8399999995581,2.000577e-05
618.8549999995581,2.495145e-05,618.8549999995581,0.0001298944,618.8549999995581,2.966566e-05,618.8549999995581,2.021103e-05
618.8699999995581,2.541905e-05,618.8699999995581,0.0001294316,618.8699999995581,2.087143e-05,618.8699999995581,1.983677e-05
618.8849999995581,2.562547e-05,618.8849999995581,0.0001281563,618.8849999995581,2.027227e-05,618.8849999995581,2.011742e-05
618.8999999995581,2.64228e-05,618.8999999995581,0.0001267147,618.8999999995581,2.011812e-05,618.8999999995581,2.059011e-05
618.9149999995581,2.680863e-05,618.9149999995581,0.0001205252,618.9149999995581,2.019708e-05,618.9149999995581,2.042388e-05
618.929999999558,2.67713e-05,618.929999999558,0.0001156822,618.929999999558,1.99218e-05,618.929999999558,2.162065e-05
618.944999999558,2.675814e-05,618.944999999558,0.0001129829,618.944999999558,1.815179e-05,618.944999999558,2.338954e-05
618.959999999558,2.370362e-05,618.959999999558,0.0001107066,618.959999999558,1.669657e-05,618.959999999558,2.551971e-05
618.974999999558,2.415222e-05,618.974999999558,9.695295e-05,618.974999999558,1.649455e-05,618.974999999558,2.520702e-05
618.989999999558,2.373628e-05,618.989999999558,7.468594e-05,618.989999999558,1.589613e-05,618.989999999558,2.462469e-05
619.004999999558,2.377779e-05,619.004999999558,6.077928e-05,619.004999999558,1.489798e-05,619.004999999558,2.479799e-05
619.019999999558,2.457774e-05,619.019999999558,4.424093e-05,619.019999999558,1.329192e-05,619.019999999558,2.485586e-05
619.034999999558,2.426568e-05,619.034999999558,4.120656e-05,619.034999999558,1.091924e-05,619.034999999558,2.433872e-05
619.0499999995579,2.34965e-05,619.0499999995579,3.67356e-05,619.0499999995579,1.053714e-05,619.0499999995579,2.462927e-05
619.0649999995579,2.394133e-05,619.0649999995579,2.413763e-05,619.0649999995579,9.417524e-06,619.0649999995579,2.416155e-05
619.0799999995579,2.357251e-05,619.0799999995579,1.747487e-05,619.0799999995579,9.115002e-06,619.0799999995579,2.377601e-05
619.0949999995579,2.34857e-05,619.0949999995579,1.492726e-05,619.0949999995579,8.859515e-06,619.0949999995579,2.34599e-05
619.1099999995579,2.294567e-05,619.1099999995579,1.210145e-05,619.1099999995579,8.720087e-06,619.1099999995579,2.328269e-05
619.1249999995579,2.263788e-05,619.1249999995579,1.112753e-05,619.1249999995579,8.721702e-06,619.1249999995579,2.353663e-05
619.1399999995579,2.125199e-05,619.1399999995579,1.120197e-05,619.1399999995579,1.279734e-05,619.1399999995579,2.335096e-05
619.1549999995578,2.330144e-05,619.1549999995578,1.147406e-05,619.1549999995578,1.345728e-05,619.1549999995578,2.280095e-05
619.1699999995578,2.264286e-05,619.1699999995578,1.363717e-05,619.1699999995578,1.446428e-05,619.1699999995578,2.25974e-05
619.1849999995578,2.2414e-05,619.1849999995578,2.337086e-05,619.1849999995578,1.484968e-05,619.1849999995578,2.14039e-05
619.1999999995578,2.312485e-05,619.1999999995578,3.03719e-05,619.1999999995578,1.635906e-05,619.1999999995578,1.899665e-05
619.2149999995578,2.321544e-05,619.2149999995578,3.520755e-05,619.2149999995578,1.866828e-05,619.2149999995578,1.633148e-05
619.2299999995578,2.255247e-05,619.2299999995578,4.092356e-05,619.2299999995578,1.948281e-05,619.2299999995578,1.566943e-05
619.2449999995578,2.278982e-05,619.2449999995578,4.535689e-05,619.2449999995578,1.934713e-05,619.2449999995578,1.551948e-05
619.2599999995577,2.215864e-05,619.2599999995577,5.086718e-05,619.2599999995577,2.088155e-05,619.2599999995577,1.532308e-05
619.2749999995577,2.211219e-05,619.2749999995577,5.545836e-05,619.2749999995577,2.302473e-05,619.2749999995577,1.477169e-05
619.2899999995577,2.19562e-05,619.2899999995577,6.074032e-05,619.2899999995577,2.424187e-05,619.2899999995577,1.44155e-05
619.3049999995577,2.251934e-05,619.3049999995577,6.393448e-05,619.3049999995577,2.666638e-05,619.3049999995577,1.220808e-05
619.3199999995577,2.179909e-05,619.3199999995577,6.517178e-05,619.3199999995577,2.80725e-05,619.3199999995577,1.275323e-05
619.3349999995577,2.14729e-05,619.3349999995577,6.70015e-05,619.3349999995577,2.971453e-05,619.3349999995577,1.340589e-05
619.3499999995577,2.134525e-05,619.3499999995577,7.322538e-05,619.3499999995577,3.080434e-05,619.3499999995577,1.453229e-05
619.3649999995577,2.124537e-05,619.3649999995577,7.641566e-05,619.3649999995577,3.092665e-05,619.3649999995577,1.438518e-05
619.3799999995576,2.130562e-05,619.3799999995576,8.310792e-05,619.3799999995576,3.207853e-05,619.3799999995576,1.417805e-05
619.3949999995576,2.09778e-05,619.3949999995576,0.0001009172,619.3949999995576,3.103033e-05,619.3949999995576,1.560095e-05
619.4099999995576,2.138415e-05,619.4099999995576,0.0001032934,619.4099999995576,3.373519e-05,619.4099999995576,1.576532e-05
619.4249999995576,2.285093e-05,619.4249999995576,0.0001075429,619.4249999995576,3.341886e-05,619.4249999995576,1.638917e-05
619.4399999995576,2.411603e-05,619.4399999995576,0.0001157095,619.4399999995576,3.36055e-05,619.4399999995576,1.669319e-05
619.4549999995576,2.74309e-05,619.4549999995576,0.0001166305,619.4549999995576,3.418855e-05,619.4549999995576,1.713378e-05
619.4699999995576,2.762025e-05,619.4699999995576,0.0001168281,619.4699999995576,3.307823e-05,619.4699999995576,1.734704e-05
619.4849999995575,2.767477e-05,619.4849999995575,0.0001171631,619.4849999995575,3.276888e-05,619.4849999995575,1.773095e-05
619.4999999995575,2.746888e-05,619.4999999995575,0.0001236274,619.4999999995575,3.257184e-05,619.4999999995575,1.747084e-05
619.5149999995575,2.882075e-05,619.5149999995575,0.0001245898,619.5149999995575,3.091936e-05,619.5149999995575,1.760578e-05
619.5299999995575,2.857679e-05,619.5299999995575,0.0001245188,619.5299999995575,3.017461e-05,619.5299999995575,1.761937e-05
619.5449999995575,2.7915e-05,619.5449999995575,0.0001230957,619.5449999995575,2.773985e-05,619.5449999995575,1.73129e-05
619.5599999995575,2.822514e-05,619.5599999995575,0.000122964,619.5599999995575,2.692084e-05,619.5599999995575,1.700918e-05
619.5749999995575,2.880999e-05,619.5749999995575,0.0001226094,619.5749999995575,2.504781e-05,619.5749999995575,1.692866e-05
619.5899999995574,2.875371e-05,619.5899999995574,0.0001205778,619.5899999995574,2.289712e-05,619.5899999995574,1.654656e-05
619.6049999995574,2.857088e-05,619.6049999995574,0.0001165959,619.6049999995574,2.218469e-05,619.6049999995574,1.716828e-05
619.6199999995574,2.873852e-05,619.6199999995574,0.0001157851,619.6199999995574,2.201962e-05,619.6199999995574,1.71272e-05
619.6349999995574,2.848892e-05,619.6349999995574,0.0001077246,619.6349999995574,1.928368e-05,619.6349999995574,1.675973e-05
619.6499999995574,2.848892e-05,619.6499999995574,9.341455e-05,619.6499999995574,1.910461e-05,619.6499999995574,1.595981e-05
619.6649999995574,2.590485e-05,619.6649999995574,9.237901e-05,619.6649999995574,1.35043e-05,619.6649999995574,1.711157e-05
619.6799999995574,2.45829e-05,619.6799999995574,8.033896e-05,619.6799999995574,1.338486e-05,619.6799999995574,1.686948e-05
619.6949999995574,2.07163e-05,619.6949999995574,7.154986e-05,619.6949999995574,1.204077e-05,619.6949999995574,1.689117e-05
619.7099999995573,3.061581e-05,619.7099999995573,6.75797e-05,619.7099999995573,7.802733e-06,619.7099999995573,1.708356e-05
619.7249999995573,3.096944e-05,619.7249999995573,6.409292e-05,619.7249999995573,7.708283e-06,619.7249999995573,1.789701e-05
619.7399999995573,3.129657e-05,619.7399999995573,5.058866e-05,619.7399999995573,7.196016e-06,619.7399999995573,2.118494e-05
619.7549999995573,3.006001e-05,619.7549999995573,3.312206e-05,619.7549999995573,7.170523e-06,619.7549999995573,2.215419e-05
619.7699999995573,2.982431e-05,619.7699999995573,2.62291e-05,619.7699999995573,7.205797e-06,619.7699999995573,2.362325e-05
619.7849999995573,3.008578e-05,619.7849999995573,1.661029e-05,619.7849999995573,7.22727e-06,619.7849999995573,2.578166e-05
619.7999999995573,2.99948e-05,619.7999999995573,1.237426e-05,619.7999999995573,7.341366e-06,619.7999999995573,2.639026e-05
619.8149999995572,2.980872e-05,619.8149999995572,1.024431e-05,619.8149999995572,7.42721e-06,619.8149999995572,2.632184e-05
619.8299999995572,2.968418e-05,619.8299999995572,1.005416e-05,619.8299999995572,7.47636e-06,619.8299999995572,2.62806e-05
619.8449999995572,3.001452e-05,619.8449999995572,9.874615e-06,619.8449999995572,7.291306e-06,619.8449999995572,2.658384e-05
619.8599999995572,3.003048e-05,619.8599999995572,9.894567e-06,619.8599999995572,6.863372e-06,619.8599999995572,2.615703e-05
619.8749999995572,2.97022e-05,619.8749999995572,1.119191e-05,619.8749999995572,6.875675e-06,619.8749999995572,2.627149e-05
619.8899999995572,3.012742e-05,619.8899999995572,1.398195e-05,619.8899999995572,6.879772e-06,619.8899999995572,2.619094e-05
619.9049999995572,3.077048e-05,619.9049999995572,1.945893e-05,619.9049999995572,6.705572e-06,619.9049999995572,2.594398e-05
619.9199999995571,3.089977e-05,619.9199999995571,2.216945e-05,619.9199999995571,7.766543e-06,619.9199999995571,2.480764e-05
619.9349999995571,3.065398e-05,619.9349999995571,2.524109e-05,619.9349999995571,9.015552e-06,619.9349999995571,2.46647e-05
619.9499999995571,3.026364e-05,619.9499999995571,2.751755e-05,619.9499999995571,1.236173e-05,619.9499999995571,2.456742e-05
619.9649999995571,1.996912e-05,619.9649999995571,3.071182e-05,619.9649999995571,1.42662e-05,619.9649999995571,2.434508e-05
619.9799999995571,1.930631e-05,619.9799999995571,4.024114e-05,619.9799999995571,1.436166e-05,619.9799999995571,2.244415e-05
619.9949999995571,1.878112e-05,619.9949999995571,4.302707e-05,619.9949999995571,1.507282e-05,619.9949999995571,1.987366e-05
620.0099999995571,1.995854e-05,620.0099999995571,4.322696e-05,620.0099999995571,1.81215e-05,620.0099999995571,1.857523e-05
620.024999999557,2.006202e-05,620.024999999557,4.669408e-05,620.024999999557,1.902184e-05,620.024999999557,1.579032e-05
620.039999999557,1.968278e-05,620.039999999557,4.804067e-05,620.039999999557,1.910239e-05,620.039999999557,1.3632e-05
620.054999999557,1.984742e-05,620.054999999557,6.278818e-05,620.054999999557,1.960318e-05,620.054999999557,1.437636e-05
620.069999999557,2.024585e-05,620.069999999557,7.525339e-05,620.069999999557,2.01496e-05,620.069999999557,1.558831e-05
620.084999999557,2.0379e-05,620.084999999557,7.787879e-05,620.084999999557,2.958149e-05,620.084999999557,1.622851e-05
620.099999999557,2.016637e-05,620.099999999557,8.75697e-05,620.099999999557,3.008812e-05,620.099999999557,1.616328e-05
620.114999999557,2.0055e-05,620.114999999557,9.679561e-05,620.114999999557,3.034127e-05,620.114999999557,1.61406e-05
620.129999999557,2.052227e-05,620.129999999557,0.000102393,620.129999999557,3.054764e-05,620.129999999557,1.755209e-05
620.144999999557,2.031947e-05,620.144999999557,0.0001172417,620.144999999557,3.061627e-05,620.144999999557,1.896771e-05
620.1599999995569,2.034925e-05,620.1599999995569,0.0001213804,620.1599999995569,3.159937e-05,620.1599999995569,1.971282e-05
620.1749999995569,2.307362e-05,620.1749999995569,0.000122892,620.1749999995569,3.248523e-05,620.1749999995569,2.02375e-05
620.1899999995569,2.298738e-05,620.1899999995569,0.0001247271,620.1899999995569,3.266943e-05,620.1899999995569,2.055999e-05
620.2049999995569,2.332742e-05,620.2049999995569,0.000126736,620.2049999995569,3.098399e-05,620.2049999995569,2.475705e-05
620.2199999995569,2.299535e-05,620.2199999995569,0.0001250419,620.2199999995569,3.165282e-05,620.2199999995569,2.486606e-05
620.2349999995569,2.32118e-05,620.2349999995569,0.0001238426,620.2349999995569,3.169418e-05,620.2349999995569,2.49283e-05
620.2499999995568,2.280033e-05,620.2499999995568,0.000123725,620.2499999995568,3.014425e-05,620.2499999995568,2.503712e-05
620.2649999995568,2.374459e-05,620.2649999995568,0.0001236596,620.2649999995568,2.918019e-05,620.2649999995568,2.623447e-05
620.2799999995568,2.423606e-05,620.2799999995568,0.0001223832,620.2799999995568,2.903452e-05,620.2799999995568,2.614626e-05
620.2949999995568,2.432077e-05,620.2949999995568,0.0001210621,620.2949999995568,2.895144e-05,620.2949999995568,2.618233e-05
620.3099999995568,2.350489e-05,620.3099999995568,0.0001115586,620.3099999995568,2.868651e-05,620.3099999995568,2.542958e-05
620.3249999995568,2.304247e-05,620.3249999995568,0.0001068985,620.3249999995568,2.749502e-05,620.3249999995568,2.552688e-05
620.3399999995568,2.463727e-05,620.3399999995568,0.0001035839,620.3399999995568,1.80475e-05,620.3399999995568,2.551253e-05
620.3549999995568,2.577128e-05,620.3549999995568,9.721515e-05,620.3549999995568,1.788599e-05,620.3549999995568,2.46647e-05
620.3699999995567,2.723247e-05,620.3699999995567,8.633555e-05,620.3699999995567,1.748615e-05,620.3699999995567,2.467783e-05
620.3849999995567,2.670755e-05,620.3849999995567,7.529175e-05,620.3849999995567,1.722971e-05,620.3849999995567,2.31084e-05
620.3999999995567,2.662197e-05,620.3999999995567,5.645102e-05,620.3999999995567,1.697187e-05,620.3999999995567,2.412829e-05
620.4149999995567,2.615757e-05,620.4149999995567,4.352639e-05,620.4149999995567,1.491877e-05,620.4149999995567,2.40868e-05
620.4299999995567,2.525281e-05,620.4299999995567,3.79703e-05,620.4299999995567,1.22173e-05,620.4299999995567,2.400127e-05
620.4449999995567,2.522881e-05,620.4449999995567,3.041686e-05,620.4449999995567,1.115661e-05,620.4449999995567,2.529851e-05
620.4599999995567,2.546168e-05,620.4599999995567,2.089571e-05,620.4599999995567,1.048756e-05,620.4599999995567,2.30779e-05
620.4749999995566,2.611014e-05,620.4749999995566,1.506722e-05,620.4749999995566,7.62745e-06,620.4749999995566,2.351807e-05
620.4899999995566,2.640893e-05,620.4899999995566,1.109584e-05,620.4899999995566,7.809951e-06,620.4899999995566,2.390541e-05
620.5049999995566,2.702581e-05,620.5049999995566,1.11288e-05,620.5049999995566,7.752019e-06,620.5049999995566,2.376831e-05
620.5199999995566,2.625057e-05,620.5199999995566,1.550767e-05,620.5199999995566,7.59599e-06,620.5199999995566,2.246485e-05
620.5349999995566,2.603341e-05,620.5349999995566,1.615892e-05,620.5349999995566,7.248678e-06,620.5349999995566,2.232963e-05
620.5499999995566,2.629882e-05,620.5499999995566,1.690451e-05,620.5499999995566,7.203842e-06,620.5499999995566,2.246987e-05
620.5649999995566,2.82765e-05,620.5649999995566,1.72485e-05,620.5649999995566,6.435437e-06,620.5649999995566,2.247614e-05
620.5799999995565,2.813616e-05,620.5799999995565,1.762177e-05,620.5799999995565,7.46882e-06,620.5799999995565,2.13657e-05
620.5949999995565,2.569355e-05,620.5949999995565,2.371431e-05,620.5949999995565,9.475681e-06,620.5949999995565,2.111367e-05
620.6099999995565,2.50995e-05,620.6099999995565,4.965501e-05,620.6099999995565,1.338275e-05,620.6099999995565,2.142495e-05
620.6249999995565,2.428077e-05,620.6249999995565,5.635612e-05,620.6249999995565,1.493481e-05,620.6249999995565,2.092333e-05
620.6399999995565,2.398542e-05,620.6399999995565,6.040567e-05,620.6399999995565,1.673028e-05,620.6399999995565,2.08721e-05
620.6549999995565,2.277684e-05,620.6549999995565,6.10962e-05,620.6549999995565,1.705385e-05,620.6549999995565,1.899739e-05
620.6699999995565,2.359163e-05,620.6699999995565,6.184237e-05,620.6699999995565,1.761538e-05,620.6699999995565,1.884925e-05
620.6849999995565,2.360655e-05,620.6849999995565,6.27819e-05,620.6849999995565,1.819675e-05,620.6849999995565,1.878562e-05
620.6999999995564,2.319419e-05,620.6999999995564,6.464397e-05,620.6999999995564,2.109298e-05,620.6999999995564,1.630817e-05
620.7149999995564,2.424477e-05,620.7149999995564,7.101233e-05,620.7149999995564,2.427613e-05,620.7149999995564,1.39234e-05
620.7299999995564,2.34905e-05,620.7299999995564,7.768356e-05,620.7299999995564,2.522322e-05,620.7299999995564,1.464719e-05
620.7449999995564,2.404935e-05,620.7449999995564,8.144788e-05,620.7449999995564,2.625754e-05,620.7449999995564,1.413725e-05
620.7599999995564,2.526173e-05,620.7599999995564,8.276074e-05,620.7599999995564,2.651487e-05,620.7599999995564,1.472776e-05
620.7749999995564,2.59684e-05,620.7749999995564,8.351154e-05,620.7749999995564,2.693287e-05,620.7749999995564,1.493575e-05
620.7899999995564,2.668697e-05,620.7899999995564,8.426885e-05,620.7899999995564,2.806397e-05,620.7899999995564,1.545398e-05
620.8049999995563,2.719883e-05,620.8049999995563,8.914343e-05,620.8049999995563,3.098762e-05,620.8049999995563,1.551585e-05
620.8199999995563,2.5989e-05,620.8199999995563,9.445096e-05,620.8199999995563,3.284274e-05,620.8199999995563,1.630731e-05
620.8349999995563,2.664788e-05,620.8349999995563,0.0001020962,620.8349999995563,3.341549e-05,620.8349999995563,1.752478e-05
620.8499999995563,2.64835e-05,620.8499999995563,9.752763e-05,620.8499999995563,3.302495e-05,620.8499999995563,1.942125e-05
620.8649999995563,2.605505e-05,620.8649999995563,9.214343e-05,620.8649999995563,3.135368e-05,620.8649999995563,1.96792e-05
620.8799999995563,2.605937e-05,620.8799999995563,9.152803e-05,620.8799999995563,3.096625e-05,620.8799999995563,2.115233e-05
620.8949999995563,2.646382e-05,620.8949999995563,9.659823e-05,620.8949999995563,3.017601e-05,620.8949999995563,2.204775e-05
620.9099999995562,2.607342e-05,620.9099999995562,9.854724e-05,620.9099999995562,2.987245e-05,620.9099999995562,2.243034e-05
620.9249999995562,2.524276e-05,620.9249999995562,9.945616e-05,620.9249999995562,2.997366e-05,620.9249999995562,2.23189e-05
620.9399999995562,2.468012e-05,620.9399999995562,9.880248e-05,620.9399999995562,2.992804e-05,620.9399999995562,2.257307e-05
620.9549999995562,2.339074e-05,620.9549999995562,9.661674e-05,620.9549999995562,2.533022e-05,620.9549999995562,2.514996e-05
620.9699999995562,2.387298e-05,620.9699999995562,9.24598e-05,620.9699999995562,2.531409e-05,620.9699999995562,2.471206e-05
620.9849999995562,2.384168e-05,620.9849999995562,8.544482e-05,620.9849999995562,2.434451e-05,620.9849999995562,2.439999e-05
620.9999999995562,1.998111e-05,620.9999999995562,8.507589e-05,620.9999999995562,2.358446e-05,620.9999999995562,2.457086e-05
621.0149999995562,1.982754e-05,621.0149999995562,8.234301e-05,621.0149999995562,2.358327e-05,621.0149999995562,2.434971e-05
621.0299999995561,1.793789e-05,621.0299999995561,8.172156e-05,621.0299999995561,2.241777e-05,621.0299999995561,2.473143e-05
621.0449999995561,1.624673e-05,621.0449999995561,7.995652e-05,621.0449999995561,2.080789e-05,621.0449999995561,2.634752e-05
621.0599999995561,1.828016e-05,621.0599999995561,7.151205e-05,621.0599999995561,1.788047e-05,621.0599999995561,2.649255e-05
621.0749999995561,1.986444e-05,621.0749999995561,6.584698e-05,621.0749999995561,1.386662e-05,621.0749999995561,2.569684e-05
621.0899999995561,2.155344e-05,621.0899999995561,5.503484e-05,621.0899999995561,1.22173e-05,621.0899999995561,2.811162e-05
621.1049999995561,2.391248e-05,621.1049999995561,5.403729e-05,621.1049999995561,1.218035e-05,621.1049999995561,2.781744e-05
621.1199999995561,2.393132e-05,621.1199999995561,5.291033e-05,621.1199999995561,1.222768e-05,621.1199999995561,2.800669e-05
621.134999999556,2.37991e-05,621.134999999556,3.923617e-05,621.134999999556,1.218498e-05,621.134999999556,2.687528e-05
621.149999999556,2.374399e-05,621.149999999556,3.124747e-05,621.149999999556,1.198566e-05,621.149999999556,2.705447e-05
621.164999999556,2.366734e-05,621.164999999556,1.987862e-05,621.164999999556,1.198683e-05,621.164999999556,2.79145e-05
621.179999999556,2.419941e-05,621.179999999556,1.710416e-05,621.179999999556,1.064355e-05,621.179999999556,2.862457e-05
621.194999999556,2.459779e-05,621.194999999556,1.462505e-05,621.194999999556,1.017117e-05,621.194999999556,2.652868e-05
621.209999999556,2.462927e-05,621.209999999556,1.480978e-05,621.209999999556,1.023468e-05,621.209999999556,2.568532e-05
621.224999999556,2.435203e-05,621.224999999556,1.619376e-05,621.224999999556,1.020711e-05,621.224999999556,2.571547e-05
621.239999999556,2.493169e-05,621.239999999556,1.658228e-05,621.239999999556,9.251524e-06,621.239999999556,2.5676e-05
621.2549999995559,2.541018e-05,621.2549999995559,1.650053e-05,621.2549999995559,9.214908e-06,621.2549999995559,2.552081e-05
621.2699999995559,2.528737e-05,621.2699999995559,1.700421e-05,621.2699999995559,9.222548e-06,621.2699999995559,2.518857e-05
621.2849999995559,2.556163e-05,621.2849999995559,2.259365e-05,621.2849999995559,8.497549e-06,621.2849999995559,2.398248e-05
621.2999999995559,2.46824e-05,621.2999999995559,2.890274e-05,621.2999999995559,9.021799e-06,621.2999999995559,2.28275e-05
621.3149999995559,2.367805e-05,621.3149999995559,3.067189e-05,621.3149999995559,1.17746e-05,621.3149999995559,2.2231e-05
621.3299999995559,2.152139e-05,621.3299999995559,3.324009e-05,621.3299999995559,1.190074e-05,621.3299999995559,2.058738e-05
621.3449999995559,1.883505e-05,621.3449999995559,4.403348e-05,621.3449999995559,1.218613e-05,621.3449999995559,1.755931e-05
621.3599999995558,1.83862e-05,621.3599999995558,4.688646e-05,621.3599999995558,1.249998e-05,621.3599999995558,1.606187e-05
621.3749999995558,2.042526e-05,621.3749999995558,4.876071e-05,621.3749999995558,1.261999e-05,621.3749999995558,1.641837e-05
621.3899999995558,2.137822e-05,621.3899999995558,5.098916e-05,621.3899999995558,1.893723e-05,621.3899999995558,1.607414e-05
621.4049999995558,2.183589e-05,621.4049999995558,6.744971e-05,621.4049999995558,2.434277e-05,621.4049999995558,1.533319e-05
621.4199999995558,2.126392e-05,621.4199999995558,8.466543e-05,621.4199999995558,2.457774e-05,621.4199999995558,1.33796e-05
621.4349999995558,2.096705e-05,621.4349999995558,9.057127e-05,621.4349999995558,2.500109e-05,621.4349999995558,1.281493e-05
621.4499999995558,2.107026e-05,621.4499999995558,0.0001010094,621.4499999995558,2.789632e-05,621.4499999995558,1.338275e-05
621.4649999995557,2.116232e-05,621.4649999995557,0.0001126731,621.4649999995557,3.067144e-05,621.4649999995557,1.36382e-05
621.4799999995557,2.18133e-05,621.4799999995557,0.0001153193,621.4799999995557,3.170396e-05,621.4799999995557,1.422764e-05
621.4949999995557,2.34605e-05,621.4949999995557,0.000120788,621.4949999995557,3.271252e-05,621.4949999995557,1.457295e-05
621.5099999995557,2.380325e-05,621.5099999995557,0.0001389312,621.5099999995557,3.375231e-05,621.5099999995557,1.565683e-05
621.5249999995557,2.404114e-05,621.5249999995557,0.000145556,621.5249999995557,3.45374e-05,621.5249999995557,1.832326e-05
621.5399999995557,2.498869e-05,621.5399999995557,0.0001501904,621.5399999995557,3.512985e-05,621.5399999995557,2.005921e-05
621.5549999995557,2.536302e-05,621.5549999995557,0.0001818727,621.5549999995557,3.51531e-05,621.5549999995557,2.03257e-05
621.5699999995556,2.474738e-05,621.5699999995556,0.000189597,621.5699999995556,3.516672e-05,621.5699999995556,2.061268e-05
621.5849999995556,2.41353e-05,621.5849999995556,0.0001972981,621.5849999995556,3.545118e-05,621.5849999995556,2.074008e-05
621.5999999995556,2.434856e-05,621.5999999995556,0.0001985161,621.5999999995556,3.555909e-05,621.5999999995556,2.075773e-05
621.6149999995556,2.445593e-05,621.6149999995556,0.0001985932,621.6149999995556,3.700952e-05,621.6149999995556,2.092266e-05
621.6299999995556,2.285402e-05,621.6299999995556,0.000198226,621.6299999995556,3.830127e-05,621.6299999995556,2.101001e-05
621.6449999995556,2.228542e-05,621.6449999995556,0.0001964491,621.6449999995556,3.306246e-05,621.6449999995556,2.052296e-05
621.6599999995556,2.240332e-05,621.6599999995556,0.000191444,621.6599999995556,3.26884e-05,621.6599999995556,2.029727e-05
621.6749999995556,2.239011e-05,621.6749999995556,0.0001852174,621.6749999995556,3.237489e-05,621.6749999995556,2.011742e-05
621.6899999995555,2.33093e-05,621.6899999995555,0.0001850038,621.6899999995555,3.2354e-05,621.6899999995555,1.99938e-05
621.7049999995555,2.339074e-05,621.7049999995555,0.0001793217,621.7049999995555,2.937937e-05,621.7049999995555,1.974138e-05
621.7199999995555,2.311205e-05,621.7199999995555,0.0001731236,621.7199999995555,2.69198e-05,621.7199999995555,2.042388e-05
621.7349999995555,2.139469e-05,621.7349999995555,0.0001719217,621.7349999995555,2.55732e-05,621.7349999995555,2.108496e-05
621.7499999995555,2.19562e-05,621.7499999995555,0.0001580267,621.7499999995555,2.458175e-05,621.7499999995555,2.004797e-05
621.7649999995555,2.126458e-05,621.7649999995555,0.0001525723,621.7649999995555,2.329781e-05,621.7649999995555,1.990624e-05
621.7799999995555,2.070269e-05,621.7799999995555,0.0001469626,621.7799999995555,2.288543e-05,621.7799999995555,1.954128e-05
621.7949999995554,2.376831e-05,621.7949999995554,0.0001341253,621.7949999995554,2.199914e-05,621.7949999995554,2.01482e-05
621.8099999995554,2.622104e-05,621.8099999995554,9.438054e-05,621.8099999995554,2.087008e-05,621.8099999995554,2.031392e-05
621.8249999995554,2.659868e-05,621.8249999995554,6.970676e-05,621.8249999995554,2.012582e-05,621.8249999995554,2.06918e-05
621.8399999995554,2.729035e-05,621.8399999995554,4.751498e-05,621.8399999995554,1.90048e-05,621.8399999995554,2.180296e-05
621.8549999995554,2.745195e-05,621.8549999995554,4.116894e-05,621.8549999995554,1.780627e-05,621.8549999995554,2.213702e-05
621.8699999995554,2.740059e-05,621.8699999995554,3.945957e-05,621.8699999995554,1.575728e-05,621.8699999995554,2.265094e-05
621.8849999995554,2.721902e-05,621.8849999995554,3.878153e-05,621.8849999995554,1.207465e-05,621.8849999995554,2.307851e-05
621.8999999995553,2.700391e-05,621.8999999995553,4.034741e-05,621.8999999995553,1.102451e-05,621.8999999995553,2.356654e-05
621.9149999995553,2.694856e-05,621.9149999995553,4.124142e-05,621.9149999995553,1.15816e-05,621.9149999995553,2.403294e-05
621.9299999995553,2.725316e-05,621.9299999995553,3.933621e-05,621.9299999995553,1.170019e-05,621.9299999995553,2.419708e-05
621.9449999995553,2.664736e-05,621.9449999995553,3.180245e-05,621.9449999995553,1.095015e-05,621.9449999995553,2.465899e-05
621.9599999995553,2.637851e-05,621.9599999995553,3.362184e-05,621.9599999995553,1.093084e-05,621.9599999995553,2.441327e-05
621.9749999995553,2.714543e-05,621.9749999995553,3.737012e-05,621.9749999995553,1.070162e-05,621.9749999995553,2.336724e-05
621.9899999995553,2.619631e-05,621.9899999995553,3.889143e-05,621.9899999995553,1.030326e-05,621.9899999995553,2.320876e-05
622.0049999995553,2.547938e-05,622.0049999995553,4.149442e-05,622.0049999995553,9.704822e-06,622.0049999995553,2.310535e-05
622.0199999995552,2.606478e-05,622.0199999995552,4.798316e-05,622.0199999995552,1.148143e-05,622.0199999995552,2.257494e-05
622.0349999995552,2.551971e-05,622.0349999995552,4.849943e-05,622.0349999995552,1.155968e-05,622.0349999995552,2.034856e-05
622.0499999995552,2.129437e-05,622.0499999995552,5.025452e-05,622.0499999995552,1.164346e-05,622.0499999995552,1.969423e-05
622.0649999995552,1.95737e-05,622.0649999995552,5.259202e-05,622.0649999995552,1.226563e-05,622.0649999995552,1.893872e-05
622.0799999995552,1.922369e-05,622.0799999995552,5.600206e-05,622.0799999995552,1.286759e-05,622.0799999995552,1.796065e-05
622.0949999995552,1.781497e-05,622.0949999995552,5.684863e-05,622.0949999995552,1.473732e-05,622.0949999995552,1.6826e-05
622.1099999995552,1.740217e-05,622.1099999995552,5.891221e-05,622.1099999995552,1.486295e-05,622.1099999995552,1.578586e-05
622.1249999995551,1.758176e-05,622.1249999995551,6.078298e-05,622.1249999995551,1.496496e-05,622.1249999995551,1.460964e-05
622.1399999995551,1.776667e-05,622.1399999995551,6.504975e-05,622.1399999995551,1.633752e-05,622.1399999995551,1.512973e-05
622.1549999995551,1.793004e-05,622.1549999995551,6.579412e-05,622.1549999995551,1.999943e-05,622.1549999995551,1.453423e-05
622.1699999995551,1.785051e-05,622.1699999995551,6.75824e-05,622.1699999995551,2.025002e-05,622.1699999995551,1.369798e-05
622.1849999995551,1.776191e-05,622.1849999995551,6.679408e-05,622.1849999995551,2.037139e-05,622.1849999995551,1.308794e-05
622.1999999995551,1.825934e-05,622.1999999995551,7.056499e-05,622.1999999995551,2.530129e-05,622.1999999995551,1.318231e-05
622.2149999995551,1.750226e-05,622.2149999995551,7.814874e-05,622.2149999995551,2.664947e-05,622.2149999995551,1.421179e-05
622.229999999555,1.713707e-05,622.229999999555,7.913215e-05,622.229999999555,2.668275e-05,622.229999999555,1.409734e-05
622.244999999555,1.727461e-05,622.244999999555,8.358033e-05,622.244999999555,2.691037e-05,622.244999999555,1.482974e-05
622.259999999555,1.790409e-05,622.259999999555,8.749841e-05,622.259999999555,2.709037e-05,622.259999999555,1.536073e-05
622.274999999555,1.804516e-05,622.274999999555,8.887376e-05,622.274999999555,3.096807e-05,622.274999999555,1.639948e-05
622.289999999555,1.995007e-05,622.289999999555,0.000101168,622.289999999555,3.310377e-05,622.289999999555,1.657888e-05
622.304999999555,1.969352e-05,622.304999999555,0.0001087697,622.304999999555,3.342645e-05,622.304999999555,1.736571e-05
622.319999999555,1.977489e-05,622.319999999555,0.0001105102,622.319999999555,3.472005e-05,622.319999999555,1.743856e-05
622.334999999555,1.942125e-05,622.334999999555,0.0001484802,622.334999999555,3.454637e-05,622.334999999555,1.854563e-05
622.3499999995549,1.951099e-05,622.3499999995549,0.0001565988,622.3499999995549,3.520435e-05,622.3499999995549,1.908395e-05
622.3649999995549,1.953407e-05,622.3649999995549,0.0001571406,622.3649999995549,3.721979e-05,622.3649999995549,1.93973e-05
622.3799999995549,2.003954e-05,622.3799999995549,0.0001661077,622.3799999995549,3.71751e-05,622.3799999995549,1.94198e-05
622.3949999995549,2.043078e-05,622.3949999995549,0.0001659389,622.3949999995549,3.465467e-05,622.3949999995549,1.909281e-05
622.4099999995549,2.086468e-05,622.4099999995549,0.0001696972,622.4099999995549,3.480798e-05,622.4099999995549,1.917085e-05
622.4249999995549,2.127584e-05,622.4249999995549,0.0001753236,622.4249999995549,3.523475e-05,622.4249999995549,1.909059e-05
622.4399999995549,2.161674e-05,622.4399999995549,0.0001773939,622.4399999995549,3.551866e-05,622.4399999995549,1.906918e-05
622.4549999995548,2.324879e-05,622.4549999995548,0.0001743134,622.4549999995548,3.258394e-05,622.4549999995548,1.821532e-05
622.4699999995548,2.329479e-05,622.4699999995548,0.000172567,622.4699999995548,3.225589e-05,622.4699999995548,1.717894e-05
622.4849999995548,2.384582e-05,622.4849999995548,0.0001719051,622.4849999995548,3.271898e-05,622.4849999995548,1.657973e-05
622.4999999995548,2.36715e-05,622.4999999995548,0.0001679337,622.4999999995548,3.225152e-05,622.4999999995548,1.65048e-05
622.5149999995548,2.449966e-05,622.5149999995548,0.0001665098,622.5149999995548,3.056884e-05,622.5149999995548,1.601883e-05
622.5299999995548,2.389185e-05,622.5299999995548,0.0001641556,622.5299999995548,2.62865e-05,622.5299999995548,1.447499e-05
622.5449999995548,2.398718e-05,622.5449999995548,0.0001539113,622.5449999995548,2.638225e-05,622.5449999995548,1.450124e-05
622.5599999995547,2.41802e-05,622.5599999995547,0.0001504241,622.5599999995547,2.449334e-05,622.5599999995547,1.556117e-05
622.5749999995547,2.499376e-05,622.5749999995547,0.0001353201,622.5749999995547,2.46687e-05,622.5749999995547,1.546219e-05
622.5899999995547,2.799915e-05,622.5899999995547,0.0001043665,622.5899999995547,2.376831e-05,622.5899999995547,1.434596e-05
622.6049999995547,3.03357e-05,622.6049999995547,9.857467e-05,622.6049999995547,2.129834e-05,622.6049999995547,1.538913e-05
622.6199999995547,3.101035e-05,622.6199999995547,9.14495e-05,622.6199999995547,2.021382e-05,622.6199999995547,2.089437e-05
622.6349999995547,3.144744e-05,622.6349999995547,7.575432e-05,622.6349999995547,2.027435e-05,622.6349999995547,2.145058e-05
622.6499999995547,3.136401e-05,622.6499999995547,6.634208e-05,622.6499999995547,2.014401e-05,622.6499999995547,2.211155e-05
622.6649999995547,3.109518e-05,622.6649999995547,4.446864e-05,622.6649999995547,1.928003e-05,622.6649999995547,2.25974e-05
622.6799999995546,3.090022e-05,622.6799999995546,3.0279e-05,622.6799999995546,1.835399e-05,622.6799999995546,2.365543e-05
622.6949999995546,3.09849e-05,622.6949999995546,2.574448e-05,622.6949999995546,1.74046e-05,622.6949999995546,2.37991e-05
622.7099999995546,2.928957e-05,622.7099999995546,2.328995e-05,622.7099999995546,1.635648e-05,622.7099999995546,2.370302e-05
622.7249999995546,2.898256e-05,622.7249999995546,2.055451e-05,622.7249999995546,1.522625e-05,622.7249999995546,2.409791e-05
622.7399999995546,2.880999e-05,622.7399999995546,1.652356e-05,622.7399999995546,1.474783e-05,622.7399999995546,2.428483e-05
622.7549999995546,2.881195e-05,622.7549999995546,1.895656e-05,622.7549999995546,1.448861e-05,622.7549999995546,2.428715e-05
622.7699999995546,2.835112e-05,622.7699999995546,2.081534e-05,622.7699999995546,1.364646e-05,622.7699999995546,2.469267e-05
622.7849999995545,2.71096e-05,622.7849999995545,2.034164e-05,622.7849999995545,1.300913e-05,622.7849999995545,2.452725e-05
622.7999999995545,2.678918e-05,622.7999999995545,2.033402e-05,622.7999999995545,1.24095e-05,622.7999999995545,2.433467e-05
622.8149999995545,2.623769e-05,622.8149999995545,2.04542e-05,622.8149999995545,1.206648e-05,622.8149999995545,2.285956e-05
622.8299999995545,2.491247e-05,622.8299999995545,2.173372e-05,622.8299999995545,1.1896e-05,622.8299999995545,2.275766e-05
622.8449999995545,2.076316e-05,622.8449999995545,2.400068e-05,622.8449999995545,1.050902e-05,622.8449999995545,2.243285e-05
622.8599999995545,1.879162e-05,622.8599999995545,2.722109e-05,622.8599999995545,1.303833e-05,622.8599999995545,2.075977e-05
622.8749999995545,1.774683e-05,622.8749999995545,2.842704e-05,622.8749999995545,1.393856e-05,622.8749999995545,1.641922e-05
622.8899999995544,1.734785e-05,622.8899999995544,3.740553e-05,622.8899999995544,1.419691e-05,622.8899999995544,1.490176e-05
622.9049999995544,1.738921e-05,622.9049999995544,4.298416e-05,622.9049999995544,1.44282e-05,622.9049999995544,1.426817e-05
622.9199999995544,1.713707e-05,622.9199999995544,5.102369e-05,622.9199999995544,1.615979e-05,622.9199999995544,1.221846e-05
622.9349999995544,1.647575e-05,622.9349999995544,5.389111e-05,622.9349999995544,1.618505e-05,622.9349999995544,1.09553e-05
622.9499999995544,1.666025e-05,622.9499999995544,5.707244e-05,622.9499999995544,1.654997e-05,622.9499999995544,1.07777e-05
622.9649999995544,1.804126e-05,622.9649999995544,5.991277e-05,622.9649999995544,1.87541e-05,622.9649999995544,1.094629e-05
622.9799999995544,1.835783e-05,622.9799999995544,6.679366e-05,622.9799999995544,1.962473e-05,622.9799999995544,1.026217e-05
622.9949999995544,1.849924e-05,622.9949999995544,6.849195e-05,622.9949999995544,2.032155e-05,622.9949999995544,1.015731e-05
623.0099999995543,1.878637e-05,623.0099999995543,7.25031e-05,623.0099999995543,2.088897e-05,623.0099999995543,1.181163e-05
623.0249999995543,1.923321e-05,623.0249999995543,8.193209e-05,623.0249999995543,2.77566e-05,623.0249999995543,1.142608e-05
623.0399999995543,1.969352e-05,623.0399999995543,8.793618e-05,623.0399999995543,3.183078e-05,623.0399999995543,1.134691e-05
623.0549999995543,2.021939e-05,623.0549999995543,8.963935e-05,623.0549999995543,3.564653e-05,623.0549999995543,1.366915e-05
623.0699999995543,2.299228e-05,623.0699999995543,9.175352e-05,623.0699999995543,3.610203e-05,623.0699999995543,1.420385e-05
623.0849999995543,2.393544e-05,623.0849999995543,9.270506e-05,623.0849999995543,3.600904e-05,623.0849999995543,1.445259e-05
623.0999999995543,2.501123e-05,623.0999999995543,9.804033e-05,623.0999999995543,3.69882e-05,623.0999999995543,1.560095e-05
623.1149999995542,2.477184e-05,623.1149999995542,0.0001095823,623.1149999995542,3.661115e-05,623.1149999995542,1.587219e-05
623.1299999995542,2.510511e-05,623.1299999995542,0.0001315126,623.1299999995542,3.713985e-05,623.1299999995542,1.76601e-05
623.1449999995542,2.572094e-05,623.1449999995542,0.0001530236,623.1449999995542,3.73441e-05,623.1449999995542,1.988642e-05
623.1599999995542,2.543567e-05,623.1599999995542,0.0001576404,623.1599999995542,3.749618e-05,623.1599999995542,2.090784e-05
623.1749999995542,2.60399e-05,623.1749999995542,0.0001591599,623.1749999995542,3.726366e-05,623.1749999995542,2.117031e-05
623.1899999995542,2.607234e-05,623.1899999995542,0.0001683509,623.1899999995542,3.764616e-05,623.1899999995542,2.212874e-05
623.2049999995542,2.558641e-05,623.2049999995542,0.0001705855,623.2049999995542,3.753786e-05,623.2049999995542,2.29254e-05
623.2199999995541,2.54567e-05,623.2199999995541,0.0001822995,623.2199999995541,3.622473e-05,623.2199999995541,2.292663e-05
623.2349999995541,2.567325e-05,623.2349999995541,0.0001812743,623.2349999995541,3.61831e-05,623.2349999995541,2.300637e-05
623.2499999995541,2.546887e-05,623.2499999995541,0.0001811537,623.2499999995541,3.617453e-05,623.2499999995541,2.273289e-05
623.2649999995541,2.478946e-05,623.2649999995541,0.0001772878,623.2649999995541,3.548573e-05,623.2649999995541,2.21561e-05
623.2799999995541,2.462297e-05,623.2799999995541,0.0001757746,623.2799999995541,3.128442e-05,623.2799999995541,2.219231e-05
623.2949999995541,2.441673e-05,623.2949999995541,0.000175707,623.2949999995541,2.532133e-05,623.2949999995541,2.219485e-05
623.3099999995541,2.265405e-05,623.3099999995541,0.0001748201,623.3099999995541,2.215801e-05,623.3099999995541,2.258181e-05
623.324999999554,2.107895e-05,623.324999999554,0.0001736915,623.324999999554,2.167271e-05,623.324999999554,2.268264e-05
623.339999999554,2.025419e-05,623.339999999554,0.0001728034,623.339999999554,2.131685e-05,623.339999999554,2.256745e-05
623.354999999554,1.925078e-05,623.354999999554,0.0001657307,623.354999999554,2.055177e-05,623.354999999554,2.163172e-05
623.369999999554,1.947485e-05,623.369999999554,0.0001613848,623.369999999554,2.057506e-05,623.369999999554,2.198697e-05
623.384999999554,1.891044e-05,623.384999999554,0.0001253076,623.384999999554,2.266586e-05,623.384999999554,1.952758e-05
623.399999999554,1.862295e-05,623.399999999554,0.0001167331,623.399999999554,2.213002e-05,623.399999999554,1.944083e-05
623.414999999554,1.866828e-05,623.414999999554,0.0001065412,623.414999999554,2.162716e-05,623.414999999554,1.854791e-05
623.429999999554,1.986444e-05,623.429999999554,9.284476e-05,623.429999999554,2.091189e-05,623.429999999554,1.878712e-05
623.4449999995539,2.108897e-05,623.4449999995539,8.636525e-05,623.4449999995539,2.073668e-05,623.4449999995539,2.233404e-05
623.4599999995539,2.313886e-05,623.4599999995539,6.763241e-05,623.4599999995539,2.080586e-05,623.4599999995539,2.695222e-05
623.4749999995539,2.244289e-05,623.4749999995539,4.11751e-05,623.4749999995539,2.058601e-05,623.4749999995539,3.021613e-05
623.4899999995539,2.415047e-05,623.4899999995539,3.741645e-05,623.4899999995539,2.077537e-05,623.4899999995539,3.295877e-05
623.5049999995539,2.63304e-05,623.5049999995539,3.625893e-05,623.5049999995539,1.983393e-05,623.5049999995539,3.491587e-05
623.5199999995539,2.809106e-05,623.5199999995539,3.130017e-05,623.5199999995539,1.934786e-05,623.5199999995539,3.53198e-05
623.5349999995539,2.831831e-05,623.5349999995539,2.431903e-05,623.5349999995539,1.908838e-05,623.5349999995539,3.844334e-05
623.5499999995538,2.863884e-05,623.5499999995538,1.465584e-05,623.5499999995538,1.906549e-05,623.5499999995538,3.969235e-05
623.5649999995538,2.909511e-05,623.5649999995538,1.483449e-05,623.5649999995538,1.921636e-05,623.5649999995538,4.010895e-05
623.5799999995538,2.913575e-05,623.5799999995538,1.478217e-05,623.5799999995538,1.925956e-05,623.5799999995538,4.048961e-05
623.5949999995538,2.906943e-05,623.5949999995538,1.444772e-05,623.5949999995538,1.713625e-05,623.5949999995538,4.059141e-05
623.6099999995538,2.848793e-05,623.6099999995538,1.448277e-05,623.6099999995538,1.692533e-05,623.6099999995538,4.079323e-05
