X[s],a: EMG RMS 1-1,X[s].1,a: EMG RMS 1-2,X[s].2,a: EMG RMS 1-3,X[s].3,a: EMG RMS 1-4
519.0149999996489,4.56445e-05,519.0149999996489,8.103833e-06,519.0149999996489,5.14008e-05,519.0149999996489,3.812728e-05
519.0299999996489,4.364371e-05,519.0299999996489,8.135063e-06,519.0299999996489,4.803158e-05,519.0299999996489,3.861518e-05
519.0449999996489,4.348915e-05,519.0449999996489,8.162721e-06,519.0449999996489,4.642996e-05,519.0449999996489,3.892655e-05
519.0599999996489,4.393163e-05,519.0599999996489,7.158726e-06,519.0599999996489,5.493391e-05,519.0599999996489,3.84536e-05
519.0749999996489,4.299431e-05,519.0749999996489,6.942956e-06,519.0749999996489,5.546726e-05,519.0749999996489,3.750144e-05
519.0899999996489,4.310393e-05,519.0899999996489,6.384893e-06,519.0899999996489,5.539356e-05,519.0899999996489,3.715198e-05
519.1049999996488,4.215824e-05,519.1049999996488,6.014533e-06,519.1049999996488,4.827205e-05,519.1049999996488,3.779591e-05
519.1199999996488,4.259999e-05,519.1199999996488,5.991066e-06,519.1199999996488,5.011839e-05,519.1199999996488,3.832223e-05
519.1349999996488,4.392618e-05,519.1349999996488,6.051891e-06,519.1349999996488,4.987015e-05,519.1349999996488,3.812839e-05
519.1499999996488,4.356973e-05,519.1499999996488,6.42229e-06,519.1499999996488,4.813704e-05,519.1499999996488,3.825343e-05
519.1649999996488,4.40162e-05,519.1649999996488,6.382687e-06,519.1649999996488,4.728078e-05,519.1649999996488,3.740328e-05
519.1799999996488,3.904867e-05,519.1799999996488,6.57832e-06,519.1799999996488,4.561363e-05,519.1799999996488,3.898513e-05
519.1949999996488,3.782385e-05,519.1949999996488,6.716067e-06,519.1949999996488,4.495509e-05,519.1949999996488,3.875609e-05
519.2099999996487,3.7471e-05,519.2099999996487,6.574036e-06,519.2099999996487,4.62698e-05,519.2099999996487,3.798662e-05
519.2249999996487,3.752059e-05,519.2249999996487,7.180339e-06,519.2249999996487,4.867078e-05,519.2249999996487,3.856517e-05
519.2399999996487,3.768468e-05,519.2399999996487,7.406318e-06,519.2399999996487,5.125067e-05,519.2399999996487,3.788451e-05
519.2549999996487,3.694171e-05,519.2549999996487,9.88887e-06,519.2549999996487,5.05399e-05,519.2549999996487,3.681298e-05
519.2699999996487,3.652679e-05,519.2699999996487,1.015592e-05,519.2699999996487,5.189854e-05,519.2699999996487,3.81258e-05
519.2849999996487,3.66692e-05,519.2849999996487,1.034011e-05,519.2849999996487,5.537855e-05,519.2849999996487,3.918264e-05
519.2999999996487,3.67632e-05,519.2999999996487,1.067131e-05,519.2999999996487,5.313748e-05,519.2999999996487,3.778435e-05
519.3149999996486,3.715994e-05,519.3149999996486,1.083245e-05,519.3149999996486,4.69327e-05,519.3149999996486,3.751909e-05
519.3299999996486,3.829281e-05,519.3299999996486,1.078684e-05,519.3299999996486,4.631331e-05,519.3299999996486,3.859073e-05
519.3449999996486,3.81173e-05,519.3449999996486,1.083895e-05,519.3449999996486,4.7055e-05,519.3449999996486,3.864107e-05
519.3599999996486,3.801183e-05,519.3599999996486,1.08714e-05,519.3599999996486,4.794234e-05,519.3599999996486,3.715084e-05
519.3749999996486,3.704794e-05,519.3749999996486,1.073317e-05,519.3749999996486,4.516018e-05,519.3749999996486,3.716638e-05
519.3899999996486,3.686957e-05,519.3899999996486,1.077116e-05,519.3899999996486,4.541958e-05,519.3899999996486,3.655262e-05
519.4049999996486,3.719783e-05,519.4049999996486,1.05545e-05,519.4049999996486,4.590731e-05,519.4049999996486,3.681489e-05
519.4199999996486,3.591385e-05,519.4199999996486,1.060244e-05,519.4199999996486,4.593338e-05,519.4199999996486,3.852423e-05
519.4349999996485,3.59793e-05,519.4349999996485,1.045258e-05,519.4349999996485,4.571512e-05,519.4349999996485,3.797921e-05
519.4499999996485,3.554998e-05,519.4499999996485,1.035509e-05,519.4499999996485,4.472765e-05,519.4499999996485,3.822838e-05
519.4649999996485,3.622084e-05,519.4649999996485,1.044718e-05,519.4649999996485,4.173645e-05,519.4649999996485,3.853922e-05
519.4799999996485,3.686651e-05,519.4799999996485,9.894567e-06,519.4799999996485,4.132535e-05,519.4799999996485,3.814501e-05
519.4949999996485,3.65318e-05,519.4949999996485,9.460803e-06,519.4949999996485,3.896814e-05,519.4949999996485,3.869535e-05
519.5099999996485,3.630514e-05,519.5099999996485,7.184261e-06,519.5099999996485,3.892221e-05,519.5099999996485,3.929358e-05
519.5249999996485,3.666498e-05,519.5249999996485,7.421518e-06,519.5249999996485,2.720245e-05,519.5249999996485,3.591464e-05
519.5399999996484,3.685008e-05,519.5399999996484,7.21166e-06,519.5399999996484,3.06797e-05,519.5399999996484,3.546349e-05
519.5549999996484,3.615895e-05,519.5549999996484,6.728641e-06,519.5549999996484,3.063237e-05,519.5549999996484,3.594718e-05
519.5699999996484,3.499808e-05,519.5699999996484,6.671875e-06,519.5699999996484,3.055917e-05,519.5699999996484,3.490699e-05
519.5849999996484,3.528828e-05,519.5849999996484,6.697164e-06,519.5849999996484,3.047885e-05,519.5849999996484,3.45859e-05
519.5999999996484,3.537241e-05,519.5999999996484,6.591156e-06,519.5999999996484,2.768546e-05,519.5999999996484,3.528748e-05
519.6149999996484,3.639388e-05,519.6149999996484,6.468188e-06,519.6149999996484,2.732285e-05,519.6149999996484,3.493281e-05
519.6299999996484,3.50375e-05,519.6299999996484,6.413511e-06,519.6299999996484,2.670544e-05,519.6299999996484,3.482579e-05
519.6449999996483,3.553888e-05,519.6449999996483,7.083556e-06,519.6449999996483,2.629668e-05,519.6449999996483,3.463108e-05
519.6599999996483,3.519194e-05,519.6599999996483,8.000618e-06,519.6599999996483,2.572916e-05,519.6599999996483,3.274738e-05
519.6749999996483,3.466808e-05,519.6749999996483,9.47122e-06,519.6749999996483,2.651381e-05,519.6749999996483,3.206711e-05
519.6899999996483,3.493805e-05,519.6899999996483,1.029779e-05,519.6899999996483,2.712259e-05,519.6899999996483,3.107796e-05
519.7049999996483,3.822875e-05,519.7049999996483,1.039988e-05,519.7049999996483,2.584987e-05,519.7049999996483,3.099535e-05
519.7199999996483,3.917509e-05,519.7199999996483,1.100789e-05,519.7199999996483,2.35456e-05,519.7199999996483,3.085916e-05
519.7349999996483,4.016194e-05,519.7349999996483,1.400712e-05,519.7349999996483,2.302045e-05,519.7349999996483,3.033106e-05
519.7499999996483,3.885266e-05,519.7499999996483,1.570534e-05,519.7499999996483,2.294506e-05,519.7499999996483,3.015873e-05
519.7649999996482,3.920205e-05,519.7649999996482,1.598098e-05,519.7649999996482,2.254934e-05,519.7649999996482,3.159313e-05
519.7799999996482,3.919019e-05,519.7799999996482,1.592269e-05,519.7799999996482,2.155932e-05,519.7799999996482,3.022545e-05
519.7949999996482,3.928999e-05,519.7949999996482,1.601532e-05,519.7949999996482,1.64672e-05,519.7949999996482,2.957435e-05
519.8099999996482,3.969058e-05,519.8099999996482,1.633407e-05,519.8099999996482,1.650992e-05,519.8099999996482,2.908639e-05
519.8249999996482,3.975051e-05,519.8249999996482,1.653805e-05,519.8249999996482,1.689117e-05,519.8249999996482,2.852548e-05
519.8399999996482,3.915567e-05,519.8399999996482,1.739407e-05,519.8399999996482,1.690618e-05,519.8399999996482,2.820417e-05
519.8549999996482,3.897899e-05,519.8549999996482,1.744825e-05,519.8549999996482,1.759938e-05,519.8549999996482,2.719883e-05
519.8699999996481,3.82129e-05,519.8699999996481,1.757214e-05,519.8699999996481,1.628743e-05,519.8699999996481,2.686951e-05
519.8849999996481,4.09184e-05,519.8849999996481,1.758096e-05,519.8849999996481,1.555121e-05,519.8849999996481,2.671388e-05
519.8999999996481,4.074037e-05,519.8999999996481,1.889777e-05,519.8999999996481,1.445356e-05,519.8999999996481,2.761158e-05
519.9149999996481,4.289755e-05,519.9149999996481,1.908912e-05,519.9149999996481,1.542844e-05,519.9149999996481,2.510399e-05
519.9299999996481,4.446675e-05,519.9299999996481,1.832557e-05,519.9299999996481,1.377591e-05,519.9299999996481,2.660662e-05
519.9449999996481,4.419346e-05,519.9449999996481,1.949726e-05,519.9449999996481,1.298745e-05,519.9449999996481,2.62119e-05
519.9599999996481,4.115936e-05,519.9599999996481,2.047348e-05,519.9599999996481,1.248306e-05,519.9599999996481,2.608693e-05
519.974999999648,4.040672e-05,519.974999999648,2.115566e-05,519.974999999648,1.252812e-05,519.974999999648,2.599226e-05
519.989999999648,4.278115e-05,519.989999999648,1.982043e-05,519.989999999648,1.271008e-05,519.989999999648,2.567435e-05
520.004999999648,4.376812e-05,520.004999999648,2.041491e-05,520.004999999648,1.273776e-05,520.004999999648,2.256558e-05
520.019999999648,4.418358e-05,520.019999999648,2.057437e-05,520.019999999648,1.200445e-05,520.019999999648,2.076723e-05
520.034999999648,4.347619e-05,520.034999999648,2.079231e-05,520.034999999648,1.196684e-05,520.034999999648,2.067069e-05
520.049999999648,4.550758e-05,520.049999999648,2.123144e-05,520.049999999648,1.20396e-05,520.049999999648,2.057643e-05
520.064999999648,4.505556e-05,520.064999999648,2.122878e-05,520.064999999648,1.131085e-05,520.064999999648,2.113434e-05
520.079999999648,4.446928e-05,520.079999999648,2.15227e-05,520.079999999648,1.082855e-05,520.079999999648,2.08532e-05
520.0949999996479,4.430902e-05,520.0949999996479,2.115367e-05,520.0949999996479,1.090504e-05,520.0949999996479,1.976634e-05
520.1099999996479,4.48368e-05,520.1099999996479,2.140325e-05,520.1099999996479,9.769921e-06,520.1099999996479,1.909133e-05
520.1249999996479,4.725306e-05,520.1249999996479,2.171881e-05,520.1249999996479,1.021539e-05,520.1249999996479,1.887315e-05
520.1399999996479,4.638504e-05,520.1399999996479,2.228985e-05,520.1399999996479,1.022917e-05,520.1399999996479,1.864789e-05
520.1549999996479,4.813529e-05,520.1549999996479,2.092333e-05,520.1549999996479,1.079076e-05,520.1549999996479,1.659417e-05
520.1699999996479,4.797494e-05,520.1699999996479,2.069793e-05,520.1699999996479,8.998348e-06,520.1699999996479,2.187971e-05
520.1849999996479,4.935196e-05,520.1849999996479,2.067886e-05,520.1849999996479,9.020237e-06,520.1849999996479,1.93413e-05
520.1999999996478,4.925739e-05,520.1999999996478,2.045558e-05,520.1999999996478,9.088692e-06,520.1999999996478,1.895285e-05
520.2149999996478,5.118301e-05,520.2149999996478,1.9151e-05,520.2149999996478,9.052973e-06,520.2149999996478,1.815722e-05
520.2299999996478,5.157207e-05,520.2299999996478,1.855095e-05,520.2299999996478,8.886504e-06,520.2299999996478,1.817118e-05
520.2449999996478,5.088047e-05,520.2449999996478,1.790488e-05,520.2449999996478,8.89601e-06,520.2449999996478,1.847486e-05
520.2599999996478,5.223106e-05,520.2599999996478,1.597392e-05,520.2599999996478,9.054529e-06,520.2599999996478,1.939512e-05
520.2749999996478,5.204274e-05,520.2749999996478,1.577158e-05,520.2749999996478,9.087142e-06,520.2749999996478,1.975779e-05
520.2899999996478,5.296701e-05,520.2899999996478,1.523827e-05,520.2899999996478,9.111911e-06,520.2899999996478,2.060653e-05
520.3049999996477,5.088297e-05,520.3049999996477,1.489325e-05,520.3049999996477,8.908669e-06,520.3049999996477,2.17214e-05
520.3199999996477,5.26929e-05,520.3199999996477,1.432139e-05,520.3199999996477,8.938661e-06,520.3199999996477,2.082143e-05
520.3349999996477,5.412195e-05,520.3349999996477,1.422467e-05,520.3349999996477,8.977973e-06,520.3349999996477,2.101738e-05
520.3499999996477,5.446908e-05,520.3499999996477,1.379329e-05,520.3499999996477,8.792481e-06,520.3499999996477,2.162e-05
520.3649999996477,5.28208e-05,520.3649999996477,1.307501e-05,520.3649999996477,8.469321e-06,520.3649999996477,2.214211e-05
520.3799999996477,5.2423e-05,520.3799999996477,1.386662e-05,520.3799999996477,8.11252e-06,520.3799999996477,2.247175e-05
520.3949999996477,5.19986e-05,520.3949999996477,1.289165e-05,520.3949999996477,8.338578e-06,520.3949999996477,2.247112e-05
520.4099999996477,4.776896e-05,520.4099999996477,1.401918e-05,520.4099999996477,7.434793e-06,520.4099999996477,2.178745e-05
520.4249999996476,4.707924e-05,520.4249999996476,1.639604e-05,520.4249999996476,7.123218e-06,520.4249999996476,1.809272e-05
520.4399999996476,4.588213e-05,520.4399999996476,1.902333e-05,520.4399999996476,6.963215e-06,520.4399999996476,2.092199e-05
520.4549999996476,4.638079e-05,520.4549999996476,1.783472e-05,520.4549999996476,6.766219e-06,520.4549999996476,2.10348e-05
520.4699999996476,4.715667e-05,520.4699999996476,1.78363e-05,520.4699999996476,6.805661e-06,520.4699999996476,2.085995e-05
520.4849999996476,4.498923e-05,520.4849999996476,1.81316e-05,520.4849999996476,6.707672e-06,520.4849999996476,2.037347e-05
520.4999999996476,4.71504e-05,520.4999999996476,1.84084e-05,520.4999999996476,6.389304e-06,520.4999999996476,2.037969e-05
520.5149999996476,4.606139e-05,520.5149999996476,1.856385e-05,520.5149999996476,6.393712e-06,520.5149999996476,1.984955e-05
520.5299999996475,4.491528e-05,520.5299999996475,1.939658e-05,520.5299999996475,6.298262e-06,520.5299999996475,2.000014e-05
520.5449999996475,4.455789e-05,520.5449999996475,1.964482e-05,520.5449999996475,6.686639e-06,520.5449999996475,1.781101e-05
520.5599999996475,4.402708e-05,520.5599999996475,1.990482e-05,520.5599999996475,7.127172e-06,520.5599999996475,1.884178e-05
520.5749999996475,4.363176e-05,520.5749999996475,1.99317e-05,520.5749999996475,7.686323e-06,520.5749999996475,1.928003e-05
520.5899999996475,4.168816e-05,520.5899999996475,2.088358e-05,520.5899999996475,7.761099e-06,520.5899999996475,1.865016e-05
520.6049999996475,4.212448e-05,520.6049999996475,2.105086e-05,520.6049999996475,7.938755e-06,520.6049999996475,1.868638e-05
520.6199999996475,4.205553e-05,520.6199999996475,2.148929e-05,520.6199999996475,7.822567e-06,520.6199999996475,1.799513e-05
520.6349999996474,4.163439e-05,520.6349999996474,2.188744e-05,520.6349999996474,7.70097e-06,520.6349999996474,1.764095e-05
520.6499999996474,4.353351e-05,520.6499999996474,2.209115e-05,520.6499999996474,1.482024e-05,520.6499999996474,1.825086e-05
520.6649999996474,4.287259e-05,520.6649999996474,2.051678e-05,520.6649999996474,1.588904e-05,520.6649999996474,1.846189e-05
520.6799999996474,4.283972e-05,520.6799999996474,1.88343e-05,520.6799999996474,1.88358e-05,520.6799999996474,1.847104e-05
520.6949999996474,4.287948e-05,520.6949999996474,1.80053e-05,520.6949999996474,2.391012e-05,520.6949999996474,1.626753e-05
520.7099999996474,3.884214e-05,520.7099999996474,1.802016e-05,520.7099999996474,2.69402e-05,520.7099999996474,1.736327e-05
520.7249999996474,3.917437e-05,520.7249999996474,1.793632e-05,520.7249999996474,2.815968e-05,520.7249999996474,1.734216e-05
520.7399999996474,3.901403e-05,520.7399999996474,1.80787e-05,520.7399999996474,2.823013e-05,520.7399999996474,1.831711e-05
520.7549999996473,3.501538e-05,520.7549999996473,1.843669e-05,520.7549999996473,2.844587e-05,520.7549999996473,1.824931e-05
520.7699999996473,3.489489e-05,520.7699999996473,1.838696e-05,520.7699999996473,2.843546e-05,520.7699999996473,1.846876e-05
520.7849999996473,3.498278e-05,520.7849999996473,1.776508e-05,520.7849999996473,2.876987e-05,520.7849999996473,1.890895e-05
520.7999999996473,3.505197e-05,520.7999999996473,1.803032e-05,520.7999999996473,2.860291e-05,520.7999999996473,1.96613e-05
520.8149999996473,3.337753e-05,520.8149999996473,1.789701e-05,520.8149999996473,2.882075e-05,520.8149999996473,1.840305e-05
520.8299999996473,3.294252e-05,520.8299999996473,1.819365e-05,520.8299999996473,3.046776e-05,520.8299999996473,1.934786e-05
520.8449999996473,3.481203e-05,520.8449999996473,2.03049e-05,520.8449999996473,3.163992e-05,520.8449999996473,1.962329e-05
520.8599999996472,3.307482e-05,520.8599999996472,2.05408e-05,520.8599999996472,3.196812e-05,520.8599999996472,2.007115e-05
520.8749999996472,3.30467e-05,520.8749999996472,1.994512e-05,520.8749999996472,3.252639e-05,520.8749999996472,2.042388e-05
520.8899999996472,3.411925e-05,520.8899999996472,1.967419e-05,520.8899999996472,3.290658e-05,520.8899999996472,2.090919e-05
520.9049999996472,3.269874e-05,520.9049999996472,1.997265e-05,520.9049999996472,2.991674e-05,520.9049999996472,2.020615e-05
520.9199999996472,3.386689e-05,520.9199999996472,2.030906e-05,520.9199999996472,2.927514e-05,520.9199999996472,2.054148e-05
520.9349999996472,3.293012e-05,520.9349999996472,2.020197e-05,520.9349999996472,2.533467e-05,520.9349999996472,2.00985e-05
520.9499999996472,3.401919e-05,520.9499999996472,1.971996e-05,520.9499999996472,2.300576e-05,520.9499999996472,2.001281e-05
520.9649999996471,3.521756e-05,520.9649999996471,2.032778e-05,520.9649999996471,1.927564e-05,520.9649999996471,1.970424e-05
520.9799999996471,3.501981e-05,520.9799999996471,2.116632e-05,520.9799999996471,1.851827e-05,520.9799999996471,2.017405e-05
520.9949999996471,3.460057e-05,520.9949999996471,2.685902e-05,520.9949999996471,1.842905e-05,520.9949999996471,1.913555e-05
521.0099999996471,3.460993e-05,521.0099999996471,2.831682e-05,521.0099999996471,1.831788e-05,521.0099999996471,1.864638e-05
521.0249999996471,3.53513e-05,521.0249999996471,2.829492e-05,521.0249999996471,1.834478e-05,521.0249999996471,1.926687e-05
521.0399999996471,3.537281e-05,521.0399999996471,2.819867e-05,521.0399999996471,1.754567e-05,521.0399999996471,1.90174e-05
521.0549999996471,3.670721e-05,521.0549999996471,2.865605e-05,521.0549999996471,1.851675e-05,521.0549999996471,1.835246e-05
521.069999999647,3.759486e-05,521.069999999647,2.928909e-05,521.069999999647,1.784183e-05,521.069999999647,1.855019e-05
521.084999999647,3.723719e-05,521.084999999647,2.851215e-05,521.084999999647,1.709015e-05,521.084999999647,1.798025e-05
521.099999999647,3.798217e-05,521.099999999647,2.676919e-05,521.099999999647,1.506628e-05,521.099999999647,1.834401e-05
521.114999999647,4.016755e-05,521.114999999647,2.796038e-05,521.114999999647,1.438028e-05,521.114999999647,1.762497e-05
521.129999999647,3.989378e-05,521.129999999647,2.814167e-05,521.129999999647,1.376568e-05,521.129999999647,1.726564e-05
521.144999999647,3.931723e-05,521.144999999647,2.823013e-05,521.144999999647,1.338381e-05,521.144999999647,1.733323e-05
521.159999999647,3.918264e-05,521.159999999647,2.806999e-05,521.159999999647,1.343109e-05,521.159999999647,1.81215e-05
521.174999999647,3.98687e-05,521.174999999647,2.888958e-05,521.174999999647,1.352307e-05,521.174999999647,1.70067e-05
521.189999999647,4.203208e-05,521.189999999647,2.882954e-05,521.189999999647,1.362994e-05,521.189999999647,1.69951e-05
521.2049999996469,4.172869e-05,521.2049999996469,2.940813e-05,521.2049999996469,1.363717e-05,521.2049999996469,1.792925e-05
521.2199999996469,4.107714e-05,521.2199999996469,2.845131e-05,521.2199999996469,1.361443e-05,521.2199999996469,1.734379e-05
521.2349999996469,4.19848e-05,521.2349999996469,2.595212e-05,521.2349999996469,1.354492e-05,521.2349999996469,1.725911e-05
521.2499999996469,4.515394e-05,521.2499999996469,2.439306e-05,521.2499999996469,1.349804e-05,521.2499999996469,1.728277e-05
521.2649999996469,4.569324e-05,521.2649999996469,2.748169e-05,521.2649999996469,1.354804e-05,521.2649999996469,2.060311e-05
521.2799999996469,4.661135e-05,521.2799999996469,2.749963e-05,521.2799999996469,1.35875e-05,521.2799999996469,2.117031e-05
521.2949999996468,4.780699e-05,521.2949999996468,2.711272e-05,521.2949999996468,1.335747e-05,521.2949999996468,2.130694e-05
521.3099999996468,4.842763e-05,521.3099999996468,2.649892e-05,521.3099999996468,1.163257e-05,521.3099999996468,2.099995e-05
521.3249999996468,4.679744e-05,521.3249999996468,2.942776e-05,521.3249999996468,1.079859e-05,521.3249999996468,2.113635e-05
521.3399999996468,4.781406e-05,521.3399999996468,3.065076e-05,521.3399999996468,8.224612e-06,521.3399999996468,2.078893e-05
521.3549999996468,4.811041e-05,521.3549999996468,3.23222e-05,521.3549999996468,7.691819e-06,521.3549999996468,2.061063e-05
521.3699999996468,4.919272e-05,521.3699999996468,3.520435e-05,521.3699999996468,8.387425e-06,521.3699999996468,2.067546e-05
521.3849999996468,4.954681e-05,521.3849999996468,4.061015e-05,521.3849999996468,8.853152e-06,521.3849999996468,2.084915e-05
521.3999999996468,4.865631e-05,521.3999999996468,4.014405e-05,521.3999999996468,8.869049e-06,521.3999999996468,2.051953e-05
521.4149999996467,5.183961e-05,521.4149999996467,4.067878e-05,521.4149999996467,8.753946e-06,521.4149999996467,2.041698e-05
521.4299999996467,5.307833e-05,521.4299999996467,4.078806e-05,521.4299999996467,8.716856e-06,521.4299999996467,2.192152e-05
521.4449999996467,5.26196e-05,521.4449999996467,4.255466e-05,521.4449999996467,8.609537e-06,521.4449999996467,2.237815e-05
521.4599999996467,5.346492e-05,521.4599999996467,4.294186e-05,521.4599999996467,8.771629e-06,521.4599999996467,2.170194e-05
521.4749999996467,5.29686e-05,521.4749999996467,4.291331e-05,521.4749999996467,8.943388e-06,521.4749999996467,2.184427e-05
521.4899999996467,5.373509e-05,521.4899999996467,4.329046e-05,521.4899999996467,8.952834e-06,521.4899999996467,2.295242e-05
521.5049999996467,5.238026e-05,521.5049999996467,4.076733e-05,521.5049999996467,9.017113e-06,521.5049999996467,2.301555e-05
521.5199999996466,5.273058e-05,521.5199999996466,3.949917e-05,521.5199999996466,8.889673e-06,521.5199999996466,1.96276e-05
521.5349999996466,5.200781e-05,521.5349999996466,4.034671e-05,521.5349999996466,9.097987e-06,521.5349999996466,2.026323e-05
521.5499999996466,5.111692e-05,521.5499999996466,4.033274e-05,521.5499999996466,9.062304e-06,521.5499999996466,2.144204e-05
521.5649999996466,5.119897e-05,521.5649999996466,4.082223e-05,521.5649999996466,9.172005e-06,521.5649999996466,2.59722e-05
521.5799999996466,5.063319e-05,521.5799999996466,3.999534e-05,521.5799999996466,9.105725e-06,521.5799999996466,2.642546e-05
521.5949999996466,5.000274e-05,521.5949999996466,3.926596e-05,521.5949999996466,9.205732e-06,521.5949999996466,2.620975e-05
521.6099999996466,4.963913e-05,521.6099999996466,3.85816e-05,521.6099999996466,9.155096e-06,521.6099999996466,2.671757e-05
521.6249999996465,4.868727e-05,521.6249999996465,3.996927e-05,521.6249999996465,8.637307e-06,521.6249999996465,2.702477e-05
521.6399999996465,4.928541e-05,521.6399999996465,3.557493e-05,521.6399999996465,8.76681e-06,521.6399999996465,2.670597e-05
521.6549999996465,4.878324e-05,521.6549999996465,3.738331e-05,521.6549999996465,8.528988e-06,521.6549999996465,2.732697e-05
521.6699999996465,4.811246e-05,521.6699999996465,4.141627e-05,521.6699999996465,8.70068e-06,521.6699999996465,2.622426e-05
521.6849999996465,4.925996e-05,521.6849999996465,4.002738e-05,521.6849999996465,8.795684e-06,521.6849999996465,2.580515e-05
521.6999999996465,4.690147e-05,521.6999999996465,3.920205e-05,521.6999999996465,9.25609e-06,521.6999999996465,2.534079e-05
521.7149999996465,4.623386e-05,521.7149999996465,3.926094e-05,521.7149999996465,9.227129e-06,521.7149999996465,2.641267e-05
521.7299999996465,4.688916e-05,521.7299999996465,3.996821e-05,521.7299999996465,9.165859e-06,521.7299999996465,2.641693e-05
521.7449999996464,4.49861e-05,521.7449999996464,4.178401e-05,521.7449999996464,9.334893e-06,521.7449999996464,2.58297e-05
521.7599999996464,4.345156e-05,521.7599999996464,5.200402e-05,521.7599999996464,9.31979e-06,521.7599999996464,2.557154e-05
521.7749999996464,4.341037e-05,521.7749999996464,5.243912e-05,521.7749999996464,9.286478e-06,521.7749999996464,2.655362e-05
521.7899999996464,4.350502e-05,521.7899999996464,5.295238e-05,521.7899999996464,8.848378e-06,521.7899999996464,2.529683e-05
521.8049999996464,4.308301e-05,521.8049999996464,5.394023e-05,521.8049999996464,8.91973e-06,521.8049999996464,2.547938e-05
521.8199999996464,4.286832e-05,521.8199999996464,5.381263e-05,521.8199999996464,9.017113e-06,521.8199999996464,2.172854e-05
521.8349999996464,4.382055e-05,521.8349999996464,5.574794e-05,521.8349999996464,9.062304e-06,521.8349999996464,2.110967e-05
521.8499999996463,4.363983e-05,521.8499999996463,5.579037e-05,521.8499999996463,8.900759e-06,521.8499999996463,2.060311e-05
521.8649999996463,4.217828e-05,521.8649999996463,5.448305e-05,521.8649999996463,8.835633e-06,521.8649999996463,2.107962e-05
521.8799999996463,4.256724e-05,521.8799999996463,5.194954e-05,521.8799999996463,8.708772e-06,521.8799999996463,2.135383e-05
521.8949999996463,4.21913e-05,521.8949999996463,5.151741e-05,521.8949999996463,8.333508e-06,521.8949999996463,2.302718e-05
521.9099999996463,4.156904e-05,521.9099999996463,4.918412e-05,521.9099999996463,8.42262e-06,521.9099999996463,2.374637e-05
521.9249999996463,3.729541e-05,521.9249999996463,4.822709e-05,521.9249999996463,8.348708e-06,521.9249999996463,2.403939e-05
521.9399999996463,3.585576e-05,521.9399999996463,4.856531e-05,521.9399999996463,8.243432e-06,521.9399999996463,2.400362e-05
521.9549999996462,3.801924e-05,521.9549999996462,4.834175e-05,521.9549999996462,7.262268e-06,521.9549999996462,2.375526e-05
521.9699999996462,3.807071e-05,521.9699999996462,4.804624e-05,521.9699999996462,7.27196e-06,521.9699999996462,2.388183e-05
521.9849999996462,3.855822e-05,521.9849999996462,4.824344e-05,521.9849999996462,7.69548e-06,521.9849999996462,2.509725e-05
521.9999999996462,3.922756e-05,521.9999999996462,4.2434e-05,521.9999999996462,7.588568e-06,521.9999999996462,2.538966e-05
522.0149999996462,3.982239e-05,522.0149999996462,4.082775e-05,522.0149999996462,7.768356e-06,522.0149999996462,2.570561e-05
522.0299999996462,3.922971e-05,522.0299999996462,4.239481e-05,522.0299999996462,7.675319e-06,522.0299999996462,2.37345e-05
522.0449999996462,3.843198e-05,522.0449999996462,4.082568e-05,522.0449999996462,7.634834e-06,522.0449999996462,2.448931e-05
522.0599999996462,3.887477e-05,522.0599999996462,3.927349e-05,522.0599999996462,7.542018e-06,522.0599999996462,2.390128e-05
522.0749999996461,3.838283e-05,522.0749999996461,3.676014e-05,522.0749999996461,7.001547e-06,522.0749999996461,2.379437e-05
522.0899999996461,3.684396e-05,522.0899999996461,3.470666e-05,522.0899999996461,7.029658e-06,522.0899999996461,2.39672e-05
522.1049999996461,3.73539e-05,522.1049999996461,3.519755e-05,522.1049999996461,7.12124e-06,522.1049999996461,2.653505e-05
522.1199999996461,3.728105e-05,522.1199999996461,5.093969e-05,522.1199999996461,7.500814e-06,522.1199999996461,2.601988e-05
522.1349999996461,4.031947e-05,522.1349999996461,5.615128e-05,522.1349999996461,7.48201e-06,522.1349999996461,2.614033e-05
522.1499999996461,3.966786e-05,522.1499999996461,5.635162e-05,522.1499999996461,7.354785e-06,522.1499999996461,2.488984e-05
522.164999999646,3.88211e-05,522.164999999646,5.536939e-05,522.164999999646,7.295169e-06,522.164999999646,2.55175e-05
522.179999999646,3.94485e-05,522.179999999646,5.560245e-05,522.179999999646,7.22142e-06,522.179999999646,2.54257e-05
522.194999999646,3.996857e-05,522.194999999646,5.623325e-05,522.194999999646,7.402513e-06,522.194999999646,2.519528e-05
522.209999999646,3.786517e-05,522.209999999646,5.814396e-05,522.209999999646,7.449935e-06,522.209999999646,2.537579e-05
522.224999999646,3.645923e-05,522.224999999646,5.838307e-05,522.224999999646,7.459384e-06,522.224999999646,2.3296e-05
522.239999999646,3.939847e-05,522.239999999646,5.828019e-05,522.239999999646,6.944984e-06,522.239999999646,2.282379e-05
522.254999999646,3.91438e-05,522.254999999646,5.409904e-05,522.254999999646,6.96726e-06,522.254999999646,2.5648e-05
522.269999999646,3.921822e-05,522.269999999646,5.333672e-05,522.269999999646,6.848989e-06,522.269999999646,2.562932e-05
522.284999999646,3.881602e-05,522.284999999646,5.236116e-05,522.284999999646,7.027653e-06,522.284999999646,2.5693e-05
522.2999999996459,3.957756e-05,522.2999999996459,5.273566e-05,522.2999999996459,6.983416e-06,522.2999999996459,2.564361e-05
522.3149999996459,3.921714e-05,522.3149999996459,5.339453e-05,522.3149999996459,7.140994e-06,522.3149999996459,2.612416e-05
522.3299999996459,4.148458e-05,522.3299999996459,5.341537e-05,522.3299999996459,7.125195e-06,522.3299999996459,2.676814e-05
522.3449999996459,4.200794e-05,522.3449999996459,5.400913e-05,522.3449999996459,6.97938e-06,522.3449999996459,2.698878e-05
522.3599999996459,4.219264e-05,522.3599999996459,5.103859e-05,522.3599999996459,7.003558e-06,522.3599999996459,2.493508e-05
522.3749999996459,4.080221e-05,522.3749999996459,3.278178e-05,522.3749999996459,6.857212e-06,522.3749999996459,2.666744e-05
522.3899999996459,4.084362e-05,522.3899999996459,3.148057e-05,522.3899999996459,7.213613e-06,522.3899999996459,2.618233e-05
522.4049999996458,4.123322e-05,522.4049999996458,3.482255e-05,522.4049999996458,7.260328e-06,522.4049999996458,2.719365e-05
522.4199999996458,4.374687e-05,522.4199999996458,3.555037e-05,522.4199999996458,7.194059e-06,522.4199999996458,2.731924e-05
522.4349999996458,4.301036e-05,522.4349999996458,3.484479e-05,522.4349999996458,7.043671e-06,522.4349999996458,2.815968e-05
522.4499999996458,4.319534e-05,522.4499999996458,3.277232e-05,522.4499999996458,7.033664e-06,522.4499999996458,2.900394e-05
522.4649999996458,4.394542e-05,522.4649999996458,3.41733e-05,522.4649999996458,6.859265e-06,522.4649999996458,2.930304e-05
522.4799999996458,4.416285e-05,522.4799999996458,3.456717e-05,522.4799999996458,6.766219e-06,522.4799999996458,2.999762e-05
522.4949999996458,4.193209e-05,522.4949999996458,3.438452e-05,522.4949999996458,6.707672e-06,522.4949999996458,3.025945e-05
522.5099999996457,4.467786e-05,522.5099999996457,3.446186e-05,522.5099999996457,6.599699e-06,522.5099999996457,2.782098e-05
522.5249999996457,4.478808e-05,522.5249999996457,3.44684e-05,522.5249999996457,6.548272e-06,522.5249999996457,2.850622e-05
522.5399999996457,4.489551e-05,522.5399999996457,3.566865e-05,522.5399999996457,6.360578e-06,522.5399999996457,2.968085e-05
522.5549999996457,4.458665e-05,522.5549999996457,3.59366e-05,522.5549999996457,6.271365e-06,522.5549999996457,2.998541e-05
522.5699999996457,4.472198e-05,522.5699999996457,3.535728e-05,522.5699999996457,6.676097e-06,522.5699999996457,2.963573e-05
522.5849999996457,4.596373e-05,522.5849999996457,3.519475e-05,522.5849999996457,6.541815e-06,522.5849999996457,3.049733e-05
522.5999999996457,4.720116e-05,522.5999999996457,3.562242e-05,522.5999999996457,6.818068e-06,522.5999999996457,3.033106e-05
522.6149999996456,4.704752e-05,522.6149999996456,3.738293e-05,522.6149999996456,6.875675e-06,522.6149999996456,3.010918e-05
522.6299999996456,4.636803e-05,522.6299999996456,4.25391e-05,522.6299999996456,6.732826e-06,522.6299999996456,2.95972e-05
522.6449999996456,4.718624e-05,522.6449999996456,4.154464e-05,522.6449999996456,6.697164e-06,522.6449999996456,3.09353e-05
522.6599999996456,4.586709e-05,522.6599999996456,4.056434e-05,522.6599999996456,6.80773e-06,522.6599999996456,3.06696e-05
522.6749999996456,4.579148e-05,522.6749999996456,4.019175e-05,522.6749999996456,7.304818e-06,522.6749999996456,3.033895e-05
522.6899999996456,4.640204e-05,522.6899999996456,4.053238e-05,522.6899999996456,7.434793e-06,522.6899999996456,3.135278e-05
522.7049999996456,4.634524e-05,522.7049999996456,3.923079e-05,522.7049999996456,7.396802e-06,522.7049999996456,3.234225e-05
522.7199999996456,4.546453e-05,522.7199999996456,3.779255e-05,522.7199999996456,7.404416e-06,522.7199999996456,3.229299e-05
522.7349999996455,4.527327e-05,522.7349999996455,3.910923e-05,522.7349999996455,7.489538e-06,522.7349999996455,3.255237e-05
522.7499999996455,4.52085e-05,522.7499999996455,4.258081e-05,522.7499999996455,7.817162e-06,522.7499999996455,3.332093e-05
522.7649999996455,4.332202e-05,522.7649999996455,4.286273e-05,522.7649999996455,8.217759e-06,522.7649999996455,3.375439e-05
522.7799999996455,4.389731e-05,522.7799999996455,4.250763e-05,522.7799999996455,8.145445e-06,522.7799999996455,3.341591e-05
522.7949999996455,4.410253e-05,522.7949999996455,4.473867e-05,522.7949999996455,8.372296e-06,522.7949999996455,3.310122e-05
522.8099999996455,4.431093e-05,522.8099999996455,4.417402e-05,522.8099999996455,8.656856e-06,522.8099999996455,3.328074e-05
522.8249999996455,4.300807e-05,522.8249999996455,4.433e-05,522.8249999996455,8.620983e-06,522.8249999996455,3.418031e-05
522.8399999996454,4.145774e-05,522.8399999996454,4.526642e-05,522.8399999996454,8.91025e-06,522.8399999996454,3.549406e-05
522.8549999996454,4.060148e-05,522.8549999996454,4.509775e-05,522.8549999996454,8.92131e-06,522.8549999996454,3.695658e-05
522.8699999996454,3.954301e-05,522.8699999996454,4.268192e-05,522.8699999996454,8.591521e-06,522.8699999996454,3.665652e-05
522.8849999996454,3.976256e-05,522.8849999996454,3.81088e-05,522.8849999996454,8.384065e-06,522.8849999996454,3.689287e-05
522.8999999996454,3.915243e-05,522.8999999996454,3.781826e-05,522.8999999996454,8.456004e-06,522.8999999996454,3.55777e-05
522.9149999996454,3.808292e-05,522.9149999996454,3.644687e-05,522.9149999996454,8.45767e-06,522.9149999996454,3.556345e-05
522.9299999996454,3.678388e-05,522.9299999996454,3.660384e-05,522.9299999996454,8.055015e-06,522.9299999996454,3.662384e-05
522.9449999996453,3.716032e-05,522.9449999996453,3.941599e-05,522.9449999996453,8.301328e-06,522.9449999996453,3.366078e-05
522.9599999996453,3.92839e-05,522.9599999996453,3.940777e-05,522.9599999996453,8.792481e-06,522.9599999996453,3.347236e-05
522.9749999996453,4.210675e-05,522.9749999996453,3.913588e-05,522.9749999996453,8.979542e-06,522.9749999996453,3.275125e-05
522.9899999996453,4.146182e-05,522.9899999996453,3.683058e-05,522.9899999996453,8.798887e-06,522.9899999996453,3.124116e-05
523.0049999996453,4.130217e-05,523.0049999996453,3.339567e-05,523.0049999996453,8.679607e-06,523.0049999996453,3.17275e-05
523.0199999996453,4.065383e-05,523.0199999996453,3.332346e-05,523.0199999996453,8.265616e-06,523.0199999996453,3.171507e-05
523.0349999996453,4.006045e-05,523.0349999996453,3.145774e-05,523.0349999996453,8.209184e-06,523.0349999996453,3.16804e-05
523.0499999996453,4.155921e-05,523.0499999996453,3.152573e-05,523.0499999996453,7.997096e-06,523.0499999996453,3.097762e-05
523.0649999996452,4.302314e-05,523.0649999996452,3.618076e-05,523.0649999996452,7.944076e-06,523.0649999996452,3.219557e-05
523.0799999996452,4.468259e-05,523.0799999996452,3.533814e-05,523.0799999996452,7.753835e-06,523.0799999996452,3.203151e-05
523.0949999996452,4.328591e-05,523.0949999996452,3.591033e-05,523.0949999996452,7.83696e-06,523.0949999996452,3.074162e-05
523.1099999996452,4.585573e-05,523.1099999996452,3.579048e-05,523.1099999996452,7.931653e-06,523.1099999996452,2.869927e-05
523.1249999996452,4.738197e-05,523.1249999996452,3.62045e-05,523.1249999996452,8.243432e-06,523.1249999996452,2.906846e-05
523.1399999996452,4.850582e-05,523.1399999996452,3.651946e-05,523.1399999996452,8.848378e-06,523.1399999996452,2.836503e-05
523.1549999996452,4.84288e-05,523.1549999996452,3.61975e-05,523.1549999996452,8.92131e-06,523.1549999996452,2.944642e-05
523.1699999996451,5.01122e-05,523.1699999996451,3.707227e-05,523.1699999996451,8.824465e-06,523.1699999996451,2.896652e-05
523.1849999996451,5.117173e-05,523.1849999996451,3.43107e-05,523.1849999996451,1.057983e-05,523.1849999996451,2.894122e-05
523.1999999996451,5.152179e-05,523.1999999996451,3.233266e-05,523.1999999996451,1.092568e-05,523.1999999996451,2.87914e-05
523.2149999996451,4.889947e-05,523.2149999996451,3.19205e-05,523.2149999996451,1.115787e-05,523.2149999996451,2.930015e-05
523.2299999996451,5.063124e-05,523.2299999996451,3.157306e-05,523.2299999996451,1.20021e-05,523.2299999996451,2.980069e-05
523.2449999996451,4.942526e-05,523.2449999996451,3.155923e-05,523.2449999996451,1.202907e-05,523.2449999996451,2.993228e-05
523.2599999996451,4.969982e-05,523.2599999996451,3.356272e-05,523.2599999996451,1.201969e-05,523.2599999996451,2.914107e-05
523.274999999645,4.966154e-05,523.274999999645,3.572548e-05,523.274999999645,1.227023e-05,523.274999999645,2.857679e-05
523.289999999645,5.021274e-05,523.289999999645,3.531741e-05,523.289999999645,1.332473e-05,523.289999999645,3.050103e-05
523.304999999645,4.792853e-05,523.304999999645,3.020773e-05,523.304999999645,1.340904e-05,523.304999999645,3.085232e-05
523.319999999645,4.548188e-05,523.319999999645,4.015458e-05,523.319999999645,1.381574e-05,523.319999999645,3.072925e-05
523.334999999645,4.585788e-05,523.334999999645,4.472355e-05,523.334999999645,1.410034e-05,523.334999999645,2.997742e-05
523.349999999645,4.67607e-05,523.349999999645,4.47821e-05,523.349999999645,1.40523e-05,523.349999999645,2.892515e-05
523.364999999645,4.40034e-05,523.364999999645,4.445439e-05,523.364999999645,1.42879e-05,523.364999999645,2.859454e-05
523.379999999645,4.205721e-05,523.379999999645,4.430075e-05,523.379999999645,1.504102e-05,523.379999999645,2.944451e-05
523.3949999996449,4.108536e-05,523.3949999996449,4.471977e-05,523.3949999996449,1.476406e-05,523.3949999996449,2.938704e-05
523.4099999996449,4.159343e-05,523.4099999996449,4.555523e-05,523.4099999996449,1.513252e-05,523.4099999996449,2.769411e-05
523.4249999996449,3.987859e-05,523.4249999996449,4.541555e-05,523.4249999996449,1.524104e-05,523.4249999996449,2.694281e-05
523.4399999996449,3.89667e-05,523.4399999996449,4.528042e-05,523.4399999996449,1.366709e-05,523.4399999996449,2.705447e-05
523.4549999996449,3.647237e-05,523.4549999996449,4.517796e-05,523.4549999996449,1.388794e-05,523.4549999996449,2.752983e-05
523.4699999996449,3.625738e-05,523.4699999996449,4.605069e-05,523.4699999996449,1.367637e-05,523.4699999996449,2.72919e-05
523.4849999996449,3.568958e-05,523.4849999996449,4.710557e-05,523.4849999996449,1.341534e-05,523.4849999996449,2.742114e-05
523.4999999996448,3.631445e-05,523.4999999996448,4.733081e-05,523.4999999996448,1.404628e-05,523.4999999996448,2.727279e-05
523.5149999996448,3.592993e-05,523.5149999996448,4.496637e-05,523.5149999996448,1.406132e-05,523.5149999996448,2.849188e-05
523.5299999996448,3.648087e-05,523.5299999996448,4.466556e-05,523.5299999996448,1.411431e-05,523.5299999996448,2.871792e-05
523.5449999996448,3.75097e-05,523.5449999996448,4.515176e-05,523.5449999996448,1.307825e-05,523.5449999996448,2.434566e-05
523.5599999996448,3.840338e-05,523.5599999996448,4.467124e-05,523.5599999996448,1.325053e-05,523.5599999996448,2.371194e-05
523.5749999996448,3.865856e-05,523.5749999996448,3.133166e-05,523.5749999996448,1.265231e-05,523.5749999996448,2.350129e-05
523.5899999996448,3.695848e-05,523.5899999996448,2.704457e-05,523.5899999996448,1.28654e-05,523.5899999996448,2.395897e-05
523.6049999996447,3.610242e-05,523.6049999996447,2.616188e-05,523.6049999996447,1.270232e-05,523.6049999996447,2.430571e-05
523.6199999996447,3.640549e-05,523.6199999996447,2.827052e-05,523.6199999996447,1.193383e-05,523.6199999996447,2.497741e-05
523.6349999996447,3.746386e-05,523.6349999996447,2.910334e-05,523.6349999996447,1.141498e-05,523.6349999996447,2.46687e-05
523.6499999996447,3.832113e-05,523.6499999996447,3.433532e-05,523.6499999996447,1.193383e-05,523.6499999996447,2.389952e-05
523.6649999996447,3.834391e-05,523.6649999996447,3.392507e-05,523.6649999996447,1.154871e-05,523.6649999996447,2.440057e-05
523.6799999996447,3.894826e-05,523.6799999996447,3.437756e-05,523.6799999996447,1.458551e-05,523.6799999996447,2.450426e-05
523.6949999996447,3.999217e-05,523.6949999996447,3.455983e-05,523.6949999996447,1.694695e-05,523.6949999996447,2.517739e-05
523.7099999996447,4.054176e-05,523.7099999996447,3.514508e-05,523.7099999996447,1.661962e-05,523.7099999996447,2.553516e-05
523.7249999996446,4.038335e-05,523.7249999996446,3.376816e-05,523.7249999996446,1.639347e-05,523.7249999996446,2.71122e-05
523.7399999996446,4.089153e-05,523.7399999996446,3.36909e-05,523.7399999996446,2.216627e-05,523.7399999996446,2.759423e-05
523.7549999996446,4.172598e-05,523.7549999996446,3.420585e-05,523.7549999996446,2.736612e-05,523.7549999996446,2.622748e-05
523.7699999996446,4.187056e-05,523.7699999996446,3.471113e-05,523.7699999996446,2.783971e-05,523.7699999996446,2.548933e-05
523.7849999996446,4.299268e-05,523.7849999996446,3.459894e-05,523.7849999996446,2.826254e-05,523.7849999996446,2.722057e-05
523.7999999996446,4.390373e-05,523.7999999996446,3.429879e-05,523.7999999996446,2.839481e-05,523.7999999996446,2.737847e-05
523.8149999996446,4.285681e-05,523.8149999996446,3.465061e-05,523.8149999996446,2.938752e-05,523.8149999996446,2.808555e-05
523.8299999996445,4.258312e-05,523.8299999996445,3.498841e-05,523.8299999996445,2.990827e-05,523.8299999996445,2.807351e-05
523.8449999996445,4.416796e-05,523.8449999996445,3.622628e-05,523.8449999996445,2.989413e-05,523.8449999996445,2.82999e-05
523.8599999996445,4.557377e-05,523.8599999996445,3.637917e-05,523.8599999996445,2.993981e-05,523.8599999996445,2.818468e-05
523.8749999996445,4.431125e-05,523.8749999996445,3.532539e-05,523.8749999996445,3.001171e-05,523.8749999996445,2.730583e-05
523.8899999996445,4.544067e-05,523.8899999996445,3.264269e-05,523.8899999996445,3.005861e-05,523.8899999996445,2.695013e-05
523.9049999996445,4.543075e-05,523.9049999996445,2.771597e-05,523.9049999996445,2.980589e-05,523.9049999996445,2.77434e-05
523.9199999996445,4.321458e-05,523.9199999996445,2.680653e-05,523.9199999996445,2.979738e-05,523.9199999996445,3.003564e-05
523.9349999996444,4.314574e-05,523.9349999996444,2.685273e-05,523.9349999996444,2.705707e-05,523.9349999996444,3.051811e-05
523.9499999996444,4.435541e-05,523.9499999996444,2.71309e-05,523.9499999996444,2.676972e-05,523.9499999996444,3.003751e-05
523.9649999996444,4.455125e-05,523.9649999996444,2.71895e-05,523.9649999996444,2.674339e-05,523.9649999996444,2.808304e-05
523.9799999996444,4.481198e-05,523.9799999996444,2.606153e-05,523.9799999996444,2.594669e-05,523.9799999996444,2.745708e-05
523.9949999996444,4.52085e-05,523.9949999996444,2.608639e-05,523.9949999996444,1.918628e-05,523.9949999996444,2.726814e-05
524.0099999996444,4.516268e-05,524.0099999996444,2.56469e-05,524.0099999996444,1.382491e-05,524.0099999996444,2.798808e-05
524.0249999996444,4.550944e-05,524.0249999996444,2.545062e-05,524.0249999996444,1.29983e-05,524.0249999996444,2.729757e-05
524.0399999996444,4.281571e-05,524.0399999996444,2.550204e-05,524.0399999996444,1.318338e-05,524.0399999996444,2.584933e-05
524.0549999996443,4.283248e-05,524.0549999996443,2.548712e-05,524.0549999996443,1.323563e-05,524.0549999996443,2.580296e-05
524.0699999996443,4.419442e-05,524.0699999996443,2.867865e-05,524.0699999996443,1.098996e-05,524.0699999996443,2.586131e-05
524.0849999996443,4.841542e-05,524.0849999996443,3.169508e-05,524.0849999996443,1.183307e-05,524.0849999996443,2.679864e-05
524.0999999996443,4.723249e-05,524.0999999996443,3.001875e-05,524.0999999996443,1.199153e-05,524.0999999996443,2.655097e-05
524.1149999996443,4.717788e-05,524.1149999996443,3.039786e-05,524.1149999996443,1.186873e-05,524.1149999996443,2.689938e-05
524.1299999996443,4.899962e-05,524.1299999996443,3.052042e-05,524.1299999996443,1.244803e-05,524.1299999996443,2.626184e-05
524.1449999996443,4.864096e-05,524.1449999996443,3.025247e-05,524.1449999996443,1.482024e-05,524.1449999996443,2.586077e-05
524.1599999996442,5.393213e-05,524.1599999996442,3.061535e-05,524.1599999996442,1.672102e-05,524.1599999996442,2.336061e-05
524.1749999996442,5.419452e-05,524.1749999996442,3.159269e-05,524.1749999996442,1.681008e-05,524.1749999996442,2.627095e-05
524.1899999996442,5.5569e-05,524.1899999996442,3.208512e-05,524.1899999996442,1.742644e-05,524.1899999996442,2.659656e-05
524.2049999996442,5.365692e-05,524.2049999996442,3.296604e-05,524.2049999996442,1.75577e-05,524.2049999996442,2.59304e-05
524.2199999996442,5.870718e-05,524.2199999996442,3.262974e-05,524.2199999996442,1.875711e-05,524.2199999996442,2.566338e-05
524.2349999996442,5.959357e-05,524.2349999996442,3.466889e-05,524.2349999996442,1.900925e-05,524.2349999996442,2.619309e-05
524.2499999996442,6.213324e-05,524.2499999996442,3.601726e-05,524.2499999996442,1.936169e-05,524.2499999996442,2.75927e-05
524.2649999996441,6.37752e-05,524.2649999996441,4.150291e-05,524.2649999996441,1.95924e-05,524.2649999996441,2.855954e-05
524.2799999996441,6.446351e-05,524.2799999996441,4.230933e-05,524.2799999996441,1.953768e-05,524.2799999996441,2.908736e-05
524.2949999996441,7.511474e-05,524.2949999996441,4.240843e-05,524.2949999996441,2.025976e-05,524.2949999996441,2.932946e-05
524.3099999996441,7.54704e-05,524.3099999996441,4.35555e-05,524.3099999996441,2.038176e-05,524.3099999996441,2.912124e-05
524.3249999996441,7.752182e-05,524.3249999996441,4.12991e-05,524.3249999996441,2.109899e-05,524.3249999996441,2.90321e-05
524.3399999996441,7.662331e-05,524.3399999996441,4.083707e-05,524.3399999996441,2.04018e-05,524.3399999996441,2.779616e-05
524.3549999996441,7.738542e-05,524.3549999996441,4.210976e-05,524.3549999996441,2.043905e-05,524.3549999996441,2.748477e-05
524.369999999644,7.90675e-05,524.369999999644,4.274096e-05,524.369999999644,2.1109e-05,524.369999999644,2.808454e-05
524.384999999644,8.224664e-05,524.384999999644,4.396913e-05,524.384999999644,2.105889e-05,524.384999999644,2.901754e-05
524.399999999644,8.286654e-05,524.399999999644,5.011136e-05,524.399999999644,1.856082e-05,524.399999999644,2.868602e-05
524.414999999644,9.011722e-05,524.414999999644,5.024191e-05,524.414999999644,2.136042e-05,524.414999999644,2.687423e-05
524.429999999644,9.041358e-05,524.429999999644,5.044672e-05,524.429999999644,2.142035e-05,524.429999999644,2.469153e-05
524.444999999644,9.242109e-05,524.444999999644,5.031755e-05,524.444999999644,2.123077e-05,524.444999999644,2.385822e-05
524.459999999644,9.220242e-05,524.459999999644,4.982692e-05,524.459999999644,2.086873e-05,524.459999999644,2.368757e-05
524.474999999644,9.118448e-05,524.474999999644,5.008268e-05,524.474999999644,2.056958e-05,524.474999999644,2.596243e-05
524.4899999996439,9.116578e-05,524.4899999996439,4.990714e-05,524.4899999996439,2.067409e-05,524.4899999996439,2.54639e-05
524.5049999996439,9.117181e-05,524.5049999996439,4.939447e-05,524.5049999996439,2.067546e-05,524.5049999996439,2.297328e-05
524.5199999996439,9.609145e-05,524.5199999996439,4.87662e-05,524.5199999996439,2.103011e-05,524.5199999996439,2.23517e-05
524.5349999996439,9.686603e-05,524.5349999996439,5.284053e-05,524.5349999996439,2.735119e-05,524.5349999996439,2.170713e-05
524.5499999996439,9.235736e-05,524.5499999996439,5.288237e-05,524.5499999996439,2.759729e-05,524.5499999996439,2.10736e-05
524.5649999996439,9.187029e-05,524.5649999996439,5.210766e-05,524.5649999996439,2.80474e-05,524.5649999996439,1.993523e-05
524.5799999996439,9.237459e-05,524.5799999996439,5.097009e-05,524.5799999996439,3.304158e-05,524.5799999996439,2.365365e-05
524.5949999996438,0.0001017604,524.5949999996438,5.303877e-05,524.5949999996438,4.172835e-05,524.5949999996438,2.365305e-05
524.6099999996438,0.0001035494,524.6099999996438,5.2832e-05,524.6099999996438,4.311602e-05,524.6099999996438,2.199466e-05
524.6249999996438,0.0001037636,524.6249999996438,5.14071e-05,524.6249999996438,4.328851e-05,524.6249999996438,2.243662e-05
524.6399999996438,0.0001013127,524.6399999996438,5.128721e-05,524.6399999996438,4.358719e-05,524.6399999996438,2.191317e-05
524.6549999996438,9.821146e-05,524.6549999996438,4.490963e-05,524.6549999996438,4.355324e-05,524.6549999996438,2.180232e-05
524.6699999996438,9.425389e-05,524.6699999996438,4.732188e-05,524.6699999996438,4.224169e-05,524.6699999996438,2.167206e-05
524.6849999996438,9.216345e-05,524.6849999996438,4.794675e-05,524.6849999996438,4.375331e-05,524.6849999996438,2.148864e-05
524.6999999996438,9.294681e-05,524.6999999996438,4.785352e-05,524.6999999996438,4.507744e-05,524.6999999996438,2.156781e-05
524.7149999996437,9.215198e-05,524.7149999996437,4.865023e-05,524.7149999996437,4.644725e-05,524.7149999996437,2.080451e-05
524.7299999996437,9.430917e-05,524.7299999996437,4.77843e-05,524.7299999996437,4.707057e-05,524.7299999996437,1.835706e-05
524.7449999996437,9.955512e-05,524.7449999996437,4.582623e-05,524.7449999996437,4.750371e-05,524.7449999996437,1.817118e-05
524.7599999996437,9.980074e-05,524.7599999996437,4.474938e-05,524.7599999996437,4.820956e-05,524.7599999996437,1.725177e-05
524.7749999996437,9.648062e-05,524.7749999996437,3.81738e-05,524.7749999996437,4.804272e-05,524.7749999996437,1.728195e-05
524.7899999996437,9.47177e-05,524.7899999996437,3.880477e-05,524.7899999996437,4.47994e-05,524.7899999996437,1.709098e-05
524.8049999996437,0.0001000521,524.8049999996437,3.975512e-05,524.8049999996437,4.555306e-05,524.8049999996437,1.775794e-05
524.8199999996436,9.972081e-05,524.8199999996436,4.357264e-05,524.8199999996436,4.511992e-05,524.8199999996436,1.767605e-05
524.8349999996436,9.251295e-05,524.8349999996436,4.480286e-05,524.8349999996436,3.988318e-05,524.8349999996436,1.322073e-05
524.8499999996436,8.978412e-05,524.8499999996436,4.363628e-05,524.8499999996436,3.699772e-05,524.8499999996436,1.333425e-05
524.8649999996436,9.171068e-05,524.8649999996436,4.519292e-05,524.8649999996436,3.628728e-05,524.8649999996436,1.341114e-05
524.8799999996436,9.708624e-05,524.8799999996436,4.505931e-05,524.8799999996436,3.830347e-05,524.8799999996436,1.192793e-05
524.8949999996436,9.789525e-05,524.8949999996436,4.497232e-05,524.8949999996436,3.89309e-05,524.8949999996436,1.189718e-05
524.9099999996436,9.85225e-05,524.9099999996436,6.192477e-05,524.9099999996436,4.262115e-05,524.9099999996436,1.187941e-05
524.9249999996435,0.0001027687,524.9249999996435,6.587179e-05,524.9249999996435,4.605619e-05,524.9249999996435,1.17734e-05
524.9399999996435,0.0001025812,524.9399999996435,6.556162e-05,524.9399999996435,4.559973e-05,524.9399999996435,1.22507e-05
524.9549999996435,0.0001029928,524.9549999996435,6.703092e-05,524.9549999996435,4.927598e-05,524.9549999996435,1.303077e-05
524.9699999996435,0.0001035483,524.9699999996435,8.020595e-05,524.9699999996435,4.783703e-05,524.9699999996435,1.428396e-05
524.9849999996435,0.0001052516,524.9849999996435,0.0001122642,524.9849999996435,5.040371e-05,524.9849999996435,1.41492e-05
524.9999999996435,0.0001032647,524.9999999996435,0.0001288726,524.9999999996435,6.27718e-05,524.9999999996435,1.979696e-05
525.0149999996435,0.0001391959,525.0149999996435,0.000140701,525.0149999996435,6.904829e-05,525.0149999996435,2.076113e-05
525.0299999996435,0.0001516561,525.0299999996435,0.0001830958,525.0299999996435,7.352391e-05,525.0299999996435,2.23435e-05
525.0449999996434,0.0001511772,525.0449999996434,0.0001996375,525.0449999996434,7.349881e-05,525.0449999996434,2.28423e-05
525.0599999996434,0.0001514714,525.0599999996434,0.0002025805,525.0599999996434,7.325769e-05,525.0599999996434,2.310474e-05
525.0749999996434,0.0001518279,525.0749999996434,0.0002059716,525.0749999996434,7.348807e-05,525.0749999996434,2.511128e-05
525.0899999996434,0.0001522641,525.0899999996434,0.0002065731,525.0899999996434,9.233676e-05,525.0899999996434,2.48921e-05
525.1049999996434,0.0001565916,525.1049999996434,0.0002100554,525.1049999996434,9.661383e-05,525.1049999996434,2.529349e-05
525.1199999996434,0.0001682942,525.1199999996434,0.0002222137,525.1199999996434,9.816426e-05,525.1199999996434,2.550314e-05
525.1349999996434,0.0001679996,525.1349999996434,0.0002321178,525.1349999996434,9.799004e-05,525.1349999996434,3.245486e-05
525.1499999996433,0.0001709469,525.1499999996433,0.0002318903,525.1499999996433,9.87637e-05,525.1499999996433,4.699779e-05
525.1649999996433,0.0001870407,525.1649999996433,0.0002278018,525.1649999996433,0.0001011368,525.1649999996433,5.03461e-05
525.1799999996433,0.0001860659,525.1799999996433,0.0002278661,525.1799999996433,0.0001016781,525.1799999996433,5.504662e-05
525.1949999996433,0.000193301,525.1949999996433,0.0002278169,525.1949999996433,0.0001011307,525.1949999996433,7.605719e-05
525.2099999996433,0.0001941298,525.2099999996433,0.0002264715,525.2099999996433,9.942868e-05,525.2099999996433,7.870161e-05
525.2249999996433,0.0001939708,525.2249999996433,0.0002222079,525.2249999996433,9.981188e-05,525.2249999996433,8.132447e-05
525.2399999996433,0.0001966857,525.2399999996433,0.0002033632,525.2399999996433,9.888144e-05,525.2399999996433,8.201613e-05
525.2549999996432,0.0001858256,525.2549999996432,0.0001980461,525.2549999996432,9.524613e-05,525.2549999996432,8.119498e-05
525.2699999996432,0.0001678874,525.2699999996432,0.0001889587,525.2699999996432,8.904019e-05,525.2699999996432,8.115402e-05
525.2849999996432,0.0001632611,525.2849999996432,0.0001392203,525.2849999996432,8.787577e-05,525.2849999996432,8.231615e-05
525.2999999996432,0.0001605087,525.2999999996432,0.0001323358,525.2999999996432,8.784098e-05,525.2999999996432,8.749567e-05
525.3149999996432,0.0001614209,525.3149999996432,0.000128061,525.3149999996432,8.756906e-05,525.3149999996432,8.728209e-05
525.3299999996432,0.0001608322,525.3299999996432,0.0001262472,525.3299999996432,8.681198e-05,525.3299999996432,8.733001e-05
525.3449999996432,0.0001601261,525.3449999996432,0.0001199596,525.3449999996432,6.354219e-05,525.3449999996432,8.750903e-05
525.3599999996432,0.0001442962,525.3599999996432,0.0001240142,525.3599999996432,5.74302e-05,525.3599999996432,8.769203e-05
525.3749999996431,0.0001423517,525.3749999996431,9.640539e-05,525.3749999996431,6.485522e-05,525.3749999996431,8.842708e-05
525.3899999996431,0.0001468046,525.3899999996431,8.153432e-05,525.3899999996431,6.684089e-05,525.3899999996431,8.323529e-05
525.4049999996431,0.000135242,525.4049999996431,8.07025e-05,525.4049999996431,6.13874e-05,525.4049999996431,8.366186e-05
525.4199999996431,0.0001218836,525.4199999996431,7.893038e-05,525.4199999996431,5.720016e-05,525.4199999996431,8.294181e-05
525.4349999996431,0.0001195982,525.4349999996431,7.915618e-05,525.4349999996431,5.529913e-05,525.4349999996431,7.304432e-05
525.4499999996431,0.0001104408,525.4499999996431,8.290563e-05,525.4499999996431,5.53788e-05,525.4499999996431,6.101915e-05
525.464999999643,0.0001118633,525.464999999643,8.433134e-05,525.464999999643,5.391986e-05,525.464999999643,5.470057e-05
525.479999999643,0.0001077961,525.479999999643,8.585845e-05,525.479999999643,5.038526e-05,525.479999999643,5.489106e-05
525.494999999643,0.0001027026,525.494999999643,8.147555e-05,525.494999999643,4.579609e-05,525.494999999643,5.482687e-05
525.509999999643,9.751203e-05,525.509999999643,8.454705e-05,525.509999999643,4.481889e-05,525.509999999643,5.568625e-05
525.524999999643,9.662942e-05,525.524999999643,8.068452e-05,525.524999999643,4.412807e-05,525.524999999643,5.574945e-05
525.539999999643,9.64774e-05,525.539999999643,7.895054e-05,525.539999999643,4.342108e-05,525.539999999643,4.746781e-05
525.554999999643,9.638041e-05,525.554999999643,7.954513e-05,525.554999999643,4.340518e-05,525.554999999643,4.451519e-05
525.569999999643,9.582369e-05,525.569999999643,7.857998e-05,525.569999999643,4.353286e-05,525.569999999643,4.482046e-05
525.584999999643,9.977858e-05,525.584999999643,7.939713e-05,525.584999999643,4.387741e-05,525.584999999643,4.793793e-05
525.5999999996429,9.69563e-05,525.5999999996429,7.742236e-05,525.5999999996429,4.362337e-05,525.5999999996429,4.961585e-05
525.6149999996429,9.597851e-05,525.6149999996429,6.568548e-05,525.6149999996429,3.276587e-05,525.6149999996429,5.211604e-05
525.6299999996429,9.715151e-05,525.6299999996429,6.530112e-05,525.6299999996429,5.198614e-05,525.6299999996429,5.205979e-05
525.6449999996429,9.255512e-05,525.6449999996429,9.941211e-05,525.6449999996429,4.832339e-05,525.6449999996429,4.825542e-05
525.6599999996429,0.0001014462,525.6599999996429,0.0001053066,525.6599999996429,5.161821e-05,525.6599999996429,4.630966e-05
525.6749999996429,0.0001025654,525.6749999996429,0.0001050512,525.6749999996429,5.25108e-05,525.6749999996429,4.508494e-05
525.6899999996429,0.000104047,525.6899999996429,0.0001046927,525.6899999996429,5.279359e-05,525.6899999996429,4.445914e-05
525.7049999996428,0.0001059677,525.7049999996428,0.0001016303,525.7049999996428,5.306957e-05,525.7049999996428,5.634737e-05
525.7199999996428,0.0001293213,525.7199999996428,0.0001009232,525.7199999996428,6.535331e-05,525.7199999996428,7.73439e-05
525.7349999996428,0.0001319924,525.7349999996428,0.0001018595,525.7349999996428,6.832433e-05,525.7349999996428,7.882001e-05
525.7499999996428,0.0001379702,525.7499999996428,0.000103645,525.7499999996428,8.207776e-05,525.7499999996428,7.751164e-05
525.7649999996428,0.0001426932,525.7649999996428,0.0001041649,525.7649999996428,8.421584e-05,525.7649999996428,8.988714e-05
525.7799999996428,0.0001437499,525.7799999996428,0.0001032546,525.7799999996428,8.495693e-05,525.7799999996428,0.0001029439
525.7949999996428,0.0001468831,525.7949999996428,0.0001040343,525.7949999996428,8.73571e-05,525.7949999996428,0.0001039931
525.8099999996427,0.0001686117,525.8099999996427,0.0001095334,525.8099999996427,0.0001011308,525.8099999996427,0.0001039418
525.8249999996427,0.0001719269,525.8249999996427,0.0001142247,525.8249999996427,0.0001024591,525.8249999996427,0.0001038227
525.8399999996427,0.0001763998,525.8399999996427,0.0001176475,525.8399999996427,0.0001052284,525.8399999996427,0.0001025255
525.8549999996427,0.0001928657,525.8549999996427,0.0001220025,525.8549999996427,0.00011679,525.8549999996427,0.0001022966
525.8699999996427,0.0002037746,525.8699999996427,0.0001241009,525.8699999996427,0.0001199345,525.8699999996427,0.0001004112
525.8849999996427,0.0002038869,525.8849999996427,0.0001184155,525.8849999996427,0.000113101,525.8849999996427,0.0001025013
525.8999999996427,0.0002070577,525.8999999996427,9.937086e-05,525.8999999996427,0.0001139665,525.8999999996427,0.0001047749
525.9149999996426,0.0002084023,525.9149999996426,0.0001035101,525.9149999996426,0.0001124492,525.9149999996426,0.0001095482
525.9299999996426,0.0002090298,525.9299999996426,0.0001051947,525.9299999996426,0.00011332,525.9299999996426,0.0001377769
525.9449999996426,0.0002093224,525.9449999996426,0.0001056015,525.9449999996426,0.0001172536,525.9449999996426,0.0001408846
525.9599999996426,0.0002072124,525.9599999996426,0.0001099774,525.9599999996426,0.0001319917,525.9599999996426,0.0001408882
525.9749999996426,0.0002012419,525.9749999996426,0.0001130963,525.9749999996426,0.0001316864,525.9749999996426,0.0001445265
525.9899999996426,0.0002011635,525.9899999996426,0.0001158841,525.9899999996426,0.0001289975,525.9899999996426,0.0001519334
526.0049999996426,0.0002032796,526.0049999996426,0.0001168798,526.0049999996426,0.0001266368,526.0049999996426,0.0001530317
526.0199999996426,0.0002104676,526.0199999996426,0.0001204589,526.0199999996426,0.0001281307,526.0199999996426,0.0001420423
526.0349999996425,0.0002106155,526.0349999996425,0.0001212526,526.0349999996425,0.0001307931,526.0349999996425,0.0001423144
526.0499999996425,0.0002085812,526.0499999996425,0.0001198392,526.0499999996425,0.0001272621,526.0499999996425,0.0001448329
526.0649999996425,0.00020126,526.0649999996425,0.0001172353,526.0649999996425,0.0001239046,526.0649999996425,0.0001523021
526.0799999996425,0.0001963588,526.0799999996425,0.0001120214,526.0799999996425,0.0001233546,526.0799999996425,0.0001634186
526.0949999996425,0.0001978838,526.0949999996425,0.0001063972,526.0949999996425,0.0001301509,526.0949999996425,0.0001637626
526.1099999996425,0.0001825834,526.1099999996425,0.000105212,526.1099999996425,0.0001251952,526.1099999996425,0.000166314
526.1249999996425,0.0001792084,526.1249999996425,0.0001058149,526.1249999996425,0.0001293498,526.1249999996425,0.0001759048
526.1399999996424,0.0001866598,526.1399999996424,0.0001037158,526.1399999996424,0.0001358034,526.1399999996424,0.000180432
526.1549999996424,0.0001857556,526.1549999996424,0.0001017212,526.1549999996424,0.0001497008,526.1549999996424,0.0001779852
526.1699999996424,0.0001832211,526.1699999996424,9.334063e-05,526.1699999996424,0.0001502571,526.1699999996424,0.0001768597
526.1849999996424,0.0001817985,526.1849999996424,9.496188e-05,526.1849999996424,0.0001500738,526.1849999996424,0.0001611674
526.1999999996424,0.0001791632,526.1999999996424,9.521965e-05,526.1999999996424,0.0001499537,526.1999999996424,0.0001576925
526.2149999996424,0.0001762317,526.2149999996424,8.502074e-05,526.2149999996424,0.0001354653,526.2149999996424,0.0001554103
526.2299999996424,0.000169591,526.2299999996424,8.830976e-05,526.2299999996424,0.0001331367,526.2299999996424,0.0001954802
526.2449999996423,0.000171188,526.2449999996423,0.0001062877,526.2449999996423,0.0001376383,526.2449999996423,0.0002590978
526.2599999996423,0.00016292,526.2599999996423,0.0001084946,526.2599999996423,0.0001452535,526.2599999996423,0.0002652421
526.2749999996423,0.0001753405,526.2749999996423,0.0001090051,526.2749999996423,0.0001432715,526.2749999996423,0.0002627811
526.2899999996423,0.0001902581,526.2899999996423,0.0001098731,526.2899999996423,0.0001426489,526.2899999996423,0.0002666027
526.3049999996423,0.0001898454,526.3049999996423,0.0001165407,526.3049999996423,0.0001394028,526.3049999996423,0.0002749161
526.3199999996423,0.0002024333,526.3199999996423,0.0001175841,526.3199999996423,0.0001384286,526.3199999996423,0.0002683929
526.3349999996423,0.0002256664,526.3349999996423,0.0001193219,526.3349999996423,0.000137223,526.3349999996423,0.0002682313
526.3499999996423,0.0002225948,526.3499999996423,0.0001199018,526.3499999996423,0.0001250079,526.3499999996423,0.000268385
526.3649999996422,0.000225827,526.3649999996422,0.0001163522,526.3649999996422,0.0001241459,526.3649999996422,0.0002695459
526.3799999996422,0.0002231768,526.3799999996422,0.0001160196,526.3799999996422,0.0001244404,526.3799999996422,0.0002757544
526.3949999996422,0.0002208851,526.3949999996422,0.0001158903,526.3949999996422,0.0001111096,526.3949999996422,0.0002763848
526.4099999996422,0.0002196498,526.4099999996422,0.0001143131,526.4099999996422,9.994686e-05,526.4099999996422,0.0002768275
526.4249999996422,0.0002232573,526.4249999996422,0.0001134743,526.4249999996422,0.0001029467,526.4249999996422,0.0002850535
526.4399999996422,0.0002254626,526.4399999996422,0.0001122283,526.4399999996422,0.0001113187,526.4399999996422,0.0003196197
526.4549999996422,0.0002270317,526.4549999996422,0.0001145538,526.4549999996422,0.0001089387,526.4549999996422,0.0003195988
526.4699999996421,0.000226773,526.4699999996421,0.0001203343,526.4699999996421,0.0001088248,526.4699999996421,0.0003137483
526.4849999996421,0.0002262783,526.4849999996421,0.0001180511,526.4849999996421,0.0001042977,526.4849999996421,0.0002466977
526.4999999996421,0.0002245785,526.4999999996421,9.302831e-05,526.4999999996421,0.0001072755,526.4999999996421,0.0002478926
526.5149999996421,0.0002177206,526.5149999996421,8.751064e-05,526.5149999996421,9.008361e-05,526.5149999996421,0.0002546173
526.5299999996421,0.0002037995,526.5299999996421,8.07648e-05,526.5299999996421,8.85164e-05,526.5299999996421,0.0002748946
526.5449999996421,0.0001918009,526.5449999996421,7.750983e-05,526.5449999996421,8.824737e-05,526.5449999996421,0.0003071857
526.5599999996421,0.000190196,526.5599999996421,8.203364e-05,526.5599999996421,9.062242e-05,526.5599999996421,0.0003080616
526.574999999642,0.000160512,526.574999999642,9.580472e-05,526.574999999642,9.158803e-05,526.574999999642,0.0003074728
526.589999999642,0.0001324679,526.589999999642,9.634561e-05,526.589999999642,9.251006e-05,526.589999999642,0.0003103389
526.604999999642,0.0001247899,526.604999999642,9.643139e-05,526.604999999642,9.189037e-05,526.604999999642,0.0003131439
526.619999999642,0.00011942,526.619999999642,0.000102882,526.619999999642,8.28917e-05,526.619999999642,0.0003042036
526.634999999642,0.000110877,526.634999999642,0.0001040653,526.634999999642,8.302024e-05,526.634999999642,0.0003163308
526.649999999642,0.0001090578,526.649999999642,0.0001084402,526.649999999642,8.808984e-05,526.649999999642,0.0003152003
526.664999999642,0.0001037018,526.664999999642,0.0001105376,526.664999999642,8.710761e-05,526.664999999642,0.0003124526
526.679999999642,9.458867e-05,526.679999999642,0.0001141957,526.679999999642,7.479864e-05,526.679999999642,0.0002976213
526.6949999996419,8.731033e-05,526.6949999996419,0.0001172367,526.6949999996419,6.877642e-05,526.6949999996419,0.0002665484
526.7099999996419,8.925319e-05,526.7099999996419,0.0001144132,526.7099999996419,6.789372e-05,526.7099999996419,0.000264976
526.7249999996419,9.062413e-05,526.7249999996419,0.000109368,526.7249999996419,6.795117e-05,526.7249999996419,0.0002710889
526.7399999996419,9.14977e-05,526.7399999996419,0.000108993,526.7399999996419,7.236931e-05,526.7399999996419,0.0002659456
526.7549999996419,8.637063e-05,526.7549999996419,0.0001090571,526.7549999996419,6.488671e-05,526.7549999996419,0.0002484894
526.7699999996419,7.910134e-05,526.7699999996419,0.0001113768,526.7699999996419,6.801437e-05,526.7699999996419,0.0002450906
526.7849999996419,7.844219e-05,526.7849999996419,0.0001119293,526.7849999996419,6.777577e-05,526.7849999996419,0.0002121078
526.7999999996418,7.867511e-05,526.7999999996418,0.0001102074,526.7999999996418,6.764429e-05,526.7999999996418,0.0001723654
526.8149999996418,7.781311e-05,526.8149999996418,9.997997e-05,526.8149999996418,6.536753e-05,526.8149999996418,0.0001700522
526.8299999996418,7.919283e-05,526.8299999996418,8.637568e-05,526.8299999996418,6.277562e-05,526.8299999996418,0.0001703953
526.8449999996418,7.947427e-05,526.8449999996418,8.631744e-05,526.8449999996418,6.07948e-05,526.8449999996418,0.0001629847
526.8599999996418,7.974871e-05,526.8599999996418,8.618466e-05,526.8599999996418,6.042479e-05,526.8599999996418,0.0001533842
526.8749999996418,7.732095e-05,526.8749999996418,7.813702e-05,526.8749999996418,5.915537e-05,526.8749999996418,0.0001404929
526.8899999996418,7.707918e-05,526.8899999996418,7.63011e-05,526.8899999996418,5.160866e-05,526.8899999996418,0.0001160966
526.9049999996417,7.405405e-05,526.9049999996417,6.987953e-05,526.9049999996417,4.629658e-05,526.9049999996417,0.0001148641
526.9199999996417,7.452903e-05,526.9199999996417,6.445979e-05,526.9199999996417,4.655963e-05,526.9199999996417,0.000114818
526.9349999996417,7.734973e-05,526.9349999996417,6.29128e-05,526.9349999996417,4.457654e-05,526.9349999996417,0.0001150935
526.9499999996417,7.412174e-05,526.9499999996417,5.538567e-05,526.9499999996417,4.547507e-05,526.9499999996417,0.000116008
526.9649999996417,7.079876e-05,526.9649999996417,5.044784e-05,526.9649999996417,4.547413e-05,526.9649999996417,0.0001129686
526.9799999996417,7.149058e-05,526.9799999996417,5.102866e-05,526.9799999996417,4.321425e-05,526.9799999996417,9.389526e-05
526.9949999996417,7.431344e-05,526.9949999996417,5.292976e-05,526.9949999996417,3.790309e-05,526.9949999996417,9.273727e-05
527.0099999996416,7.519702e-05,527.0099999996416,5.177598e-05,527.0099999996416,3.615856e-05,527.0099999996416,9.209618e-05
527.0249999996416,7.389657e-05,527.0249999996416,5.641882e-05,527.0249999996416,2.974864e-05,527.0249999996416,9.44262e-05
527.0399999996416,7.284115e-05,527.0399999996416,5.732857e-05,527.0399999996416,3.020867e-05,527.0399999996416,9.456142e-05
527.0549999996416,7.086081e-05,527.0549999996416,5.683748e-05,527.0549999996416,3.893958e-05,527.0549999996416,4.381637e-05
527.0699999996416,6.952383e-05,527.0699999996416,5.684516e-05,527.0699999996416,4.744704e-05,527.0699999996416,4.290084e-05
527.0849999996416,7.069184e-05,527.0849999996416,5.637486e-05,527.0849999996416,5.264395e-05,527.0849999996416,4.310851e-05
527.0999999996416,6.998951e-05,527.0999999996416,5.04174e-05,527.0999999996416,5.99036e-05,527.0999999996416,4.304376e-05
527.1149999996416,7.123594e-05,527.1149999996416,4.969245e-05,527.1149999996416,6.266399e-05,527.1149999996416,4.245192e-05
527.1299999996415,7.007259e-05,527.1299999996415,5.118494e-05,527.1299999996415,6.280276e-05,527.1299999996415,4.422851e-05
527.1449999996415,6.877396e-05,527.1449999996415,5.222216e-05,527.1449999996415,6.268467e-05,527.1449999996415,4.78061e-05
527.1599999996415,6.924e-05,527.1599999996415,5.389503e-05,527.1599999996415,6.265297e-05,527.1599999996415,4.847706e-05
527.1749999996415,6.619434e-05,527.1749999996415,5.346203e-05,527.1749999996415,6.323262e-05,527.1749999996415,4.965672e-05
527.1899999996415,6.494248e-05,527.1899999996415,6.042503e-05,527.1899999996415,6.257648e-05,527.1899999996415,4.698789e-05
527.2049999996415,6.97106e-05,527.2049999996415,6.080847e-05,527.2049999996415,6.203931e-05,527.2049999996415,4.60155e-05
527.2199999996415,6.865116e-05,527.2199999996415,6.13454e-05,527.2199999996415,6.20182e-05,527.2199999996415,4.281965e-05
527.2349999996414,6.02684e-05,527.2349999996414,5.945797e-05,527.2349999996414,6.087191e-05,527.2349999996414,4.484434e-05
527.2499999996414,5.911035e-05,527.2499999996414,6.292198e-05,527.2499999996414,6.085941e-05,527.2499999996414,4.794351e-05
527.2649999996414,5.908269e-05,527.2649999996414,5.825118e-05,527.2649999996414,6.094199e-05,527.2649999996414,4.749422e-05
527.2799999996414,5.884092e-05,527.2799999996414,6.03191e-05,527.2799999996414,6.098474e-05,527.2799999996414,4.326182e-05
527.2949999996414,6.023964e-05,527.2949999996414,8.254105e-05,527.2949999996414,6.087677e-05,527.2949999996414,4.185138e-05
527.3099999996414,6.255825e-05,527.3099999996414,8.467607e-05,527.3099999996414,4.608707e-05,527.3099999996414,4.112512e-05
527.3249999996414,6.101915e-05,527.3249999996414,8.455371e-05,527.3249999996414,4.304474e-05,527.3249999996414,3.978877e-05
527.3399999996413,6.052752e-05,527.3399999996413,8.500914e-05,527.3399999996413,3.677584e-05,527.3399999996413,3.941027e-05
527.3549999996413,5.86959e-05,527.3549999996413,8.792833e-05,527.3549999996413,2.482807e-05,527.3549999996413,4.615854e-05
527.3699999996413,5.70401e-05,527.3699999996413,8.892779e-05,527.3699999996413,2.581934e-05,527.3699999996413,5.158818e-05
527.3849999996413,5.900707e-05,527.3849999996413,8.814658e-05,527.3849999996413,2.735994e-05,527.3849999996413,5.143285e-05
527.3999999996413,6.790949e-05,527.3999999996413,8.811446e-05,527.3999999996413,4.747108e-05,527.3999999996413,4.875696e-05
527.4149999996413,7.617656e-05,527.4149999996413,8.888168e-05,527.4149999996413,4.763815e-05,527.4149999996413,0.0001046676
527.4299999996413,7.627119e-05,527.4299999996413,8.66772e-05,527.4299999996413,4.75991e-05,527.4299999996413,0.0001070204
527.4449999996413,7.456551e-05,527.4449999996413,8.49128e-05,527.4449999996413,4.811275e-05,527.4449999996413,0.0001084313
527.4599999996412,7.779989e-05,527.4599999996412,0.0001020271,527.4599999996412,4.983398e-05,527.4599999996412,0.0001085449
527.4749999996412,7.865989e-05,527.4749999996412,0.0001063291,527.4749999996412,4.999654e-05,527.4749999996412,0.0001083976
527.4899999996412,7.901136e-05,527.4899999996412,0.0001059312,527.4899999996412,5.026405e-05,527.4899999996412,0.000107754
527.5049999996412,8.069343e-05,527.5049999996412,0.0001068458,527.5049999996412,5.010321e-05,527.5049999996412,0.0001068149
527.5199999996412,8.228996e-05,527.5199999996412,0.0001156931,527.5199999996412,5.023041e-05,527.5199999996412,0.0001070099
527.5349999996412,8.478447e-05,527.5349999996412,0.0001124862,527.5349999996412,5.02733e-05,527.5349999996412,0.000109815
527.5499999996412,8.392479e-05,527.5499999996412,0.000133926,527.5499999996412,5.015183e-05,527.5499999996412,0.0001209228
527.5649999996411,8.344488e-05,527.5649999996411,0.0001579772,527.5649999996411,5.034274e-05,527.5649999996411,0.0001241387
527.5799999996411,8.421901e-05,527.5799999996411,0.0001593845,527.5799999996411,4.967714e-05,527.5799999996411,0.0001262426
527.5949999996411,8.454671e-05,527.5949999996411,0.0001591341,527.5949999996411,4.944863e-05,527.5949999996411,0.0001291928
527.6099999996411,8.547845e-05,527.6099999996411,0.0001579514,527.6099999996411,4.967232e-05,527.6099999996411,0.0001314643
527.6249999996411,8.724626e-05,527.6249999996411,0.0001580858,527.6249999996411,4.817741e-05,527.6249999996411,0.0001329593
527.6399999996411,8.466842e-05,527.6399999996411,0.0001601997,527.6399999996411,4.021347e-05,527.6399999996411,0.0001357659
527.6549999996411,7.70097e-05,527.6549999996411,0.0001610867,527.6549999996411,2.792509e-05,527.6549999996411,0.0001345477
527.669999999641,7.365828e-05,527.669999999641,0.0001650142,527.669999999641,2.737281e-05,527.669999999641,9.611344e-05
527.684999999641,7.446531e-05,527.684999999641,0.0001650226,527.684999999641,2.742268e-05,527.684999999641,9.544705e-05
527.699999999641,7.176355e-05,527.699999999641,0.0001639953,527.699999999641,2.637904e-05,527.699999999641,9.427376e-05
527.714999999641,7.013749e-05,527.714999999641,0.0001534261,527.714999999641,2.336664e-05,527.714999999641,9.431932e-05
527.729999999641,7.417418e-05,527.729999999641,0.0001524611,527.729999999641,2.362743e-05,527.729999999641,9.404771e-05
527.744999999641,7.302696e-05,527.744999999641,0.0001525318,527.744999999641,2.520255e-05,527.744999999641,9.406209e-05
527.759999999641,6.90848e-05,527.759999999641,0.0001500905,527.759999999641,2.765746e-05,527.759999999641,9.400801e-05
527.774999999641,6.714032e-05,527.774999999641,0.0001415143,527.774999999641,2.807451e-05,527.774999999641,9.331859e-05
527.7899999996409,6.984182e-05,527.7899999996409,0.0001401495,527.7899999996409,3.209785e-05,527.7899999996409,8.186484e-05
527.8049999996409,6.908765e-05,527.8049999996409,8.142886e-05,527.8049999996409,3.313354e-05,527.8049999996409,7.320094e-05
527.8199999996409,6.87254e-05,527.8199999996409,6.859019e-05,527.8199999996409,3.343445e-05,527.8199999996409,6.748855e-05
527.8349999996409,7.062186e-05,527.8349999996409,6.968534e-05,527.8349999996409,3.339441e-05,527.8349999996409,6.678417e-05
527.8499999996409,6.918993e-05,527.8499999996409,7.140659e-05,527.8499999996409,3.358747e-05,527.8499999996409,4.557223e-05
527.8649999996409,6.643777e-05,527.8649999996409,7.124701e-05,527.8649999996409,3.302239e-05,527.8649999996409,4.28555e-05
527.8799999996409,6.96916e-05,527.8799999996409,6.785491e-05,527.8799999996409,3.288603e-05,527.8799999996409,3.465508e-05
527.8949999996408,6.880468e-05,527.8949999996408,6.469407e-05,527.8949999996408,3.706771e-05,527.8949999996408,2.592497e-05
527.9099999996408,6.651046e-05,527.9099999996408,6.004829e-05,527.9099999996408,3.915207e-05,527.9099999996408,2.77114e-05
527.9249999996408,6.667144e-05,527.9249999996408,5.271188e-05,527.9249999996408,4.379547e-05,527.9249999996408,2.806347e-05
527.9399999996408,6.614261e-05,527.9399999996408,5.41045e-05,527.9399999996408,4.524214e-05,527.9399999996408,2.845676e-05
527.9549999996408,6.582237e-05,527.9549999996408,8.717147e-05,527.9549999996408,4.556759e-05,527.9549999996408,4.092562e-05
527.9699999996408,6.260686e-05,527.9699999996408,8.782077e-05,527.9699999996408,4.727005e-05,527.9699999996408,4.458223e-05
527.9849999996408,6.275205e-05,527.9849999996408,8.868796e-05,527.9849999996408,4.728763e-05,527.9849999996408,4.61329e-05
527.9999999996407,6.304834e-05,527.9999999996407,8.884125e-05,527.9999999996407,4.560776e-05,527.9999999996407,4.69339e-05
528.0149999996407,6.448754e-05,528.0149999996407,8.936723e-05,528.0149999996407,4.520539e-05,528.0149999996407,5.682112e-05
528.0299999996407,6.302085e-05,528.0299999996407,0.0001007741,528.0299999996407,6.240336e-05,528.0299999996407,6.065329e-05
528.0449999996407,6.446001e-05,528.0449999996407,0.0001021349,528.0449999996407,6.097411e-05,528.0449999996407,6.638347e-05
528.0599999996407,7.933128e-05,528.0599999996407,0.0001020218,528.0599999996407,6.199116e-05,528.0599999996407,6.782376e-05
528.0749999996407,7.734299e-05,528.0749999996407,0.0001009536,528.0749999996407,6.178813e-05,528.0749999996407,6.792234e-05
528.0899999996407,7.829389e-05,528.0899999996407,0.0001015105,528.0899999996407,6.189087e-05,528.0899999996407,7.072291e-05
528.1049999996407,7.867619e-05,528.1049999996407,0.0001001604,528.1049999996407,6.259629e-05,528.1049999996407,7.518522e-05
528.1199999996406,8.208412e-05,528.1199999996406,9.972364e-05,528.1199999996406,6.368833e-05,528.1199999996406,7.651901e-05
528.1349999996406,8.675273e-05,528.1349999996406,0.000103348,528.1349999996406,6.545841e-05,528.1349999996406,7.695865e-05
528.1499999996406,9.764874e-05,528.1499999996406,0.0001075267,528.1499999996406,6.55468e-05,528.1499999996406,7.928439e-05
528.1649999996406,0.0001101384,528.1649999996406,0.0001115444,528.1649999996406,6.905461e-05,528.1649999996406,8.091256e-05
528.1799999996406,0.0001166366,528.1799999996406,0.0001103876,528.1799999996406,6.973201e-05,528.1799999996406,8.470684e-05
528.1949999996406,0.000122582,528.1949999996406,0.0001019076,528.1949999996406,7.088387e-05,528.1949999996406,0.000106522
528.2099999996406,0.0001227131,528.2099999996406,8.561529e-05,528.2099999996406,7.43394e-05,528.2099999996406,0.0001151583
528.2249999996405,0.0001761559,528.2249999996405,8.286042e-05,528.2249999996405,8.265003e-05,528.2249999996405,0.0001199867
528.2399999996405,0.0001785963,528.2399999996405,8.735082e-05,528.2399999996405,8.35176e-05,528.2399999996405,0.0001214657
528.2549999996405,0.000181908,528.2549999996405,9.070586e-05,528.2549999996405,8.390011e-05,528.2549999996405,0.000145744
528.2699999996405,0.0001855084,528.2699999996405,8.701166e-05,528.2699999996405,8.386905e-05,528.2699999996405,0.0002066383
528.2849999996405,0.0001871803,528.2849999996405,8.007992e-05,528.2849999996405,7.666008e-05,528.2849999996405,0.0002291025
528.2999999996405,0.0001896448,528.2999999996405,7.949305e-05,528.2999999996405,7.688521e-05,528.2999999996405,0.0002321002
528.3149999996405,0.0001922904,528.3149999996405,9.229511e-05,528.3149999996405,7.718237e-05,528.3149999996405,0.0002804079
528.3299999996404,0.0001963893,528.3299999996404,0.000118567,528.3299999996404,7.709855e-05,528.3299999996404,0.0002816588
528.3449999996404,0.0001961692,528.3449999996404,0.0001603266,528.3449999996404,7.759629e-05,528.3449999996404,0.0002808952
528.3599999996404,0.0001965509,528.3599999996404,0.0001647012,528.3599999996404,7.79014e-05,528.3599999996404,0.0002804265
528.3749999996404,0.0002018295,528.3749999996404,0.0001911913,528.3749999996404,7.759429e-05,528.3749999996404,0.0002800689
528.3899999996404,0.0002017868,528.3899999996404,0.0002029775,528.3899999996404,7.632103e-05,528.3899999996404,0.0002808509
528.4049999996404,0.0002011596,528.4049999996404,0.0002035869,528.4049999996404,7.443977e-05,528.4049999996404,0.0002826704
528.4199999996404,0.0002032616,528.4199999996404,0.0002046347,528.4199999996404,7.485831e-05,528.4199999996404,0.0002824765
528.4349999996404,0.0002048092,528.4349999996404,0.0002060809,528.4349999996404,9.241103e-05,528.4349999996404,0.0002812914
528.4499999996403,0.0002050655,528.4499999996403,0.0002147651,528.4499999996403,9.191995e-05,528.4499999996403,0.0002729399
528.4649999996403,0.0001912468,528.4649999996403,0.0002155513,528.4649999996403,8.701652e-05,528.4649999996403,0.0002808787
528.4799999996403,0.0001619883,528.4799999996403,0.0002269433,528.4799999996403,8.451755e-05,528.4799999996403,0.0002825104
528.4949999996403,0.000169909,528.4949999996403,0.0002257155,528.4949999996403,8.54684e-05,528.4949999996403,0.0002928356
528.5099999996403,0.0001684745,528.5099999996403,0.0002241931,528.5099999996403,9.121923e-05,528.5099999996403,0.0002784076
528.5249999996403,0.0001662179,528.5249999996403,0.0002239771,528.5249999996403,9.397339e-05,528.5249999996403,0.0002691819
528.5399999996403,0.0001653079,528.5399999996403,0.0002328082,528.5399999996403,9.276097e-05,528.5399999996403,0.0002673093
528.5549999996402,0.000159705,528.5549999996402,0.0002341598,528.5549999996402,9.236331e-05,528.5549999996402,0.000251916
528.5699999996402,0.0001528442,528.5699999996402,0.0002271479,528.5699999996402,9.280879e-05,528.5699999996402,0.0002278924
528.5849999996402,0.0001475951,528.5849999996402,0.0002074287,528.5849999996402,9.281001e-05,528.5849999996402,0.0002457011
528.5999999996402,0.0001485463,528.5999999996402,0.0001889824,528.5999999996402,9.359503e-05,528.5999999996402,0.0002909526
528.6149999996402,0.0001546405,528.6149999996402,0.0001838578,528.6149999996402,9.502061e-05,528.6149999996402,0.0003076866
528.6299999996402,0.0001528882,528.6299999996402,0.0001558989,528.6299999996402,9.610201e-05,528.6299999996402,0.0003130953
528.6449999996402,0.0001547396,528.6449999996402,0.000144672,528.6449999996402,9.681031e-05,528.6449999996402,0.0003143858
528.6599999996401,0.0001503329,528.6599999996401,0.0001418055,528.6599999996401,9.483898e-05,528.6599999996401,0.0003123307
528.6749999996401,0.0001426042,528.6749999996401,0.0001400598,528.6749999996401,7.897873e-05,528.6749999996401,0.0003121799
528.6899999996401,0.0001358758,528.6899999996401,0.0001365542,528.6899999996401,7.241251e-05,528.6899999996401,0.0003161332
528.7049999996401,0.0001341497,528.7049999996401,0.0001275266,528.7049999996401,7.278311e-05,528.7049999996401,0.0003188711
528.7199999996401,0.0001350024,528.7199999996401,0.000122562,528.7199999996401,7.010012e-05,528.7199999996401,0.0003101983
528.7349999996401,0.0001331355,528.7349999996401,0.0001060888,528.7349999996401,7.098356e-05,528.7349999996401,0.0003058646
528.7499999996401,0.0001209554,528.7499999996401,0.00010634,528.7499999996401,6.644456e-05,528.7499999996401,0.0003028932
528.76499999964,0.0001195911,528.76499999964,0.0001077065,528.76499999964,6.448317e-05,528.76499999964,0.0002985243
528.77999999964,0.0001189793,528.77999999964,0.0001057666,528.77999999964,5.643006e-05,528.77999999964,0.0002924038
528.79499999964,0.000119916,528.79499999964,8.709224e-05,528.79499999964,5.653057e-05,528.79499999964,0.0002904883
528.80999999964,0.0001201004,528.80999999964,8.398385e-05,528.80999999964,5.785883e-05,528.80999999964,0.0002888517
528.82499999964,0.00012033,528.82499999964,0.00010043,528.82499999964,5.853392e-05,528.82499999964,0.0002713581
528.83999999964,0.0001208179,528.83999999964,0.0001750458,528.83999999964,5.85979e-05,528.83999999964,0.0002981766
528.85499999964,0.000117579,528.85499999964,0.0001769385,528.85499999964,5.716443e-05,528.85499999964,0.0002626442
528.86999999964,0.0001038121,528.86999999964,0.0001805966,528.86999999964,5.452388e-05,528.86999999964,0.000273635
528.88499999964,0.0001004666,528.88499999964,0.0001799763,528.88499999964,5.341299e-05,528.88499999964,0.0002716637
528.8999999996399,9.423057e-05,528.8999999996399,0.0001791936,528.8999999996399,5.187628e-05,528.8999999996399,0.000270171
528.9149999996399,8.916729e-05,528.9149999996399,0.0001787336,528.9149999996399,5.180155e-05,528.9149999996399,0.0002719564
528.9299999996399,8.772367e-05,528.9299999996399,0.0001807131,528.9299999996399,5.421531e-05,528.9299999996399,0.0002787373
528.9449999996399,8.95211e-05,528.9449999996399,0.000178061,528.9449999996399,5.328096e-05,528.9449999996399,0.0002804002
528.9599999996399,9.14669e-05,528.9599999996399,0.0001779634,528.9599999996399,5.128886e-05,528.9599999996399,0.0002971603
528.9749999996399,9.023251e-05,528.9749999996399,0.0001783629,528.9749999996399,5.299918e-05,528.9749999996399,0.0002973957
528.9899999996398,8.745542e-05,528.9899999996398,0.0001803503,528.9899999996398,5.469619e-05,528.9899999996398,0.0002906905
529.0049999996398,9.033486e-05,529.0049999996398,0.0001797979,529.0049999996398,5.356706e-05,529.0049999996398,0.0002874094
529.0199999996398,9.583486e-05,529.0199999996398,0.0001796806,529.0199999996398,5.336629e-05,529.0199999996398,0.000284191
529.0349999996398,9.703747e-05,529.0349999996398,0.0001789907,529.0349999996398,5.1406e-05,529.0349999996398,0.0002579264
529.0499999996398,9.867323e-05,529.0499999996398,0.0001804514,529.0499999996398,5.228578e-05,529.0499999996398,0.0002569283
529.0649999996398,9.800168e-05,529.0649999996398,0.0001798196,529.0649999996398,4.975676e-05,529.0649999996398,0.0002567357
529.0799999996398,9.946778e-05,529.0799999996398,0.0001503439,529.0799999996398,5.030523e-05,529.0799999996398,0.0002528829
529.0949999996398,0.000104241,529.0949999996398,9.301105e-05,529.0949999996398,5.113951e-05,529.0949999996398,0.0001998502
529.1099999996397,0.0001036943,529.1099999996397,8.787304e-05,529.1099999996397,5.144052e-05,529.1099999996397,0.000181393
529.1249999996397,0.0001023949,529.1249999996397,8.064331e-05,529.1249999996397,5.10979e-05,529.1249999996397,0.0001682469
529.1399999996397,0.0001046876,529.1399999996397,7.559088e-05,529.1399999996397,5.174332e-05,529.1399999996397,0.0001719621
529.1549999996397,0.0001042186,529.1549999996397,7.43663e-05,529.1549999996397,5.36367e-05,529.1549999996397,0.0002011408
529.1699999996397,0.0001290037,529.1699999996397,7.098614e-05,529.1699999996397,5.770036e-05,529.1699999996397,0.0002355649
529.1849999996397,0.0001348212,529.1849999996397,7.065755e-05,529.1849999996397,5.729169e-05,529.1849999996397,0.0002347043
529.1999999996397,0.0001406335,529.1999999996397,7.925026e-05,529.1999999996397,5.800788e-05,529.1999999996397,0.0002229166
529.2149999996396,0.0001444569,529.2149999996396,8.408946e-05,529.2149999996396,6.122058e-05,529.2149999996396,0.0002128215
529.2299999996396,0.0001415444,529.2299999996396,8.224459e-05,529.2299999996396,5.800133e-05,529.2299999996396,0.0002127787
529.2449999996396,0.0001400753,529.2449999996396,7.918963e-05,529.2449999996396,5.363512e-05,529.2449999996396,0.0002264808
529.2599999996396,0.0001373702,529.2599999996396,8.416246e-05,529.2599999996396,5.279092e-05,529.2599999996396,0.0002516432
529.2749999996396,0.0001369801,529.2749999996396,8.418824e-05,529.2749999996396,5.306346e-05,529.2749999996396,0.000256615
529.2899999996396,0.0001351995,529.2899999996396,8.241346e-05,529.2899999996396,5.549975e-05,529.2899999996396,0.0002588746
529.3049999996396,0.0001412162,529.3049999996396,8.438962e-05,529.3049999996396,5.957584e-05,529.3049999996396,0.0002608299
529.3199999996395,0.0001428919,529.3199999996395,8.788811e-05,529.3199999996395,5.93572e-05,529.3199999996395,0.0002608846
529.3349999996395,0.00014243,529.3349999996395,8.641351e-05,529.3349999996395,5.837945e-05,529.3349999996395,0.0002709727
529.3499999996395,0.0001466757,529.3499999996395,8.645132e-05,529.3499999996395,5.626731e-05,529.3499999996395,0.0002736115
529.3649999996395,0.0001473216,529.3649999996395,8.569505e-05,529.3649999996395,5.516242e-05,529.3649999996395,0.0002721056
529.3799999996395,0.0001463862,529.3799999996395,8.522825e-05,529.3799999996395,5.773867e-05,529.3799999996395,0.0002663242
529.3949999996395,0.0001485924,529.3949999996395,9.016645e-05,529.3949999996395,5.976517e-05,529.3949999996395,0.0002615664
529.4099999996395,0.0001509998,529.4099999996395,9.018176e-05,529.4099999996395,5.727522e-05,529.4099999996395,0.0002504446
529.4249999996395,0.0001267125,529.4249999996395,8.616439e-05,529.4249999996395,5.603149e-05,529.4249999996395,0.0002055194
529.4399999996394,0.0001246964,529.4399999996394,7.903971e-05,529.4399999996394,5.752456e-05,529.4399999996394,0.000201919
529.4549999996394,0.0001252695,529.4549999996394,7.635185e-05,529.4549999996394,5.982572e-05,529.4549999996394,0.0002003211
529.4699999996394,0.0001302168,529.4699999996394,7.456796e-05,529.4699999996394,6.294592e-05,529.4699999996394,0.0002150899
529.4849999996394,0.0001349968,529.4849999996394,7.509242e-05,529.4849999996394,6.354153e-05,529.4849999996394,0.0002208871
529.4999999996394,0.0001348651,529.4999999996394,7.620743e-05,529.4999999996394,6.54414e-05,529.4999999996394,0.0002449542
529.5149999996394,0.0001328707,529.5149999996394,7.098674e-05,529.5149999996394,6.793375e-05,529.5149999996394,0.0002250166
529.5299999996394,0.0001333393,529.5299999996394,0.0001044144,529.5299999996394,6.726777e-05,529.5299999996394,0.0002233123
529.5449999996393,0.0001326929,529.5449999996393,0.0001064424,529.5449999996393,6.576307e-05,529.5449999996393,0.0002468687
529.5599999996393,0.0001282857,529.5599999996393,0.0001072851,529.5599999996393,6.379376e-05,529.5599999996393,0.0002464447
529.5749999996393,0.0001239642,529.5749999996393,0.0001052211,529.5749999996393,6.356059e-05,529.5749999996393,0.0002882331
529.5899999996393,0.0001231383,529.5899999996393,0.0001071534,529.5899999996393,6.40012e-05,529.5899999996393,0.0002809184
529.6049999996393,0.0001195582,529.6049999996393,0.0001164217,529.6049999996393,6.496329e-05,529.6049999996393,0.0002806089
529.6199999996393,0.0001184408,529.6199999996393,0.0001199049,529.6199999996393,6.477568e-05,529.6199999996393,0.000279283
529.6349999996393,0.0001179039,529.6349999996393,0.000133657,529.6349999996393,6.018092e-05,529.6349999996393,0.0002882157
529.6499999996392,0.0001223736,529.6499999996392,0.0001303672,529.6499999996392,5.938401e-05,529.6499999996392,0.0002969706
529.6649999996392,0.0001199644,529.6649999996392,0.000130697,529.6649999996392,5.928073e-05,529.6649999996392,0.0002896821
529.6799999996392,0.0001203355,529.6799999996392,0.000131868,529.6799999996392,6.420952e-05,529.6799999996392,0.0002954958
529.6949999996392,0.0001143311,529.6949999996392,0.0001361545,529.6949999996392,6.148485e-05,529.6949999996392,0.0002951652
529.7099999996392,0.0001152139,529.7099999996392,0.0001367113,529.7099999996392,5.945939e-05,529.7099999996392,0.0002938702
529.7249999996392,0.0001043611,529.7249999996392,0.0001373079,529.7249999996392,5.645926e-05,529.7249999996392,0.0002826632
529.7399999996392,0.0001139469,529.7399999996392,0.0001353451,529.7399999996392,5.657541e-05,529.7399999996392,0.0002763561
529.7549999996392,0.0001143291,529.7549999996392,0.0001356406,529.7549999996392,5.517595e-05,529.7549999996392,0.0002515637
529.7699999996391,0.0001136892,529.7699999996391,0.0001344461,529.7699999996391,5.973052e-05,529.7699999996391,0.0002478651
529.7849999996391,0.0001130686,529.7849999996391,0.0001165959,529.7849999996391,6.04742e-05,529.7849999996391,0.0002473231
529.7999999996391,0.0001142919,529.7999999996391,0.0001144139,529.7999999996391,5.936076e-05,529.7999999996391,0.0002219064
529.8149999996391,0.0001141103,529.8149999996391,0.0001176199,529.8149999996391,5.904811e-05,529.8149999996391,0.0002074761
529.8299999996391,0.0001136729,529.8299999996391,0.0001184343,529.8299999996391,6.021859e-05,529.8299999996391,0.000160616
529.8449999996391,0.0001129331,529.8449999996391,0.0001123488,529.8449999996391,6.39217e-05,529.8449999996391,0.0001600319
529.8599999996391,0.0001142312,529.8599999996391,0.0001075471,529.8599999996391,6.323685e-05,529.8599999996391,0.0001603293
529.874999999639,0.000114585,529.874999999639,9.430634e-05,529.874999999639,6.625475e-05,529.874999999639,0.00015524
529.889999999639,0.0001039807,529.889999999639,8.699304e-05,529.889999999639,6.695544e-05,529.889999999639,0.0001546383
529.904999999639,0.000105004,529.904999999639,8.650101e-05,529.904999999639,6.7264e-05,529.904999999639,0.000152267
529.919999999639,0.0001063966,529.919999999639,8.557447e-05,529.919999999639,6.898563e-05,529.919999999639,0.0001586015
529.934999999639,0.0001049384,529.934999999639,8.371051e-05,529.934999999639,6.554486e-05,529.934999999639,0.0001666467
529.949999999639,0.000102178,529.949999999639,7.984403e-05,529.949999999639,6.512291e-05,529.949999999639,0.0001767731
529.964999999639,9.478386e-05,529.964999999639,9.819338e-05,529.964999999639,6.458074e-05,529.964999999639,0.0001770964
529.979999999639,8.89083e-05,529.979999999639,9.911764e-05,529.979999999639,6.65763e-05,529.979999999639,0.0001739371
529.9949999996389,8.288354e-05,529.9949999996389,0.0001010886,529.9949999996389,6.880672e-05,529.9949999996389,0.0001684131
530.0099999996389,8.354071e-05,530.0099999996389,0.000100832,530.0099999996389,6.316018e-05,530.0099999996389,0.0001700507
530.0249999996389,8.4774e-05,530.0249999996389,0.0001033421,530.0249999996389,6.379927e-05,530.0249999996389,0.0001710178
530.0399999996389,8.576127e-05,530.0399999996389,0.0001070493,530.0399999996389,6.648101e-05,530.0399999996389,0.0001713424
530.0549999996389,8.879304e-05,530.0549999996389,0.0001161337,530.0549999996389,6.75872e-05,530.0549999996389,0.0001711189
530.0699999996389,9.04019e-05,530.0699999996389,0.0001217238,530.0699999996389,6.716591e-05,530.0699999996389,0.0001697436
530.0849999996389,8.913143e-05,530.0849999996389,0.0001561582,530.0849999996389,6.485913e-05,530.0849999996389,0.0001676942
530.0999999996388,8.869272e-05,530.0999999996388,0.0001565361,530.0999999996388,6.194592e-05,530.0999999996388,0.0001656759
530.1149999996388,8.604283e-05,530.1149999996388,0.0001565944,530.1149999996388,6.008557e-05,530.1149999996388,0.0001656534
530.1299999996388,8.563865e-05,530.1299999996388,0.0001672226,530.1299999996388,5.876809e-05,530.1299999996388,0.0001649671
530.1449999996388,8.36558e-05,530.1449999996388,0.0001672542,530.1449999996388,5.773867e-05,530.1449999996388,0.0001330677
530.1599999996388,8.144996e-05,530.1599999996388,0.0001753044,530.1599999996388,5.654028e-05,530.1599999996388,0.0001307703
530.1749999996388,8.4905e-05,530.1749999996388,0.0001795775,530.1749999996388,5.185102e-05,530.1749999996388,9.285234e-05
530.1899999996388,9.077509e-05,530.1899999996388,0.0001783182,530.1899999996388,5.07413e-05,530.1899999996388,0.0001024887
530.2049999996387,9.00747e-05,530.2049999996387,0.0001805382,530.2049999996387,4.834379e-05,530.2049999996387,0.0001149269
530.2199999996387,9.132433e-05,530.2199999996387,0.0001763205,530.2199999996387,5.4117e-05,530.2199999996387,0.0001174477
530.2349999996387,9.421039e-05,530.2349999996387,0.0001878365,530.2349999996387,5.145585e-05,530.2349999996387,0.0001184536
530.2499999996387,9.275383e-05,530.2499999996387,0.0001897641,530.2499999996387,4.775539e-05,530.2499999996387,0.0001132764
530.2649999996387,9.39581e-05,530.2649999996387,0.000188491,530.2649999996387,4.65109e-05,530.2649999996387,0.0001411071
530.2799999996387,9.292408e-05,530.2799999996387,0.0001840862,530.2799999996387,4.403796e-05,530.2799999996387,0.0001420042
530.2949999996387,9.217659e-05,530.2949999996387,0.0001807025,530.2949999996387,4.108228e-05,530.2949999996387,0.0001428478
530.3099999996386,8.498594e-05,530.3099999996386,0.0001780945,530.3099999996386,3.936914e-05,530.3099999996386,0.0001428572
530.3249999996386,8.411106e-05,530.3249999996386,0.0001669157,530.3249999996386,4.14659e-05,530.3249999996386,0.0001451102
530.3399999996386,8.407923e-05,530.3399999996386,0.0001492802,530.3399999996386,4.247183e-05,530.3399999996386,0.0001485226
530.3549999996386,8.126625e-05,530.3549999996386,0.0001506373,530.3549999996386,4.222635e-05,530.3549999996386,0.0001609413
530.3699999996386,8.192625e-05,530.3699999996386,0.0001467693,530.3699999996386,4.279629e-05,530.3699999996386,0.0001609944
530.3849999996386,8.394376e-05,530.3849999996386,0.0001435832,530.3849999996386,4.267103e-05,530.3849999996386,0.0001610258
530.3999999996386,9.923837e-05,530.3999999996386,0.0001437692,530.3999999996386,4.932798e-05,530.3999999996386,0.0001608968
530.4149999996386,0.0001055329,530.4149999996386,0.0001354695,530.4149999996386,4.936851e-05,530.4149999996386,0.0001609423
530.4299999996385,0.0001025816,530.4299999996385,0.0001308525,530.4299999996385,4.995623e-05,530.4299999996385,0.0001605731
530.4449999996385,9.958525e-05,530.4449999996385,0.0001316295,530.4449999996385,4.99441e-05,530.4449999996385,0.0001746496
530.4599999996385,9.980935e-05,530.4599999996385,0.0001260158,530.4599999996385,4.94902e-05,530.4599999996385,0.0001587973
530.4749999996385,9.673084e-05,530.4749999996385,0.0001216012,530.4749999996385,4.62302e-05,530.4749999996385,0.0001582682
530.4899999996385,9.345013e-05,530.4899999996385,0.0001014894,530.4899999996385,4.680617e-05,530.4899999996385,0.0001596415
530.5049999996385,9.213945e-05,530.5049999996385,0.0001001512,530.5049999996385,4.710317e-05,530.5049999996385,0.0001632877
530.5199999996385,9.043601e-05,530.5199999996385,9.965808e-05,530.5199999996385,4.584651e-05,530.5199999996385,0.0001367386
530.5349999996384,8.878146e-05,530.5349999996384,9.943605e-05,530.5349999996384,4.450095e-05,530.5349999996384,0.0001342294
530.5499999996384,8.865857e-05,530.5499999996384,9.662257e-05,530.5499999996384,4.422023e-05,530.5499999996384,0.0001338404
530.5649999996384,8.896802e-05,530.5649999996384,9.300287e-05,530.5649999996384,4.398098e-05,530.5649999996384,0.0001333768
530.5799999996384,9.007814e-05,530.5799999996384,8.368291e-05,530.5799999996384,4.238384e-05,530.5799999996384,0.0001313102
530.5949999996384,9.056209e-05,530.5949999996384,8.308927e-05,530.5949999996384,4.137373e-05,530.5949999996384,0.0001115807
530.6099999996384,9.242993e-05,530.6099999996384,7.841471e-05,530.6099999996384,4.160461e-05,530.6099999996384,0.0001098754
530.6249999996384,9.30483e-05,530.6249999996384,7.48346e-05,530.6249999996384,3.835823e-05,530.6249999996384,0.0001093526
530.6399999996383,8.968695e-05,530.6399999996383,6.908623e-05,530.6399999996383,3.789975e-05,530.6399999996383,0.0001094521
530.6549999996383,6.466968e-05,530.6549999996383,7.027072e-05,530.6549999996383,2.843398e-05,530.6549999996383,0.0001094613
530.6699999996383,6.374383e-05,530.6699999996383,6.861216e-05,530.6699999996383,2.789481e-05,530.6699999996383,0.0001086842
530.6849999996383,6.566296e-05,530.6849999996383,6.919522e-05,530.6849999996383,2.73831e-05,530.6849999996383,0.0001069662
530.6999999996383,7.167752e-05,530.6999999996383,6.693271e-05,530.6999999996383,2.63395e-05,530.6999999996383,6.235345e-05
530.7149999996383,7.484175e-05,530.7149999996383,6.094869e-05,530.7149999996383,2.454906e-05,530.7149999996383,6.023917e-05
530.7299999996383,7.492659e-05,530.7299999996383,5.578936e-05,530.7299999996383,2.061131e-05,530.7299999996383,5.924318e-05
530.7449999996383,7.381894e-05,530.7449999996383,5.253306e-05,530.7449999996383,1.929536e-05,530.7449999996383,2.372025e-05
530.7599999996382,7.294165e-05,530.7599999996382,5.180862e-05,530.7599999996382,1.920389e-05,530.7599999996382,2.215801e-05
530.7749999996382,7.281001e-05,530.7749999996382,5.116126e-05,530.7749999996382,1.874133e-05,530.7749999996382,2.136636e-05
530.7899999996382,7.317438e-05,530.7899999996382,4.912107e-05,530.7899999996382,1.882308e-05,530.7899999996382,2.178163e-05
530.8049999996382,7.27014e-05,530.8049999996382,4.566949e-05,530.8049999996382,1.89922e-05,530.8049999996382,2.158935e-05
530.8199999996382,7.121774e-05,530.8199999996382,4.304769e-05,530.8199999996382,1.93209e-05,530.8199999996382,2.600363e-05
530.8349999996382,6.70181e-05,530.8349999996382,3.895549e-05,530.8349999996382,1.649199e-05,530.8349999996382,2.623178e-05
530.8499999996382,6.553497e-05,530.8499999996382,3.541221e-05,530.8499999996382,1.846418e-05,530.8499999996382,2.592714e-05
530.8649999996381,6.250463e-05,530.8649999996381,3.41176e-05,530.8649999996381,1.882233e-05,530.8649999996381,2.630471e-05
530.8799999996381,5.948971e-05,530.8799999996381,3.406843e-05,530.8799999996381,1.899887e-05,530.8799999996381,2.86413e-05
530.8949999996381,5.760629e-05,530.8949999996381,2.720556e-05,530.8949999996381,1.980905e-05,530.8949999996381,3.332008e-05
530.9099999996381,5.455152e-05,530.9099999996381,2.409499e-05,530.9099999996381,1.968636e-05,530.9099999996381,3.343993e-05
530.9249999996381,5.339796e-05,530.9249999996381,2.239074e-05,530.9249999996381,1.945097e-05,530.9249999996381,3.342055e-05
530.9399999996381,4.271425e-05,530.9399999996381,1.535339e-05,530.9399999996381,1.910092e-05,530.9399999996381,3.254025e-05
530.9549999996381,2.847853e-05,530.9549999996381,1.254161e-05,530.9549999996381,1.865242e-05,530.9549999996381,3.259907e-05
530.969999999638,2.333104e-05,530.969999999638,1.275102e-05,530.969999999638,1.81859e-05,530.969999999638,3.288646e-05
530.984999999638,2.187714e-05,530.984999999638,2.021033e-05,530.984999999638,1.798652e-05,530.984999999638,3.327524e-05
530.999999999638,2.170778e-05,530.999999999638,2.095294e-05,530.999999999638,1.792061e-05,530.999999999638,3.340242e-05
531.014999999638,1.913408e-05,531.014999999638,2.04666e-05,531.014999999638,1.822846e-05,531.014999999638,3.276157e-05
531.029999999638,1.873607e-05,531.029999999638,2.039213e-05,531.029999999638,1.864865e-05,531.029999999638,3.254977e-05
531.044999999638,1.051439e-05,531.044999999638,2.109765e-05,531.044999999638,1.850685e-05,531.044999999638,3.209039e-05
531.059999999638,7.588568e-06,531.059999999638,2.134459e-05,531.059999999638,1.823078e-05,531.059999999638,3.109789e-05
531.074999999638,7.440475e-06,531.074999999638,2.515612e-05,531.074999999638,1.78915e-05,531.074999999638,2.774493e-05
531.0899999996379,7.36818e-06,531.0899999996379,2.651062e-05,531.0899999996379,1.811373e-05,531.0899999996379,2.766459e-05
531.1049999996379,7.532673e-06,531.1049999996379,2.682649e-05,531.1049999996379,1.493575e-05,531.1049999996379,2.758862e-05
531.1199999996379,7.188182e-06,531.1199999996379,2.8481e-05,531.1199999996379,1.449736e-05,531.1199999996379,2.361669e-05
531.1349999996379,7.442368e-06,531.1349999996379,2.936498e-05,531.1349999996379,1.386053e-05,531.1349999996379,1.973139e-05
531.1499999996379,7.362442e-06,531.1499999996379,3.030876e-05,531.1499999996379,1.340274e-05,531.1499999996379,1.455651e-05
531.1649999996379,9.362016e-06,531.1649999996379,3.08377e-05,531.1649999996379,1.334586e-05,531.1649999996379,1.311696e-05
531.1799999996379,1.256069e-05,531.1799999996379,3.614531e-05,531.1799999996379,1.295922e-05,531.1799999996379,1.2689e-05
531.1949999996378,1.373598e-05,531.1949999996378,3.955406e-05,531.1949999996378,1.237312e-05,531.1949999996378,1.270121e-05
531.2099999996378,1.959671e-05,531.2099999996378,3.997808e-05,531.2099999996378,1.274107e-05,531.2099999996378,1.211192e-05
531.2249999996378,1.999309e-05,531.2249999996378,3.938846e-05,531.2249999996378,1.312126e-05,531.2249999996378,1.081944e-05
531.2399999996378,2.007536e-05,531.2399999996378,3.681259e-05,531.2399999996378,1.385544e-05,531.2399999996378,9.620266e-06
531.2549999996378,2.029657e-05,531.2549999996378,3.624961e-05,531.2549999996378,1.326434e-05,531.2549999996378,7.079578e-06
531.2699999996378,2.047554e-05,531.2699999996378,3.925735e-05,531.2699999996378,1.407033e-05,531.2699999996378,6.58688e-06
531.2849999996378,2.099324e-05,531.2849999996378,3.949168e-05,531.2849999996378,1.347506e-05,531.2849999996378,6.565459e-06
531.2999999996377,2.252809e-05,531.2999999996377,4.167092e-05,531.2999999996377,1.347506e-05,531.2999999996377,6.787006e-06
531.3149999996377,2.371906e-05,531.3149999996377,4.167024e-05,531.3149999996377,1.34782e-05,531.3149999996377,1.055984e-05
531.3299999996377,2.395368e-05,531.3299999996377,3.922217e-05,531.3299999996377,1.268234e-05,531.3299999996377,1.013926e-05
531.3449999996377,2.408154e-05,531.3449999996377,3.887187e-05,531.3449999996377,1.303077e-05,531.3449999996377,1.042964e-05
531.3599999996377,2.450426e-05,531.3599999996377,3.863086e-05,531.3599999996377,1.3664e-05,531.3599999996377,1.331204e-05
531.3749999996377,2.457086e-05,531.3749999996377,3.802851e-05,531.3749999996377,1.351681e-05,531.3749999996377,1.638057e-05
531.3899999996377,2.479742e-05,531.3899999996377,3.742624e-05,531.3899999996377,1.38849e-05,531.3899999996377,2.167726e-05
531.4049999996377,2.484396e-05,531.4049999996377,3.648087e-05,531.4049999996377,1.354284e-05,531.4049999996377,2.274651e-05
531.4199999996376,2.422908e-05,531.4199999996376,3.574637e-05,531.4199999996376,1.383408e-05,531.4199999996376,2.295979e-05
531.4349999996376,2.265032e-05,531.4349999996376,2.899082e-05,531.4349999996376,1.401214e-05,531.4349999996376,2.368995e-05
531.4499999996376,2.172724e-05,531.4499999996376,2.625647e-05,531.4499999996376,1.37452e-05,531.4499999996376,2.412012e-05
531.4649999996376,1.772698e-05,531.4649999996376,2.518522e-05,531.4649999996376,1.290694e-05,531.4649999996376,2.42378e-05
531.4799999996376,1.733648e-05,531.4799999996376,2.55048e-05,531.4799999996376,1.249434e-05,531.4799999996376,2.424013e-05
531.4949999996376,1.723298e-05,531.4949999996376,2.531353e-05,531.4949999996376,1.183545e-05,531.4949999996376,2.425e-05
531.5099999996376,1.703897e-05,531.5099999996376,2.335156e-05,531.5099999996376,1.173385e-05,531.5099999996376,2.427555e-05
531.5249999996375,1.644666e-05,531.5249999996375,1.98183e-05,531.5249999996375,1.085194e-05,531.5249999996375,2.434393e-05
531.5399999996375,1.613711e-05,531.5399999996375,1.703236e-05,531.5399999996375,1.161197e-05,531.5399999996375,2.466242e-05
531.5549999996375,1.290585e-05,531.5549999996375,1.272116e-05,531.5549999996375,1.181759e-05,531.5549999996375,2.379733e-05
531.5699999996375,1.172304e-05,531.5699999996375,1.208165e-05,531.5699999996375,1.187229e-05,531.5699999996375,2.333467e-05
531.5849999996375,1.098868e-05,531.5849999996375,1.184854e-05,531.5849999996375,1.208515e-05,531.5849999996375,2.33582e-05
531.5999999996375,1.039175e-05,531.5999999996375,1.165797e-05,531.5999999996375,1.134939e-05,531.5999999996375,2.31352e-05
531.6149999996375,9.873189e-06,531.6149999996375,1.12934e-05,531.6149999996375,1.021815e-05,531.6149999996375,2.020475e-05
531.6299999996374,9.466757e-06,531.6299999996374,1.102962e-05,531.6299999996374,9.560042e-06,531.6299999996374,1.754165e-05
531.6449999996374,9.087142e-06,531.6449999996374,1.110091e-05,531.6449999996374,9.054529e-06,531.6449999996374,1.185448e-05
531.6599999996374,8.617714e-06,531.6599999996374,1.073054e-05,531.6599999996374,8.757163e-06,531.6599999996374,1.108186e-05
531.6749999996374,8.021719e-06,531.6749999996374,1.064619e-05,531.6749999996374,8.742674e-06,531.6749999996374,1.113259e-05
531.6899999996374,7.904969e-06,531.6899999996374,1.064487e-05,531.6899999996374,8.532291e-06,531.6899999996374,1.282482e-05
531.7049999996374,7.275834e-06,531.7049999996374,1.098868e-05,531.7049999996374,8.583318e-06,531.7049999996374,1.417208e-05
531.7199999996374,7.254505e-06,531.7199999996374,1.100661e-05,531.7199999996374,8.604628e-06,531.7199999996374,1.412828e-05
531.7349999996374,7.127172e-06,531.7349999996374,1.072923e-05,531.7349999996374,8.45767e-06,531.7349999996374,1.528626e-05
531.7499999996373,7.1823e-06,531.7499999996373,1.076855e-05,531.7499999996373,8.747506e-06,531.7499999996373,1.569278e-05
531.7649999996373,6.824264e-06,531.7649999996373,1.062898e-05,531.7649999996373,8.58496e-06,531.7649999996373,1.587573e-05
531.7799999996373,6.692956e-06,531.7799999996373,1.075153e-05,531.7799999996373,8.637307e-06,531.7799999996373,1.539279e-05
531.7949999996373,6.932803e-06,531.7949999996373,1.06647e-05,531.7949999996373,8.093397e-06,531.7949999996373,1.537356e-05
531.8099999996373,7.275834e-06,531.8099999996373,1.068977e-05,531.8099999996373,7.924546e-06,531.8099999996373,1.567122e-05
531.8249999996373,7.46882e-06,531.8249999996373,1.071609e-05,531.8249999996373,7.656943e-06,531.8249999996373,1.562802e-05
531.8399999996373,7.597844e-06,531.8399999996373,1.11465e-05,531.8399999996373,8.110784e-06,531.8399999996373,1.621288e-05
531.8549999996372,7.653262e-06,531.8549999996372,1.13096e-05,531.8549999996372,8.141986e-06,531.8549999996372,1.694197e-05
531.8699999996372,7.808148e-06,531.8699999996372,1.092826e-05,531.8699999996372,8.694202e-06,531.8699999996372,1.797477e-05
531.8849999996372,7.762914e-06,531.8849999996372,1.104621e-05,531.8849999996372,8.974835e-06,531.8849999996372,1.823927e-05
531.8999999996372,7.761099e-06,531.8999999996372,1.084935e-05,531.8999999996372,9.683024e-06,531.8999999996372,1.834938e-05
531.9149999996372,7.62006e-06,531.9149999996372,1.090116e-05,531.9149999996372,9.894567e-06,531.9149999996372,1.842676e-05
531.9299999996372,7.252564e-06,531.9299999996372,1.106405e-05,531.9299999996372,9.877468e-06,531.9299999996372,1.777697e-05
531.9449999996372,7.590424e-06,531.9449999996372,1.069899e-05,531.9449999996372,9.774246e-06,531.9449999996372,1.655422e-05
531.9599999996371,7.671647e-06,531.9599999996371,1.021263e-05,531.9599999996371,9.79584e-06,531.9599999996371,1.604695e-05
531.9749999996371,8.40923e-06,531.9749999996371,9.080939e-06,531.9749999996371,1.003171e-05,531.9749999996371,1.59748e-05
531.9899999996371,8.372296e-06,531.9899999996371,9.056085e-06,531.9899999996371,1.009889e-05,531.9899999996371,1.524474e-05
532.0049999996371,8.484277e-06,532.0049999996371,9.156633e-06,532.0049999996371,1.022917e-05,532.0049999996371,1.502602e-05
532.0199999996371,8.658483e-06,532.0199999996371,1.066074e-05,532.0199999996371,1.027451e-05,532.0199999996371,1.478979e-05
532.0349999996371,8.924467e-06,532.0349999996371,1.120449e-05,532.0349999996371,1.006676e-05,532.0349999996371,1.479932e-05
532.0499999996371,8.289442e-06,532.0499999996371,1.284568e-05,532.0499999996371,9.769921e-06,532.0499999996371,1.487338e-05
532.064999999637,8.150632e-06,532.064999999637,1.306424e-05,532.064999999637,9.745379e-06,532.064999999637,1.450513e-05
532.079999999637,7.947621e-06,532.079999999637,1.389301e-05,532.079999999637,9.965496e-06,532.079999999637,1.464334e-05
532.094999999637,8.014691e-06,532.094999999637,1.32569e-05,532.094999999637,1.029369e-05,532.094999999637,1.419096e-05
532.109999999637,7.995334e-06,532.109999999637,1.318979e-05,532.109999999637,9.93435e-06,532.109999999637,1.352619e-05
532.124999999637,7.766543e-06,532.124999999637,1.366194e-05,532.124999999637,1.004294e-05,532.124999999637,1.210262e-05
532.139999999637,7.71011e-06,532.139999999637,1.387576e-05,532.139999999637,9.857482e-06,532.139999999637,1.166401e-05
532.154999999637,7.601551e-06,532.154999999637,1.392946e-05,532.154999999637,9.447393e-06,532.154999999637,1.119317e-05
532.169999999637,7.656943e-06,532.169999999637,1.3892e-05,532.169999999637,9.330365e-06,532.169999999637,1.06409e-05
532.184999999637,1.121203e-05,532.184999999637,1.379329e-05,532.184999999637,9.590935e-06,532.184999999637,1.004855e-05
532.1999999996369,1.150227e-05,532.1999999996369,1.378e-05,532.1999999996369,9.75838e-06,532.1999999996369,9.148938e-06
532.2149999996369,1.151695e-05,532.2149999996369,1.387373e-05,532.2149999996369,1.048487e-05,532.2149999996369,8.41258e-06
532.2299999996369,1.132081e-05,532.2299999996369,1.387373e-05,532.2299999996369,1.038904e-05,532.2299999996369,8.402527e-06
532.2449999996369,1.359061e-05,532.2449999996369,1.416413e-05,532.2449999996369,1.024018e-05,532.2449999996369,8.331817e-06
532.2599999996369,1.389808e-05,532.2599999996369,1.366503e-05,532.2599999996369,9.976799e-06,532.2599999996369,9.099535e-06
532.2749999996369,1.409834e-05,532.2749999996369,1.283141e-05,532.2749999996369,1.00975e-05,532.2749999996369,9.094889e-06
532.2899999996368,1.392441e-05,532.2899999996368,1.157308e-05,532.2899999996368,1.047412e-05,532.2899999996368,8.949686e-06
532.3049999996368,1.416612e-05,532.3049999996368,1.000641e-05,532.3049999996368,1.073054e-05,532.3049999996368,8.806888e-06
532.3199999996368,1.488379e-05,532.3199999996368,1.004434e-05,532.3199999996368,1.098355e-05,532.3199999996368,8.837226e-06
532.3349999996368,1.512414e-05,532.3349999996368,9.031162e-06,532.3349999996368,1.136303e-05,532.3349999996368,8.58496e-06
532.3499999996368,1.512414e-05,532.3499999996368,8.533942e-06,532.3499999996368,1.113386e-05,532.3499999996368,8.021719e-06
532.3649999996368,1.517992e-05,532.3649999996368,8.392462e-06,532.3649999996368,1.116797e-05,532.3649999996368,7.952937e-06
532.3799999996368,1.521236e-05,532.3799999996368,7.423416e-06,532.3799999996368,1.128841e-05,532.3799999996368,8.026986e-06
532.3949999996368,1.5412e-05,532.3949999996368,7.358615e-06,532.3949999996368,1.10666e-05,532.3949999996368,8.219473e-06
532.4099999996367,1.545763e-05,532.4099999996367,6.920602e-06,532.4099999996367,1.137295e-05,532.4099999996367,9.054529e-06
532.4249999996367,1.542844e-05,532.4249999996367,6.881819e-06,532.4249999996367,1.14421e-05,532.4249999996367,9.668466e-06
532.4399999996367,1.326859e-05,532.4399999996367,7.125195e-06,532.4399999996367,1.138161e-05,532.4399999996367,9.552672e-06
532.4549999996367,1.377898e-05,532.4549999996367,7.618211e-06,532.4549999996367,1.071478e-05,532.4549999996367,9.639282e-06
532.4699999996367,1.396784e-05,532.4699999996367,7.645896e-06,532.4699999996367,1.031829e-05,532.4699999996367,1.023743e-05
532.4849999996367,1.304481e-05,532.4849999996367,8.974835e-06,532.4849999996367,1.025942e-05,532.4849999996367,1.017532e-05
532.4999999996367,1.262445e-05,532.4999999996367,8.903924e-06,532.4999999996367,1.038362e-05,532.4999999996367,1.09553e-05
532.5149999996366,1.200327e-05,532.5149999996366,9.281926e-06,532.5149999996366,1.035645e-05,532.5149999996366,1.106787e-05
532.5299999996366,1.19739e-05,532.5299999996366,9.303149e-06,532.5299999996366,1.032375e-05,532.5299999996366,1.139646e-05
532.5449999996366,1.194681e-05,532.5449999996366,9.46378e-06,532.5449999996366,1.046739e-05,532.5449999996366,1.179253e-05
532.5599999996366,1.160954e-05,532.5599999996366,9.392062e-06,532.5599999996366,9.883171e-06,532.5599999996366,1.234576e-05
532.5749999996366,1.071215e-05,532.5749999996366,9.284961e-06,532.5749999996366,9.86748e-06,532.5749999996366,1.365472e-05
532.5899999996366,1.137914e-05,532.5899999996366,9.195013e-06,532.5899999996366,8.741063e-06,532.5899999996366,2.190288e-05
532.6049999996366,1.177819e-05,532.6049999996366,9.195013e-06,532.6049999996366,8.673113e-06,532.6049999996366,2.625003e-05
532.6199999996365,1.208398e-05,532.6199999996365,9.122726e-06,532.6199999996365,9.284961e-06,532.6199999996365,2.648989e-05
532.6349999996365,1.212587e-05,532.6349999996365,9.207261e-06,532.6349999996365,9.334893e-06,532.6349999996365,2.765237e-05
532.6499999996365,1.22461e-05,532.6499999996365,9.259134e-06,532.6499999996365,9.342435e-06,532.6499999996365,2.90641e-05
532.6649999996365,1.222998e-05,532.6649999996365,9.216436e-06,532.6649999996365,8.712006e-06,532.6649999996365,2.890664e-05
532.6799999996365,1.223919e-05,532.6799999996365,9.184283e-06,532.6799999996365,8.668239e-06,532.6799999996365,2.91401e-05
532.6949999996365,1.082465e-05,532.6949999996365,8.957552e-06,532.6949999996365,8.638938e-06,532.6949999996365,2.915508e-05
532.7099999996365,1.085973e-05,532.7099999996365,8.973265e-06,532.7099999996365,9.333384e-06,532.7099999996365,2.904374e-05
532.7249999996365,1.082725e-05,532.7249999996365,8.5108e-06,532.7249999996365,9.68157e-06,532.7249999996365,2.881781e-05
532.7399999996364,1.019192e-05,532.7399999996364,7.333686e-06,532.7399999996364,9.785769e-06,532.7399999996364,2.874783e-05
532.7549999996364,9.693203e-06,532.7549999996364,7.540149e-06,532.7549999996364,9.723673e-06,532.7549999996364,2.826404e-05
532.7699999996364,9.797278e-06,532.7699999996364,7.642211e-06,532.7699999996364,1.00275e-05,532.7699999996364,2.828297e-05
532.7849999996364,9.982445e-06,532.7849999996364,8.193725e-06,532.7849999996364,9.931514e-06,532.7849999996364,2.813766e-05
532.7999999996364,1.040259e-05,532.7999999996364,8.461e-06,532.7999999996364,9.369536e-06,532.7999999996364,2.80087e-05
532.8149999996364,1.054916e-05,532.8149999996364,8.872225e-06,532.8149999996364,9.322813e-06,532.8149999996364,2.73017e-05
532.8299999996364,9.828859e-06,532.8299999996364,8.806888e-06,532.8299999996364,9.054529e-06,532.8299999996364,2.598684e-05
532.8449999996363,9.383058e-06,532.8449999996363,8.677985e-06,532.8449999996363,9.010862e-06,532.8449999996363,1.821532e-05
532.8599999996363,8.68934e-06,532.8599999996363,8.737838e-06,532.8599999996363,8.607901e-06,532.8599999996363,1.469712e-05
532.8749999996363,8.217759e-06,532.8749999996363,8.687718e-06,532.8749999996363,8.074229e-06,532.8749999996363,1.461831e-05
532.8899999996363,7.612662e-06,532.8899999996363,8.606265e-06,532.8899999996363,7.732004e-06,532.8899999996363,1.323563e-05
532.9049999996363,7.72289e-06,532.9049999996363,8.485937e-06,532.9049999996363,7.741108e-06,532.9049999996363,1.091149e-05
532.9199999996363,7.863876e-06,532.9199999996363,9.509811e-06,532.9199999996363,8.5108e-06,532.9199999996363,1.111993e-05
532.9349999996363,8.030494e-06,532.9349999996363,9.821691e-06,532.9349999996363,8.540542e-06,532.9349999996363,1.133324e-05
532.9499999996362,7.799122e-06,532.9499999996362,1.042424e-05,532.9499999996362,8.274134e-06,532.9499999996362,1.184616e-05
532.9649999996362,7.480127e-06,532.9649999996362,1.029916e-05,532.9649999996362,7.901403e-06,532.9649999996362,1.180327e-05
532.9799999996362,7.285508e-06,532.9799999996362,1.047277e-05,532.9799999996362,7.493299e-06,532.9799999996362,1.237426e-05
532.9949999996362,7.618211e-06,532.9949999996362,1.013648e-05,532.9949999996362,7.573703e-06,532.9949999996362,1.287744e-05
533.0099999996362,7.682656e-06,533.0099999996362,9.985267e-06,533.0099999996362,7.784659e-06,533.0099999996362,1.311589e-05
533.0249999996362,7.649581e-06,533.0249999996362,9.800154e-06,533.0249999996362,9.091791e-06,533.0249999996362,1.294726e-05
533.0399999996362,7.429107e-06,533.0399999996362,9.304663e-06,533.0399999996362,9.153557e-06,533.0399999996362,1.347611e-05
533.0549999996362,6.591156e-06,533.0549999996362,8.899176e-06,533.0549999996362,9.190417e-06,533.0549999996362,1.334797e-05
533.0699999996361,6.682424e-06,533.0699999996361,8.880161e-06,533.0699999996361,9.375548e-06,533.0699999996361,1.295705e-05
533.0849999996361,6.887957e-06,533.0849999996361,8.92131e-06,533.0849999996361,9.601211e-06,533.0849999996361,1.297986e-05
533.0999999996361,6.879772e-06,533.0999999996361,9.0374e-06,533.0999999996361,9.876042e-06,533.0999999996361,1.286759e-05
533.1149999996361,6.834577e-06,533.1149999996361,8.976404e-06,533.1149999996361,1.028958e-05,533.1149999996361,1.266789e-05
533.1299999996361,7.362442e-06,533.1299999996361,9.118093e-06,533.1299999996361,1.053446e-05,533.1299999996361,1.146424e-05
533.1449999996361,7.293238e-06,533.1449999996361,9.278891e-06,533.1449999996361,1.047546e-05,533.1449999996361,1.117931e-05
533.159999999636,8.395818e-06,533.159999999636,9.066966e-06,533.159999999636,1.021952e-05,533.159999999636,1.123211e-05
533.174999999636,8.845193e-06,533.174999999636,1.007795e-05,533.174999999636,9.843181e-06,533.174999999636,1.083636e-05
533.189999999636,8.826061e-06,533.189999999636,1.099637e-05,533.189999999636,9.691749e-06,533.189999999636,1.041748e-05
533.204999999636,9.656803e-06,533.204999999636,1.14421e-05,533.204999999636,9.79584e-06,533.204999999636,1.031556e-05
533.219999999636,9.823125e-06,533.219999999636,1.189837e-05,533.219999999636,9.710626e-06,533.219999999636,1.025942e-05
533.234999999636,1.025667e-05,533.234999999636,1.175424e-05,533.234999999636,9.65972e-06,533.234999999636,9.780009e-06
533.249999999636,1.088823e-05,533.249999999636,1.218035e-05,533.249999999636,9.503884e-06,533.249999999636,9.077836e-06
533.264999999636,1.093857e-05,533.264999999636,1.229546e-05,533.264999999636,8.843601e-06,533.264999999636,9.119637e-06
533.279999999636,1.11465e-05,533.279999999636,1.231149e-05,533.279999999636,7.806343e-06,533.279999999636,8.798887e-06
533.2949999996359,1.269788e-05,533.2949999996359,1.223919e-05,533.2949999996359,8.202317e-06,533.2949999996359,8.190286e-06
533.3099999996359,1.360615e-05,533.3099999996359,1.213516e-05,533.3099999996359,8.335198e-06,533.3099999996359,8.848378e-06
533.3249999996359,1.371237e-05,533.3249999996359,1.223689e-05,533.3249999996359,8.086432e-06,533.3249999996359,9.269777e-06
533.3399999996359,1.379329e-05,533.3399999996359,1.258198e-05,533.3399999996359,8.164447e-06,533.3399999996359,9.205732e-06
533.3549999996359,1.419889e-05,533.3549999996359,1.335641e-05,533.3549999996359,7.588568e-06,533.3549999996359,9.720776e-06
533.3699999996359,1.498848e-05,533.3699999996359,1.342269e-05,533.3699999996359,7.446153e-06,533.3699999996359,1.00289e-05
533.3849999996359,1.501102e-05,533.3849999996359,1.372777e-05,533.3849999996359,7.543885e-06,533.3849999996359,1.102962e-05
533.3999999996358,1.455554e-05,533.3999999996358,1.356882e-05,533.3999999996358,7.863876e-06,533.3999999996358,1.114903e-05
533.4149999996358,1.742644e-05,533.4149999996358,1.346147e-05,533.4149999996358,8.224612e-06,533.4149999996358,1.102324e-05
533.4299999996358,1.876762e-05,533.4299999996358,1.099124e-05,533.4299999996358,8.560311e-06,533.4299999996358,1.109838e-05
533.4449999996358,1.877737e-05,533.4449999996358,1.059845e-05,533.4449999996358,8.616079e-06,533.4449999996358,1.109457e-05
533.4599999996358,1.957945e-05,533.4599999996358,1.025118e-05,533.4599999996358,8.555373e-06,533.4599999996358,1.10933e-05
533.4749999996358,2.021451e-05,533.4749999996358,9.866052e-06,533.4749999996358,8.540542e-06,533.4749999996358,1.153895e-05
533.4899999996358,2.051678e-05,533.4899999996358,1.029916e-05,533.4899999996358,8.661737e-06,533.4899999996358,1.379839e-05
533.5049999996357,2.355577e-05,533.5049999996357,9.973975e-06,533.5049999996357,8.744285e-06,533.5049999996357,1.670754e-05
533.5199999996357,2.395838e-05,533.5199999996357,1.038904e-05,533.5199999996357,8.940237e-06,533.5199999996357,2.489437e-05
533.5349999996357,2.388478e-05,533.5349999996357,1.0505e-05,533.5349999996357,9.101082e-06,533.5349999996357,2.544564e-05
533.5499999996357,2.541739e-05,533.5499999996357,1.061704e-05,533.5499999996357,8.635676e-06,533.5499999996357,2.587057e-05
533.5649999996357,2.55048e-05,533.5649999996357,1.069372e-05,533.5649999996357,9.253046e-06,533.5649999996357,2.617049e-05
533.5799999996357,2.55037e-05,533.5799999996357,1.065281e-05,533.5799999996357,9.023361e-06,533.5799999996357,2.617372e-05
533.5949999996357,2.768291e-05,533.5949999996357,9.697562e-06,533.5949999996357,1.090116e-05,533.5949999996357,2.615918e-05
533.6099999996356,2.899131e-05,533.6099999996356,9.486082e-06,533.6099999996356,1.108441e-05,533.6099999996356,2.616511e-05
