X[s],a: EMG RMS 1-1,X[s].1,a: EMG RMS 1-2,X[s].2,a: EMG RMS 1-3,X[s].3,a: EMG RMS 1-4
376.00499999977893,5.629835e-06,376.00499999977893,4.179412e-06,376.00499999977893,4.196231e-06,376.00499999977893,8.91183e-06
376.0199999997789,5.523745e-06,376.0199999997789,4.114875e-06,376.0199999997789,4.073587e-06,376.0199999997789,8.642199e-06
376.0349999997789,5.571988e-06,376.0349999997789,4.209638e-06,376.0349999997789,4.003829e-06,376.0349999997789,8.576751e-06
376.0499999997789,5.56693e-06,376.0499999997789,3.932833e-06,376.0499999997789,3.925663e-06,376.0499999997789,8.442667e-06
376.0649999997789,5.541568e-06,376.0649999997789,4.024883e-06,376.0649999997789,3.889614e-06,376.0649999997789,8.323359e-06
376.07999999977886,5.56693e-06,376.07999999977886,4.660651e-06,376.07999999977886,3.979125e-06,376.07999999977886,8.190286e-06
376.09499999977885,5.597212e-06,376.09499999977885,4.453544e-06,376.09499999977885,4.01437e-06,376.09499999977885,7.588568e-06
376.10999999977884,5.291911e-06,376.10999999977884,4.599804e-06,376.10999999977884,4.125132e-06,376.10999999977884,7.993573e-06
376.1249999997788,5.216845e-06,376.1249999997788,4.602866e-06,376.1249999997788,4.104592e-06,376.1249999997788,8.009417e-06
376.1399999997788,5.154366e-06,376.1399999997788,4.645514e-06,376.1399999997788,3.91848e-06,376.1399999997788,8.095138e-06
376.1549999997788,5.029879e-06,376.1549999997788,4.68176e-06,376.1549999997788,3.696496e-06,376.1549999997788,8.062008e-06
376.1699999997788,5.013047e-06,376.1699999997788,4.525708e-06,376.1699999997788,3.779404e-06,376.1699999997788,7.885342e-06
376.18499999977877,4.942298e-06,376.18499999977877,4.896482e-06,376.18499999977877,4.05626e-06,376.18499999977877,7.584854e-06
376.19999999977875,5.08004e-06,376.19999999977875,4.756387e-06,376.19999999977875,4.035369e-06,376.19999999977875,7.444261e-06
376.21499999977874,5.110451e-06,376.21499999977874,5.038274e-06,376.21499999977874,3.932833e-06,376.21499999977874,7.217518e-06
376.2299999997787,5.074491e-06,376.2299999997787,4.939447e-06,376.2299999997787,3.914884e-06,376.2299999997787,6.959168e-06
376.2449999997787,5.082812e-06,376.2449999997787,5.096651e-06,376.2449999997787,3.911283e-06,376.2449999997787,6.701369e-06
376.2599999997787,5.088352e-06,376.2599999997787,5.102175e-06,376.2599999997787,3.878734e-06,376.2599999997787,6.720261e-06
376.2749999997787,5.192486e-06,376.2749999997787,5.208738e-06,376.2749999997787,3.896851e-06,376.2749999997787,6.650728e-06
376.2899999997787,4.984868e-06,376.2899999997787,5.197909e-06,376.2899999997787,4.073587e-06,376.2899999997787,6.614623e-06
376.30499999977866,4.907976e-06,376.30499999977866,5.275916e-06,376.30499999977866,4.192873e-06,376.30499999977866,6.571893e-06
376.31999999977864,5.032679e-06,376.31999999977864,4.75046e-06,376.31999999977864,4.402644e-06,376.31999999977864,6.518086e-06
376.33499999977863,4.939447e-06,376.33499999977863,4.547444e-06,376.33499999977863,4.424985e-06,376.33499999977863,7.219469e-06
376.3499999997786,4.812329e-06,376.3499999997786,4.491339e-06,376.3499999997786,4.36408e-06,376.3499999997786,7.287441e-06
376.3649999997786,4.82986e-06,376.3649999997786,4.4377e-06,376.3649999997786,4.29248e-06,376.3649999997786,6.892046e-06
376.3799999997786,4.850233e-06,376.3799999997786,4.510119e-06,376.3799999997786,4.373753e-06,376.3799999997786,6.745368e-06
376.3949999997786,4.956529e-06,376.3949999997786,4.513241e-06,376.3949999997786,4.4377e-06,376.3949999997786,6.834577e-06
376.40999999977856,5.041069e-06,376.40999999977856,4.510119e-06,376.40999999977856,4.321914e-06,376.40999999977856,6.795303e-06
376.42499999977855,5.12971e-06,376.42499999977855,4.488202e-06,376.42499999977855,4.182782e-06,376.42499999977855,6.96726e-06
376.43999999977854,5.162558e-06,376.43999999977854,4.216325e-06,376.43999999977854,4.077044e-06,376.43999999977854,6.896133e-06
376.4549999997785,5.227635e-06,376.4549999997785,4.077044e-06,376.4549999997785,4.083948e-06,376.4549999997785,6.795303e-06
376.4699999997785,5.251831e-06,376.4699999997785,3.820184e-06,376.4699999997785,4.169289e-06,376.4699999997785,6.906339e-06
376.4849999997785,8.671489e-06,376.4849999997785,3.786851e-06,376.4849999997785,4.021382e-06,376.4849999997785,6.936866e-06
376.4999999997785,1.064487e-05,376.4999999997785,3.78313e-06,376.4999999997785,4.0632e-06,376.4999999997785,7.105398e-06
376.51499999977847,1.637799e-05,376.51499999977847,3.860533e-06,376.51499999977847,4.118297e-06,376.51499999977847,7.041671e-06
376.52999999977845,1.672186e-05,376.52999999977845,3.73441e-06,376.52999999977845,4.125132e-06,376.52999999977845,7.03967e-06
376.54499999977844,1.810517e-05,376.54499999977844,3.685046e-06,376.54499999977844,4.024883e-06,376.54499999977844,7.071614e-06
376.5599999997784,1.990129e-05,376.5599999997784,3.730636e-06,376.5599999997784,3.764466e-06,376.5599999997784,7.14888e-06
376.5749999997784,2.096504e-05,376.5749999997784,3.775675e-06,376.5749999997784,3.768206e-06,376.5749999997784,7.493299e-06
376.5899999997784,2.54943e-05,376.5899999997784,4.575239e-06,376.5899999997784,3.82387e-06,376.5899999997784,6.822199e-06
376.6049999997784,2.840325e-05,376.6049999997784,5.230329e-06,376.6049999997784,3.838577e-06,376.6049999997784,6.524566e-06
376.6199999997784,3.627408e-05,376.6199999997784,5.310512e-06,376.6199999997784,3.764466e-06,376.6199999997784,6.912455e-06
376.63499999977836,3.66619e-05,376.63499999977836,5.34752e-06,376.63499999977836,3.764466e-06,376.63499999977836,6.908378e-06
376.64999999977834,3.671335e-05,376.64999999977834,5.331691e-06,376.64999999977834,3.834905e-06,376.64999999977834,7.031661e-06
376.66499999977833,3.67287e-05,376.66499999977833,5.379038e-06,376.66499999977833,3.84957e-06,376.66499999977833,7.322153e-06
376.6799999997783,3.674173e-05,376.6799999997783,5.265225e-06,376.6799999997783,3.856882e-06,376.6799999997783,7.735647e-06
376.6949999997783,3.674825e-05,376.6949999997783,5.273245e-06,376.6949999997783,3.797995e-06,376.6949999997783,7.660622e-06
376.7099999997783,3.705783e-05,376.7099999997783,5.299891e-06,376.7099999997783,4.038859e-06,376.7099999997783,8.023475e-06
376.7249999997783,3.750708e-05,376.7249999997783,5.331691e-06,376.7249999997783,4.367307e-06,376.7249999997783,8.093397e-06
376.73999999977826,3.690356e-05,376.73999999977826,5.719203e-06,376.73999999977826,4.887844e-06,376.73999999977826,7.928101e-06
376.75499999977825,3.53194e-05,376.75499999977825,6.070483e-06,376.75499999977825,4.990517e-06,376.75499999977825,7.97063e-06
376.76999999977824,3.490861e-05,376.76999999977824,6.044903e-06,376.76999999977824,5.222243e-06,376.76999999977824,7.915653e-06
376.7849999997782,3.517112e-05,376.7849999997782,6.141998e-06,376.7849999997782,5.394728e-06,376.7849999997782,7.988284e-06
376.7999999997782,3.411017e-05,376.7999999997782,6.205884e-06,376.7999999997782,5.953326e-06,376.7999999997782,7.753835e-06
376.8149999997782,3.380111e-05,376.8149999997782,6.132817e-06,376.8149999997782,6.107498e-06,376.8149999997782,7.680822e-06
376.8299999997782,3.348624e-05,376.8299999997782,5.841057e-06,376.8299999997782,6.026232e-06,376.8299999997782,7.542018e-06
376.84499999977817,2.987056e-05,376.84499999977817,5.365928e-06,376.84499999977817,6.068162e-06,376.84499999977817,7.597844e-06
376.85999999977815,2.664894e-05,376.85999999977815,4.905105e-06,376.85999999977815,6.644371e-06,376.85999999977815,7.434793e-06
376.87499999977814,1.75304e-05,376.87499999977814,5.104936e-06,376.87499999977814,6.676097e-06,376.87499999977814,7.623756e-06
376.8899999997781,1.724523e-05,376.8899999997781,4.998978e-06,376.8899999997781,6.910417e-06,376.8899999997781,7.693649e-06
376.9049999997781,1.733648e-05,376.9049999997781,5.032679e-06,376.9049999997781,7.335607e-06,376.9049999997781,7.947621e-06
376.9199999997781,1.760658e-05,376.9199999997781,5.032679e-06,376.9199999997781,7.799122e-06,376.9199999997781,7.555081e-06
376.9349999997781,1.801547e-05,376.9349999997781,5.132455e-06,376.9349999997781,8.023475e-06,376.9349999997781,7.838757e-06
376.9499999997781,1.814791e-05,376.9499999997781,5.12971e-06,376.9499999997781,8.357139e-06,376.9499999997781,7.854914e-06
376.96499999977806,1.676645e-05,376.96499999977806,5.154366e-06,376.96499999977806,8.492574e-06,376.96499999977806,7.610811e-06
376.97999999977804,1.704972e-05,376.97999999977804,5.206033e-06,376.97999999977804,8.34702e-06,376.97999999977804,7.742928e-06
376.99499999977803,1.723543e-05,376.99499999977803,4.824024e-06,376.99499999977803,8.400851e-06,376.99499999977803,7.750201e-06
377.009999999778,1.760978e-05,377.009999999778,4.654602e-06,377.009999999778,8.723317e-06,377.009999999778,7.781039e-06
377.024999999778,1.670079e-05,377.024999999778,4.651575e-06,377.024999999778,9.038959e-06,377.024999999778,7.691819e-06
377.039999999778,1.671006e-05,377.039999999778,4.587538e-06,377.039999999778,9.046747e-06,377.039999999778,7.746566e-06
377.054999999778,1.687198e-05,377.054999999778,4.535037e-06,377.054999999778,8.781259e-06,377.054999999778,8.042764e-06
377.06999999977796,1.652015e-05,377.06999999977796,4.541245e-06,377.06999999977796,9.558568e-06,377.06999999977796,8.243432e-06
377.08499999977795,1.575728e-05,377.08499999977795,4.488202e-06,377.08499999977795,9.677204e-06,377.08499999977795,8.253678e-06
377.09999999977794,1.592623e-05,377.09999999977794,4.666692e-06,377.09999999977794,9.690296e-06,377.09999999977794,8.509145e-06
377.1149999997779,1.551857e-05,377.1149999997779,4.711753e-06,377.1149999997779,9.713527e-06,377.1149999997779,8.632413e-06
377.1299999997779,1.555755e-05,377.1299999997779,4.513241e-06,377.1299999997779,1.043639e-05,377.1299999997779,8.385746e-06
377.1449999997779,1.558288e-05,377.1449999997779,4.615091e-06,377.1449999997779,1.073579e-05,377.1449999997779,8.59316e-06
377.1599999997779,1.536989e-05,377.1599999997779,4.815255e-06,377.1599999997779,1.051706e-05,377.1599999997779,8.063755e-06
377.17499999977787,1.49612e-05,377.17499999977787,4.861837e-06,377.17499999977787,1.048084e-05,377.17499999977787,8.016449e-06
377.18999999977785,1.460288e-05,377.18999999977785,4.984868e-06,377.18999999977785,1.042829e-05,377.18999999977785,7.744747e-06
377.20499999977784,1.428988e-05,377.20499999977784,5.184341e-06,377.20499999977784,1.053045e-05,377.20499999977784,7.68449e-06
377.2199999997778,1.419592e-05,377.2199999997778,5.088352e-06,377.2199999997778,1.06581e-05,377.2199999997778,7.675319e-06
377.2349999997778,1.388388e-05,377.2349999997778,5.02147e-06,377.2349999997778,1.05251e-05,377.2349999997778,7.465047e-06
377.2499999997778,1.318338e-05,377.2499999997778,4.861837e-06,377.2499999997778,1.044044e-05,377.2499999997778,7.575563e-06
377.2649999997778,1.275212e-05,377.2649999997778,4.627284e-06,377.2649999997778,9.864624e-06,377.2649999997778,7.545752e-06
377.2799999997778,1.127967e-05,377.2799999997778,4.675739e-06,377.2799999997778,9.749715e-06,377.2799999997778,7.671647e-06
377.29499999977776,1.061306e-05,377.29499999977776,4.702775e-06,377.29499999977776,9.701918e-06,377.29499999977776,7.506446e-06
377.30999999977774,1.010447e-05,377.30999999977774,4.714741e-06,377.30999999977774,9.506848e-06,377.30999999977774,7.551351e-06
377.32499999977773,9.328855e-06,377.32499999977773,4.884961e-06,377.32499999977773,8.794083e-06,377.32499999977773,7.40822e-06
377.3399999997777,9.315255e-06,377.3399999997777,5.018664e-06,377.3399999997777,8.456004e-06,377.3399999997777,7.872827e-06
377.3549999997777,8.609537e-06,377.3549999997777,5.187057e-06,377.3549999997777,8.176516e-06,377.3549999997777,7.558809e-06
377.3699999997777,8.195444e-06,377.3699999997777,5.291911e-06,377.3699999997777,7.833364e-06,377.3699999997777,7.532673e-06
377.3849999997777,7.21166e-06,377.3849999997777,5.415577e-06,377.3849999997777,6.720261e-06,377.3849999997777,7.562535e-06
377.39999999977766,7.19993e-06,377.39999999977766,5.872325e-06,377.39999999977766,6.384893e-06,377.39999999977766,7.242846e-06
377.41499999977765,7.358615e-06,377.41499999977765,6.079758e-06,377.41499999977765,6.047233e-06,377.41499999977765,7.164627e-06
377.42999999977764,9.74827e-06,377.42999999977764,5.943854e-06,377.42999999977764,5.495621e-06,377.42999999977764,7.398706e-06
377.4449999997776,1.027725e-05,377.4449999997776,5.872325e-06,377.4449999997776,5.015856e-06,377.4449999997776,7.394897e-06
377.4599999997776,1.035373e-05,377.4599999997776,5.826569e-06,377.4599999997776,4.690778e-06,377.4599999997776,7.50457e-06
377.4749999997776,1.069636e-05,377.4749999997776,5.795054e-06,377.4749999997776,4.212983e-06,377.4749999997776,7.46882e-06
377.4899999997776,1.117301e-05,377.4899999997776,5.860319e-06,377.4899999997776,4.038859e-06,377.4899999997776,7.474476e-06
377.50499999977757,1.120574e-05,377.50499999977757,5.855509e-06,377.50499999977757,3.860533e-06,377.50499999977757,7.62745e-06
377.51999999977755,1.127467e-05,377.51999999977755,5.8867e-06,377.51999999977755,3.801702e-06,377.51999999977755,7.470705e-06
377.53499999977754,1.121831e-05,377.53499999977754,5.967507e-06,377.53499999977754,3.556662e-06,377.53499999977754,7.85312e-06
377.5499999997775,1.128966e-05,377.5499999997775,5.960421e-06,377.5499999997775,3.340158e-06,377.5499999997775,8.651973e-06
377.5649999997775,1.138285e-05,377.5649999997775,5.884307e-06,377.5649999997775,3.386231e-06,377.5649999997775,8.733001e-06
377.5799999997775,1.132454e-05,377.5799999997775,5.780451e-06,377.5799999997775,3.524834e-06,377.5799999997775,8.716856e-06
377.5949999997775,1.110853e-05,377.5949999997775,5.559333e-06,377.5949999997775,3.631134e-06,377.5949999997775,8.707154e-06
377.6099999997775,1.113892e-05,377.6099999997775,5.222243e-06,377.6099999997775,3.760722e-06,377.6099999997775,8.827657e-06
377.62499999977746,1.105769e-05,377.62499999977746,5.118714e-06,377.62499999977746,3.986198e-06,377.62499999977746,9.324323e-06
377.63999999977744,1.083115e-05,377.63999999977744,5.124215e-06,377.63999999977744,3.982663e-06,377.63999999977744,9.315255e-06
377.65499999977743,1.056384e-05,377.65499999977743,4.229668e-06,377.65499999977743,3.964939e-06,377.65499999977743,9.451865e-06
377.6699999997774,1.029506e-05,377.6699999997774,4.169289e-06,377.6699999997774,3.972038e-06,377.6699999997774,9.240859e-06
377.6849999997774,8.174792e-06,377.6849999997774,4.142171e-06,377.6849999997774,3.922073e-06,377.6849999997774,9.618801e-06
377.6999999997774,7.845942e-06,377.6999999997774,4.121716e-06,377.6999999997774,3.834905e-06,377.6999999997774,9.579178e-06
377.7149999997774,7.256447e-06,377.7149999997774,4.142171e-06,377.7149999997774,3.809105e-06,377.7149999997774,9.546771e-06
377.72999999977736,6.953093e-06,377.72999999977736,4.182782e-06,377.72999999977736,3.812802e-06,377.72999999977736,9.617337e-06
377.74499999977735,6.079758e-06,377.74499999977735,4.199587e-06,377.74499999977735,3.771943e-06,377.74499999977735,9.65972e-06
377.75999999977734,5.972226e-06,377.75999999977734,4.104592e-06,377.75999999977734,3.845909e-06,377.75999999977734,9.701918e-06
377.7749999997773,5.872325e-06,377.7749999997773,3.964939e-06,377.7749999997773,3.904074e-06,377.7749999997773,9.749715e-06
377.7899999997773,6.007502e-06,377.7899999997773,3.957827e-06,377.7899999997773,4.090841e-06,377.7899999997773,9.127357e-06
377.8049999997773,5.765811e-06,377.8049999997773,3.982663e-06,377.8049999997773,4.125132e-06,377.8049999997773,8.561957e-06
377.8199999997773,6.049562e-06,377.8199999997773,3.96849e-06,377.8199999997773,4.138769e-06,377.8199999997773,8.355453e-06
377.83499999977727,6.093644e-06,377.83499999977727,4.172666e-06,377.83499999977727,3.96849e-06,377.83499999977727,8.188566e-06
377.84999999977725,6.208153e-06,377.84999999977725,4.262842e-06,377.84999999977725,3.914884e-06,377.84999999977725,7.972397e-06
377.86499999977724,6.237581e-06,377.86499999977724,4.328428e-06,377.86499999977724,3.749468e-06,377.86499999977724,7.755652e-06
377.8799999997772,6.233063e-06,377.8799999997772,4.128545e-06,377.8799999997772,3.688867e-06,377.8799999997772,7.293238e-06
377.8949999997772,6.141998e-06,377.8949999997772,3.943564e-06,377.8949999997772,3.786851e-06,377.8949999997772,7.156758e-06
377.9099999997772,6.543968e-06,377.9099999997772,3.943564e-06,377.9099999997772,3.860533e-06,377.9099999997772,7.156758e-06
377.9249999997772,6.614623e-06,377.9249999997772,4.114875e-06,377.9249999997772,3.961384e-06,377.9249999997772,6.894089e-06
377.93999999977717,6.80773e-06,377.93999999977717,4.128545e-06,377.93999999977717,3.989731e-06,377.93999999977717,6.580461e-06
377.95499999977716,6.79323e-06,377.95499999977716,4.223002e-06,377.95499999977716,3.771943e-06,377.95499999977716,6.389304e-06
377.96999999977714,7.069622e-06,377.96999999977714,4.038859e-06,377.96999999977714,3.794284e-06,377.96999999977714,6.928738e-06
377.98499999977713,7.093493e-06,377.98499999977713,4.125132e-06,377.98499999977713,3.730636e-06,377.98499999977713,6.616753e-06
377.9999999997771,7.00959e-06,377.9999999997771,4.393035e-06,377.9999999997771,3.726858e-06,377.9999999997771,6.832516e-06
378.0149999997771,7.04567e-06,378.0149999997771,4.36408e-06,378.0149999997771,3.885991e-06,378.0149999997771,6.938897e-06
378.0299999997771,7.03967e-06,378.0299999997771,4.35762e-06,378.0299999997771,3.911283e-06,378.0299999997771,6.975343e-06
378.0449999997771,7.033664e-06,378.0449999997771,4.409039e-06,378.0449999997771,3.707911e-06,378.0449999997771,7.03967e-06
378.05999999977706,6.916529e-06,378.05999999977706,4.36408e-06,378.05999999977706,3.78313e-06,378.05999999977706,7.057657e-06
378.07499999977705,6.774542e-06,378.07499999977705,4.360851e-06,378.07499999977705,3.853228e-06,378.07499999977705,7.081567e-06
378.08999999977704,6.690851e-06,378.08999999977704,4.077044e-06,378.08999999977704,3.893234e-06,378.08999999977704,6.902258e-06
378.104999999777,6.518086e-06,378.104999999777,4.05626e-06,378.104999999777,3.741947e-06,378.104999999777,6.995509e-06
378.119999999777,6.791156e-06,378.119999999777,4.021382e-06,378.119999999777,3.73441e-06,378.119999999777,6.971302e-06
378.134999999777,6.711871e-06,378.134999999777,4.077044e-06,378.134999999777,3.65048e-06,378.134999999777,6.96726e-06
378.149999999777,6.703471e-06,378.149999999777,4.090841e-06,378.149999999777,3.65048e-06,378.149999999777,7.133099e-06
378.16499999977697,6.325044e-06,378.16499999977697,4.212983e-06,378.16499999977697,3.715501e-06,378.16499999977697,6.981399e-06
378.17999999977695,6.373853e-06,378.17999999977695,4.007346e-06,378.17999999977695,3.685046e-06,378.17999999977695,7.04567e-06
378.19499999977694,6.075122e-06,378.19499999977694,4.038859e-06,378.19499999977694,3.771943e-06,378.19499999977694,7.156758e-06
378.2099999997769,6.554722e-06,378.2099999997769,3.961384e-06,378.2099999997769,3.816494e-06,378.2099999997769,6.908378e-06
378.2249999997769,7.256447e-06,378.2249999997769,3.764466e-06,378.2249999997769,3.925663e-06,378.2249999997769,6.707672e-06
378.2399999997769,7.434793e-06,378.2399999997769,3.65048e-06,378.2399999997769,4.052786e-06,378.2399999997769,6.48993e-06
378.2549999997769,7.413922e-06,378.2549999997769,3.488681e-06,378.2549999997769,4.010859e-06,378.2549999997769,6.692956e-06
378.26999999977687,7.308674e-06,378.26999999977687,3.584279e-06,378.26999999977687,3.867824e-06,378.26999999977687,6.476893e-06
378.28499999977686,7.05566e-06,378.28499999977686,3.520835e-06,378.28499999977686,3.768206e-06,378.28499999977686,6.470365e-06
378.29999999977684,7.05566e-06,378.29999999977684,3.406967e-06,378.29999999977684,3.756974e-06,378.29999999977684,6.625263e-06
378.31499999977683,7.156758e-06,378.31499999977683,3.427579e-06,378.31499999977683,3.584279e-06,378.31499999977683,6.513761e-06
378.3299999997768,7.125195e-06,378.3299999997768,3.4111e-06,378.3299999997768,3.73818e-06,378.3299999997768,6.894089e-06
378.3449999997768,7.135074e-06,378.3449999997768,3.464369e-06,378.3449999997768,3.638885e-06,378.3449999997768,6.947012e-06
378.3599999997768,7.061647e-06,378.3599999997768,3.435788e-06,378.3599999997768,3.603876e-06,378.3599999997768,7.053663e-06
378.3749999997768,6.916529e-06,378.3749999997768,3.390388e-06,378.3749999997768,3.73441e-06,378.3749999997768,7.304818e-06
378.38999999977676,7.083556e-06,378.38999999977676,3.456227e-06,378.38999999977676,3.665883e-06,378.38999999977676,7.429107e-06
378.40499999977675,7.099447e-06,378.40499999977675,3.448066e-06,378.40499999977675,3.677393e-06,378.40499999977675,7.446153e-06
378.41999999977673,7.087532e-06,378.41999999977673,3.435788e-06,378.41999999977673,3.54476e-06,378.41999999977673,7.429107e-06
378.4349999997767,6.985433e-06,378.4349999997767,3.394541e-06,378.4349999997767,3.669723e-06,378.4349999997767,7.341366e-06
378.4499999997767,6.69506e-06,378.4499999997767,3.382069e-06,378.4499999997767,3.741947e-06,378.4499999997767,7.436688e-06
378.4649999997767,6.171741e-06,378.4649999997767,3.394541e-06,378.4649999997767,3.745709e-06,378.4649999997767,7.40061e-06
378.4799999997767,5.262549e-06,378.4799999997767,3.452149e-06,378.4799999997767,3.816494e-06,378.4799999997767,7.372003e-06
378.49499999977667,5.107694e-06,378.49499999977667,3.406967e-06,378.49499999977667,3.658189e-06,378.49499999977667,7.721065e-06
378.50999999977665,5.187057e-06,378.50999999977665,3.352786e-06,378.50999999977665,3.753223e-06,378.50999999977665,7.573703e-06
378.52499999977664,5.230329e-06,378.52499999977664,3.29344e-06,378.52499999977664,3.950702e-06,378.52499999977664,7.753835e-06
378.5399999997766,5.275916e-06,378.5399999997766,3.250386e-06,378.5399999997766,4.024883e-06,378.5399999997766,7.666136e-06
378.5549999997766,5.251831e-06,378.5549999997766,3.297714e-06,378.5549999997766,4.045829e-06,378.5549999997766,7.581139e-06
378.5699999997766,5.184341e-06,378.5699999997766,3.439886e-06,378.5699999997766,3.943564e-06,378.5699999997766,7.442368e-06
378.5849999997766,5.197909e-06,378.5849999997766,3.460301e-06,378.5849999997766,4.066665e-06,378.5849999997766,7.287441e-06
378.59999999977657,5.278585e-06,378.59999999977657,3.78313e-06,378.59999999977657,4.186148e-06,378.59999999977657,7.22337e-06
378.61499999977656,5.251831e-06,378.61499999977656,4.431347e-06,378.61499999977656,4.20629e-06,378.61499999977656,7.15282e-06
378.62999999977654,5.211442e-06,378.62999999977654,4.702775e-06,378.62999999977654,4.070128e-06,378.62999999977654,6.867475e-06
378.64499999977653,5.181623e-06,378.64499999977653,4.905105e-06,378.64499999977653,4.389827e-06,378.64499999977653,6.705572e-06
378.6599999997765,4.998978e-06,378.6599999997765,4.867628e-06,378.6599999997765,4.447213e-06,378.6599999997765,6.896133e-06
378.6749999997765,4.771172e-06,378.6749999997765,4.916579e-06,378.6749999997765,4.556728e-06,378.6749999997765,7.059652e-06
378.6899999997765,4.741556e-06,378.6899999997765,4.925167e-06,378.6899999997765,4.447213e-06,378.6899999997765,7.194059e-06
378.7049999997765,4.976383e-06,378.7049999997765,4.998978e-06,378.7049999997765,4.412233e-06,378.7049999997765,7.047669e-06
378.71999999977646,4.867628e-06,378.71999999977646,5.099414e-06,378.71999999977646,4.236323e-06,378.71999999977646,7.059652e-06
378.73499999977645,4.873412e-06,378.73499999977645,5.154366e-06,378.73499999977645,4.31539e-06,378.73499999977645,6.981399e-06
378.74999999977643,4.788854e-06,378.74999999977643,5.162558e-06,378.74999999977643,4.341427e-06,378.74999999977643,6.556871e-06
378.7649999997764,4.887844e-06,378.7649999997764,5.200618e-06,378.7649999997764,4.259536e-06,378.7649999997764,6.415707e-06
378.7799999997764,4.887844e-06,378.7799999997764,5.219545e-06,378.7799999997764,4.172666e-06,378.7799999997764,6.48993e-06
378.7949999997764,5.096651e-06,378.7949999997764,5.216845e-06,378.7949999997764,4.186148e-06,378.7949999997764,6.511599e-06
378.8099999997764,5.088352e-06,378.8099999997764,5.135199e-06,378.8099999997764,4.192873e-06,378.8099999997764,6.848989e-06
378.82499999977637,5.355417e-06,378.82499999977637,5.184341e-06,378.82499999977637,4.232997e-06,378.82499999977637,7.2971e-06
378.83999999977635,5.405162e-06,378.83999999977635,5.243778e-06,378.83999999977635,4.104592e-06,378.83999999977635,7.250621e-06
378.85499999977634,5.289249e-06,378.85499999977634,4.856038e-06,378.85499999977634,4.049309e-06,378.85499999977634,7.137048e-06
378.8699999997763,5.334332e-06,378.8699999997763,4.179412e-06,378.8699999997763,4.169289e-06,378.8699999997763,7.215565e-06
378.8849999997763,5.48279e-06,378.8849999997763,4.028382e-06,378.8849999997763,4.162526e-06,378.8849999997763,7.972397e-06
378.8999999997763,5.503306e-06,378.8999999997763,4.645514e-06,378.8999999997763,3.812802e-06,378.8999999997763,7.944076e-06
378.9149999997763,5.853103e-06,378.9149999997763,4.821102e-06,378.9149999997763,3.726858e-06,378.9149999997763,7.72289e-06
378.92999999977627,5.881913e-06,378.92999999977627,4.916579e-06,378.92999999977627,3.638885e-06,378.92999999977627,7.779228e-06
378.94499999977626,5.877121e-06,378.94499999977626,4.907976e-06,378.94499999977626,3.677393e-06,378.94499999977626,8.089915e-06
378.95999999977624,5.785323e-06,378.95999999977624,4.832776e-06,378.95999999977624,3.654337e-06,378.95999999977624,8.224612e-06
378.97499999977623,5.799914e-06,378.97499999977623,5.018664e-06,378.97499999977623,3.715501e-06,378.97499999977623,8.834038e-06
378.9899999997762,5.81689e-06,378.9899999997762,5.001795e-06,378.9899999997762,3.67356e-06,378.9899999997762,8.960697e-06
379.0049999997762,5.826569e-06,379.0049999997762,5.173461e-06,379.0049999997762,3.73818e-06,379.0049999997762,9.035841e-06
379.0199999997762,5.802342e-06,379.0199999997762,5.477649e-06,379.0199999997762,3.756974e-06,379.0199999997762,9.017113e-06
379.0349999997762,5.687093e-06,379.0349999997762,5.459618e-06,379.0349999997762,3.794284e-06,379.0349999997762,9.045189e-06
379.04999999977616,5.61731e-06,379.04999999977616,5.48279e-06,379.04999999977616,3.753223e-06,379.04999999977616,9.130444e-06
379.06499999977615,5.753582e-06,379.06499999977615,5.526294e-06,379.06499999977615,3.749468e-06,379.06499999977615,9.087142e-06
379.07999999977613,5.627332e-06,379.07999999977613,5.587136e-06,379.07999999977613,3.856882e-06,379.07999999977613,8.674737e-06
379.0949999997761,5.684616e-06,379.0949999997761,5.544109e-06,379.0949999997761,3.827552e-06,379.0949999997761,9.080939e-06
379.1099999997761,5.672212e-06,379.1099999997761,5.53139e-06,379.1099999997761,3.797995e-06,379.1099999997761,9.079387e-06
379.1249999997761,5.627332e-06,379.1249999997761,5.526294e-06,379.1249999997761,3.669723e-06,379.1249999997761,9.161248e-06
379.1399999997761,5.48022e-06,379.1399999997761,5.467352e-06,379.1399999997761,3.707911e-06,379.1399999997761,8.638938e-06
379.15499999977607,5.386888e-06,379.15499999977607,4.774123e-06,379.15499999977607,3.827552e-06,379.15499999977607,8.734614e-06
379.16999999977605,5.189773e-06,379.16999999977605,4.639445e-06,379.16999999977605,3.8751e-06,379.16999999977605,8.723317e-06
379.18499999977604,5.211442e-06,379.18499999977604,4.70577e-06,379.18499999977604,3.889614e-06,379.18499999977604,8.432649e-06
379.199999999776,4.998978e-06,379.199999999776,4.69378e-06,379.199999999776,3.91848e-06,379.199999999776,8.377342e-06
379.214999999776,4.998978e-06,379.214999999776,4.690778e-06,379.214999999776,3.8751e-06,379.214999999776,8.089915e-06
379.229999999776,5.281253e-06,379.229999999776,4.318654e-06,379.229999999776,3.845909e-06,379.229999999776,7.410121e-06
379.244999999776,5.254512e-06,379.244999999776,4.453544e-06,379.244999999776,3.775675e-06,379.244999999776,7.308674e-06
379.25999999977597,5.344885e-06,379.25999999977597,4.148967e-06,379.25999999977597,3.611685e-06,379.25999999977597,7.362442e-06
379.27499999977596,5.257193e-06,379.27499999977596,4.162526e-06,379.27499999977596,3.556662e-06,379.27499999977596,7.404416e-06
379.28999999977594,5.554263e-06,379.28999999977594,4.169289e-06,379.28999999977594,3.532818e-06,379.28999999977594,7.562535e-06
379.30499999977593,5.546649e-06,379.30499999977593,4.20294e-06,379.30499999977593,3.635012e-06,379.30499999977593,7.487657e-06
379.3199999997759,5.402556e-06,379.3199999997759,4.182782e-06,379.3199999997759,3.669723e-06,379.3199999997759,7.329844e-06
379.3349999997759,5.423375e-06,379.3349999997759,4.070128e-06,379.3349999997759,3.90768e-06,379.3349999997759,7.293238e-06
379.3499999997759,5.477649e-06,379.3499999997759,4.155752e-06,379.3499999997759,3.936414e-06,379.3499999997759,7.035667e-06
379.3649999997759,5.692045e-06,379.3649999997759,4.223002e-06,379.3649999997759,3.8751e-06,379.3649999997759,7.283574e-06
379.37999999977586,5.778013e-06,379.37999999977586,4.383405e-06,379.37999999977586,3.975583e-06,379.37999999977586,7.455606e-06
379.39499999977585,5.850696e-06,379.39499999977585,4.431347e-06,379.39499999977585,3.911283e-06,379.39499999977585,7.746566e-06
379.40999999977583,5.927241e-06,379.40999999977583,4.383405e-06,379.40999999977583,3.756974e-06,379.40999999977583,7.867457e-06
379.4249999997758,5.95096e-06,379.4249999997758,4.242968e-06,379.4249999997758,3.749468e-06,379.4249999997758,7.919212e-06
379.4399999997758,5.903427e-06,379.4399999997758,4.172666e-06,379.4399999997758,3.70411e-06,379.4399999997758,7.899621e-06
379.4549999997758,5.903427e-06,379.4549999997758,4.169289e-06,379.4549999997758,3.681221e-06,379.4549999997758,7.928101e-06
379.4699999997758,6.002811e-06,379.4699999997758,4.101159e-06,379.4699999997758,3.700305e-06,379.4699999997758,8.154087e-06
379.48499999977577,5.785323e-06,379.48499999977577,4.052786e-06,379.48499999977577,3.662038e-06,379.48499999977577,7.995334e-06
379.49999999977575,5.828986e-06,379.49999999977575,3.99326e-06,379.49999999977575,3.67356e-06,379.49999999977575,8.098617e-06
379.51499999977574,5.782887e-06,379.51499999977574,3.771943e-06,379.51499999977574,3.78313e-06,379.51499999977574,7.93698e-06
379.5299999997757,5.908198e-06,379.5299999997757,3.871464e-06,379.5299999997757,3.82387e-06,379.5299999997757,7.741108e-06
379.5449999997757,6.132817e-06,379.5449999997757,3.922073e-06,379.5449999997757,3.816494e-06,379.5449999997757,7.549485e-06
379.5599999997757,6.098266e-06,379.5599999997757,4.010859e-06,379.5599999997757,3.631134e-06,379.5599999997757,7.66246e-06
379.5749999997757,6.03324e-06,379.5749999997757,3.961384e-06,379.5749999997757,3.548731e-06,379.5749999997757,7.66246e-06
379.58999999977567,6.009847e-06,379.58999999977567,3.939991e-06,379.58999999977567,3.297714e-06,379.58999999977567,7.691819e-06
379.60499999977566,5.943854e-06,379.60499999977566,4.000309e-06,379.60499999977566,3.254718e-06,379.60499999977566,7.62006e-06
379.61999999977564,5.768253e-06,379.61999999977564,3.943564e-06,379.61999999977564,3.259043e-06,379.61999999977564,7.158726e-06
379.63499999977563,5.741327e-06,379.63499999977563,3.84957e-06,379.63499999977563,3.197958e-06,379.63499999977563,7.117283e-06
379.6499999997756,5.674694e-06,379.6499999997756,3.812802e-06,379.6499999997756,3.250386e-06,379.6499999997756,6.762054e-06
379.6649999997756,5.462197e-06,379.6649999997756,3.756974e-06,379.6649999997756,3.11314e-06,379.6649999997756,6.54612e-06
379.6799999997756,5.546649e-06,379.6799999997756,3.996786e-06,379.6799999997756,3.314757e-06,379.6799999997756,6.342836e-06
379.6949999997756,5.627332e-06,379.6949999997756,4.412233e-06,379.6949999997756,3.398688e-06,379.6949999997756,6.271365e-06
379.70999999977556,5.556798e-06,379.70999999977556,4.469331e-06,379.70999999977556,3.476546e-06,379.70999999977556,6.06584e-06
379.72499999977555,5.521194e-06,379.72499999977555,4.510119e-06,379.72499999977555,3.472492e-06,379.72499999977555,6.037908e-06
379.73999999977553,5.604757e-06,379.73999999977553,4.428167e-06,379.73999999977553,3.528828e-06,379.73999999977553,6.162605e-06
379.7549999997755,5.518642e-06,379.7549999997755,4.412233e-06,379.7549999997755,3.658189e-06,379.7549999997755,6.155743e-06
379.7699999997755,5.254512e-06,379.7699999997755,4.393035e-06,379.7699999997755,3.500774e-06,379.7699999997755,6.282586e-06
379.7849999997755,5.088352e-06,379.7849999997755,4.386617e-06,379.7849999997755,3.536803e-06,379.7849999997755,6.284828e-06
379.7999999997755,4.902232e-06,379.7999999997755,4.402644e-06,379.7999999997755,3.532818e-06,379.7999999997755,6.646491e-06
379.81499999977547,4.893604e-06,379.81499999977547,4.338181e-06,379.81499999977547,3.548731e-06,379.81499999977547,6.646491e-06
379.82999999977545,4.824024e-06,379.82999999977545,4.393035e-06,379.82999999977545,3.464369e-06,379.82999999977545,6.780777e-06
379.84499999977544,4.675739e-06,379.84499999977544,4.325173e-06,379.84499999977544,3.484641e-06,379.84499999977544,6.450741e-06
379.8599999997754,4.494475e-06,379.8599999997754,4.569077e-06,379.8599999997754,3.532818e-06,379.8599999997754,6.53104e-06
379.8749999997754,4.491339e-06,379.8749999997754,4.615091e-06,379.8749999997754,3.452149e-06,379.8749999997754,6.528882e-06
379.8899999997754,4.418613e-06,379.8899999997754,4.596741e-06,379.8899999997754,3.520835e-06,379.8899999997754,6.450741e-06
379.9049999997754,4.360851e-06,379.9049999997754,4.612038e-06,379.9049999997754,3.65048e-06,379.9049999997754,6.608231e-06
379.91999999977537,4.593675e-06,379.91999999977537,4.657627e-06,379.91999999977537,3.90768e-06,379.91999999977537,6.832516e-06
379.93499999977536,4.753424e-06,379.93499999977536,4.232997e-06,379.93499999977536,3.779404e-06,379.93499999977536,6.971302e-06
379.94999999977534,4.774123e-06,379.94999999977534,4.226336e-06,379.94999999977534,4.070128e-06,379.94999999977534,6.96726e-06
379.96499999977533,4.803539e-06,379.96499999977533,4.318654e-06,379.96499999977533,4.097722e-06,379.96499999977533,7.023643e-06
379.9799999997753,4.711753e-06,379.9799999997753,4.338181e-06,379.9799999997753,4.128545e-06,379.9799999997753,7.03967e-06
379.9949999997753,5.102175e-06,379.9949999997753,4.367307e-06,379.9949999997753,4.135364e-06,379.9949999997753,7.46882e-06
380.0099999997753,5.200618e-06,380.0099999997753,4.434525e-06,380.0099999997753,4.070128e-06,380.0099999997753,7.607108e-06
380.0249999997753,5.137942e-06,380.0249999997753,4.38019e-06,380.0249999997753,4.097722e-06,380.0249999997753,8.145445e-06
380.03999999977526,5.536481e-06,380.03999999977526,4.249604e-06,380.03999999977526,4.354386e-06,380.03999999977526,7.952937e-06
380.05499999977525,5.632336e-06,380.05499999977525,4.809401e-06,380.05499999977525,4.412233e-06,380.05499999977525,8.599714e-06
380.06999999977523,5.946224e-06,380.06999999977523,5.431162e-06,380.06999999977523,4.519479e-06,380.06999999977523,1.053312e-05
380.0849999997752,6.128222e-06,380.0849999997752,5.418178e-06,380.0849999997752,4.538142e-06,380.0849999997752,1.118183e-05
380.0999999997752,6.262374e-06,380.0999999997752,5.444114e-06,380.0999999997752,4.559819e-06,380.0999999997752,1.13096e-05
380.1149999997752,6.331722e-06,380.1149999997752,5.350154e-06,380.1149999997752,4.587538e-06,380.1149999997752,1.123337e-05
380.1299999997752,6.398117e-06,380.1299999997752,5.381656e-06,380.1299999997752,4.590608e-06,380.1299999997752,1.119694e-05
380.14499999977517,6.479067e-06,380.14499999977517,5.549188e-06,380.14499999977517,4.503868e-06,380.14499999977517,1.122835e-05
380.15999999977515,6.463831e-06,380.15999999977515,5.682137e-06,380.15999999977515,4.4218e-06,380.15999999977515,1.125091e-05
380.17499999977514,6.468188e-06,380.17499999977514,5.736418e-06,380.17499999977514,4.299038e-06,380.17499999977514,1.117931e-05
380.1899999997751,6.389304e-06,380.1899999997751,5.81689e-06,380.1899999997751,4.070128e-06,380.1899999997751,1.14421e-05
380.2049999997751,6.50294e-06,380.2049999997751,5.589657e-06,380.2049999997751,4.031877e-06,380.2049999997751,1.176263e-05
380.2199999997751,6.682424e-06,380.2199999997751,5.53139e-06,380.2199999997751,3.957827e-06,380.2199999997751,1.175903e-05
380.2349999997751,6.468188e-06,380.2349999997751,5.627332e-06,380.2349999997751,4.090841e-06,380.2349999997751,1.159375e-05
380.24999999977507,6.255622e-06,380.24999999977507,5.561867e-06,380.24999999977507,4.192873e-06,380.24999999977507,1.135807e-05
380.26499999977506,6.485587e-06,380.26499999977506,5.526294e-06,380.26499999977506,4.232997e-06,380.26499999977506,1.097714e-05
380.27999999977504,6.393712e-06,380.27999999977504,5.667242e-06,380.27999999977504,4.282623e-06,380.27999999977504,1.091407e-05
380.29499999977503,6.167175e-06,380.29499999977503,5.505864e-06,380.29499999977503,3.878734e-06,380.29499999977503,1.081944e-05
380.309999999775,6.196798e-06,380.309999999775,5.162558e-06,380.309999999775,3.896851e-06,380.309999999775,1.036189e-05
380.324999999775,5.960421e-06,380.324999999775,4.488202e-06,380.324999999775,3.779404e-06,380.324999999775,8.157542e-06
380.339999999775,5.960421e-06,380.339999999775,4.618143e-06,380.339999999775,3.893234e-06,380.339999999775,7.651422e-06
380.354999999775,5.95096e-06,380.354999999775,4.702775e-06,380.354999999775,3.936414e-06,380.354999999775,7.491418e-06
380.36999999977496,6.051891e-06,380.36999999977496,4.469331e-06,380.36999999977496,3.90768e-06,380.36999999977496,7.466933e-06
380.38499999977495,6.151165e-06,380.38499999977495,4.453544e-06,380.38499999977495,3.936414e-06,380.38499999977495,7.532673e-06
380.39999999977493,6.086705e-06,380.39999999977493,4.101159e-06,380.39999999977493,4.077044e-06,380.39999999977493,7.555081e-06
380.4149999997749,6.139704e-06,380.4149999997749,4.021382e-06,380.4149999997749,4.003829e-06,380.4149999997749,7.92099e-06
380.4299999997749,6.005157e-06,380.4299999997749,3.972038e-06,380.4299999997749,3.957827e-06,380.4299999997749,7.944076e-06
380.4449999997749,5.862722e-06,380.4449999997749,3.896851e-06,380.4449999997749,3.950702e-06,380.4449999997749,7.737468e-06
380.4599999997749,5.782887e-06,380.4599999997749,3.904074e-06,380.4599999997749,3.964939e-06,380.4599999997749,7.764728e-06
380.47499999977487,5.773135e-06,380.47499999977487,3.982663e-06,380.47499999977487,3.950702e-06,380.47499999977487,7.872827e-06
380.48999999977485,5.877121e-06,380.48999999977485,3.939991e-06,380.48999999977485,3.588207e-06,380.48999999977485,7.897837e-06
380.50499999977484,5.802342e-06,380.50499999977484,4.080498e-06,380.50499999977484,3.619477e-06,380.50499999977484,8.114256e-06
380.5199999997748,5.824151e-06,380.5199999997748,4.059732e-06,380.5199999997748,3.520835e-06,380.5199999997748,8.542191e-06
380.5349999997748,5.797484e-06,380.5349999997748,3.845909e-06,380.5349999997748,3.468433e-06,380.5349999997748,8.55208e-06
380.5499999997748,5.795054e-06,380.5499999997748,3.771943e-06,380.5499999997748,3.528828e-06,380.5499999997748,8.789276e-06
380.5649999997748,5.719203e-06,380.5649999997748,3.84957e-06,380.5649999997748,3.452149e-06,380.5649999997748,8.770023e-06
380.57999999977477,6.075122e-06,380.57999999977477,3.943564e-06,380.57999999977477,3.448066e-06,380.57999999977477,8.499207e-06
380.59499999977476,6.176305e-06,380.59499999977476,4.0632e-06,380.59499999977476,3.276286e-06,380.59499999977476,8.444335e-06
380.60999999977474,5.93674e-06,380.60999999977474,4.080498e-06,380.60999999977474,3.377901e-06,380.60999999977474,8.482616e-06
380.62499999977473,6.023894e-06,380.62499999977473,4.083948e-06,380.62499999977473,3.394541e-06,380.62499999977473,8.684475e-06
380.6399999997747,5.773135e-06,380.6399999997747,4.087396e-06,380.6399999997747,3.219907e-06,380.6399999997747,9.133529e-06
380.6549999997747,5.804769e-06,380.6549999997747,4.0632e-06,380.6549999997747,3.135683e-06,380.6549999997747,8.974835e-06
380.6699999997747,5.539025e-06,380.6699999997747,4.038859e-06,380.6699999997747,3.144655e-06,380.6699999997747,8.926046e-06
380.6849999997747,5.731505e-06,380.6849999997747,3.972038e-06,380.6849999997747,3.323245e-06,380.6849999997747,8.800488e-06
380.69999999977466,5.802342e-06,380.69999999977466,4.028382e-06,380.69999999977466,3.206755e-06,380.69999999977466,8.826061e-06
380.71499999977465,5.726587e-06,380.71499999977465,3.950702e-06,380.71499999977465,3.276286e-06,380.71499999977465,8.81648e-06
380.72999999977463,5.857914e-06,380.72999999977463,3.986198e-06,380.72999999977463,3.28916e-06,380.72999999977463,9.104177e-06
380.7449999997746,5.943854e-06,380.7449999997746,3.964939e-06,380.7449999997746,3.276286e-06,380.7449999997746,9.29406e-06
380.7599999997746,5.807196e-06,380.7599999997746,4.209638e-06,380.7599999997746,3.314757e-06,380.7599999997746,8.973265e-06
380.7749999997746,6.107498e-06,380.7749999997746,4.305587e-06,380.7749999997746,3.435788e-06,380.7749999997746,8.712006e-06
380.7899999997746,5.991066e-06,380.7899999997746,4.318654e-06,380.7899999997746,3.394541e-06,380.7899999997746,8.533942e-06
380.80499999977457,5.998116e-06,380.80499999977457,4.279333e-06,380.80499999977457,3.427579e-06,380.80499999977457,8.36893e-06
380.81999999977455,5.908198e-06,380.81999999977455,4.212983e-06,380.81999999977455,3.59605e-06,380.81999999977455,8.452672e-06
380.83499999977454,5.634837e-06,380.83499999977454,4.192873e-06,380.83499999977454,3.685046e-06,380.83499999977454,8.604628e-06
380.8499999997745,5.659781e-06,380.8499999997745,3.82387e-06,380.8499999997745,3.654337e-06,380.8499999997745,8.926046e-06
380.8649999997745,5.624828e-06,380.8649999997745,3.882364e-06,380.8649999997745,3.723076e-06,380.8649999997745,8.92131e-06
380.8799999997745,5.711809e-06,380.8799999997745,3.950702e-06,380.8799999997745,3.768206e-06,380.8799999997745,8.792481e-06
380.8949999997745,5.860319e-06,380.8949999997745,3.979125e-06,380.8949999997745,3.753223e-06,380.8949999997745,8.326743e-06
380.90999999977447,5.841057e-06,380.90999999977447,4.042345e-06,380.90999999977447,3.78313e-06,380.90999999977447,8.729774e-06
380.92499999977446,5.802342e-06,380.92499999977446,4.073587e-06,380.92499999977446,3.797995e-06,380.92499999977446,8.89601e-06
380.93999999977444,5.674694e-06,380.93999999977444,4.125132e-06,380.93999999977444,3.685046e-06,380.93999999977444,9.173541e-06
380.95499999977443,5.654801e-06,380.95499999977443,4.131956e-06,380.95499999977443,3.646619e-06,380.95499999977443,8.560311e-06
380.9699999997744,5.523745e-06,380.9699999997744,4.169289e-06,380.9699999997744,3.700305e-06,380.9699999997744,8.658483e-06
380.9849999997744,5.48279e-06,380.9849999997744,4.199587e-06,380.9849999997744,3.753223e-06,380.9849999997744,8.224612e-06
380.9999999997744,5.379038e-06,380.9999999997744,4.114875e-06,380.9999999997744,3.904074e-06,380.9999999997744,8.251971e-06
381.0149999997744,5.176183e-06,381.0149999997744,3.665883e-06,381.0149999997744,4.083948e-06,381.0149999997744,8.512456e-06
381.02999999977436,5.066156e-06,381.02999999977436,3.768206e-06,381.02999999977436,4.010859e-06,381.02999999977436,8.287742e-06
381.04499999977435,5.168013e-06,381.04499999977435,3.8751e-06,381.04499999977435,3.972038e-06,381.04499999977435,8.402527e-06
381.05999999977433,5.082812e-06,381.05999999977433,3.92925e-06,381.05999999977433,4.066665e-06,381.05999999977433,8.379024e-06
381.0749999997743,5.102175e-06,381.0749999997743,3.932833e-06,381.0749999997743,3.900464e-06,381.0749999997743,8.238303e-06
381.0899999997743,5.265225e-06,381.0899999997743,3.975583e-06,381.0899999997743,3.889614e-06,381.0899999997743,8.335198e-06
381.1049999997743,5.405162e-06,381.1049999997743,4.007346e-06,381.1049999997743,3.853228e-06,381.1049999997743,8.075974e-06
381.1199999997743,5.48022e-06,381.1199999997743,3.975583e-06,381.1199999997743,3.805405e-06,381.1199999997743,8.150632e-06
381.13499999977427,5.505864e-06,381.13499999977427,4.028382e-06,381.13499999977427,3.665883e-06,381.13499999977427,8.019962e-06
381.14999999977425,5.350154e-06,381.14999999977425,3.986198e-06,381.14999999977425,3.723076e-06,381.14999999977425,8.395818e-06
381.16499999977424,5.423375e-06,381.16499999977424,4.003829e-06,381.16499999977424,3.707911e-06,381.16499999977424,7.820766e-06
381.1799999997742,5.418178e-06,381.1799999997742,4.010859e-06,381.1799999997742,3.768206e-06,381.1799999997742,7.564397e-06
381.1949999997742,5.407768e-06,381.1949999997742,3.982663e-06,381.1949999997742,3.779404e-06,381.1949999997742,7.448044e-06
381.2099999997742,5.495621e-06,381.2099999997742,4.045829e-06,381.2099999997742,3.78313e-06,381.2099999997742,7.50457e-06
381.2249999997742,5.604757e-06,381.2249999997742,5.165286e-06,381.2249999997742,3.552699e-06,381.2249999997742,7.432898e-06
381.23999999977417,5.495621e-06,381.23999999977417,5.599728e-06,381.23999999977417,3.524834e-06,381.23999999977417,7.312527e-06
381.25499999977416,5.407768e-06,381.25499999977416,5.850696e-06,381.25499999977416,3.340158e-06,381.25499999977416,7.15085e-06
381.26999999977414,5.464775e-06,381.26999999977414,5.809621e-06,381.26999999977414,3.284874e-06,381.26999999977414,7.229218e-06
381.28499999977413,5.464775e-06,381.28499999977413,5.819312e-06,381.28499999977413,3.297714e-06,381.28499999977413,7.023643e-06
381.2999999997741,5.433755e-06,381.2999999997741,5.831403e-06,381.2999999997741,3.276286e-06,381.2999999997741,6.900217e-06
381.3149999997741,5.528843e-06,381.3149999997741,6.002811e-06,381.3149999997741,3.206755e-06,381.3149999997741,7.043671e-06
381.3299999997741,5.433755e-06,381.3299999997741,5.969867e-06,381.3299999997741,3.271984e-06,381.3299999997741,7.115304e-06
381.3449999997741,5.187057e-06,381.3449999997741,5.953326e-06,381.3449999997741,3.29344e-06,381.3449999997741,6.881819e-06
381.35999999977406,4.838602e-06,381.35999999977406,5.865124e-06,381.35999999977406,3.271984e-06,381.35999999977406,6.772462e-06
381.37499999977405,4.729657e-06,381.37499999977405,5.824151e-06,381.37499999977405,3.206755e-06,381.37499999977405,6.690851e-06
381.38999999977403,4.645514e-06,381.38999999977403,5.896265e-06,381.38999999977403,3.297714e-06,381.38999999977403,6.795303e-06
381.404999999774,4.642481e-06,381.404999999774,5.976941e-06,381.404999999774,3.394541e-06,381.404999999774,6.42229e-06
381.419999999774,4.81818e-06,381.419999999774,5.976941e-06,381.419999999774,3.448066e-06,381.419999999774,6.367219e-06
381.434999999774,4.976383e-06,381.434999999774,6.035575e-06,381.434999999774,3.40283e-06,381.434999999774,6.325044e-06
381.449999999774,5.015856e-06,381.449999999774,6.345057e-06,381.449999999774,3.427579e-06,381.449999999774,6.356147e-06
381.46499999977397,4.876302e-06,381.46499999977397,6.69506e-06,381.46499999977397,3.488681e-06,381.46499999977397,6.433248e-06
381.47999999977395,4.87919e-06,381.47999999977395,6.402519e-06,381.47999999977395,3.627253e-06,381.47999999977395,6.616753e-06
381.49499999977394,4.873412e-06,381.49499999977394,8.734614e-06,381.49499999977394,3.756974e-06,381.49499999977394,6.552573e-06
381.5099999997739,4.887844e-06,381.5099999997739,1.312233e-05,381.5099999997739,3.707911e-06,381.5099999997739,6.349495e-06
381.5249999997739,5.029879e-06,381.5249999997739,1.452357e-05,381.5249999997739,3.753223e-06,381.5249999997739,6.498606e-06
381.5399999997739,5.08004e-06,381.5399999997739,1.532584e-05,381.5399999997739,3.809105e-06,381.5399999997739,6.703471e-06
381.5549999997739,5.254512e-06,381.5549999997739,1.621028e-05,381.5549999997739,3.794284e-06,381.5549999997739,6.826328e-06
381.56999999977387,5.995767e-06,381.56999999977387,1.785446e-05,381.56999999977387,3.768206e-06,381.56999999977387,6.782854e-06
381.58499999977386,6.522406e-06,381.58499999977386,1.84451e-05,381.58499999977386,3.726858e-06,381.58499999977386,7.146909e-06
381.59999999977384,7.721065e-06,381.59999999977384,2.075977e-05,381.59999999977384,3.867824e-06,381.59999999977384,7.089519e-06
381.61499999977383,7.894269e-06,381.61499999977383,2.139074e-05,381.61499999977383,4.05626e-06,381.61499999977383,7.178377e-06
381.6299999997738,8.37566e-06,381.6299999997738,2.212365e-05,381.6299999997738,4.131956e-06,381.6299999997738,7.594135e-06
381.6449999997738,1.060377e-05,381.6449999997738,2.329721e-05,381.6449999997738,4.179412e-06,381.6449999997738,7.449935e-06
381.6599999997738,1.345205e-05,381.6599999997738,2.332138e-05,381.6599999997738,5.485359e-06,381.6599999997738,7.691819e-06
381.6749999997738,1.597833e-05,381.6749999997738,2.479174e-05,381.6749999997738,6.000464e-06,381.6749999997738,7.849532e-06
381.68999999977376,1.62857e-05,381.68999999977376,2.500954e-05,381.68999999977376,6.678206e-06,381.68999999977376,7.93343e-06
381.70499999977375,1.808025e-05,381.70499999977375,2.509781e-05,381.70499999977375,7.845942e-06,381.70499999977375,8.02523e-06
381.71999999977373,1.853879e-05,381.71999999977373,2.492208e-05,381.71999999977373,8.181682e-06,381.71999999977373,8.147174e-06
381.7349999997737,1.995713e-05,381.7349999997737,2.478037e-05,381.7349999997737,8.121197e-06,381.7349999997737,8.316587e-06
381.7499999997737,2.040594e-05,381.7499999997737,2.387298e-05,381.7499999997737,8.117728e-06,381.7499999997737,8.500864e-06
381.7649999997737,2.139271e-05,381.7649999997737,2.218977e-05,381.7649999997737,8.173069e-06,381.7649999997737,9.087142e-06
381.7799999997737,2.211282e-05,381.7799999997737,2.147027e-05,381.7799999997737,8.308113e-06,381.7799999997737,9.105725e-06
381.79499999977367,2.296715e-05,381.79499999977367,2.111768e-05,381.79499999977367,8.653601e-06,381.79499999977367,9.214908e-06
381.80999999977365,2.313764e-05,381.80999999977365,1.911419e-05,381.80999999977365,9.191949e-06,381.80999999977365,9.25609e-06
381.82499999977364,2.308644e-05,381.82499999977364,1.887166e-05,381.82499999977364,9.230183e-06,381.82499999977364,9.313742e-06
381.8399999997736,2.29604e-05,381.8399999997736,1.839922e-05,381.8399999997736,9.167396e-06,381.8399999997736,9.164322e-06
381.8549999997736,2.281145e-05,381.8549999997736,1.536073e-05,381.8549999997736,9.156633e-06,381.8549999997736,1.000781e-05
381.8699999997736,2.278488e-05,381.8699999997736,1.481169e-05,381.8699999997736,9.096438e-06,381.8699999997736,1.004575e-05
381.8849999997736,2.247238e-05,381.8849999997736,1.397187e-05,381.8849999997736,9.059196e-06,381.8849999997736,9.707725e-06
381.89999999977357,2.111367e-05,381.89999999977357,1.199271e-05,381.89999999977357,8.91973e-06,381.89999999977357,9.792964e-06
381.91499999977356,1.959599e-05,381.91499999977356,1.192202e-05,381.91499999977356,8.204034e-06,381.91499999977356,1.002328e-05
381.92999999977354,1.828479e-05,381.92999999977354,8.580036e-06,381.92999999977354,7.872827e-06,381.92999999977354,9.856052e-06
381.94499999977353,1.718632e-05,381.94499999977353,8.193725e-06,381.94499999977353,7.011599e-06,381.94499999977353,9.696108e-06
381.9599999997735,1.680924e-05,381.9599999997735,1.408534e-05,381.9599999997735,5.995767e-06,381.9599999997735,9.78145e-06
381.9749999997735,1.6887e-05,381.9749999997735,1.676057e-05,381.9749999997735,5.8867e-06,381.9749999997735,9.771364e-06
381.9899999997735,1.648088e-05,381.9899999997735,2.272173e-05,381.9899999997735,5.865124e-06,381.9899999997735,9.811646e-06
382.0049999997735,1.738921e-05,382.0049999997735,2.409499e-05,382.0049999997735,6.300498e-06,382.0049999997735,1.006956e-05
382.01999999977346,1.980265e-05,382.01999999977346,2.44248e-05,382.01999999977346,6.646491e-06,382.01999999977346,9.830293e-06
382.03499999977345,1.952758e-05,382.03499999977345,2.447435e-05,382.03499999977345,6.659195e-06,382.03499999977345,1.032239e-05
382.04999999977343,2.724178e-05,382.04999999977343,2.517403e-05,382.04999999977343,5.726587e-06,382.04999999977343,1.020987e-05
382.0649999997734,2.751653e-05,382.0649999997734,2.605289e-05,382.0649999997734,5.438937e-06,382.0649999997734,1.012118e-05
382.0799999997734,2.886909e-05,382.0799999997734,2.7107e-05,382.0799999997734,5.410373e-06,382.0799999997734,1.0005e-05
382.0949999997734,3.130062e-05,382.0949999997734,2.716618e-05,382.0949999997734,6.030905e-06,382.0949999997734,9.694656e-06
382.1099999997734,3.149578e-05,382.1099999997734,2.721591e-05,382.1099999997734,6.625263e-06,382.1099999997734,9.746825e-06
382.12499999977337,3.231087e-05,382.12499999977337,2.756818e-05,382.12499999977337,6.709772e-06,382.12499999977337,9.754049e-06
382.13999999977335,3.293098e-05,382.13999999977335,2.80258e-05,382.13999999977335,6.842817e-06,382.13999999977335,1.011562e-05
382.15499999977334,3.388435e-05,382.15499999977334,2.885152e-05,382.15499999977334,6.969281e-06,382.15499999977334,9.723673e-06
382.1699999997733,3.404238e-05,382.1699999997733,2.949947e-05,382.1699999997733,7.172487e-06,382.1699999997733,9.526091e-06
382.1849999997733,3.396781e-05,382.1849999997733,3.254891e-05,382.1849999997733,7.22532e-06,382.1849999997733,9.620266e-06
382.1999999997733,3.396408e-05,382.1999999997733,3.291515e-05,382.1999999997733,7.217518e-06,382.1999999997733,9.505367e-06
382.2149999997733,3.528668e-05,382.2149999997733,3.270176e-05,382.2149999997733,7.250621e-06,382.2149999997733,9.518695e-06
382.22999999977327,3.517032e-05,382.22999999977327,3.523835e-05,382.22999999977327,7.487657e-06,382.22999999977327,9.650967e-06
382.24499999977326,3.470382e-05,382.24499999977326,3.265951e-05,382.24499999977326,7.678988e-06,382.24499999977326,9.754049e-06
382.25999999977324,3.296945e-05,382.25999999977324,3.303007e-05,382.25999999977324,7.077588e-06,382.25999999977324,9.474194e-06
382.27499999977323,3.240534e-05,382.27499999977323,3.386896e-05,382.27499999977323,7.164627e-06,382.27499999977323,9.509811e-06
382.2899999997732,3.209083e-05,382.2899999997732,3.518354e-05,382.2899999997732,7.327922e-06,382.2899999997732,8.938661e-06
382.3049999997732,2.540408e-05,382.3049999997732,3.732335e-05,382.3049999997732,7.93343e-06,382.3049999997732,8.954407e-06
382.3199999997732,2.547938e-05,382.3199999997732,3.782757e-05,382.3199999997732,8.088174e-06,382.3199999997732,9.227129e-06
382.3349999997732,2.32306e-05,382.3349999997732,3.936521e-05,382.3349999997732,8.077717e-06,382.3349999997732,9.168933e-06
382.34999999977316,2.118627e-05,382.34999999977316,4.314705e-05,382.34999999977316,7.777418e-06,382.34999999977316,9.477167e-06
382.36499999977315,2.088965e-05,382.36499999977315,4.445344e-05,382.36499999977315,7.392992e-06,382.36499999977315,8.878575e-06
382.37999999977313,2.124072e-05,382.37999999977313,4.793294e-05,382.37999999977313,7.22532e-06,382.37999999977313,8.91025e-06
382.3949999997731,2.019639e-05,382.3949999997731,4.990545e-05,382.3949999997731,7.231167e-06,382.3949999997731,9.30012e-06
382.4099999997731,1.933548e-05,382.4099999997731,5.02677e-05,382.4099999997731,7.041671e-06,382.4099999997731,9.40555e-06
382.4249999997731,1.933183e-05,382.4249999997731,5.098806e-05,382.4249999997731,6.920602e-06,382.4249999997731,1.025942e-05
382.4399999997731,1.953552e-05,382.4399999997731,4.965133e-05,382.4399999997731,7.023643e-06,382.4399999997731,1.027725e-05
382.45499999977307,1.959384e-05,382.45499999977307,5.164686e-05,382.45499999977307,7.655103e-06,382.45499999977307,1.05358e-05
382.46999999977305,1.768083e-05,382.46999999977305,5.036372e-05,382.46999999977305,7.742928e-06,382.46999999977305,1.042153e-05
382.48499999977304,1.800921e-05,382.48499999977304,4.859431e-05,382.48499999977304,7.402513e-06,382.48499999977304,1.032512e-05
382.499999999773,1.887614e-05,382.499999999773,4.834175e-05,382.499999999773,7.375824e-06,382.499999999773,9.828859e-06
382.514999999773,1.8247e-05,382.514999999773,4.956216e-05,382.514999999773,7.406318e-06,382.514999999773,9.63051e-06
382.529999999773,1.868336e-05,382.529999999773,5.066796e-05,382.529999999773,7.528932e-06,382.529999999773,9.499437e-06
382.544999999773,1.88328e-05,382.544999999773,5.171065e-05,382.544999999773,6.855157e-06,382.544999999773,9.517214e-06
382.55999999977297,1.896102e-05,382.55999999977297,5.052206e-05,382.55999999977297,6.963215e-06,382.55999999977297,9.807338e-06
382.57499999977296,1.872554e-05,382.57499999977296,5.100574e-05,382.57499999977296,7.711938e-06,382.57499999977296,9.626121e-06
382.58999999977294,2.059832e-05,382.58999999977294,5.114942e-05,382.58999999977294,7.979462e-06,382.58999999977294,9.761266e-06
382.60499999977293,2.09415e-05,382.60499999977293,5.063709e-05,382.60499999977293,7.822567e-06,382.60499999977293,9.68448e-06
382.6199999997729,2.016148e-05,382.6199999997729,4.920045e-05,382.6199999997729,7.826167e-06,382.6199999997729,9.608544e-06
382.6349999997729,1.998534e-05,382.6349999997729,4.69276e-05,382.6349999997729,7.847737e-06,382.6349999997729,1.006256e-05
382.6499999997729,1.960534e-05,382.6499999997729,4.580593e-05,382.6499999997729,7.83696e-06,382.6499999997729,9.537914e-06
382.6649999997729,1.969065e-05,382.6649999997729,4.538576e-05,382.6649999997729,7.899621e-06,382.6649999997729,9.736703e-06
382.67999999977286,1.995924e-05,382.67999999977286,4.759022e-05,382.67999999977286,7.988284e-06,382.67999999977286,9.772805e-06
382.69499999977285,1.947775e-05,382.69499999977285,4.916321e-05,382.69499999977285,7.93698e-06,382.69499999977285,9.746825e-06
382.70999999977283,1.942705e-05,382.70999999977283,5.015463e-05,382.70999999977283,7.998858e-06,382.70999999977283,9.633435e-06
382.7249999997728,1.947485e-05,382.7249999997728,5.060648e-05,382.7249999997728,8.303025e-06,382.7249999997728,9.947104e-06
382.7399999997728,1.813238e-05,382.7399999997728,5.079152e-05,382.7399999997728,8.517419e-06,382.7399999997728,1.004855e-05
382.7549999997728,1.856461e-05,382.7549999997728,5.228632e-05,382.7549999997728,8.673113e-06,382.7549999997728,1.000359e-05
382.7699999997728,1.87293e-05,382.7699999997728,5.310857e-05,382.7699999997728,8.731387e-06,382.7699999997728,9.954182e-06
382.78499999977277,1.805687e-05,382.78499999977277,5.254754e-05,382.78499999977277,8.771629e-06,382.78499999977277,9.873189e-06
382.79999999977275,1.912008e-05,382.79999999977275,5.106067e-05,382.79999999977275,8.617714e-06,382.79999999977275,9.848904e-06
382.81499999977274,1.90544e-05,382.81499999977274,5.102976e-05,382.81499999977274,7.820766e-06,382.81499999977274,9.533483e-06
382.8299999997727,1.84901e-05,382.8299999997727,5.042773e-05,382.8299999997727,7.645896e-06,382.8299999997727,9.646586e-06
382.8449999997727,1.651333e-05,382.8449999997727,5.002696e-05,382.8449999997727,8.325052e-06,382.8449999997727,9.639282e-06
382.8599999997727,1.624153e-05,382.8599999997727,4.991392e-05,382.8599999997727,8.482616e-06,382.8599999997727,9.389061e-06
382.8749999997727,1.735678e-05,382.8749999997727,5.172562e-05,382.8749999997727,8.803689e-06,382.8749999997727,9.411539e-06
382.88999999977267,1.751915e-05,382.88999999977267,5.272257e-05,382.88999999977267,8.857925e-06,382.88999999977267,8.563602e-06
382.90499999977266,1.741269e-05,382.90499999977266,5.253225e-05,382.90499999977266,9.012426e-06,382.90499999977266,8.459336e-06
382.91999999977264,1.790095e-05,382.91999999977264,5.333223e-05,382.91999999977264,8.872225e-06,382.91999999977264,7.809951e-06
382.93499999977263,1.927345e-05,382.93499999977263,5.12949e-05,382.93499999977263,9.015552e-06,382.93499999977263,7.327922e-06
382.9499999997726,1.899887e-05,382.9499999997726,5.165422e-05,382.9499999997726,9.224075e-06,382.9499999997726,7.219469e-06
382.9649999997726,1.894021e-05,382.9649999997726,4.831202e-05,382.9649999997726,8.614445e-06,382.9649999997726,7.00959e-06
382.9799999997726,1.965342e-05,382.9799999997726,4.827234e-05,382.9799999997726,8.45767e-06,382.9799999997726,6.230803e-06
382.9949999997726,2.007045e-05,382.9949999997726,4.827847e-05,382.9949999997726,9.015552e-06,382.9949999997726,6.201342e-06
383.00999999977256,1.994089e-05,383.00999999977256,4.859431e-05,383.00999999977256,9.065413e-06,383.00999999977256,6.57832e-06
383.02499999977255,2.01006e-05,383.02499999977255,4.732664e-05,383.02499999977255,9.187351e-06,383.02499999977255,6.584741e-06
383.03999999977253,2.097847e-05,383.03999999977253,4.772618e-05,383.03999999977253,9.231709e-06,383.03999999977253,6.459471e-06
383.0549999997725,1.977133e-05,383.0549999997725,5.187329e-05,383.0549999997725,9.254569e-06,383.0549999997725,6.298262e-06
383.0699999997725,1.990412e-05,383.0699999997725,5.463796e-05,383.0699999997725,9.351477e-06,383.0699999997725,6.358363e-06
383.0849999997725,1.992251e-05,383.0849999997725,5.895452e-05,383.0849999997725,9.242383e-06,383.0849999997725,6.269119e-06
383.0999999997725,2.21561e-05,383.0999999997725,5.808214e-05,383.0999999997725,8.779654e-06,383.0999999997725,6.296025e-06
383.11499999977246,2.193309e-05,383.11499999977246,5.821974e-05,383.11499999977246,8.771629e-06,383.11499999977246,6.333946e-06
383.12999999977245,2.16519e-05,383.12999999977245,5.847951e-05,383.12999999977245,8.749116e-06,383.12999999977245,6.242096e-06
383.14499999977244,2.157956e-05,383.14499999977244,6.242074e-05,383.14499999977244,8.715239e-06,383.14499999977244,6.174023e-06
383.1599999997724,2.142824e-05,383.1599999997724,6.318805e-05,383.1599999997724,8.452672e-06,383.1599999997724,6.239839e-06
383.1749999997724,2.169415e-05,383.1749999997724,6.445957e-05,383.1749999997724,8.625883e-06,383.1749999997724,6.345057e-06
383.1899999997724,2.059832e-05,383.1899999997724,6.216407e-05,383.1899999997724,8.417602e-06,383.1899999997724,6.485587e-06
383.2049999997724,2.044456e-05,383.2049999997724,6.193773e-05,383.2049999997724,8.490915e-06,383.2049999997724,6.603967e-06
383.21999999977237,2.008448e-05,383.21999999977237,6.229898e-05,383.21999999977237,8.870637e-06,383.21999999977237,6.730734e-06
383.23499999977236,1.945386e-05,383.23499999977236,6.261226e-05,383.23499999977236,9.10263e-06,383.23499999977236,6.789081e-06
383.24999999977234,1.923687e-05,383.24999999977234,6.160319e-05,383.24999999977234,8.648716e-06,383.24999999977234,6.659195e-06
383.26499999977233,1.928879e-05,383.26499999977233,6.050098e-05,383.26499999977233,8.115992e-06,383.26499999977233,6.64861e-06
383.2799999997723,1.867884e-05,383.2799999997723,6.246856e-05,383.2799999997723,8.131598e-06,383.2799999997723,6.629514e-06
383.2949999997723,1.816653e-05,383.2949999997723,6.104638e-05,383.2949999997723,8.110784e-06,383.2949999997723,6.778699e-06
383.3099999997723,1.818668e-05,383.3099999997723,6.086589e-05,383.3099999997723,8.42262e-06,383.3099999997723,6.724452e-06
383.3249999997723,1.829326e-05,383.3249999997723,5.619842e-05,383.3249999997723,8.609537e-06,383.3249999997723,6.928738e-06
383.33999999977226,1.844357e-05,383.33999999977226,5.246759e-05,383.33999999977226,8.656856e-06,383.33999999977226,6.977362e-06
383.35499999977225,1.565504e-05,383.35499999977225,5.129381e-05,383.35499999977225,8.575109e-06,383.35499999977225,6.838698e-06
383.36999999977223,1.532492e-05,383.36999999977223,5.005961e-05,383.36999999977223,8.353768e-06,383.36999999977223,6.861319e-06
383.3849999997722,1.521422e-05,383.3849999997722,4.989981e-05,383.3849999997722,8.414254e-06,383.3849999997722,6.79323e-06
383.3999999997722,1.578943e-05,383.3999999997722,4.69294e-05,383.3999999997722,8.499207e-06,383.3999999997722,6.709772e-06
383.4149999997722,1.539737e-05,383.4149999997722,4.758134e-05,383.4149999997722,8.594799e-06,383.4149999997722,6.565459e-06
383.4299999997722,1.476501e-05,383.4299999997722,4.636621e-05,383.4299999997722,8.389105e-06,383.4299999997722,6.593293e-06
383.44499999977216,1.500914e-05,383.44499999977216,4.562012e-05,383.44499999977216,8.221186e-06,383.44499999977216,6.770382e-06
383.45999999977215,1.520588e-05,383.45999999977215,4.527763e-05,383.45999999977215,8.195444e-06,383.45999999977215,6.398117e-06
383.47499999977214,1.490176e-05,383.47499999977214,4.454809e-05,383.47499999977214,7.350954e-06,383.47499999977214,6.404719e-06
383.4899999997721,1.45942e-05,383.4899999997721,4.325791e-05,383.4899999997721,7.345202e-06,383.4899999997721,6.448557e-06
383.5049999997721,1.439888e-05,383.5049999997721,4.254639e-05,383.5049999997721,7.289374e-06,383.5049999997721,6.380479e-06
383.5199999997721,1.427015e-05,383.5199999997721,4.189074e-05,383.5199999997721,7.270023e-06,383.5199999997721,6.230803e-06
383.5349999997721,1.394362e-05,383.5349999997721,3.642986e-05,383.5349999997721,7.071614e-06,383.5349999997721,6.275856e-06
383.54999999977207,1.345623e-05,383.54999999977207,3.515069e-05,383.54999999977207,6.778699e-06,383.54999999977207,6.141998e-06
383.56499999977206,1.338907e-05,383.56499999977206,3.895079e-05,383.56499999977206,6.556871e-06,383.56499999977206,6.019215e-06
383.57999999977204,1.334692e-05,383.57999999977204,4.172767e-05,383.57999999977204,6.690851e-06,383.57999999977204,5.874723e-06
383.594999999772,1.317269e-05,383.594999999772,4.199117e-05,383.594999999772,7.27196e-06,383.594999999772,5.642331e-06
383.609999999772,1.273776e-05,383.609999999772,4.163033e-05,383.609999999772,7.377733e-06,383.609999999772,5.799914e-06
383.624999999772,1.252587e-05,383.624999999772,4.102601e-05,383.624999999772,7.233115e-06,383.624999999772,5.965146e-06
383.639999999772,1.201266e-05,383.639999999772,3.969519e-05,383.639999999772,6.977362e-06,383.639999999772,6.707672e-06
383.654999999772,1.158038e-05,383.654999999772,3.306715e-05,383.654999999772,6.844875e-06,383.654999999772,9.301635e-06
383.66999999977196,1.083636e-05,383.66999999977196,3.232743e-05,383.66999999977196,6.766219e-06,383.66999999977196,9.567407e-06
383.68499999977195,1.236515e-05,383.68499999977195,3.454189e-05,383.68499999977195,6.720261e-06,383.68499999977195,9.611476e-06
383.69999999977193,1.192084e-05,383.69999999977193,3.55682e-05,383.69999999977193,6.816002e-06,383.69999999977193,9.664094e-06
383.7149999997719,1.150839e-05,383.7149999997719,3.530864e-05,383.7149999997719,6.635885e-06,383.7149999997719,9.820256e-06
383.7299999997719,1.152551e-05,383.7299999997719,3.754949e-05,383.7299999997719,6.711871e-06,383.7299999997719,1.019883e-05
383.7449999997719,1.203726e-05,383.7449999997719,3.754612e-05,383.7449999997719,6.705572e-06,383.7449999997719,1.153406e-05
383.7599999997719,1.197272e-05,383.7599999997719,3.746348e-05,383.7599999997719,6.684531e-06,383.7599999997719,1.218266e-05
383.77499999977186,1.214097e-05,383.77499999977186,3.717321e-05,383.77499999977186,6.997522e-06,383.77499999977186,1.280284e-05
383.78999999977185,1.202204e-05,383.78999999977185,3.73573e-05,383.78999999977185,7.137048e-06,383.78999999977185,1.398195e-05
383.80499999977184,1.216762e-05,383.80499999977184,3.871755e-05,383.80499999977184,7.119262e-06,383.80499999977184,1.511575e-05
383.8199999997718,1.207698e-05,383.8199999997718,2.8276e-05,383.8199999997718,6.955118e-06,383.8199999997718,1.563883e-05
383.8349999997718,1.197037e-05,383.8349999997718,2.632505e-05,383.8349999997718,6.975343e-06,383.8349999997718,1.577872e-05
383.8499999997718,1.172544e-05,383.8499999997718,2.581225e-05,383.8499999997718,5.974584e-06,383.8499999997718,1.633665e-05
383.8649999997718,1.169658e-05,383.8649999997718,2.567929e-05,383.8649999997718,5.967507e-06,383.8649999997718,1.731371e-05
383.87999999977177,1.152184e-05,383.87999999977177,2.573299e-05,383.87999999977177,6.302733e-06,383.87999999977177,1.760258e-05
383.89499999977176,1.205013e-05,383.89499999977176,2.614626e-05,383.89499999977176,6.406918e-06,383.89499999977176,1.770471e-05
383.90999999977174,1.211425e-05,383.90999999977174,2.828197e-05,383.90999999977174,6.367219e-06,383.90999999977174,1.762337e-05
383.9249999997717,1.211774e-05,383.9249999997717,2.706071e-05,383.9249999997717,6.468188e-06,383.9249999997717,1.977845e-05
383.9399999997717,1.117805e-05,383.9399999997717,2.568642e-05,383.9399999997717,6.559019e-06,383.9399999997717,1.993099e-05
383.9549999997717,1.148143e-05,383.9549999997717,2.565075e-05,383.9549999997717,6.395915e-06,383.9549999997717,2.025837e-05
383.9699999997717,1.174225e-05,383.9699999997717,2.552302e-05,383.9699999997717,6.280343e-06,383.9699999997717,2.077334e-05
383.9849999997717,1.145317e-05,383.9849999997717,2.490851e-05,383.9849999997717,6.411314e-06,383.9849999997717,2.0316e-05
383.99999999977166,1.165797e-05,383.99999999977166,2.607396e-05,383.99999999977166,6.524566e-06,383.99999999977166,2.055793e-05
384.01499999977165,1.233663e-05,384.01499999977165,2.805142e-05,384.01499999977165,6.873626e-06,384.01499999977165,2.006834e-05
384.02999999977163,1.236401e-05,384.02999999977163,2.899374e-05,384.02999999977163,6.671875e-06,384.02999999977163,1.977275e-05
384.0449999997716,1.241631e-05,384.0449999997716,3.015686e-05,384.0449999997716,6.574036e-06,384.0449999997716,1.901073e-05
384.0599999997716,1.250787e-05,384.0599999997716,2.910866e-05,384.0599999997716,6.561167e-06,384.0599999997716,1.853499e-05
384.0749999997716,1.263895e-05,384.0749999997716,2.941531e-05,384.0749999997716,7.139021e-06,384.0749999997716,1.834478e-05
384.0899999997716,1.258198e-05,384.0899999997716,3.078009e-05,384.0899999997716,7.037669e-06,384.0899999997716,1.821609e-05
384.10499999977156,1.321966e-05,384.10499999977156,3.297501e-05,384.10499999977156,6.997522e-06,384.10499999977156,1.798495e-05
384.11999999977155,1.462794e-05,384.11999999977155,3.597147e-05,384.11999999977155,6.842817e-06,384.11999999977155,1.678828e-05
384.13499999977154,1.553852e-05,384.13499999977154,3.706657e-05,384.13499999977154,6.659195e-06,384.13499999977154,1.603466e-05
384.1499999997715,1.530652e-05,384.1499999997715,3.543488e-05,384.1499999997715,6.863372e-06,384.1499999997715,1.568201e-05
384.1649999997715,1.75095e-05,384.1649999997715,3.461848e-05,384.1649999997715,6.836638e-06,384.1649999997715,1.327495e-05
384.1799999997715,2.323545e-05,384.1799999997715,3.738067e-05,384.1799999997715,6.811867e-06,384.1799999997715,1.186873e-05
384.1949999997715,2.309559e-05,384.1949999997715,3.876882e-05,384.1949999997715,7.021637e-06,384.1949999997715,1.14544e-05
384.20999999977147,2.293953e-05,384.20999999977147,3.922001e-05,384.20999999977147,7.144938e-06,384.20999999977147,1.106278e-05
384.22499999977146,2.311876e-05,384.22499999977146,4.170471e-05,384.22499999977146,7.05566e-06,384.22499999977146,1.070952e-05
384.23999999977144,2.335156e-05,384.23999999977144,4.148118e-05,384.23999999977144,6.965238e-06,384.23999999977144,9.903105e-06
384.2549999997714,2.405989e-05,384.2549999997714,4.024218e-05,384.2549999997714,6.900217e-06,384.2549999997714,9.691749e-06
384.2699999997714,2.50253e-05,384.2699999997714,4.181535e-05,384.2699999997714,6.461651e-06,384.2699999997714,9.375548e-06
384.2849999997714,2.535413e-05,384.2849999997714,4.021137e-05,384.2849999997714,6.406918e-06,384.2849999997714,9.469733e-06
384.2999999997714,2.588527e-05,384.2999999997714,4.130217e-05,384.2999999997714,6.237581e-06,384.2999999997714,9.674292e-06
384.3149999997714,2.576089e-05,384.3149999997714,4.223902e-05,384.3149999997714,6.174023e-06,384.3149999997714,9.049861e-06
384.32999999977136,2.584333e-05,384.32999999977136,4.1653e-05,384.32999999977136,6.185421e-06,384.32999999977136,9.096438e-06
384.34499999977135,2.57067e-05,384.34499999977135,4.100265e-05,384.34499999977135,6.244353e-06,384.34499999977135,9.012426e-06
384.35999999977133,2.560898e-05,384.35999999977133,3.93974e-05,384.35999999977133,6.327271e-06,384.35999999977133,9.144318e-06
384.3749999997713,2.482921e-05,384.3749999997713,3.721298e-05,384.3749999997713,6.349495e-06,384.3749999997713,9.251524e-06
384.3899999997713,2.455079e-05,384.3899999997713,3.7244e-05,384.3899999997713,6.387099e-06,384.3899999997713,9.42201e-06
384.4049999997713,2.467212e-05,384.4049999997713,3.753936e-05,384.4049999997713,6.217223e-06,384.4049999997713,9.402554e-06
384.4199999997713,1.794103e-05,384.4199999997713,3.479017e-05,384.4199999997713,6.19907e-06,384.4199999997713,9.985267e-06
384.43499999977126,1.712309e-05,384.43499999977126,3.577985e-05,384.43499999977126,6.054217e-06,384.43499999977126,1.01684e-05
384.44999999977125,1.713296e-05,384.44999999977125,3.648125e-05,384.44999999977125,6.002811e-06,384.44999999977125,1.013648e-05
384.46499999977124,1.706871e-05,384.46499999977124,3.694781e-05,384.46499999977124,6.061194e-06,384.46499999977124,9.774246e-06
384.4799999997712,1.689868e-05,384.4799999997712,3.475128e-05,384.4799999997712,6.021555e-06,384.4799999997712,9.404052e-06
384.4949999997712,1.669657e-05,384.4949999997712,3.446881e-05,384.4949999997712,5.908198e-06,384.4949999997712,9.363521e-06
384.5099999997712,1.42405e-05,384.5099999997712,3.298398e-05,384.5099999997712,6.098266e-06,384.5099999997712,9.21338e-06
384.5249999997712,1.341849e-05,384.5249999997712,3.33167e-05,384.5249999997712,6.526725e-06,384.5249999997712,9.20267e-06
384.53999999977117,1.266122e-05,384.53999999977117,3.309781e-05,384.53999999977117,6.846933e-06,384.53999999977117,8.938661e-06
384.55499999977116,1.215604e-05,384.55499999977116,3.33353e-05,384.55499999977116,7.035667e-06,384.55499999977116,8.810087e-06
384.56999999977114,1.187467e-05,384.56999999977114,3.430085e-05,384.56999999977114,6.257873e-06,384.56999999977114,8.862694e-06
384.5849999997711,1.251012e-05,384.5849999997711,3.635825e-05,384.5849999997711,6.224016e-06,384.5849999997711,8.70068e-06
384.5999999997711,1.227023e-05,384.5999999997711,3.662731e-05,384.5999999997711,6.468188e-06,384.5999999997711,8.760379e-06
384.6149999997711,1.180805e-05,384.6149999997711,3.771905e-05,384.6149999997711,6.515924e-06,384.6149999997711,8.472646e-06
384.6299999997711,1.175065e-05,384.6299999997711,3.875355e-05,384.6299999997711,6.633762e-06,384.6299999997711,8.446003e-06
384.6449999997711,1.163257e-05,384.6449999997711,3.908834e-05,384.6449999997711,6.528882e-06,384.6449999997711,7.824367e-06
384.65999999977106,1.127217e-05,384.65999999977106,3.99594e-05,384.65999999977106,6.54612e-06,384.65999999977106,7.827967e-06
384.67499999977105,1.126217e-05,384.67499999977105,4.16019e-05,384.67499999977105,6.395915e-06,384.67499999977105,6.776621e-06
384.68999999977103,1.141128e-05,384.68999999977103,3.974272e-05,384.68999999977103,6.902258e-06,384.68999999977103,6.838698e-06
384.704999999771,1.183426e-05,384.704999999771,3.93763e-05,384.704999999771,6.947012e-06,384.704999999771,6.79323e-06
384.719999999771,1.198096e-05,384.719999999771,3.89356e-05,384.719999999771,6.898175e-06,384.719999999771,6.684531e-06
384.734999999771,1.183307e-05,384.734999999771,3.769813e-05,384.734999999771,7.001547e-06,384.734999999771,7.306746e-06
384.749999999771,1.202204e-05,384.749999999771,3.764354e-05,384.749999999771,7.081567e-06,384.749999999771,7.318304e-06
384.76499999977096,1.237995e-05,384.76499999977096,3.73524e-05,384.76499999977096,7.103415e-06,384.76499999977096,7.325999e-06
384.77999999977095,1.153895e-05,384.77999999977095,3.814021e-05,384.77999999977095,6.942956e-06,384.77999999977095,7.372003e-06
384.79499999977094,1.229317e-05,384.79499999977094,3.825417e-05,384.79499999977094,6.865424e-06,384.79499999977094,7.358615e-06
384.8099999997709,1.302644e-05,384.8099999997709,4.011772e-05,384.8099999997709,6.813935e-06,384.8099999997709,7.594135e-06
384.8249999997709,1.333847e-05,384.8249999997709,4.09999e-05,384.8249999997709,6.932803e-06,384.8249999997709,7.60896e-06
384.8399999997709,1.276206e-05,384.8399999997709,4.070924e-05,384.8399999997709,7.031661e-06,384.8399999997709,8.086432e-06
384.8549999997709,1.353868e-05,384.8549999997709,4.056434e-05,384.8549999997709,7.186222e-06,384.8549999997709,7.755652e-06
384.86999999977087,1.479075e-05,384.86999999977087,4.024779e-05,384.86999999977087,7.059652e-06,384.86999999977087,7.865667e-06
384.88499999977086,1.501383e-05,384.88499999977086,3.961384e-05,384.88499999977086,7.140994e-06,384.88499999977086,7.922768e-06
384.89999999977084,1.551403e-05,384.89999999977084,3.922073e-05,384.89999999977084,7.594135e-06,384.89999999977084,7.894269e-06
384.9149999997708,1.601883e-05,384.9149999997708,4.066735e-05,384.9149999997708,7.581139e-06,384.9149999997708,7.896054e-06
384.9299999997708,1.617635e-05,384.9299999997708,3.953553e-05,384.9299999997708,7.655103e-06,384.9299999997708,7.97593e-06
384.9449999997708,1.615805e-05,384.9449999997708,3.996116e-05,384.9449999997708,7.331766e-06,384.9449999997708,7.929877e-06
384.9599999997708,1.637799e-05,384.9599999997708,4.078875e-05,384.9599999997708,7.377733e-06,384.9599999997708,8.091657e-06
384.9749999997708,1.672607e-05,384.9749999997708,4.118844e-05,384.9749999997708,7.46882e-06,384.9749999997708,7.8907e-06
384.98999999977076,1.676141e-05,384.98999999977076,4.188301e-05,384.98999999977076,7.556945e-06,384.98999999977076,7.56626e-06
385.00499999977075,1.669151e-05,385.00499999977075,4.494287e-05,385.00499999977075,7.634834e-06,385.00499999977075,7.528932e-06
385.01999999977073,1.698764e-05,385.01999999977073,4.63051e-05,385.01999999977073,7.379642e-06,385.01999999977073,7.631143e-06
385.0349999997707,1.667716e-05,385.0349999997707,4.580562e-05,385.0349999997707,7.584854e-06,385.0349999997707,7.586711e-06
385.0499999997707,1.70431e-05,385.0499999997707,4.51898e-05,385.0499999997707,7.612662e-06,385.0499999997707,7.15282e-06
385.0649999997707,1.741269e-05,385.0649999997707,4.161883e-05,385.0649999997707,7.56626e-06,385.0649999997707,7.067629e-06
385.0799999997707,1.73446e-05,385.0799999997707,4.119972e-05,385.0799999997707,8.11252e-06,385.0799999997707,7.213613e-06
385.09499999977066,1.771664e-05,385.09499999977066,4.033833e-05,385.09499999977066,8.147174e-06,385.09499999977066,6.764137e-06
385.10999999977065,1.705632e-05,385.10999999977065,4.041962e-05,385.10999999977065,8.185125e-06,385.10999999977065,6.813935e-06
385.12499999977064,1.605485e-05,385.12499999977064,4.149408e-05,385.12499999977064,8.185125e-06,385.12499999977064,6.759971e-06
385.1399999997706,1.576086e-05,385.1399999997706,4.136488e-05,385.1399999997706,8.367247e-06,385.1399999997706,6.778699e-06
385.1549999997706,1.547676e-05,385.1549999997706,4.185811e-05,385.1549999997706,8.299631e-06,385.1549999997706,7.017624e-06
385.1699999997706,1.531573e-05,385.1699999997706,4.46056e-05,385.1699999997706,8.36893e-06,385.1699999997706,6.96726e-06
385.1849999997706,1.557927e-05,385.1849999997706,4.477581e-05,385.1849999997706,8.131598e-06,385.1849999997706,7.29903e-06
385.19999999977057,1.529456e-05,385.19999999977057,4.480412e-05,385.19999999977057,8.035755e-06,385.19999999977057,7.178377e-06
385.21499999977055,1.504382e-05,385.21499999977055,4.742952e-05,385.21499999977055,8.357139e-06,385.21499999977055,7.158726e-06
385.22999999977054,1.48819e-05,385.22999999977054,5.050617e-05,385.22999999977054,8.525684e-06,385.22999999977054,7.205797e-06
385.2449999997705,1.456038e-05,385.2449999997705,4.893057e-05,385.2449999997705,8.43432e-06,385.2449999997705,6.934835e-06
385.2599999997705,1.456134e-05,385.2599999997705,5.027162e-05,385.2599999997705,8.399174e-06,385.2599999997705,6.957143e-06
385.2749999997705,1.431745e-05,385.2749999997705,5.035757e-05,385.2749999997705,8.51411e-06,385.2749999997705,6.836638e-06
385.2899999997705,1.415219e-05,385.2899999997705,5.205789e-05,385.2899999997705,9.015552e-06,385.2899999997705,7.053663e-06
385.3049999997705,1.289821e-05,385.3049999997705,5.379823e-05,385.3049999997705,8.995216e-06,385.3049999997705,7.063642e-06
385.31999999977046,1.266011e-05,385.31999999977046,5.434869e-05,385.31999999977046,8.990517e-06,385.31999999977046,6.885912e-06
385.33499999977045,1.287087e-05,385.33499999977045,5.490954e-05,385.33499999977045,8.784466e-06,385.33499999977045,6.574036e-06
385.34999999977043,1.299071e-05,385.34999999977043,5.633887e-05,385.34999999977043,8.971695e-06,385.34999999977043,6.347276e-06
385.3649999997704,1.332791e-05,385.3649999997704,5.681021e-05,385.3649999997704,8.995216e-06,385.3649999997704,6.459471e-06
385.3799999997704,1.376261e-05,385.3799999997704,5.667864e-05,385.3799999997704,9.172005e-06,385.3799999997704,6.528882e-06
385.3949999997704,1.39527e-05,385.3949999997704,5.732611e-05,385.3949999997704,9.038959e-06,385.3949999997704,6.505105e-06
385.4099999997704,1.412429e-05,385.4099999997704,5.672435e-05,385.4099999997704,9.539391e-06,385.4099999997704,6.565459e-06
385.42499999977036,1.378307e-05,385.42499999977036,5.486283e-05,385.42499999977036,9.645126e-06,385.42499999977036,6.692956e-06
385.43999999977035,1.354076e-05,385.43999999977035,5.403286e-05,385.43999999977035,1.033194e-05,385.43999999977035,6.214957e-06
385.45499999977034,1.403725e-05,385.45499999977034,5.427841e-05,385.45499999977034,1.048353e-05,385.45499999977034,6.260124e-06
385.4699999997703,1.428396e-05,385.4699999997703,5.046822e-05,385.4699999997703,1.058116e-05,385.4699999997703,6.320588e-06
385.4849999997703,1.42207e-05,385.4849999997703,4.89251e-05,385.4849999997703,1.067658e-05,385.4849999997703,6.476893e-06
385.4999999997703,1.450998e-05,385.4999999997703,4.889371e-05,385.4999999997703,1.070294e-05,385.4999999997703,6.483414e-06
385.5149999997703,1.450124e-05,385.5149999997703,4.669317e-05,385.5149999997703,1.100021e-05,385.5149999997703,6.720261e-06
385.52999999977027,1.421971e-05,385.52999999977027,4.813851e-05,385.52999999977027,1.089987e-05,385.52999999977027,6.892046e-06
385.54499999977025,1.453132e-05,385.54499999977025,4.754432e-05,385.54499999977025,1.049158e-05,385.54499999977025,6.932803e-06
385.55999999977024,1.430564e-05,385.55999999977024,4.684979e-05,385.55999999977024,1.088176e-05,385.55999999977024,7.314453e-06
385.5749999997702,1.43145e-05,385.5749999997702,5.118108e-05,385.5749999997702,1.141622e-05,385.5749999997702,8.030494e-06
385.5899999997702,1.446915e-05,385.5899999997702,5.080151e-05,385.5899999997702,1.153529e-05,385.5899999997702,8.186846e-06
385.6049999997702,1.410633e-05,385.6049999997702,4.84971e-05,385.6049999997702,1.121328e-05,385.6049999997702,8.228038e-06
385.6199999997702,1.375442e-05,385.6199999997702,4.837001e-05,385.6199999997702,1.237198e-05,385.6199999997702,8.105571e-06
385.6349999997702,1.328238e-05,385.6349999997702,4.766327e-05,385.6349999997702,1.237653e-05,385.6349999997702,8.612809e-06
385.64999999977016,1.368872e-05,385.64999999977016,4.615152e-05,385.64999999977016,1.229087e-05,385.64999999977016,9.236285e-06
385.66499999977015,1.417308e-05,385.66499999977015,4.622198e-05,385.66499999977015,1.175784e-05,385.66499999977015,9.284961e-06
385.67999999977013,1.446525e-05,385.67999999977013,4.525304e-05,385.67999999977013,1.183545e-05,385.67999999977013,9.198077e-06
385.6949999997701,1.501008e-05,385.6949999997701,4.487449e-05,385.6949999997701,1.130586e-05,385.6949999997701,9.649507e-06
385.7099999997701,1.466353e-05,385.7099999997701,4.578379e-05,385.7099999997701,1.110726e-05,385.7099999997701,9.576237e-06
385.7249999997701,1.451192e-05,385.7249999997701,4.463496e-05,385.7249999997701,1.10309e-05,385.7249999997701,9.537914e-06
385.7399999997701,1.513159e-05,385.7399999997701,4.427944e-05,385.7399999997701,1.075808e-05,385.7399999997701,9.767037e-06
385.75499999977006,1.514183e-05,385.75499999977006,4.215623e-05,385.75499999977006,1.069899e-05,385.75499999977006,9.746825e-06
385.76999999977005,1.504289e-05,385.76999999977005,4.038649e-05,385.76999999977005,1.090762e-05,385.76999999977005,9.468245e-06
385.78499999977004,1.521051e-05,385.78499999977004,4.025898e-05,385.78499999977004,1.102068e-05,385.78499999977004,1.003312e-05
385.79999999977,1.50831e-05,385.79999999977,3.717131e-05,385.79999999977,1.119946e-05,385.79999999977,9.925839e-06
385.81499999977,1.497343e-05,385.81499999977,3.046175e-05,385.81499999977,1.105386e-05,385.81499999977,1.012953e-05
385.82999999977,1.502415e-05,385.82999999977,3.143535e-05,385.82999999977,1.019468e-05,385.82999999977,1.011283e-05
385.84499999977,1.516506e-05,385.84499999977,3.112461e-05,385.84499999977,1.024431e-05,385.84499999977,1.003031e-05
385.85999999976997,1.526413e-05,385.85999999976997,3.093712e-05,385.85999999976997,1.055317e-05,385.85999999976997,1.019745e-05
385.87499999976995,1.530468e-05,385.87499999976995,3.160428e-05,385.87499999976995,9.306177e-06,385.87499999976995,1.028958e-05
385.88999999976994,1.564783e-05,385.88999999976994,3.073658e-05,385.88999999976994,9.287995e-06,385.88999999976994,9.91874e-06
385.9049999997699,1.545945e-05,385.9049999997699,3.04488e-05,385.9049999997699,9.383058e-06,385.9049999997699,9.78289e-06
385.9199999997699,1.532768e-05,385.9199999997699,2.898256e-05,385.9199999997699,9.359006e-06,385.9199999997699,9.720776e-06
385.9349999997699,1.500351e-05,385.9349999997699,3.062777e-05,385.9349999997699,1.05251e-05,385.9349999997699,9.975386e-06
385.9499999997699,1.500914e-05,385.9499999997699,3.022265e-05,385.9499999997699,1.055584e-05,385.9499999997699,9.941437e-06
385.9649999997699,1.494612e-05,385.9649999997699,2.844537e-05,385.9649999997699,1.036732e-05,385.9649999997699,1.051706e-05
385.97999999976986,1.434203e-05,385.97999999976986,2.867177e-05,385.97999999976986,1.06197e-05,385.97999999976986,1.06356e-05
385.99499999976985,1.404829e-05,385.99499999976985,2.909753e-05,385.99499999976985,1.062102e-05,385.99499999976985,1.081684e-05
386.00999999976983,1.434694e-05,386.00999999976983,2.964191e-05,386.00999999976983,1.027177e-05,386.00999999976983,1.182712e-05
386.0249999997698,1.477264e-05,386.0249999997698,2.991439e-05,386.0249999997698,1.089857e-05,386.0249999997698,1.30286e-05
386.0399999997698,1.441453e-05,386.0399999997698,3.080388e-05,386.0399999997698,1.101429e-05,386.0399999997698,2.31279e-05
386.0549999997698,1.43793e-05,386.0549999997698,3.082445e-05,386.0549999997698,1.089211e-05,386.0549999997698,2.381331e-05
386.0699999997698,1.43017e-05,386.0699999997698,2.983423e-05,386.0699999997698,1.065413e-05,386.0699999997698,2.517123e-05
386.08499999976976,1.380145e-05,386.08499999976976,2.60799e-05,386.08499999976976,1.05958e-05,386.08499999976976,2.548767e-05
386.09999999976975,1.393351e-05,386.09999999976975,2.759015e-05,386.09999999976975,1.065677e-05,386.09999999976975,2.548159e-05
386.11499999976974,1.386256e-05,386.11499999976974,2.713557e-05,386.11499999976974,1.039853e-05,386.11499999976974,2.578003e-05
386.1299999997697,1.326434e-05,386.1299999997697,2.766917e-05,386.1299999997697,1.047008e-05,386.1299999997697,2.593475e-05
386.1449999997697,1.285773e-05,386.1449999997697,2.892077e-05,386.1449999997697,1.072792e-05,386.1449999997697,2.620707e-05
386.1599999997697,1.377898e-05,386.1599999997697,3.096398e-05,386.1599999997697,1.090374e-05,386.1599999997697,2.627846e-05
386.1749999997697,1.382899e-05,386.1749999997697,3.160383e-05,386.1749999997697,1.036732e-05,386.1749999997697,2.624842e-05
386.18999999976967,1.406032e-05,386.18999999976967,3.06673e-05,386.18999999976967,1.052777e-05,386.18999999976967,2.61468e-05
386.20499999976965,1.358335e-05,386.20499999976965,3.39342e-05,386.20499999976965,1.092826e-05,386.20499999976965,2.624198e-05
386.21999999976964,1.39416e-05,386.21999999976964,3.481284e-05,386.21999999976964,1.106915e-05,386.21999999976964,2.632827e-05
386.2349999997696,1.363614e-05,386.2349999997696,3.590875e-05,386.2349999997696,1.090245e-05,386.2349999997696,2.627417e-05
386.2499999997696,1.430662e-05,386.2499999997696,3.503107e-05,386.2499999997696,1.098868e-05,386.2499999997696,2.610312e-05
386.2649999997696,1.448083e-05,386.2649999997696,3.479665e-05,386.2649999997696,1.120574e-05,386.2649999997696,2.594995e-05
386.2799999997696,1.484778e-05,386.2799999997696,3.459731e-05,386.2799999997696,1.037004e-05,386.2799999997696,2.29788e-05
386.2949999997696,1.549858e-05,386.2949999997696,3.545872e-05,386.2949999997696,1.016562e-05,386.2949999997696,1.575281e-05
386.30999999976956,1.594833e-05,386.30999999976956,3.666382e-05,386.30999999976956,1.053847e-05,386.30999999976956,1.524197e-05
386.32499999976955,1.596863e-05,386.32499999976955,3.804702e-05,386.32499999976955,1.084805e-05,386.32499999976955,1.352411e-05
386.33999999976953,1.57689e-05,386.33999999976953,3.805516e-05,386.33999999976953,1.072135e-05,386.33999999976953,1.339222e-05
386.3549999997695,1.602499e-05,386.3549999997695,3.66373e-05,386.3549999997695,1.074104e-05,386.3549999997695,1.378103e-05
386.3699999997695,1.618853e-05,386.3699999997695,3.628495e-05,386.3699999997695,1.06356e-05,386.3699999997695,1.322179e-05
386.3849999997695,1.62554e-05,386.3849999997695,3.745859e-05,386.3849999997695,1.087787e-05,386.3849999997695,1.290803e-05
386.3999999997695,1.597745e-05,386.3999999997695,3.751947e-05,386.3999999997695,1.050098e-05,386.3999999997695,1.247177e-05
386.41499999976946,1.573044e-05,386.41499999976946,3.675975e-05,386.41499999976946,1.110472e-05,386.41499999976946,1.243558e-05
386.42999999976945,1.551312e-05,386.42999999976945,3.758624e-05,386.42999999976945,1.084415e-05,386.42999999976945,1.253599e-05
386.44499999976944,1.563072e-05,386.44499999976944,3.843015e-05,386.44499999976944,1.040665e-05,386.44499999976944,1.240836e-05
386.4599999997694,1.564333e-05,386.4599999997694,3.588835e-05,386.4599999997694,1.01933e-05,386.4599999997694,1.217457e-05
386.4749999997694,1.613624e-05,386.4749999997694,3.564851e-05,386.4749999997694,1.08701e-05,386.4749999997694,1.198566e-05
386.4899999997694,1.607151e-05,386.4899999997694,3.633035e-05,386.4899999997694,1.080642e-05,386.4899999997694,1.182116e-05
386.5049999997694,1.566763e-05,386.5049999997694,3.65183e-05,386.5049999997694,1.093986e-05,386.5049999997694,1.219307e-05
386.51999999976937,1.554668e-05,386.51999999976937,3.636058e-05,386.51999999976937,1.088305e-05,386.51999999976937,1.211658e-05
386.53499999976935,1.503633e-05,386.53499999976935,3.669992e-05,386.53499999976935,1.084675e-05,386.53499999976935,1.260547e-05
386.54999999976934,1.453132e-05,386.54999999976934,3.541341e-05,386.54999999976934,1.07082e-05,386.54999999976934,1.267679e-05
386.5649999997693,1.455941e-05,386.5649999997693,3.526752e-05,386.5649999997693,1.11174e-05,386.5649999997693,1.227711e-05
386.5799999997693,1.449541e-05,386.5799999997693,3.664807e-05,386.5799999997693,1.115913e-05,386.5799999997693,1.178297e-05
386.5949999997693,1.640206e-05,386.5949999997693,3.688408e-05,386.5949999997693,1.114903e-05,386.5949999997693,1.134442e-05
386.6099999997693,1.608203e-05,386.6099999997693,3.81786e-05,386.6099999997693,1.098355e-05,386.6099999997693,1.106405e-05
386.6249999997693,1.647062e-05,386.6249999997693,4.059003e-05,386.6249999997693,1.09938e-05,386.6249999997693,1.167126e-05
386.63999999976926,1.6887e-05,386.63999999976926,3.952413e-05,386.63999999976926,1.128716e-05,386.63999999976926,1.156456e-05
386.65499999976925,1.66611e-05,386.65499999976925,4.150053e-05,386.65499999976925,1.144333e-05,386.65499999976925,1.189718e-05
386.66999999976923,1.644323e-05,386.66999999976923,4.124381e-05,386.66999999976923,1.066206e-05,386.66999999976923,1.343528e-05
386.6849999997692,1.709263e-05,386.6849999997692,4.084535e-05,386.6849999997692,1.058382e-05,386.6849999997692,1.42948e-05
386.6999999997692,1.729988e-05,386.6999999997692,4.131786e-05,386.6999999997692,1.082205e-05,386.6999999997692,1.439105e-05
386.7149999997692,1.697685e-05,386.7149999997692,3.970371e-05,386.7149999997692,1.147652e-05,386.7149999997692,1.42098e-05
386.7299999997692,1.678996e-05,386.7299999997692,3.968064e-05,386.7299999997692,1.094758e-05,386.7299999997692,1.418202e-05
386.74499999976916,1.686112e-05,386.74499999976916,3.996222e-05,386.74499999976916,1.093728e-05,386.74499999976916,1.439888e-05
386.75999999976915,1.678073e-05,386.75999999976915,4.078253e-05,386.75999999976915,1.085973e-05,386.75999999976915,1.403525e-05
386.77499999976914,1.642094e-05,386.77499999976914,4.031667e-05,386.77499999976914,1.10309e-05,386.77499999976914,1.412828e-05
386.7899999997691,1.641494e-05,386.7899999997691,4.060321e-05,386.7899999997691,1.108059e-05,386.7899999997691,1.364646e-05
386.8049999997691,1.617896e-05,386.8049999997691,4.152191e-05,386.8049999997691,1.062235e-05,386.8049999997691,1.350117e-05
386.8199999997691,1.591473e-05,386.8199999997691,4.084742e-05,386.8199999997691,1.038768e-05,386.8199999997691,1.35314e-05
386.8349999997691,1.5126e-05,386.8349999997691,3.884504e-05,386.8349999997691,1.046604e-05,386.8349999997691,1.380758e-05
386.84999999976907,1.489325e-05,386.84999999976907,4.149714e-05,386.84999999976907,1.06356e-05,386.84999999976907,1.427311e-05
386.86499999976905,1.572058e-05,386.86499999976905,4.108811e-05,386.86499999976905,1.07777e-05,386.86499999976905,1.426817e-05
386.87999999976904,1.543939e-05,386.87999999976904,4.127965e-05,386.87999999976904,1.071083e-05,386.87999999976904,1.396683e-05
386.894999999769,1.538272e-05,386.894999999769,4.065072e-05,386.894999999769,1.152429e-05,386.894999999769,1.387881e-05
386.909999999769,1.519383e-05,386.909999999769,3.877753e-05,386.909999999769,1.166643e-05,386.909999999769,1.260994e-05
386.924999999769,1.495649e-05,386.924999999769,3.769477e-05,386.924999999769,1.196566e-05,386.924999999769,1.243218e-05
386.939999999769,1.474305e-05,386.939999999769,3.973634e-05,386.939999999769,1.176742e-05,386.939999999769,1.185329e-05
386.954999999769,1.55494e-05,386.954999999769,3.920708e-05,386.954999999769,1.12484e-05,386.954999999769,1.237767e-05
386.96999999976896,1.556932e-05,386.96999999976896,3.9611e-05,386.96999999976896,1.154749e-05,386.96999999976896,1.256293e-05
386.98499999976895,1.575728e-05,386.98499999976895,3.977354e-05,386.98499999976895,1.164588e-05,386.98499999976895,1.304157e-05
386.99999999976893,1.600212e-05,386.99999999976893,3.937022e-05,386.99999999976893,1.143964e-05,386.99999999976893,1.287306e-05
387.0149999997689,1.596334e-05,387.0149999997689,4.037498e-05,387.0149999997689,1.139646e-05,387.0149999997689,1.286869e-05
387.0299999997689,1.601532e-05,387.0299999997689,4.16557e-05,387.0299999997689,1.152918e-05,387.0299999997689,1.28391e-05
387.0449999997689,1.623979e-05,387.0449999997689,4.271722e-05,387.0449999997689,1.175784e-05,387.0449999997689,1.291676e-05
387.0599999997689,1.634872e-05,387.0599999997689,4.29307e-05,387.0599999997689,1.162409e-05,387.0599999997689,1.268123e-05
387.07499999976886,1.637197e-05,387.07499999976886,4.322175e-05,387.07499999976886,1.19031e-05,387.07499999976886,1.247403e-05
387.08999999976885,1.630645e-05,387.08999999976885,4.323837e-05,387.08999999976885,1.233092e-05,387.08999999976885,1.211658e-05
387.10499999976884,1.613886e-05,387.10499999976884,4.120383e-05,387.10499999976884,1.249547e-05,387.10499999976884,1.162409e-05
387.1199999997688,1.537356e-05,387.1199999997688,4.058309e-05,387.1199999997688,1.233892e-05,387.1199999997688,1.154261e-05
387.1349999997688,1.490838e-05,387.1349999997688,3.941814e-05,387.1349999997688,1.204896e-05,387.1349999997688,1.259429e-05
387.1499999997688,1.513066e-05,387.1499999997688,3.889216e-05,387.1499999997688,1.240382e-05,387.1499999997688,1.275654e-05
387.1649999997688,1.57179e-05,387.1649999997688,3.943814e-05,387.1649999997688,1.231606e-05,387.1649999997688,1.362063e-05
387.17999999976877,1.500726e-05,387.17999999976877,3.955833e-05,387.17999999976877,1.201031e-05,387.17999999976877,1.335536e-05
387.19499999976875,1.436166e-05,387.19499999976875,3.768804e-05,387.19499999976875,1.212471e-05,387.19499999976875,1.369387e-05
387.20999999976874,1.432729e-05,387.20999999976874,3.738143e-05,387.20999999976874,1.243671e-05,387.20999999976874,1.408534e-05
387.2249999997687,1.471053e-05,387.2249999997687,3.97186e-05,387.2249999997687,1.2397e-05,387.2249999997687,1.427015e-05
387.2399999997687,1.397288e-05,387.2399999997687,3.974201e-05,387.2399999997687,1.225759e-05,387.2399999997687,1.396078e-05
387.2549999997687,1.43017e-05,387.2549999997687,4.01251e-05,387.2549999997687,1.215836e-05,387.2549999997687,1.41213e-05
387.2699999997687,1.438616e-05,387.2699999997687,3.803036e-05,387.2699999997687,1.231034e-05,387.2699999997687,1.417308e-05
387.2849999997687,1.411332e-05,387.2849999997687,3.842905e-05,387.2849999997687,1.224379e-05,387.2849999997687,1.407634e-05
387.29999999976866,1.541565e-05,387.29999999976866,3.803814e-05,387.29999999976866,1.249773e-05,387.29999999976866,1.430662e-05
387.31499999976865,1.654827e-05,387.31499999976865,3.834318e-05,387.31499999976865,1.300371e-05,387.31499999976865,1.447402e-05
387.32999999976863,1.689868e-05,387.32999999976863,4.026388e-05,387.32999999976863,1.255283e-05,387.32999999976863,1.461542e-05
387.3449999997686,1.678157e-05,387.3449999997686,3.995834e-05,387.3449999997686,1.236287e-05,387.3449999997686,1.456908e-05
387.3599999997686,1.657548e-05,387.3599999997686,4.007908e-05,387.3599999997686,1.213749e-05,387.3599999997686,1.492443e-05
387.3749999997686,1.665518e-05,387.3749999997686,4.049935e-05,387.3749999997686,1.24966e-05,387.3749999997686,1.470766e-05
387.3899999997686,1.691201e-05,387.3899999997686,4.218629e-05,387.3899999997686,1.250449e-05,387.3899999997686,1.414721e-05
387.40499999976856,1.705054e-05,387.40499999976856,4.205118e-05,387.40499999976856,1.147406e-05,387.40499999976856,1.361236e-05
387.41999999976855,1.708768e-05,387.41999999976855,4.30902e-05,387.41999999976855,1.122333e-05,387.41999999976855,1.30286e-05
387.43499999976854,1.758416e-05,387.43499999976854,4.416572e-05,387.43499999976854,1.109076e-05,387.43499999976854,1.380248e-05
387.4499999997685,1.760658e-05,387.4499999997685,4.430266e-05,387.4499999997685,1.100405e-05,387.4499999997685,1.359164e-05
387.4649999997685,1.753683e-05,387.4649999997685,4.572344e-05,387.4649999997685,1.059447e-05,387.4649999997685,1.280504e-05
387.4799999997685,1.790881e-05,387.4799999997685,4.492218e-05,387.4799999997685,1.058249e-05,387.4799999997685,1.285664e-05
387.4949999997685,1.802641e-05,387.4949999997685,4.523623e-05,387.4949999997685,1.072266e-05,387.4949999997685,1.226793e-05
387.50999999976847,1.786629e-05,387.50999999976847,4.529224e-05,387.50999999976847,1.065016e-05,387.50999999976847,1.189718e-05
387.52499999976845,1.80272e-05,387.52499999976845,4.477675e-05,387.52499999976845,1.113512e-05,387.52499999976845,1.205831e-05
387.53999999976844,1.865393e-05,387.53999999976844,4.484623e-05,387.53999999976844,1.166764e-05,387.53999999976844,1.275212e-05
387.5549999997684,1.765133e-05,387.5549999997684,4.49648e-05,387.5549999997684,1.11288e-05,387.5549999997684,1.24503e-05
387.5699999997684,1.679919e-05,387.5699999997684,4.192637e-05,387.5699999997684,1.122458e-05,387.5699999997684,1.246952e-05
387.5849999997684,1.621549e-05,387.5849999997684,4.424985e-05,387.5849999997684,1.151206e-05,387.5849999997684,1.279734e-05
387.5999999997684,1.643552e-05,387.5999999997684,4.379997e-05,387.5999999997684,1.140387e-05,387.5999999997684,1.265231e-05
387.6149999997684,1.664672e-05,387.6149999997684,4.342562e-05,387.6149999997684,1.138161e-05,387.6149999997684,1.184854e-05
387.62999999976836,1.659502e-05,387.62999999976836,4.296514e-05,387.62999999976836,1.155968e-05,387.62999999976836,1.166281e-05
387.64499999976834,1.661877e-05,387.64499999976834,4.206457e-05,387.64499999976834,1.147406e-05,387.64499999976834,1.174465e-05
387.65999999976833,1.677821e-05,387.65999999976833,4.343827e-05,387.65999999976833,1.137914e-05,387.65999999976833,1.143964e-05
387.6749999997683,1.649711e-05,387.6749999997683,4.303132e-05,387.6749999997683,1.162651e-05,387.6749999997683,1.230691e-05
387.6899999997683,1.602235e-05,387.6899999997683,4.324195e-05,387.6899999997683,1.17722e-05,387.6899999997683,1.077639e-05
387.7049999997683,1.600828e-05,387.7049999997683,4.361949e-05,387.7049999997683,1.164104e-05,387.7049999997683,1.061572e-05
387.7199999997683,1.665095e-05,387.7199999997683,4.254539e-05,387.7199999997683,1.17722e-05,387.7199999997683,1.176263e-05
387.73499999976826,1.580192e-05,387.73499999976826,4.104832e-05,387.73499999976826,1.186873e-05,387.73499999976826,1.279954e-05
387.74999999976825,1.593773e-05,387.74999999976825,4.03502e-05,387.74999999976825,1.223343e-05,387.74999999976825,1.345728e-05
387.76499999976824,1.616851e-05,387.76499999976824,4.096725e-05,387.76499999976824,1.311589e-05,387.76499999976824,1.373187e-05
387.7799999997682,1.577515e-05,387.7799999997682,4.109497e-05,387.7799999997682,1.250449e-05,387.7799999997682,1.284348e-05
387.7949999997682,1.481929e-05,387.7949999997682,3.96302e-05,387.7949999997682,1.20021e-05,387.7949999997682,1.267901e-05
387.8099999997682,1.500069e-05,387.8099999997682,4.045793e-05,387.8099999997682,1.185329e-05,387.8099999997682,1.264786e-05
387.8249999997682,1.532676e-05,387.8249999997682,3.981354e-05,387.8249999997682,1.147897e-05,387.8249999997682,1.25225e-05
387.83999999976817,1.520959e-05,387.83999999976817,3.934373e-05,387.83999999976817,1.150104e-05,387.83999999976817,1.234919e-05
387.85499999976815,1.533962e-05,387.85499999976815,4.165773e-05,387.85499999976815,1.155968e-05,387.85499999976815,1.278302e-05
387.86999999976814,1.51083e-05,387.86999999976814,4.506588e-05,387.86999999976814,1.109711e-05,387.86999999976814,1.311589e-05
387.8849999997681,1.504851e-05,387.8849999997681,4.452721e-05,387.8849999997681,1.11174e-05,387.8849999997681,1.328026e-05
387.8999999997681,1.53387e-05,387.8999999997681,4.362918e-05,387.8999999997681,1.131956e-05,387.8999999997681,1.369798e-05
387.9149999997681,1.520125e-05,387.9149999997681,4.356779e-05,387.9149999997681,1.129963e-05,387.9149999997681,1.333425e-05
387.9299999997681,1.533687e-05,387.9299999997681,4.382408e-05,387.9299999997681,1.15304e-05,387.9299999997681,1.346461e-05
387.9449999997681,1.52964e-05,387.9449999997681,4.31317e-05,387.9449999997681,1.153406e-05,387.9449999997681,1.370929e-05
387.95999999976806,1.58562e-05,387.95999999976806,4.174151e-05,387.95999999976806,1.159618e-05,387.95999999976806,1.372264e-05
387.97499999976804,1.507095e-05,387.97499999976804,4.126976e-05,387.97499999976804,1.209447e-05,387.97499999976804,1.344367e-05
387.98999999976803,1.513159e-05,387.98999999976803,4.125371e-05,387.98999999976803,1.193501e-05,387.98999999976803,1.22023e-05
388.004999999768,1.621375e-05,388.004999999768,4.045863e-05,388.004999999768,1.275986e-05,388.004999999768,1.190547e-05
388.019999999768,1.61406e-05,388.019999999768,3.950845e-05,388.019999999768,1.257414e-05,388.019999999768,1.159254e-05
388.034999999768,1.613973e-05,388.034999999768,3.887368e-05,388.034999999768,1.246613e-05,388.034999999768,1.173025e-05
388.049999999768,1.604519e-05,388.049999999768,4.245358e-05,388.049999999768,1.244124e-05,388.049999999768,1.169055e-05
388.06499999976796,1.575639e-05,388.06499999976796,4.131411e-05,388.06499999976796,1.254722e-05,388.06499999976796,1.240382e-05
388.07999999976795,1.596157e-05,388.07999999976795,3.969129e-05,388.07999999976795,1.271451e-05,388.07999999976795,1.235831e-05
388.09499999976794,1.575728e-05,388.09499999976794,3.89573e-05,388.09499999976794,1.27134e-05,388.09499999976794,1.252137e-05
388.1099999997679,1.560908e-05,388.1099999997679,3.604462e-05,388.1099999997679,1.293529e-05,388.1099999997679,1.245595e-05
388.1249999997679,1.592535e-05,388.1249999997679,3.064754e-05,388.1249999997679,1.294617e-05,388.1249999997679,1.213168e-05
388.1399999997679,1.621288e-05,388.1399999997679,3.044001e-05,388.1399999997679,1.305453e-05,388.1399999997679,1.192202e-05
388.1549999997679,1.583486e-05,388.1549999997679,2.961148e-05,388.1549999997679,1.2884e-05,388.1549999997679,1.15609e-05
388.16999999976787,1.570714e-05,388.16999999976787,2.477582e-05,388.16999999976787,1.277089e-05,388.16999999976787,1.220346e-05
388.18499999976785,1.603729e-05,388.18499999976785,2.431556e-05,388.18499999976785,1.237767e-05,388.18499999976785,1.165314e-05
388.19999999976784,1.592888e-05,388.19999999976784,2.367031e-05,388.19999999976784,1.211309e-05,388.19999999976784,1.183545e-05
388.2149999997678,1.539737e-05,388.2149999997678,2.306019e-05,388.2149999997678,1.199975e-05,388.2149999997678,1.145809e-05
388.2299999997678,1.60285e-05,388.2299999997678,2.187971e-05,388.2299999997678,1.136427e-05,388.2299999997678,1.163499e-05
388.2449999997678,1.613187e-05,388.2449999997678,2.156193e-05,388.2449999997678,1.142362e-05,388.2449999997678,1.260994e-05
388.2599999997678,1.554125e-05,388.2599999997678,2.158805e-05,388.2599999997678,9.254569e-06,388.2599999997678,1.352827e-05
388.2749999997678,1.589436e-05,388.2749999997678,2.343046e-05,388.2749999997678,8.843601e-06,388.2749999997678,1.582508e-05
388.28999999976776,1.652441e-05,388.28999999976776,2.399657e-05,388.28999999976776,8.805288e-06,388.28999999976776,1.709757e-05
388.30499999976774,1.662555e-05,388.30499999976774,1.605134e-05,388.30499999976774,8.677985e-06,388.30499999976774,1.709427e-05
388.31999999976773,1.66086e-05,388.31999999976773,1.569188e-05,388.31999999976773,8.018206e-06,388.31999999976773,1.723216e-05
388.3349999997677,1.683688e-05,388.3349999997677,1.607063e-05,388.3349999997677,7.892485e-06,388.3349999997677,1.802798e-05
388.3499999997677,1.858888e-05,388.3499999997677,1.633321e-05,388.3499999997677,7.62745e-06,388.3499999997677,1.867658e-05
388.3649999997677,2.096436e-05,388.3649999997677,1.567032e-05,388.3649999997677,6.977362e-06,388.3649999997677,2.127121e-05
388.3799999997677,2.079841e-05,388.3799999997677,1.541017e-05,388.3799999997677,7.41962e-06,388.3799999997677,2.170778e-05
388.39499999976766,2.136174e-05,388.39499999976766,1.551585e-05,388.39499999976766,7.14888e-06,388.39499999976766,2.435145e-05
388.40999999976765,2.205222e-05,388.40999999976765,1.557384e-05,388.40999999976765,7.52706e-06,388.40999999976765,2.619201e-05
388.42499999976764,2.308705e-05,388.42499999976764,1.594126e-05,388.42499999976764,7.944076e-06,388.42499999976764,2.823312e-05
388.4399999997676,2.406281e-05,388.4399999997676,2.128776e-05,388.4399999997676,8.143716e-06,388.4399999997676,3.098672e-05
388.4549999997676,2.611121e-05,388.4549999997676,2.159523e-05,388.4549999997676,8.43599e-06,388.4549999997676,3.610203e-05
388.4699999997676,2.643559e-05,388.4699999997676,2.169415e-05,388.4699999997676,9.153557e-06,388.4699999997676,3.830899e-05
388.4849999997676,3.06457e-05,388.4849999997676,2.192859e-05,388.4849999997676,9.548246e-06,388.4849999997676,4.438652e-05
388.49999999976757,3.605556e-05,388.49999999976757,2.22329e-05,388.49999999976757,1.152673e-05,388.49999999976757,5.397991e-05
388.51499999976755,3.898043e-05,388.51499999976755,2.221642e-05,388.51499999976755,1.172665e-05,388.51499999976755,5.798967e-05
388.52999999976754,4.064829e-05,388.52999999976754,1.99119e-05,388.52999999976754,1.328662e-05,388.52999999976754,5.855606e-05
388.5449999997675,4.167295e-05,388.5449999997675,1.945314e-05,388.5449999997675,1.351786e-05,388.5449999997675,6.048701e-05
388.5599999997675,4.215389e-05,388.5599999997675,1.944083e-05,388.5599999997675,1.375852e-05,388.5599999997675,6.226958e-05
388.5749999997675,4.293956e-05,388.5749999997675,1.940674e-05,388.5749999997675,1.445649e-05,388.5749999997675,6.23923e-05
388.5899999997675,4.324521e-05,388.5899999997675,1.893798e-05,388.5899999997675,1.479265e-05,388.5899999997675,6.350405e-05
388.6049999997675,4.256724e-05,388.6049999997675,1.864714e-05,388.6049999997675,1.554034e-05,388.6049999997675,6.309591e-05
388.61999999976746,4.215255e-05,388.61999999976746,1.878712e-05,388.61999999976746,1.582775e-05,388.61999999976746,6.282183e-05
388.63499999976744,4.228235e-05,388.63499999976744,1.880136e-05,388.63499999976744,1.597304e-05,388.63499999976744,6.261294e-05
388.64999999976743,4.272249e-05,388.64999999976743,1.866903e-05,388.64999999976743,1.671512e-05,388.64999999976743,6.214163e-05
388.6649999997674,4.284827e-05,388.6649999997674,1.884103e-05,388.6649999997674,1.760498e-05,388.6649999997674,6.126038e-05
388.6799999997674,4.250001e-05,388.6799999997674,1.811373e-05,388.6799999997674,1.796849e-05,388.6799999997674,5.989114e-05
388.6949999997674,4.314803e-05,388.6949999997674,1.207465e-05,388.6949999997674,1.829018e-05,388.6949999997674,5.916037e-05
388.7099999997674,4.256526e-05,388.7099999997674,1.148511e-05,388.7099999997674,1.845426e-05,388.7099999997674,5.660254e-05
388.72499999976736,4.276534e-05,388.72499999976736,1.0762e-05,388.72499999976736,1.998323e-05,388.72499999976736,5.418334e-05
388.73999999976735,4.170437e-05,388.73999999976735,9.674292e-06,388.73999999976735,2.057917e-05,388.73999999976735,4.924738e-05
388.75499999976734,3.617842e-05,388.75499999976734,8.907087e-06,388.75499999976734,2.048174e-05,388.75499999976734,3.51551e-05
388.7699999997673,3.54309e-05,388.7699999997673,8.228038e-06,388.7699999997673,2.136702e-05,388.7699999997673,3.253549e-05
388.7849999997673,3.895115e-05,388.7849999997673,8.202317e-06,388.7849999997673,2.100531e-05,388.7849999997673,2.871302e-05
388.7999999997673,3.893379e-05,388.7999999997673,8.669864e-06,388.7999999997673,2.194785e-05,388.7999999997673,2.55787e-05
388.8149999997673,3.974697e-05,388.8149999997673,8.60299e-06,388.8149999997673,2.239074e-05,388.8149999997673,2.261422e-05
388.82999999976727,4.39717e-05,388.82999999976727,8.720087e-06,388.82999999976727,2.2414e-05,388.82999999976727,2.181007e-05
388.84499999976725,4.548033e-05,388.84499999976725,8.744285e-06,388.84499999976725,2.224873e-05,388.84499999976725,1.856006e-05
388.85999999976724,4.911448e-05,388.85999999976724,9.010862e-06,388.85999999976724,2.284847e-05,388.85999999976724,1.855247e-05
388.8749999997672,4.903841e-05,388.8749999997672,8.797286e-06,388.8749999997672,2.316319e-05,388.8749999997672,1.769039e-05
388.8899999997672,5.176591e-05,388.8899999997672,8.702299e-06,388.8899999997672,2.316137e-05,388.8899999997672,1.739326e-05
388.9049999997672,5.300529e-05,388.9049999997672,8.721702e-06,388.9049999997672,2.306141e-05,388.9049999997672,1.699427e-05
388.9199999997672,5.528486e-05,388.9199999997672,8.226325e-06,388.9199999997672,2.32966e-05,388.9199999997672,1.763456e-05
388.9349999997672,5.906696e-05,388.9349999997672,8.210899e-06,388.9349999997672,2.412537e-05,388.9349999997672,1.545763e-05
388.94999999976716,5.911249e-05,388.94999999976716,8.02874e-06,388.94999999976716,2.387593e-05,388.94999999976716,1.51567e-05
388.96499999976714,6.109275e-05,388.96499999976714,7.910313e-06,388.96499999976714,2.363994e-05,388.96499999976714,1.50915e-05
388.97999999976713,6.215365e-05,388.97999999976713,7.584854e-06,388.97999999976713,2.2358e-05,388.97999999976713,1.494895e-05
388.9949999997671,6.142342e-05,388.9949999997671,6.618881e-06,388.9949999997671,2.218596e-05,388.9949999997671,1.457585e-05
389.0099999997671,6.131232e-05,389.0099999997671,6.402519e-06,389.0099999997671,2.319298e-05,389.0099999997671,1.460867e-05
389.0249999997671,6.179634e-05,389.0249999997671,7.075597e-06,389.0249999997671,2.269443e-05,389.0249999997671,1.469232e-05
389.0399999997671,5.868126e-05,389.0399999997671,7.324076e-06,389.0399999997671,2.247739e-05,389.0399999997671,1.58482e-05
389.05499999976706,5.98582e-05,389.05499999976706,7.279705e-06,389.05499999976706,2.20937e-05,389.05499999976706,1.615282e-05
389.06999999976705,6.002224e-05,389.06999999976705,7.248678e-06,389.06999999976705,2.284847e-05,389.06999999976705,1.550313e-05
389.08499999976704,5.610736e-05,389.08499999976704,7.139021e-06,389.08499999976704,2.432888e-05,389.08499999976704,1.559373e-05
389.099999999767,5.425504e-05,389.099999999767,7.285508e-06,389.099999999767,2.437458e-05,389.099999999767,1.582864e-05
389.114999999767,5.415733e-05,389.114999999767,7.00758e-06,389.114999999767,2.351507e-05,389.114999999767,1.519847e-05
389.129999999767,5.4281e-05,389.129999999767,7.233115e-06,389.129999999767,2.328814e-05,389.129999999767,1.505506e-05
389.144999999767,5.231487e-05,389.144999999767,7.322153e-06,389.144999999767,2.313703e-05,389.144999999767,1.437048e-05
389.15999999976697,4.972305e-05,389.15999999976697,7.190141e-06,389.15999999976697,2.249618e-05,389.15999999976697,1.483449e-05
389.17499999976695,4.531246e-05,389.17499999976695,7.237009e-06,389.17499999976695,2.313947e-05,389.17499999976695,1.400108e-05
389.18999999976694,4.372207e-05,389.18999999976694,7.40061e-06,389.18999999976694,2.25356e-05,389.18999999976694,1.389707e-05
389.2049999997669,4.461318e-05,389.2049999997669,7.453716e-06,389.2049999997669,2.313094e-05,389.2049999997669,1.379839e-05
389.2199999997669,4.019595e-05,389.2199999997669,7.495178e-06,389.2199999997669,2.30229e-05,389.2199999997669,1.337854e-05
389.2349999997669,4.023763e-05,389.2349999997669,7.442368e-06,389.2349999997669,2.334432e-05,389.2349999997669,1.355636e-05
389.2499999997669,3.968277e-05,389.2499999997669,7.438582e-06,389.2499999997669,2.377068e-05,389.2499999997669,1.338065e-05
389.26499999976687,3.893849e-05,389.26499999976687,8.081204e-06,389.26499999976687,2.219929e-05,389.26499999976687,1.312985e-05
389.27999999976686,3.89938e-05,389.27999999976686,7.431003e-06,389.27999999976686,2.183653e-05,389.27999999976686,1.275765e-05
389.29499999976684,3.920457e-05,389.29499999976684,6.942956e-06,389.29499999976684,2.215801e-05,389.29499999976684,1.112753e-05
389.30999999976683,3.555592e-05,389.30999999976683,6.749543e-06,389.30999999976683,2.187843e-05,389.30999999976683,1.075284e-05
389.3249999997668,3.533456e-05,389.3249999997668,6.753716e-06,389.3249999997668,2.166686e-05,389.3249999997668,1.084545e-05
389.3399999997668,3.602312e-05,389.3399999997668,6.612493e-06,389.3399999997668,1.988783e-05,389.3399999997668,1.082855e-05
389.3549999997668,3.557968e-05,389.3549999997668,6.772462e-06,389.3549999997668,2.039213e-05,389.3549999997668,9.996546e-06
389.3699999997668,3.454637e-05,389.3699999997668,6.703471e-06,389.3699999997668,2.034164e-05,389.3699999997668,1.037547e-05
389.38499999976676,3.501176e-05,389.38499999976676,6.550423e-06,389.38499999976676,2.076927e-05,389.38499999976676,1.053045e-05
389.39999999976675,3.405851e-05,389.39999999976675,6.535352e-06,389.39999999976675,2.105755e-05,389.39999999976675,1.048218e-05
389.41499999976674,3.332811e-05,389.41499999976674,6.327271e-06,389.41499999976674,2.18475e-05,389.41499999976674,1.045258e-05
389.4299999997667,3.376441e-05,389.4299999997667,6.331722e-06,389.4299999997667,2.188036e-05,389.4299999997667,1.071872e-05
389.4449999997667,3.156458e-05,389.4449999997667,6.567604e-06,389.4449999997667,2.17965e-05,389.4449999997667,1.216299e-05
389.4599999997667,3.47095e-05,389.4599999997667,6.556871e-06,389.4599999997667,2.150436e-05,389.4599999997667,1.251012e-05
389.4749999997667,3.420955e-05,389.4749999997667,6.537507e-06,389.4749999997667,2.230817e-05,389.4749999997667,1.269122e-05
389.48999999976667,3.363985e-05,389.48999999976667,6.7391e-06,389.48999999976667,2.117364e-05,389.48999999976667,1.280174e-05
389.50499999976665,3.248696e-05,389.50499999976665,6.618881e-06,389.50499999976665,2.140193e-05,389.50499999976665,1.417606e-05
389.51999999976664,3.271252e-05,389.51999999976664,6.148874e-06,389.51999999976664,2.205669e-05,389.51999999976664,1.428593e-05
389.5349999997666,3.096307e-05,389.5349999997666,6.255622e-06,389.5349999997666,2.377068e-05,389.5349999997666,1.491121e-05
389.5499999997666,3.091571e-05,389.5499999997666,6.153455e-06,389.5499999997666,2.365186e-05,389.5499999997666,1.45971e-05
389.5649999997666,3.246744e-05,389.5649999997666,6.105191e-06,389.5649999997666,2.298616e-05,389.5649999997666,1.487338e-05
389.5799999997666,3.152305e-05,389.5799999997666,6.705572e-06,389.5799999997666,2.296899e-05,389.5799999997666,1.481644e-05
389.59499999976657,3.089977e-05,389.59499999976657,6.707672e-06,389.59499999976657,2.34731e-05,389.59499999976657,1.471627e-05
389.60999999976656,2.891249e-05,389.60999999976656,6.543968e-06,389.60999999976656,2.385173e-05,389.60999999976656,1.470286e-05
389.62499999976654,2.774594e-05,389.62499999976654,6.391509e-06,389.62499999976654,2.36602e-05,389.62499999976654,1.448764e-05
389.63999999976653,2.878015e-05,389.63999999976653,6.402519e-06,389.63999999976653,2.380502e-05,389.63999999976653,1.469999e-05
389.6549999997665,3.309568e-05,389.6549999997665,6.409116e-06,389.6549999997665,2.35468e-05,389.6549999997665,1.472584e-05
389.6699999997665,3.434558e-05,389.6699999997665,6.444187e-06,389.6699999997665,2.181072e-05,389.6699999997665,1.497814e-05
389.6849999997665,3.542415e-05,389.6849999997665,7.091506e-06,389.6849999997665,2.204647e-05,389.6849999997665,1.448666e-05
389.6999999997665,3.407009e-05,389.6999999997665,7.04567e-06,389.6999999997665,2.17551e-05,389.6999999997665,1.403525e-05
389.71499999976646,3.06921e-05,389.71499999976646,7.47636e-06,389.71499999976646,2.186812e-05,389.71499999976646,1.407334e-05
389.72999999976645,3.069622e-05,389.72999999976645,7.431003e-06,389.72999999976645,2.161479e-05,389.72999999976645,1.419493e-05
389.74499999976643,3.257832e-05,389.74499999976643,7.38918e-06,389.74499999976643,2.161609e-05,389.74499999976643,1.483069e-05
389.7599999997664,3.202272e-05,389.7599999997664,7.510198e-06,389.7599999997664,2.139732e-05,389.7599999997664,1.462505e-05
389.7749999997664,3.55139e-05,389.7749999997664,7.168558e-06,389.7749999997664,2.013072e-05,389.7749999997664,1.578586e-05
389.7899999997664,3.599026e-05,389.7899999997664,7.16266e-06,389.7899999997664,1.84344e-05,389.7899999997664,1.565593e-05
389.8049999997664,3.630048e-05,389.8049999997664,7.065636e-06,389.8049999997664,1.889404e-05,389.8049999997664,1.537631e-05
389.81999999976637,3.542891e-05,389.81999999976637,7.017624e-06,389.81999999976637,1.868562e-05,389.81999999976637,1.540377e-05
389.83499999976635,3.617258e-05,389.83499999976635,6.58688e-06,389.83499999976635,1.863429e-05,389.83499999976635,1.569547e-05
389.84999999976634,3.66957e-05,389.84999999976634,6.898175e-06,389.84999999976634,1.718468e-05,389.84999999976634,1.577872e-05
389.8649999997663,3.74093e-05,389.8649999997663,6.892046e-06,389.8649999997663,1.708603e-05,389.8649999997663,1.574208e-05
389.8799999997663,3.759748e-05,389.8799999997663,6.961192e-06,389.8799999997663,1.74652e-05,389.8799999997663,1.617461e-05
389.8949999997663,3.591738e-05,389.8949999997663,6.916529e-06,389.8949999997663,1.71535e-05,389.8949999997663,1.566403e-05
389.9099999997663,3.220257e-05,389.9099999997663,7.15282e-06,389.9099999997663,1.628397e-05,389.9099999997663,1.667462e-05
389.92499999976627,2.968845e-05,389.92499999976627,7.174451e-06,389.92499999976627,1.621462e-05,389.92499999976627,1.681762e-05
389.93999999976626,2.925348e-05,389.93999999976626,6.387099e-06,389.93999999976626,1.703649e-05,389.93999999976626,1.710581e-05
389.95499999976624,3.050796e-05,389.95499999976624,6.325044e-06,389.95499999976624,1.764254e-05,389.95499999976624,1.953263e-05
389.96999999976623,3.119558e-05,389.96999999976623,5.780451e-06,389.96999999976623,1.685026e-05,389.96999999976623,2.006272e-05
389.9849999997662,2.98262e-05,389.9849999997662,5.677176e-06,389.9849999997662,1.663571e-05,389.9849999997662,2.022775e-05
389.9999999997662,2.92371e-05,389.9999999997662,5.61731e-06,389.9999999997662,1.698183e-05,389.9999999997662,1.960677e-05
390.0149999997662,2.911108e-05,390.0149999997662,5.687093e-06,390.0149999997662,1.704558e-05,390.0149999997662,1.97478e-05
390.0299999997662,2.536579e-05,390.0299999997662,5.991066e-06,390.0299999997662,1.767127e-05,390.0299999997662,1.93973e-05
390.04499999976616,2.479231e-05,390.04499999976616,5.877121e-06,390.04499999976616,1.770471e-05,390.04499999976616,1.973282e-05
390.05999999976615,2.391071e-05,390.05999999976615,5.891484e-06,390.05999999976615,1.766489e-05,390.05999999976615,1.968278e-05
390.07499999976613,2.398013e-05,390.07499999976613,5.831403e-06,390.07499999976613,1.788363e-05,390.07499999976613,1.970782e-05
390.0899999997661,2.34899e-05,390.0899999997661,5.814468e-06,390.0899999997661,1.748615e-05,390.0899999997661,2.026671e-05
390.1049999997661,2.452323e-05,390.1049999997661,5.579567e-06,390.1049999997661,1.739083e-05,390.1049999997661,2.205286e-05
390.1199999997661,2.352226e-05,390.1199999997661,5.736418e-06,390.1199999997661,1.65065e-05,390.1199999997661,2.224113e-05
390.1349999997661,2.312729e-05,390.1349999997661,5.724127e-06,390.1349999997661,1.708521e-05,390.1349999997661,2.199209e-05
390.14999999976607,2.360655e-05,390.14999999976607,5.56693e-06,390.14999999976607,1.803813e-05,390.14999999976607,2.185072e-05
390.16499999976605,2.333225e-05,390.16499999976605,5.371176e-06,390.16499999976605,1.86116e-05,390.16499999976605,2.12818e-05
390.17999999976604,2.284662e-05,390.17999999976604,5.14616e-06,390.17999999976604,1.848553e-05,390.17999999976604,2.1724e-05
390.194999999766,2.245921e-05,390.194999999766,5.107694e-06,390.194999999766,1.79269e-05,390.194999999766,1.981972e-05
390.209999999766,2.17674e-05,390.209999999766,5.113207e-06,390.209999999766,1.853043e-05,390.209999999766,1.859645e-05
390.224999999766,2.134987e-05,390.224999999766,5.118714e-06,390.224999999766,1.960103e-05,390.224999999766,1.826629e-05
390.239999999766,2.114034e-05,390.239999999766,5.187057e-06,390.239999999766,1.989279e-05,390.239999999766,1.854487e-05
390.25499999976597,2.111968e-05,390.25499999976597,4.962209e-06,390.25499999976597,2.027644e-05,390.25499999976597,1.765851e-05
390.26999999976596,2.160957e-05,390.26999999976596,5.148897e-06,390.26999999976596,2.259116e-05,390.26999999976596,1.73649e-05
390.28499999976594,2.109098e-05,390.28499999976594,4.967884e-06,390.28499999976594,2.22031e-05,390.28499999976594,1.646634e-05
390.29999999976593,2.116565e-05,390.29999999976593,4.976383e-06,390.29999999976593,2.210964e-05,390.29999999976593,1.669404e-05
390.3149999997659,2.01468e-05,390.3149999997659,5.451871e-06,390.3149999997659,2.415163e-05,390.3149999997659,1.679415e-05
390.3299999997659,2.028477e-05,390.3299999997659,6.380479e-06,390.3299999997659,2.542293e-05,390.3299999997659,1.643552e-05
390.3449999997659,1.901296e-05,390.3449999997659,7.510198e-06,390.3449999997659,2.577074e-05,390.3449999997659,1.530929e-05
390.3599999997659,1.720926e-05,390.3599999997659,8.265616e-06,390.3599999997659,2.731253e-05,390.3599999997659,1.317269e-05
390.37499999976586,1.987791e-05,390.37499999976586,8.385746e-06,390.37499999976586,2.740932e-05,390.37499999976586,1.309654e-05
