X[s],a: EMG RMS 1-1,X[s].1,a: EMG RMS 1-2,X[s].2,a: EMG RMS 1-3,X[s].3,a: EMG RMS 1-4
476.009999999688,2.826653e-05,476.009999999688,6.069091e-05,476.009999999688,1.706128e-05,476.009999999688,1.044179e-05
476.02499999968796,2.916667e-05,476.02499999968796,5.927907e-05,476.02499999968796,1.71773e-05,476.02499999968796,1.044179e-05
476.03999999968795,2.99948e-05,476.03999999968795,5.862121e-05,476.03999999968795,1.721253e-05,476.03999999968795,1.037683e-05
476.05499999968794,2.784628e-05,476.05499999968794,6.249832e-05,476.05499999968794,1.909576e-05,476.05499999968794,1.041748e-05
476.0699999996879,2.636997e-05,476.0699999996879,5.977248e-05,476.0699999996879,1.941545e-05,476.0699999996879,1.040124e-05
476.0849999996879,2.587057e-05,476.0849999996879,5.8103e-05,476.0849999996879,2.062156e-05,476.0849999996879,1.032375e-05
476.0999999996879,2.581061e-05,476.0999999996879,5.610711e-05,476.0999999996879,2.067818e-05,476.0999999996879,1.017255e-05
476.1149999996879,2.551584e-05,476.1149999996879,5.177408e-05,476.1149999996879,2.015799e-05,476.1149999996879,1.086492e-05
476.12999999968787,2.152401e-05,476.12999999968787,5.612267e-05,476.12999999968787,1.995642e-05,476.12999999968787,1.09102e-05
476.14499999968785,2.161283e-05,476.14499999968785,5.453551e-05,476.14499999968785,1.99119e-05,476.14499999968785,1.082855e-05
476.15999999968784,2.166556e-05,476.15999999968784,5.108935e-05,476.15999999968784,1.98531e-05,476.15999999968784,1.115661e-05
476.1749999996878,2.129041e-05,476.1749999996878,6.410852e-05,476.1749999996878,2.013002e-05,476.1749999996878,1.108695e-05
476.1899999996878,2.157695e-05,476.1899999996878,6.519706e-05,476.1899999996878,2.001914e-05,476.1899999996878,1.080511e-05
476.2049999996878,2.155671e-05,476.2049999996878,6.584377e-05,476.2049999996878,2.012442e-05,476.2049999996878,1.045258e-05
476.2199999996878,2.125531e-05,476.2199999996878,6.746162e-05,476.2199999996878,1.992251e-05,476.2199999996878,1.045527e-05
476.2349999996878,2.130297e-05,476.2349999996878,6.890635e-05,476.2349999996878,1.985593e-05,476.2349999996878,9.917319e-06
476.24999999968776,2.11743e-05,476.24999999968776,7.028635e-05,476.24999999968776,1.993029e-05,476.24999999968776,9.468245e-06
476.26499999968775,2.007676e-05,476.26499999968775,7.034805e-05,476.26499999968775,1.909059e-05,476.26499999968775,9.42201e-06
476.27999999968773,1.781971e-05,476.27999999968773,6.821704e-05,476.27999999968773,1.871049e-05,476.27999999968773,9.618801e-06
476.2949999996877,2.134525e-05,476.2949999996877,6.403663e-05,476.2949999996877,1.804906e-05,476.2949999996877,9.596809e-06
476.3099999996877,2.217008e-05,476.3099999996877,6.583158e-05,476.3099999996877,1.569996e-05,476.3099999996877,1.031693e-05
476.3249999996877,2.24341e-05,476.3249999996877,7.473402e-05,476.3249999996877,1.554125e-05,476.3249999996877,1.046604e-05
476.3399999996877,2.180426e-05,476.3399999996877,7.554577e-05,476.3399999996877,1.369181e-05,476.3399999996877,1.118435e-05
476.35499999968766,2.166491e-05,476.35499999968766,7.567526e-05,476.35499999968766,1.364233e-05,476.35499999968766,1.126842e-05
476.36999999968765,2.426859e-05,476.36999999968765,7.502392e-05,476.36999999968765,1.37892e-05,476.36999999968765,1.04889e-05
476.38499999968764,2.4987e-05,476.38499999968764,7.201241e-05,476.38499999968764,1.456231e-05,476.38499999968764,1.042424e-05
476.3999999996876,2.686742e-05,476.3999999996876,7.309714e-05,476.3999999996876,1.46212e-05,476.3999999996876,9.972562e-06
476.4149999996876,2.764829e-05,476.4149999996876,7.177611e-05,476.4149999996876,1.545581e-05,476.4149999996876,1.003733e-05
476.4299999996876,2.835808e-05,476.4299999996876,6.074125e-05,476.4299999996876,1.511948e-05,476.4299999996876,9.735256e-06
476.4449999996876,2.820666e-05,476.4449999996876,5.936859e-05,476.4449999996876,1.464527e-05,476.4449999996876,9.712076e-06
476.45999999968757,2.797096e-05,476.45999999968757,5.881026e-05,476.45999999968757,1.506254e-05,476.45999999968757,9.614407e-06
476.47499999968755,2.782301e-05,476.47499999968755,5.783837e-05,476.47499999968755,1.548586e-05,476.47499999968755,9.897414e-06
476.48999999968754,2.747811e-05,476.48999999968754,5.476286e-05,476.48999999968754,1.536989e-05,476.48999999968754,9.992318e-06
476.5049999996875,2.739493e-05,476.5049999996875,5.469929e-05,476.5049999996875,1.470478e-05,476.5049999996875,9.861767e-06
476.5199999996875,2.724385e-05,476.5199999996875,5.411726e-05,476.5199999996875,1.491688e-05,476.5199999996875,9.643665e-06
476.5349999996875,2.742679e-05,476.5349999996875,5.339849e-05,476.5349999996875,1.493858e-05,476.5349999996875,9.938602e-06
476.5499999996875,2.389834e-05,476.5499999996875,5.128035e-05,476.5499999996875,1.53992e-05,476.5499999996875,9.922999e-06
476.5649999996875,2.34845e-05,476.5649999996875,3.685199e-05,476.5649999996875,1.52031e-05,476.5649999996875,9.164322e-06
476.57999999968746,2.335036e-05,476.57999999968746,3.073338e-05,476.57999999968746,1.535339e-05,476.57999999968746,8.712006e-06
476.59499999968745,2.338894e-05,476.59499999968745,3.031666e-05,476.59499999968745,1.528903e-05,476.59499999968745,8.167896e-06
476.60999999968743,2.295918e-05,476.60999999968743,3.13896e-05,476.60999999968743,1.517342e-05,476.60999999968743,8.154087e-06
476.6249999996874,1.924273e-05,476.6249999996874,3.28916e-05,476.6249999996874,1.481739e-05,476.6249999996874,8.183403e-06
476.6399999996874,1.74426e-05,476.6399999996874,3.08765e-05,476.6399999996874,1.452939e-05,476.6399999996874,8.121197e-06
476.6549999996874,1.526321e-05,476.6549999996874,2.877966e-05,476.6549999996874,1.410733e-05,476.6549999996874,8.034001e-06
476.6699999996874,1.34876e-05,476.6699999996874,2.881879e-05,476.6699999996874,1.341219e-05,476.6699999996874,7.896054e-06
476.68499999968736,1.275986e-05,476.68499999968736,3.025014e-05,476.68499999968736,1.401114e-05,476.68499999968736,7.752019e-06
476.69999999968735,1.277971e-05,476.69999999968735,3.234355e-05,476.69999999968735,1.360925e-05,476.69999999968735,7.682656e-06
476.71499999968734,1.390011e-05,476.71499999968734,3.358831e-05,476.71499999968734,1.401717e-05,476.71499999968734,7.618211e-06
476.7299999996873,1.379941e-05,476.7299999996873,3.343909e-05,476.7299999996873,1.44925e-05,476.7299999996873,7.381551e-06
476.7449999996873,1.391429e-05,476.7449999996873,3.301044e-05,476.7449999996873,1.443406e-05,476.7449999996873,7.487657e-06
476.7599999996873,1.393452e-05,476.7599999996873,3.224235e-05,476.7599999996873,1.433024e-05,476.7599999996873,7.651422e-06
476.7749999996873,1.361546e-05,476.7749999996873,3.227423e-05,476.7749999996873,1.429086e-05,476.7749999996873,7.844146e-06
476.78999999968727,1.383917e-05,476.78999999968727,3.204031e-05,476.78999999968727,1.450416e-05,476.78999999968727,8.37566e-06
476.80499999968725,1.419493e-05,476.80499999968725,3.1833e-05,476.80499999968725,1.468369e-05,476.80499999968725,9.024921e-06
476.81999999968724,1.466161e-05,476.81999999968724,2.99431e-05,476.81999999968724,1.470574e-05,476.81999999968724,9.239335e-06
476.8349999996872,1.480217e-05,476.8349999996872,2.943111e-05,476.8349999996872,1.493104e-05,476.8349999996872,9.23476e-06
476.8499999996872,1.478884e-05,476.8499999996872,2.854622e-05,476.8499999996872,1.490554e-05,476.8499999996872,9.460803e-06
476.8649999996872,1.600036e-05,476.8649999996872,2.647872e-05,476.8649999996872,1.504757e-05,476.8649999996872,1.047681e-05
476.8799999996872,1.613711e-05,476.8799999996872,2.621137e-05,476.8799999996872,1.597921e-05,476.8799999996872,1.095787e-05
476.8949999996872,1.587573e-05,476.8949999996872,2.768393e-05,476.8949999996872,1.621028e-05,476.8949999996872,1.13779e-05
476.90999999968716,1.574208e-05,476.90999999968716,2.723144e-05,476.90999999968716,1.564873e-05,476.90999999968716,1.175184e-05
476.92499999968715,1.480027e-05,476.92499999968715,2.572642e-05,476.92499999968715,1.510457e-05,476.92499999968715,1.21896e-05
476.93999999968713,1.516042e-05,476.93999999968713,2.431266e-05,476.93999999968713,1.509617e-05,476.93999999968713,1.219422e-05
476.9549999996871,1.488947e-05,476.9549999996871,2.212683e-05,476.9549999996871,1.478408e-05,476.9549999996871,1.252812e-05
476.9699999996871,1.484493e-05,476.9699999996871,2.240206e-05,476.9699999996871,1.36444e-05,476.9699999996871,1.276868e-05
476.9849999996871,1.501571e-05,476.9849999996871,2.22348e-05,476.9849999996871,1.358128e-05,476.9849999996871,1.32569e-05
476.9999999996871,1.562712e-05,476.9999999996871,2.174344e-05,476.9999999996871,1.354908e-05,476.9999999996871,1.335852e-05
477.01499999968706,1.588372e-05,477.01499999968706,2.125531e-05,477.01499999968706,1.385341e-05,477.01499999968706,1.342689e-05
477.02999999968705,1.575996e-05,477.02999999968705,2.122347e-05,477.02999999968705,1.3892e-05,477.02999999968705,1.340484e-05
477.04499999968704,1.504195e-05,477.04499999968704,2.161348e-05,477.04499999968704,1.304373e-05,477.04499999968704,1.284129e-05
477.059999999687,1.478598e-05,477.059999999687,2.109031e-05,477.059999999687,1.331839e-05,477.059999999687,1.237312e-05
477.074999999687,1.460964e-05,477.074999999687,2.118361e-05,477.074999999687,1.32569e-05,477.074999999687,1.236629e-05
477.089999999687,1.481929e-05,477.089999999687,2.108096e-05,477.089999999687,1.282702e-05,477.089999999687,1.251124e-05
477.104999999687,1.513717e-05,477.104999999687,2.025906e-05,477.104999999687,1.263226e-05,477.104999999687,1.285006e-05
477.11999999968697,1.367431e-05,477.11999999968697,2.007115e-05,477.11999999968697,1.219769e-05,477.11999999968697,1.292984e-05
477.13499999968695,1.361856e-05,477.13499999968695,1.927053e-05,477.13499999968695,1.240268e-05,477.13499999968695,1.253599e-05
477.14999999968694,1.427508e-05,477.14999999968694,1.77238e-05,477.14999999968694,1.258757e-05,477.14999999968694,1.208048e-05
477.1649999996869,1.441159e-05,477.1649999996869,1.828324e-05,477.1649999996869,1.258086e-05,477.1649999996869,1.19527e-05
477.1799999996869,1.455554e-05,477.1799999996869,1.862597e-05,477.1799999996869,1.244577e-05,477.1799999996869,1.150227e-05
477.1949999996869,1.431352e-05,477.1949999996869,1.861689e-05,477.1949999996869,1.226908e-05,477.1949999996869,1.219422e-05
477.2099999996869,1.416612e-05,477.2099999996869,1.523642e-05,477.2099999996869,1.281054e-05,477.2099999996869,1.233321e-05
477.2249999996869,1.347611e-05,477.2249999996869,1.395977e-05,477.2249999996869,1.269344e-05,477.2249999996869,1.214677e-05
477.23999999968686,1.34876e-05,477.23999999968686,1.383e-05,477.23999999968686,1.275102e-05,477.23999999968686,1.221846e-05
477.25499999968685,1.286759e-05,477.25499999968685,1.383306e-05,477.25499999968685,1.302536e-05,477.25499999968685,1.273001e-05
477.26999999968683,1.261105e-05,477.26999999968683,1.38412e-05,477.26999999968683,1.348134e-05,477.26999999968683,1.27742e-05
477.2849999996868,1.27134e-05,477.2849999996868,1.407834e-05,477.2849999996868,1.466353e-05,477.2849999996868,1.275544e-05
477.2999999996868,1.323883e-05,477.2999999996868,1.381676e-05,477.2999999996868,1.570176e-05,477.2999999996868,1.323989e-05
477.3149999996868,1.318979e-05,477.3149999996868,1.334164e-05,477.3149999996868,1.567841e-05,477.3149999996868,1.315343e-05
477.3299999996868,1.339012e-05,477.3299999996868,1.369798e-05,477.3299999996868,1.625367e-05,477.3299999996868,1.335114e-05
477.34499999968676,1.314807e-05,477.34499999968676,1.36289e-05,477.34499999968676,1.645608e-05,477.34499999968676,1.322179e-05
477.35999999968675,1.279293e-05,477.35999999968675,1.3737e-05,477.35999999968675,1.630126e-05,477.35999999968675,1.247742e-05
477.37499999968674,1.286759e-05,477.37499999968674,1.371545e-05,477.37499999968674,1.645779e-05,477.37499999968674,1.268345e-05
477.3899999996867,1.261775e-05,477.3899999996867,1.277861e-05,477.3899999996867,1.557927e-05,477.3899999996867,1.284787e-05
477.4049999996867,1.307286e-05,477.4049999996867,1.248871e-05,477.4049999996867,1.534054e-05,477.4049999996867,1.352619e-05
477.4199999996867,1.337012e-05,477.4199999996867,1.210727e-05,477.4199999996867,1.546674e-05,477.4199999996867,1.459034e-05
477.4349999996867,1.439497e-05,477.4349999996867,1.259876e-05,477.4349999996867,1.540194e-05,477.4349999996867,1.536164e-05
477.44999999968667,1.551403e-05,477.44999999968667,1.27455e-05,477.44999999968667,1.528719e-05,477.44999999968667,1.48942e-05
477.46499999968665,1.574208e-05,477.46499999968665,1.340379e-05,477.46499999968665,1.489987e-05,477.46499999968665,1.488568e-05
477.47999999968664,1.606976e-05,477.47999999968664,1.342584e-05,477.47999999968664,1.465584e-05,477.47999999968664,1.73072e-05
477.4949999996866,1.619114e-05,477.4949999996866,1.342164e-05,477.4949999996866,1.481073e-05,477.4949999996866,1.759777e-05
477.5099999996866,1.63582e-05,477.5099999996866,1.384527e-05,477.5099999996866,1.449152e-05,477.5099999996866,1.776984e-05
477.5249999996866,1.710581e-05,477.5249999996866,1.418798e-05,477.5249999996866,1.414024e-05,477.5249999996866,1.905884e-05
477.5399999996866,1.819288e-05,477.5399999996866,1.376671e-05,477.5399999996866,1.295922e-05,477.5399999996866,2.012792e-05
477.5549999996866,1.822073e-05,477.5549999996866,1.344576e-05,477.5549999996866,1.236629e-05,477.5549999996866,2.059832e-05
477.56999999968656,1.835783e-05,477.56999999968656,1.319086e-05,477.56999999968656,1.187111e-05,477.56999999968656,2.084239e-05
477.58499999968654,1.85813e-05,477.58499999968654,1.373803e-05,477.58499999968654,1.109457e-05,477.58499999968654,2.083766e-05
477.59999999968653,1.896325e-05,477.59999999968653,1.354908e-05,477.59999999968653,1.112753e-05,477.59999999968653,2.180038e-05
477.6149999996865,2.148208e-05,477.6149999996865,1.415418e-05,477.6149999996865,1.110599e-05,477.6149999996865,2.379674e-05
477.6299999996865,2.226772e-05,477.6299999996865,1.411731e-05,477.6299999996865,1.145932e-05,477.6299999996865,2.387593e-05
477.6449999996865,2.260363e-05,477.6449999996865,1.522532e-05,477.6449999996865,1.173985e-05,477.6449999996865,2.415455e-05
477.6599999996865,2.211792e-05,477.6599999996865,1.520588e-05,477.6599999996865,1.249434e-05,477.6599999996865,2.361669e-05
477.67499999968646,2.21262e-05,477.67499999968646,1.435773e-05,477.67499999968646,1.264006e-05,477.67499999968646,2.373094e-05
477.68999999968645,2.164474e-05,477.68999999968645,1.414721e-05,477.68999999968645,1.274107e-05,477.68999999968645,2.371788e-05
477.70499999968644,2.097578e-05,477.70499999968644,1.406533e-05,477.70499999968644,1.335114e-05,477.70499999968644,2.374103e-05
477.7199999996864,2.109098e-05,477.7199999996864,1.392036e-05,477.7199999996864,1.352723e-05,477.7199999996864,2.436301e-05
477.7349999996864,2.122812e-05,477.7349999996864,1.437244e-05,477.7349999996864,1.376568e-05,477.7349999996864,2.375882e-05
477.7499999996864,2.114168e-05,477.7499999996864,1.416313e-05,477.7499999996864,1.333847e-05,477.7499999996864,2.359879e-05
477.7649999996864,2.068976e-05,477.7649999996864,1.390011e-05,477.7649999996864,1.358024e-05,477.7649999996864,2.413004e-05
477.77999999968637,1.984884e-05,477.77999999968637,1.376057e-05,477.77999999968637,1.324095e-05,477.77999999968637,2.254497e-05
477.79499999968635,1.905884e-05,477.79499999968635,1.47526e-05,477.79499999968635,1.323989e-05,477.79499999968635,2.237185e-05
477.80999999968634,1.897068e-05,477.80999999968634,1.607852e-05,477.80999999968634,1.461542e-05,477.80999999968634,2.341181e-05
477.8249999996863,1.858585e-05,477.8249999996863,1.619289e-05,477.8249999996863,1.457198e-05,477.8249999996863,2.377838e-05
477.8399999996863,1.865469e-05,477.8399999996863,1.792532e-05,477.8399999996863,1.479456e-05,477.8399999996863,2.446054e-05
477.8549999996863,1.692367e-05,477.8549999996863,1.790252e-05,477.8549999996863,1.52835e-05,477.8549999996863,2.343586e-05
477.8699999996863,1.480503e-05,477.8699999996863,1.773651e-05,477.8699999996863,1.534513e-05,477.8699999996863,2.195042e-05
477.8849999996863,1.380758e-05,477.8849999996863,1.748535e-05,477.8849999996863,1.517249e-05,477.8849999996863,2.208605e-05
477.89999999968626,1.371237e-05,477.89999999968626,1.812539e-05,477.89999999968626,1.535706e-05,477.89999999968626,2.201898e-05
477.91499999968624,1.338065e-05,477.91499999968624,1.816808e-05,477.91499999968624,1.650992e-05,477.91499999968624,2.194143e-05
477.92999999968623,1.319299e-05,477.92999999968623,1.779835e-05,477.92999999968623,1.653464e-05,477.92999999968623,2.228163e-05
477.9449999996862,1.318872e-05,477.9449999996862,1.785209e-05,477.9449999996862,1.608816e-05,477.9449999996862,2.17415e-05
477.9599999996862,1.318979e-05,477.9599999996862,1.770551e-05,477.9599999996862,1.572775e-05,477.9599999996862,2.158152e-05
477.9749999996862,1.203609e-05,477.9749999996862,1.727951e-05,477.9749999996862,1.653464e-05,477.9749999996862,1.952181e-05
477.9899999996862,1.185448e-05,477.9899999996862,1.703401e-05,477.9899999996862,1.664672e-05,477.9899999996862,1.906401e-05
478.00499999968616,1.172905e-05,478.00499999968616,1.715679e-05,478.00499999968616,1.690118e-05,478.00499999968616,1.877962e-05
478.01999999968615,1.174585e-05,478.01999999968615,1.727054e-05,478.01999999968615,1.761218e-05,478.01999999968615,1.824236e-05
478.03499999968614,1.20021e-05,478.03499999968614,1.683269e-05,478.03499999968614,1.706788e-05,478.03499999968614,1.850229e-05
478.0499999996861,1.204077e-05,478.0499999996861,1.618331e-05,478.0499999996861,1.658568e-05,478.0499999996861,1.834094e-05
478.0649999996861,1.206998e-05,478.0649999996861,1.6927e-05,478.0649999996861,1.603992e-05,478.0649999996861,1.673449e-05
478.0799999996861,1.201031e-05,478.0799999996861,1.736733e-05,478.0799999996861,1.607502e-05,478.0799999996861,1.637627e-05
478.0949999996861,1.184497e-05,478.0949999996861,1.543209e-05,478.0949999996861,1.643895e-05,478.0949999996861,1.472106e-05
478.10999999968607,1.18414e-05,478.10999999968607,1.565953e-05,478.10999999968607,1.638659e-05,478.10999999968607,1.461542e-05
478.12499999968605,1.174825e-05,478.12499999968605,1.659162e-05,478.12499999968605,1.60645e-05,478.12499999968605,1.445356e-05
478.13999999968604,1.118561e-05,478.13999999968604,1.957226e-05,478.13999999968604,1.687532e-05,478.13999999968604,1.37288e-05
478.154999999686,1.16059e-05,478.154999999686,1.922149e-05,478.154999999686,1.646806e-05,478.154999999686,1.36258e-05
478.169999999686,1.166522e-05,478.169999999686,1.944373e-05,478.169999999686,1.493575e-05,478.169999999686,1.279403e-05
478.184999999686,1.110472e-05,478.184999999686,1.94951e-05,478.184999999686,1.520681e-05,478.184999999686,1.231378e-05
478.199999999686,1.127592e-05,478.199999999686,2.181394e-05,478.199999999686,1.544852e-05,478.199999999686,1.25135e-05
478.214999999686,1.199153e-05,478.214999999686,2.19363e-05,478.214999999686,1.584643e-05,478.214999999686,1.292221e-05
478.22999999968596,1.206298e-05,478.22999999968596,2.23964e-05,478.22999999968596,1.471053e-05,478.22999999968596,1.3103e-05
478.24499999968594,1.216299e-05,478.24499999968594,2.286326e-05,478.24499999968594,1.434497e-05,478.24499999968594,1.299613e-05
478.25999999968593,1.217341e-05,478.25999999968593,2.543511e-05,478.25999999968593,1.367328e-05,478.25999999968593,1.2689e-05
478.2749999996859,1.215256e-05,478.2749999996859,2.592442e-05,478.2749999996859,1.392744e-05,478.2749999996859,1.259429e-05
478.2899999996859,1.259541e-05,478.2899999996859,2.843844e-05,478.2899999996859,1.399806e-05,478.2899999996859,1.179731e-05
478.3049999996859,1.633234e-05,478.3049999996859,3.099626e-05,478.3049999996859,1.421971e-05,478.3049999996859,1.197272e-05
478.3199999996859,1.98609e-05,478.3199999996859,3.302538e-05,478.3199999996859,1.591207e-05,478.3199999996859,1.196919e-05
478.33499999968586,2.085455e-05,478.33499999968586,3.419967e-05,478.33499999968586,1.588993e-05,478.33499999968586,1.17722e-05
478.34999999968585,2.477355e-05,478.34999999968585,3.44541e-05,478.34999999968585,1.537631e-05,478.34999999968585,1.232635e-05
478.36499999968584,2.64196e-05,478.36499999968584,3.555196e-05,478.36499999968584,1.526321e-05,478.36499999968584,1.200562e-05
478.3799999996858,2.797952e-05,478.3799999996858,3.674979e-05,478.3799999996858,1.475833e-05,478.3799999996858,1.257974e-05
478.3949999996858,3.04326e-05,478.3949999996858,3.871391e-05,478.3949999996858,1.460674e-05,478.3949999996858,1.282922e-05
478.4099999996858,3.062685e-05,478.4099999996858,3.960602e-05,478.4099999996858,1.512879e-05,478.4099999996858,1.283251e-05
478.4249999996858,3.085871e-05,478.4249999996858,4.027263e-05,478.4249999996858,1.531389e-05,478.4249999996858,1.2969e-05
478.43999999968577,3.177409e-05,478.43999999968577,4.078011e-05,478.43999999968577,1.567032e-05,478.43999999968577,1.279183e-05
478.45499999968575,3.172217e-05,478.45499999968575,4.042066e-05,478.45499999968575,1.560456e-05,478.45499999968575,1.338907e-05
478.46999999968574,3.341886e-05,478.46999999968574,4.290182e-05,478.46999999968574,1.619114e-05,478.46999999968574,1.341954e-05
478.4849999996857,3.482052e-05,478.4849999996857,4.662494e-05,478.4849999996857,1.640807e-05,478.4849999996857,1.356882e-05
478.4999999996857,3.535767e-05,478.4999999996857,4.606017e-05,478.4999999996857,1.616415e-05,478.4999999996857,1.462794e-05
478.5149999996857,3.636755e-05,478.5149999996857,4.834962e-05,478.5149999996857,1.612052e-05,478.5149999996857,1.458358e-05
478.5299999996857,3.709468e-05,478.5299999996857,5.031783e-05,478.5299999996857,1.577068e-05,478.5299999996857,1.445356e-05
478.5449999996857,3.688217e-05,478.5449999996857,5.297632e-05,478.5449999996857,1.619376e-05,478.5449999996857,1.4185e-05
478.55999999968566,3.46758e-05,478.55999999968566,5.556951e-05,478.55999999968566,1.58562e-05,478.55999999968566,1.445259e-05
478.57499999968564,3.524594e-05,478.57499999968564,5.470933e-05,478.57499999968564,1.439008e-05,478.57499999968564,1.430761e-05
478.58999999968563,3.587814e-05,478.58999999968563,5.547462e-05,478.58999999968563,1.447304e-05,478.58999999968563,1.407434e-05
478.6049999996856,3.370386e-05,478.6049999996856,5.684417e-05,478.6049999996856,1.483164e-05,478.6049999996856,1.395573e-05
478.6199999996856,3.372475e-05,478.6199999996856,6.059078e-05,478.6199999996856,1.49612e-05,478.6199999996856,1.396784e-05
478.6349999996856,3.288003e-05,478.6349999996856,6.183417e-05,478.6349999996856,1.494989e-05,478.6349999996856,1.385646e-05
478.6499999996856,3.398191e-05,478.6499999996856,6.310239e-05,478.6499999996856,1.450221e-05,478.6499999996856,1.362373e-05
478.66499999968556,3.371556e-05,478.66499999968556,6.517567e-05,478.66499999968556,1.3989e-05,478.66499999968556,1.337644e-05
478.67999999968555,3.299593e-05,478.67999999968555,6.803322e-05,478.67999999968555,1.370209e-05,478.67999999968555,1.332368e-05
478.69499999968554,3.308206e-05,478.69499999968554,7.041431e-05,478.69499999968554,1.275654e-05,478.69499999968554,1.34489e-05
478.7099999996855,3.268797e-05,478.7099999996855,8.0986e-05,478.7099999996855,1.281603e-05,478.7099999996855,1.292875e-05
478.7249999996855,3.083176e-05,478.7249999996855,8.385628e-05,478.7249999996855,1.179253e-05,478.7249999996855,1.228744e-05
478.7399999996855,3.056147e-05,478.7399999996855,8.343728e-05,478.7399999996855,1.2397e-05,478.7399999996855,1.165918e-05
478.7549999996855,3.046221e-05,478.7549999996855,8.769894e-05,478.7549999996855,1.234919e-05,478.7549999996855,1.082335e-05
478.76999999968547,2.911834e-05,478.76999999968547,8.773957e-05,478.76999999968547,1.237426e-05,478.76999999968547,1.070952e-05
478.78499999968545,2.891834e-05,478.78499999968545,8.767709e-05,478.78499999968545,1.240723e-05,478.78499999968545,1.149124e-05
478.79999999968544,2.840176e-05,478.79999999968544,8.563635e-05,478.79999999968544,1.255732e-05,478.79999999968544,1.13407e-05
478.8149999996854,2.760954e-05,478.8149999996854,8.887994e-05,478.8149999996854,1.358231e-05,478.8149999996854,1.120951e-05
478.8299999996854,2.566722e-05,478.8299999996854,8.907356e-05,478.8299999996854,1.355844e-05,478.8299999996854,1.162288e-05
478.8449999996854,2.413646e-05,478.8449999996854,8.947404e-05,478.8449999996854,1.379431e-05,478.8449999996854,1.18164e-05
478.8599999996854,2.394133e-05,478.8599999996854,8.929295e-05,478.8599999996854,1.461638e-05,478.8599999996854,1.221154e-05
478.8749999996854,2.337146e-05,478.8749999996854,8.799591e-05,478.8749999996854,1.610566e-05,478.8749999996854,1.211425e-05
478.88999999968536,2.170194e-05,478.88999999968536,9.053502e-05,478.88999999968536,1.640378e-05,478.88999999968536,1.16616e-05
478.90499999968534,1.783393e-05,478.90499999968534,9.977928e-05,478.90499999968534,1.60864e-05,478.90499999968534,1.166281e-05
478.91999999968533,1.878187e-05,478.91999999968533,0.0001059969,478.91999999968533,1.616764e-05,478.91999999968533,1.183664e-05
478.9349999996853,1.91488e-05,478.9349999996853,0.0001072353,478.9349999996853,1.619289e-05,478.9349999996853,1.174945e-05
478.9499999996853,1.962832e-05,478.9499999996853,0.0001156906,478.9499999996853,1.727298e-05,478.9499999996853,1.152673e-05
478.9649999996853,1.975208e-05,478.9649999996853,0.0001179326,478.9649999996853,1.832634e-05,478.9649999996853,1.164951e-05
478.9799999996853,1.830096e-05,478.9799999996853,0.0001173249,478.9799999996853,1.858054e-05,478.9799999996853,1.138656e-05
478.99499999968526,1.830557e-05,478.99499999968526,0.0001172307,478.99499999968526,1.829557e-05,478.99499999968526,1.145809e-05
479.00999999968525,1.710251e-05,479.00999999968525,0.000113297,479.00999999968525,1.873005e-05,479.00999999968525,1.156821e-05
479.02499999968524,1.684524e-05,479.02499999968524,0.000112191,479.02499999968524,1.932746e-05,479.02499999968524,1.091794e-05
479.0399999996852,1.650565e-05,479.0399999996852,0.0001120598,479.0399999996852,1.944735e-05,479.0399999996852,1.054115e-05
479.0549999996852,1.641408e-05,479.0549999996852,0.0001089251,479.0549999996852,1.887688e-05,479.0549999996852,1.040665e-05
479.0699999996852,1.650821e-05,479.0699999996852,0.0001065783,479.0699999996852,1.811994e-05,479.0699999996852,1.059447e-05
479.0849999996852,1.657548e-05,479.0849999996852,0.0001064036,479.0849999996852,1.803579e-05,479.0849999996852,9.915899e-06
479.09999999968517,1.613362e-05,479.09999999968517,0.0001056265,479.09999999968517,1.798965e-05,479.09999999968517,9.460803e-06
479.11499999968515,1.557113e-05,479.11499999968515,0.0001047801,479.11499999968515,1.615369e-05,479.11499999968515,9.37104e-06
479.12999999968514,1.62606e-05,479.12999999968514,0.000102034,479.12999999968514,1.585265e-05,479.12999999968514,9.425e-06
479.1449999996851,1.769755e-05,479.1449999996851,9.461905e-05,479.1449999996851,1.599155e-05,479.1449999996851,9.289512e-06
479.1599999996851,1.699095e-05,479.1599999996851,8.091413e-05,479.1599999996851,1.648772e-05,479.1599999996851,9.837455e-06
479.1749999996851,1.603553e-05,479.1749999996851,7.64199e-05,479.1749999996851,1.665179e-05,479.1749999996851,1.010447e-05
479.1899999996851,1.529179e-05,479.1899999996851,7.189808e-05,479.1899999996851,1.605836e-05,479.1899999996851,1.012536e-05
479.20499999968507,1.398497e-05,479.20499999968507,3.732561e-05,479.20499999968507,1.639003e-05,479.20499999968507,1.030053e-05
479.21999999968506,1.347402e-05,479.21999999968506,3.487914e-05,479.21999999968506,1.549222e-05,479.21999999968506,1.042964e-05
479.23499999968504,1.335641e-05,479.23499999968504,3.133481e-05,479.23499999968504,1.540194e-05,479.23499999968504,1.052108e-05
479.24999999968503,1.316627e-05,479.24999999968503,3.260123e-05,479.24999999968503,1.527244e-05,479.24999999968503,1.030873e-05
479.264999999685,1.333953e-05,479.264999999685,3.359585e-05,479.264999999685,1.519569e-05,479.264999999685,1.031556e-05
479.279999999685,1.341639e-05,479.279999999685,3.369885e-05,479.279999999685,1.486011e-05,479.279999999685,1.025942e-05
479.294999999685,1.349387e-05,479.294999999685,3.531103e-05,479.294999999685,1.515484e-05,479.294999999685,1.019606e-05
479.309999999685,1.353452e-05,479.309999999685,3.567063e-05,479.309999999685,1.519661e-05,479.309999999685,1.022917e-05
479.32499999968496,1.298528e-05,479.32499999968496,3.523875e-05,479.32499999968496,1.58233e-05,479.32499999968496,1.023468e-05
479.33999999968495,1.270343e-05,479.33999999968495,3.503951e-05,479.33999999968495,1.597657e-05,479.33999999968495,1.069241e-05
479.35499999968494,1.241177e-05,479.35499999968494,3.409034e-05,479.35499999968494,1.708686e-05,479.35499999968494,1.096686e-05
479.3699999996849,1.249773e-05,479.3699999996849,3.663538e-05,479.3699999996849,1.706541e-05,479.3699999996849,1.117427e-05
479.3849999996849,9.457824e-06,479.3849999996849,3.758886e-05,479.3849999996849,1.675384e-05,479.3849999996849,1.163862e-05
479.3999999996849,8.976404e-06,479.3999999996849,3.774892e-05,479.3999999996849,1.695776e-05,479.3999999996849,1.168091e-05
479.4149999996849,9.602679e-06,479.4149999996849,3.779069e-05,479.4149999996849,1.669995e-05,479.4149999996849,1.125967e-05
479.42999999968487,9.813081e-06,479.42999999968487,3.901367e-05,479.42999999968487,1.689201e-05,479.42999999968487,1.097714e-05
479.44499999968485,1.087528e-05,479.44499999968485,3.983017e-05,479.44499999968485,1.689868e-05,479.44499999968485,1.149369e-05
479.45999999968484,1.089857e-05,479.45999999968484,4.06767e-05,479.45999999968484,1.694695e-05,479.45999999968484,1.177101e-05
479.4749999996848,1.095273e-05,479.4749999996848,3.716335e-05,479.4749999996848,1.680924e-05,479.4749999996848,1.176023e-05
479.4899999996848,1.071478e-05,479.4899999996848,3.475533e-05,479.4899999996848,1.67866e-05,479.4899999996848,1.197743e-05
479.5049999996848,1.085324e-05,479.5049999996848,3.350727e-05,479.5049999996848,1.644066e-05,479.5049999996848,1.253936e-05
479.5199999996848,1.339853e-05,479.5199999996848,3.291258e-05,479.5199999996848,1.593773e-05,479.5199999996848,1.603553e-05
479.53499999968477,1.42583e-05,479.53499999968477,3.23936e-05,479.53499999968477,1.653549e-05,479.53499999968477,1.682349e-05
479.54999999968476,1.458551e-05,479.54999999968476,3.117526e-05,479.54999999968476,1.658228e-05,479.54999999968476,1.768162e-05
479.56499999968474,1.477741e-05,479.56499999968474,3.09949e-05,479.56499999968474,1.672355e-05,479.56499999968474,1.790881e-05
479.57999999968473,1.491877e-05,479.57999999968473,3.089931e-05,479.57999999968473,1.639347e-05,479.57999999968473,1.818978e-05
479.5949999996847,1.497343e-05,479.5949999996847,3.067557e-05,479.5949999996847,1.574118e-05,479.5949999996847,1.799043e-05
479.6099999996847,1.543574e-05,479.6099999996847,2.956721e-05,479.6099999996847,1.569099e-05,479.6099999996847,1.846952e-05
479.6249999996847,1.546583e-05,479.6249999996847,2.629025e-05,479.6249999996847,1.51567e-05,479.6249999996847,1.855854e-05
479.6399999996847,1.593154e-05,479.6399999996847,2.575652e-05,479.6399999996847,1.50204e-05,479.6399999996847,1.873005e-05
479.65499999968466,1.5768e-05,479.65499999968466,2.481956e-05,479.65499999968466,1.518734e-05,479.65499999968466,1.88918e-05
479.66999999968465,1.548586e-05,479.66999999968465,2.479685e-05,479.66999999968465,1.5412e-05,479.66999999968465,1.900555e-05
479.68499999968463,1.538913e-05,479.68499999968463,2.173891e-05,479.68499999968463,1.502133e-05,479.68499999968463,1.988358e-05
479.6999999996846,1.486864e-05,479.6999999996846,2.073261e-05,479.6999999996846,1.653975e-05,479.6999999996846,1.990978e-05
479.7149999996846,1.606011e-05,479.7149999996846,1.750387e-05,479.7149999996846,1.535614e-05,479.7149999996846,2.004095e-05
479.7299999996846,1.623893e-05,479.7299999996846,1.539005e-05,479.7299999996846,1.566853e-05,479.7299999996846,2.013421e-05
479.7449999996846,1.664926e-05,479.7449999996846,1.226563e-05,479.7449999996846,1.571162e-05,479.7449999996846,2.021172e-05
479.75999999968457,1.667293e-05,479.75999999968457,1.189008e-05,479.75999999968457,1.58784e-05,479.75999999968457,1.992746e-05
479.77499999968455,1.416612e-05,479.77499999968455,1.155725e-05,479.77499999968455,1.552311e-05,479.77499999968455,1.678157e-05
479.78999999968454,1.400209e-05,479.78999999968454,1.066338e-05,479.78999999968454,1.585709e-05,479.78999999968454,1.660435e-05
479.8049999996845,1.376057e-05,479.8049999996845,1.05585e-05,479.8049999996845,1.513252e-05,479.8049999996845,1.587219e-05
479.8199999996845,1.401516e-05,479.8199999996845,1.108186e-05,479.8199999996845,1.572417e-05,479.8199999996845,1.626666e-05
479.8349999996845,1.462987e-05,479.8349999996845,1.2527e-05,479.8349999996845,1.50803e-05,479.8349999996845,1.700339e-05
479.8499999996845,1.491877e-05,479.8499999996845,1.271008e-05,479.8499999996845,1.532492e-05,479.8499999996845,1.759457e-05
479.86499999968447,1.464911e-05,479.86499999968447,1.246387e-05,479.86499999968447,1.464815e-05,479.86499999968447,1.704145e-05
479.87999999968446,1.447596e-05,479.87999999968446,1.16797e-05,479.87999999968446,1.466065e-05,479.87999999968446,1.687281e-05
479.89499999968444,1.427607e-05,479.89499999968444,1.15304e-05,479.89499999968444,1.524936e-05,479.89499999968444,1.637025e-05
479.90999999968443,1.423951e-05,479.90999999968443,1.146178e-05,479.90999999968443,1.45352e-05,479.90999999968443,1.652868e-05
479.9249999996844,1.406833e-05,479.9249999996844,1.134442e-05,479.9249999996844,1.412529e-05,479.9249999996844,1.616764e-05
479.9399999996844,1.419493e-05,479.9399999996844,1.125842e-05,479.9399999996844,1.415219e-05,479.9399999996844,1.599772e-05
479.9549999996844,1.411531e-05,479.9549999996844,1.096558e-05,479.9549999996844,1.319406e-05,479.9549999996844,1.568021e-05
479.9699999996844,1.364956e-05,479.9699999996844,1.07266e-05,479.9699999996844,1.33131e-05,479.9699999996844,1.587751e-05
479.98499999968436,1.320153e-05,479.98499999968436,1.049695e-05,479.98499999968436,1.375033e-05,479.98499999968436,1.60864e-05
479.99999999968435,1.301021e-05,479.99999999968435,1.043909e-05,479.99999999968435,1.554668e-05,479.99999999968435,1.639948e-05
480.01499999968433,1.309224e-05,480.01499999968433,1.06051e-05,480.01499999968433,1.530837e-05,480.01499999968433,1.626147e-05
480.0299999996843,1.28369e-05,480.0299999996843,1.056384e-05,480.0299999996843,1.572596e-05,480.0299999996843,1.621114e-05
480.0449999996843,1.264341e-05,480.0449999996843,1.051037e-05,480.0449999996843,1.512414e-05,480.0449999996843,1.602675e-05
480.0599999996843,1.227367e-05,480.0599999996843,1.05184e-05,480.0599999996843,1.513624e-05,480.0599999996843,1.579032e-05
480.0749999996843,1.1332e-05,480.0749999996843,8.686096e-06,480.0749999996843,1.523087e-05,480.0749999996843,1.444089e-05
480.08999999968427,1.060377e-05,480.08999999968427,7.790086e-06,480.08999999968427,1.491971e-05,480.08999999968427,1.397893e-05
480.10499999968425,1.023605e-05,480.10499999968425,7.697311e-06,480.10499999968425,1.548131e-05,480.10499999968425,1.301671e-05
480.11999999968424,1.013092e-05,480.11999999968424,7.777418e-06,480.11999999968424,1.546856e-05,480.11999999968424,1.250674e-05
480.1349999996842,9.586528e-06,480.1349999996842,7.904969e-06,480.1349999996842,1.585087e-05,480.1349999996842,1.240382e-05
480.1499999996842,9.593873e-06,480.1499999996842,7.928101e-06,480.1499999996842,1.574834e-05,480.1499999996842,1.21514e-05
480.1649999996842,9.484596e-06,480.1649999996842,8.02523e-06,480.1649999996842,1.585887e-05,480.1649999996842,1.204077e-05
480.1799999996842,9.62173e-06,480.1799999996842,7.752019e-06,480.1799999996842,1.59041e-05,480.1799999996842,1.159497e-05
480.19499999968417,9.243908e-06,480.19499999968417,7.915653e-06,480.19499999968417,1.533319e-05,480.19499999968417,1.119442e-05
480.20999999968416,8.581677e-06,480.20999999968416,7.829767e-06,480.20999999968416,1.547676e-05,480.20999999968416,1.129963e-05
480.22499999968414,8.811686e-06,480.22499999968414,7.653262e-06,480.22499999968414,1.523457e-05,480.22499999968414,1.1207e-05
480.23999999968413,9.028043e-06,480.23999999968413,7.984756e-06,480.23999999968413,1.46318e-05,480.23999999968413,1.035917e-05
480.2549999996841,8.95126e-06,480.2549999996841,8.246849e-06,480.2549999996841,1.381064e-05,480.2549999996841,1.008354e-05
480.2699999996841,8.840414e-06,480.2699999996841,7.988284e-06,480.2699999996841,1.401114e-05,480.2699999996841,1.01933e-05
480.2849999996841,8.902342e-06,480.2849999996841,8.009417e-06,480.2849999996841,1.32367e-05,480.2849999996841,9.965496e-06
480.2999999996841,8.982679e-06,480.2999999996841,7.997096e-06,480.2999999996841,1.337644e-05,480.2999999996841,1.011004e-05
480.31499999968406,8.826061e-06,480.31499999968406,8.25709e-06,480.31499999968406,1.379839e-05,480.31499999968406,1.041883e-05
480.32999999968405,8.982679e-06,480.32999999968405,8.109047e-06,480.32999999968405,1.305453e-05,480.32999999968405,1.045527e-05
480.34499999968403,8.77805e-06,480.34499999968403,8.138525e-06,480.34499999968403,1.344786e-05,480.34499999968403,1.076985e-05
480.359999999684,9.360511e-06,480.359999999684,8.316587e-06,480.359999999684,1.330252e-05,480.359999999684,1.075284e-05
480.374999999684,9.636359e-06,480.374999999684,8.176516e-06,480.374999999684,1.336696e-05,480.374999999684,1.057317e-05
480.389999999684,9.683024e-06,480.389999999684,9.997955e-06,480.389999999684,1.243784e-05,480.389999999684,1.101429e-05
480.404999999684,9.67866e-06,480.404999999684,1.008214e-05,480.404999999684,1.263672e-05,480.404999999684,1.118183e-05
480.41999999968397,9.648047e-06,480.41999999968397,1.019192e-05,480.41999999968397,1.313414e-05,480.41999999968397,1.111486e-05
480.43499999968395,1.009331e-05,480.43499999968395,1.100661e-05,480.43499999968395,1.377898e-05,480.43499999968395,1.133448e-05
480.44999999968394,1.049024e-05,480.44999999968394,1.090116e-05,480.44999999968394,1.344367e-05,480.44999999968394,1.126842e-05
480.4649999996839,1.042829e-05,480.4649999996839,1.096172e-05,480.4649999996839,1.326434e-05,480.4649999996839,1.104876e-05
480.4799999996839,1.024843e-05,480.4799999996839,1.152796e-05,480.4799999996839,1.303617e-05,480.4799999996839,1.056517e-05
480.4949999996839,1.016701e-05,480.4949999996839,1.146178e-05,480.4949999996839,1.299721e-05,480.4949999996839,1.047277e-05
480.5099999996839,1.016978e-05,480.5099999996839,1.160711e-05,480.5099999996839,1.375033e-05,480.5099999996839,1.011004e-05
480.52499999968387,1.007655e-05,480.52499999968387,1.142362e-05,480.52499999968387,1.433319e-05,480.52499999968387,9.886021e-06
480.53999999968386,1.131832e-05,480.53999999968386,1.139646e-05,480.53999999968386,1.458551e-05,480.53999999968386,9.961255e-06
480.55499999968384,1.173385e-05,480.55499999968384,1.135063e-05,480.55499999968384,1.443504e-05,480.55499999968384,9.68157e-06
480.56999999968383,1.182712e-05,480.56999999968383,1.116797e-05,480.56999999968383,1.421476e-05,480.56999999968383,9.68157e-06
480.5849999996838,1.181878e-05,480.5849999996838,1.094629e-05,480.5849999996838,1.472201e-05,480.5849999996838,9.056085e-06
480.5999999996838,1.226449e-05,480.5999999996838,1.072266e-05,480.5999999996838,1.418103e-05,480.5999999996838,9.127357e-06
480.6149999996838,1.174345e-05,480.6149999996838,1.050768e-05,480.6149999996838,1.381064e-05,480.6149999996838,9.116548e-06
480.6299999996838,1.160468e-05,480.6299999996838,1.022641e-05,480.6299999996838,1.39234e-05,480.6299999996838,9.35449e-06
480.64499999968376,1.186161e-05,480.64499999968376,8.517419e-06,480.64499999968376,1.413426e-05,480.64499999968376,8.985815e-06
480.65999999968375,1.203609e-05,480.65999999968375,8.465993e-06,480.65999999968375,1.356467e-05,480.65999999968375,9.21185e-06
480.67499999968373,1.208748e-05,480.67499999968373,8.007658e-06,480.67499999968373,1.262668e-05,480.67499999968373,9.259134e-06
480.6899999996837,1.098483e-05,480.6899999996837,7.603404e-06,480.6899999996837,1.243898e-05,480.6899999996837,8.032248e-06
480.7049999996837,1.098355e-05,480.7049999996837,7.649581e-06,480.7049999996837,1.250223e-05,480.7049999996837,8.183403e-06
480.7199999996837,1.105131e-05,480.7199999996837,7.337527e-06,480.7199999996837,1.302428e-05,480.7199999996837,8.387425e-06
480.7349999996837,1.094114e-05,480.7349999996837,7.30096e-06,480.7349999996837,1.301021e-05,480.7349999996837,8.495891e-06
480.74999999968367,1.082725e-05,480.74999999968367,7.385367e-06,480.74999999968367,1.216531e-05,480.74999999968367,8.446003e-06
480.76499999968365,1.075677e-05,480.76499999968365,7.033664e-06,480.76499999968365,1.182355e-05,480.76499999968365,8.710389e-06
480.77999999968364,1.063958e-05,480.77999999968364,7.131124e-06,480.77999999968364,1.128092e-05,480.77999999968364,8.781259e-06
480.7949999996836,9.309204e-06,480.7949999996836,7.186222e-06,480.7949999996836,1.163015e-05,480.7949999996836,8.370614e-06
480.8099999996836,8.728161e-06,480.8099999996836,6.894089e-06,480.8099999996836,1.139893e-05,480.8099999996836,8.449338e-06
480.8249999996836,8.999913e-06,480.8249999996836,7.003558e-06,480.8249999996836,1.14802e-05,480.8249999996836,8.185125e-06
480.8399999996836,8.864284e-06,480.8399999996836,6.995509e-06,480.8399999996836,1.166643e-05,480.8399999996836,8.370614e-06
480.85499999968357,8.34702e-06,480.85499999968357,7.115304e-06,480.85499999968357,1.208515e-05,480.85499999968357,8.228038e-06
480.86999999968356,8.367247e-06,480.86999999968356,7.207752e-06,480.86999999968356,1.234348e-05,480.86999999968356,8.28094e-06
480.88499999968354,8.136793e-06,480.88499999968354,7.215565e-06,480.88499999968354,1.242084e-05,480.88499999968354,7.844146e-06
480.89999999968353,7.757469e-06,480.89999999968353,7.93698e-06,480.89999999968353,1.23845e-05,480.89999999968353,8.260502e-06
480.9149999996835,7.370092e-06,480.9149999996835,8.384065e-06,480.9149999996835,1.23754e-05,480.9149999996835,7.929877e-06
480.9299999996835,7.194059e-06,480.9299999996835,8.999913e-06,480.9299999996835,1.254498e-05,480.9299999996835,8.167896e-06
480.9449999996835,7.252564e-06,480.9449999996835,8.870637e-06,480.9449999996835,1.248983e-05,480.9449999996835,8.035755e-06
480.9599999996835,7.021637e-06,480.9599999996835,8.712006e-06,480.9599999996835,1.27134e-05,480.9599999996835,7.92099e-06
480.97499999968346,7.075597e-06,480.97499999968346,8.857925e-06,480.97499999968346,1.238791e-05,480.97499999968346,7.717415e-06
480.98999999968345,7.069622e-06,480.98999999968345,8.279239e-06,480.98999999968345,1.219769e-05,480.98999999968345,7.612662e-06
481.00499999968343,6.934835e-06,481.00499999968343,8.219473e-06,481.00499999968343,1.224954e-05,481.00499999968343,9.08249e-06
481.0199999996834,7.431003e-06,481.0199999996834,8.197163e-06,481.0199999996834,1.193973e-05,481.0199999996834,9.090241e-06
481.0349999996834,8.007658e-06,481.0349999996834,8.192006e-06,481.0349999996834,1.19527e-05,481.0349999996834,1.054783e-05
481.0499999996834,8.157542e-06,481.0499999996834,8.210899e-06,481.0499999996834,1.142608e-05,481.0499999996834,1.063693e-05
481.0649999996834,7.922768e-06,481.0649999996834,8.31828e-06,481.0649999996834,1.154993e-05,481.0649999996834,1.106278e-05
481.07999999968337,7.924546e-06,481.07999999968337,8.297934e-06,481.07999999968337,1.090762e-05,481.07999999968337,1.135683e-05
481.09499999968335,7.97593e-06,481.09499999968335,8.28094e-06,481.09499999968335,1.044853e-05,481.09499999968335,1.18414e-05
481.10999999968334,1.00975e-05,481.10999999968334,8.323359e-06,481.10999999968334,1.009331e-05,481.10999999968334,1.297443e-05
481.1249999996833,1.276317e-05,481.1249999996833,8.262207e-06,481.1249999996833,9.156633e-06,481.1249999996833,1.347193e-05
481.1399999996833,1.450124e-05,481.1399999996833,8.262207e-06,481.1399999996833,9.486082e-06,481.1399999996833,1.390922e-05
481.1549999996833,1.614846e-05,481.1549999996833,7.827967e-06,481.1549999996833,9.576237e-06,481.1549999996833,1.400108e-05
481.1699999996833,1.656953e-05,481.1699999996833,7.025649e-06,481.1699999996833,9.334893e-06,481.1699999996833,1.471914e-05
481.18499999968327,1.689784e-05,481.18499999968327,7.735647e-06,481.18499999968327,9.420515e-06,481.18499999968327,1.504757e-05
481.19999999968326,1.788126e-05,481.19999999968326,8.053266e-06,481.19999999968326,9.414533e-06,481.19999999968326,1.591384e-05
481.21499999968324,1.973995e-05,481.21499999968324,8.977973e-06,481.21499999968324,9.390561e-06,481.21499999968324,1.666279e-05
481.22999999968323,2.072445e-05,481.22999999968323,1.09938e-05,481.22999999968323,9.86748e-06,481.22999999968323,1.6826e-05
481.2449999996832,2.107695e-05,481.2449999996832,1.171944e-05,481.2449999996832,9.857482e-06,481.2449999996832,1.686446e-05
481.2599999996832,2.158283e-05,481.2599999996832,1.372469e-05,481.2599999996832,9.693203e-06,481.2599999996832,1.650053e-05
481.2749999996832,2.172205e-05,481.2749999996832,1.425533e-05,481.2749999996832,1.029916e-05,481.2749999996832,1.59103e-05
481.2899999996832,2.225253e-05,481.2899999996832,1.461831e-05,481.2899999996832,1.02388e-05,481.2899999996832,1.625107e-05
481.30499999968316,2.27366e-05,481.30499999968316,1.521422e-05,481.30499999968316,1.030326e-05,481.30499999968316,1.671849e-05
481.31999999968315,2.430165e-05,481.31999999968315,1.581706e-05,481.31999999968315,1.015592e-05,481.31999999968315,1.706706e-05
481.33499999968313,2.51096e-05,481.33499999968313,1.610041e-05,481.33499999968313,1.032921e-05,481.33499999968313,1.695776e-05
481.3499999996831,2.731408e-05,481.3499999996831,1.619897e-05,481.3499999996831,1.054783e-05,481.3499999996831,1.630472e-05
481.3649999996831,2.685535e-05,481.3649999996831,1.619028e-05,481.3649999996831,1.101429e-05,481.3649999996831,1.855095e-05
481.3799999996831,2.679917e-05,481.3799999996831,1.702574e-05,481.3799999996831,1.132081e-05,481.3799999996831,1.852663e-05
481.3949999996831,3.014705e-05,481.3949999996831,1.722316e-05,481.3949999996831,1.175065e-05,481.3949999996831,2.789683e-05
481.40999999968307,3.060523e-05,481.40999999968307,1.726401e-05,481.40999999968307,1.190665e-05,481.40999999968307,2.868897e-05
481.42499999968305,3.060339e-05,481.42499999968305,1.780627e-05,481.42499999968305,1.284568e-05,481.42499999968305,2.881635e-05
481.43999999968304,3.057852e-05,481.43999999968304,2.037762e-05,481.43999999968304,1.443796e-05,481.43999999968304,2.918888e-05
481.454999999683,2.964476e-05,481.454999999683,2.170259e-05,481.454999999683,1.479741e-05,481.454999999683,2.909656e-05
481.469999999683,2.975764e-05,481.469999999683,2.174668e-05,481.469999999683,1.459227e-05,481.469999999683,2.938512e-05
481.484999999683,2.976143e-05,481.484999999683,2.304308e-05,481.484999999683,1.422566e-05,481.484999999683,2.933859e-05
481.499999999683,2.976143e-05,481.499999999683,2.369113e-05,481.499999999683,1.439105e-05,481.499999999683,2.933763e-05
481.51499999968297,2.97188e-05,481.51499999968297,2.568971e-05,481.51499999968297,1.436656e-05,481.51499999968297,2.927514e-05
481.52999999968296,3.092118e-05,481.52999999968296,2.911689e-05,481.52999999968296,1.381268e-05,481.52999999968296,2.91773e-05
481.54499999968294,3.032688e-05,481.54499999968294,3.195887e-05,481.54499999968294,1.376568e-05,481.54499999968294,2.895582e-05
481.55999999968293,3.025061e-05,481.55999999968293,3.375022e-05,481.55999999968293,1.407434e-05,481.55999999968293,2.89709e-05
481.5749999996829,2.958435e-05,481.5749999996829,3.38036e-05,481.5749999996829,1.447694e-05,481.5749999996829,3.008297e-05
481.5899999996829,2.741909e-05,481.5899999996829,3.37936e-05,481.5899999996829,1.532768e-05,481.5899999996829,3.420749e-05
481.6049999996829,2.665476e-05,481.6049999996829,3.498237e-05,481.6049999996829,1.506067e-05,481.6049999996829,3.494773e-05
481.6199999996829,2.655256e-05,481.6199999996829,3.607002e-05,481.6199999996829,1.503727e-05,481.6199999996829,3.442915e-05
481.63499999968286,2.452265e-05,481.63499999968286,4.423265e-05,481.63499999968286,1.482879e-05,481.63499999968286,3.616246e-05
481.64999999968285,2.322939e-05,481.64999999968285,5.011108e-05,481.64999999968285,1.503165e-05,481.64999999968285,3.195181e-05
481.66499999968283,3.439517e-05,481.66499999968283,6.483393e-05,481.66499999968283,1.46212e-05,481.66499999968283,3.160339e-05
481.6799999996828,4.150393e-05,481.6799999996828,6.864706e-05,481.6799999996828,1.604695e-05,481.6799999996828,3.141965e-05
481.6949999996828,5.581158e-05,481.6949999996828,7.345835e-05,481.6949999996828,3.332685e-05,481.6949999996828,3.080297e-05
481.7099999996828,5.620469e-05,481.7099999996828,8.29678e-05,481.7099999996828,3.900645e-05,481.7099999996828,3.075033e-05
481.7249999996828,5.853608e-05,481.7249999996828,8.5559e-05,481.7249999996828,4.325531e-05,481.7249999996828,3.126324e-05
481.73999999968277,5.987491e-05,481.73999999968277,8.697539e-05,481.73999999968277,4.368758e-05,481.73999999968277,3.136626e-05
481.75499999968275,6.075656e-05,481.75499999968275,8.788443e-05,481.75499999968275,4.415328e-05,481.75499999968275,3.154583e-05
481.76999999968274,6.054985e-05,481.76999999968274,8.812916e-05,481.76999999968274,4.423902e-05,481.76999999968274,3.172839e-05
481.7849999996827,6.006048e-05,481.7849999996827,8.759768e-05,481.7849999996827,4.427976e-05,481.7849999996827,3.166617e-05
481.7999999996827,6.020104e-05,481.7999999996827,8.709322e-05,481.7999999996827,4.428231e-05,481.7999999996827,3.197737e-05
481.8149999996827,6.072873e-05,481.8149999996827,8.785124e-05,481.8149999996827,4.417274e-05,481.8149999996827,3.172661e-05
481.8299999996827,6.08814e-05,481.8299999996827,8.869002e-05,481.8299999996827,4.404116e-05,481.8299999996827,2.95324e-05
481.84499999968267,6.087214e-05,481.84499999968267,8.878209e-05,481.84499999968267,4.383405e-05,481.84499999968267,2.604585e-05
481.85999999968266,6.094361e-05,481.85999999968266,8.946034e-05,481.85999999968266,4.395343e-05,481.85999999968266,2.531632e-05
481.87499999968264,6.092488e-05,481.87499999968264,8.826046e-05,481.87499999968264,4.387966e-05,481.87499999968264,2.439999e-05
481.88999999968263,6.087885e-05,481.88999999968263,8.696729e-05,481.88999999968263,4.385654e-05,481.88999999968263,2.064e-05
481.9049999996826,5.958979e-05,481.9049999996826,8.723124e-05,481.9049999996826,4.37385e-05,481.9049999996826,1.767923e-05
481.9199999996826,5.160921e-05,481.9199999996826,7.999157e-05,481.9199999996826,4.380415e-05,481.9199999996826,1.729743e-05
481.9349999996826,4.4005e-05,481.9349999996826,7.603886e-05,481.9349999996826,3.533496e-05,481.9349999996826,1.658568e-05
481.9499999996826,3.162255e-05,481.9499999996826,7.317495e-05,481.9499999996826,3.054487e-05,481.9499999996826,1.658058e-05
481.96499999968256,3.054718e-05,481.96499999968256,6.089366e-05,481.96499999968256,1.555121e-05,481.96499999968256,1.702988e-05
481.97999999968255,2.323667e-05,481.97999999968255,5.852574e-05,481.97999999968255,1.345937e-05,481.97999999968255,1.706788e-05
481.99499999968253,2.420407e-05,481.99499999968253,5.539966e-05,481.99499999968253,1.043234e-05,481.99499999968253,1.718796e-05
482.0099999996825,2.302962e-05,482.0099999996825,5.778867e-05,482.0099999996825,1.012258e-05,482.0099999996825,1.982114e-05
482.0249999996825,2.316928e-05,482.0249999996825,5.636711e-05,482.0249999996825,9.870335e-06,482.0249999996825,2.383518e-05
482.0399999996825,2.328269e-05,482.0399999996825,5.617435e-05,482.0399999996825,9.841749e-06,482.0399999996825,2.410025e-05
482.0549999996825,2.306813e-05,482.0549999996825,5.552284e-05,482.0549999996825,1.008633e-05,482.0549999996825,2.424594e-05
482.06999999968247,2.266338e-05,482.06999999968247,5.516651e-05,482.06999999968247,9.671379e-06,482.06999999968247,2.462927e-05
482.08499999968245,2.218469e-05,482.08499999968245,5.428126e-05,482.08499999968245,9.640744e-06,482.08499999968245,2.444037e-05
482.09999999968244,2.21739e-05,482.09999999968244,5.429475e-05,482.09999999968244,9.242383e-06,482.09999999968244,2.431208e-05
482.1149999996824,2.310291e-05,482.1149999996824,5.298855e-05,482.1149999996824,9.175076e-06,482.1149999996824,2.407569e-05
482.1299999996824,2.341542e-05,482.1299999996824,5.126194e-05,482.1299999996824,9.110365e-06,482.1299999996824,2.379851e-05
482.1449999996824,2.405754e-05,482.1449999996824,4.827964e-05,482.1449999996824,9.30012e-06,482.1449999996824,2.373569e-05
482.1599999996824,2.496331e-05,482.1599999996824,4.15365e-05,482.1599999996824,8.494233e-06,482.1599999996824,2.376771e-05
482.17499999968237,2.568368e-05,482.17499999968237,3.796771e-05,482.17499999968237,8.635676e-06,482.17499999968237,2.376119e-05
482.18999999968236,2.469609e-05,482.18999999968236,4.140641e-05,482.18999999968236,8.461e-06,482.18999999968236,2.36953e-05
482.20499999968234,2.411661e-05,482.20499999968234,4.25689e-05,482.20499999968234,8.686096e-06,482.20499999968234,2.356654e-05
482.21999999968233,2.401124e-05,482.21999999968233,4.335517e-05,482.21999999968233,8.95598e-06,482.21999999968233,2.232458e-05
482.2349999996823,2.476274e-05,482.2349999996823,4.593829e-05,482.2349999996823,9.038959e-06,482.2349999996823,2.154559e-05
482.2499999996823,2.418777e-05,482.2499999996823,4.333827e-05,482.2499999996823,1.008214e-05,482.2499999996823,2.118627e-05
482.2649999996823,2.393191e-05,482.2649999996823,4.218396e-05,482.2649999996823,1.026079e-05,482.2649999996823,1.669995e-05
482.2799999996823,2.405579e-05,482.2799999996823,4.342237e-05,482.2799999996823,1.037411e-05,482.2799999996823,1.238222e-05
482.29499999968226,2.305041e-05,482.29499999968226,4.2867e-05,482.29499999968226,1.03904e-05,482.29499999968226,1.186636e-05
482.30999999968225,2.274404e-05,482.30999999968225,4.167633e-05,482.30999999968225,1.084675e-05,482.30999999968225,1.040936e-05
482.32499999968223,2.261858e-05,482.32499999968223,4.05876e-05,482.32499999968223,1.154627e-05,482.32499999968223,9.583589e-06
482.3399999996822,2.469381e-05,482.3399999996822,4.065314e-05,482.3399999996822,1.147529e-05,482.3399999996822,9.222548e-06
482.3549999996822,2.482807e-05,482.3549999996822,4.097653e-05,482.3549999996822,1.114145e-05,482.3549999996822,8.2229e-06
482.3699999996822,2.454218e-05,482.3699999996822,4.055253e-05,482.3699999996822,1.183902e-05,482.3699999996822,8.188566e-06
482.3849999996822,2.428367e-05,482.3849999996822,4.002386e-05,482.3849999996822,1.184021e-05,482.3849999996822,8.279239e-06
482.39999999968217,2.439364e-05,482.39999999968217,4.154769e-05,482.39999999968217,1.163015e-05,482.39999999968217,8.192006e-06
482.41499999968215,2.526898e-05,482.41499999968215,4.162357e-05,482.41499999968215,1.180447e-05,482.41499999968215,8.363879e-06
482.42999999968214,2.533189e-05,482.42999999968214,3.93695e-05,482.42999999968214,1.177819e-05,482.42999999968214,8.325052e-06
482.4449999996821,2.502812e-05,482.4449999996821,3.526672e-05,482.4449999996821,1.182831e-05,482.4449999996821,8.107309e-06
482.4599999996821,2.522322e-05,482.4599999996821,3.471559e-05,482.4599999996821,1.161318e-05,482.4599999996821,8.338578e-06
482.4749999996821,2.546334e-05,482.4749999996821,3.301301e-05,482.4749999996821,1.16797e-05,482.4749999996821,8.760379e-06
482.4899999996821,2.474851e-05,482.4899999996821,2.945264e-05,482.4899999996821,1.163741e-05,482.4899999996821,9.105725e-06
482.50499999968207,2.458003e-05,482.50499999968207,3.030876e-05,482.50499999968207,1.10309e-05,482.50499999968207,9.145859e-06
482.51999999968206,2.449219e-05,482.51999999968206,3.298868e-05,482.51999999968206,1.148265e-05,482.51999999968206,9.155096e-06
482.53499999968204,2.468183e-05,482.53499999968204,3.283845e-05,482.53499999968204,1.140511e-05,482.53499999968204,9.222548e-06
482.54999999968203,2.545836e-05,482.54999999968203,3.525114e-05,482.54999999968203,1.122458e-05,482.54999999968203,9.359006e-06
482.564999999682,2.621728e-05,482.564999999682,3.622317e-05,482.564999999682,1.055317e-05,482.564999999682,9.378553e-06
482.579999999682,2.460294e-05,482.579999999682,3.633849e-05,482.579999999682,1.020987e-05,482.579999999682,9.514254e-06
482.594999999682,2.484396e-05,482.594999999682,3.716411e-05,482.594999999682,1.060377e-05,482.594999999682,9.965496e-06
482.609999999682,2.552523e-05,482.609999999682,3.652949e-05,482.609999999682,1.025805e-05,482.609999999682,9.844612e-06
482.62499999968196,2.770529e-05,482.62499999968196,3.631212e-05,482.62499999968196,9.836022e-06,482.62499999968196,9.668466e-06
482.63999999968195,2.898354e-05,482.63999999968195,3.597695e-05,482.63999999968195,1.006396e-05,482.63999999968195,9.741042e-06
482.65499999968193,3.000748e-05,482.65499999968193,3.379735e-05,482.65499999968193,1.084675e-05,482.65499999968193,9.907371e-06
482.6699999996819,3.038628e-05,482.6699999996819,3.354928e-05,482.6699999996819,1.103728e-05,482.6699999996819,9.769921e-06
482.6849999996819,3.091298e-05,482.6849999996819,3.39097e-05,482.6849999996819,1.102451e-05,482.6849999996819,9.672836e-06
482.6999999996819,3.467499e-05,482.6999999996819,3.406182e-05,482.6999999996819,1.203258e-05,482.6999999996819,9.499437e-06
482.7149999996819,3.751684e-05,482.7149999996819,3.301173e-05,482.7149999996819,1.241971e-05,482.7149999996819,9.895991e-06
482.72999999968187,3.669838e-05,482.72999999968187,3.280583e-05,482.72999999968187,1.217572e-05,482.72999999968187,9.975386e-06
482.74499999968185,3.710835e-05,482.74499999968185,3.196371e-05,482.74499999968185,1.261217e-05,482.74499999968185,1.025667e-05
482.75999999968184,3.84437e-05,482.75999999968184,2.757687e-05,482.75999999968184,1.220346e-05,482.75999999968184,1.019468e-05
482.7749999996818,3.868443e-05,482.7749999996818,3.035752e-05,482.7749999996818,1.199271e-05,482.7749999996818,1.00961e-05
482.7899999996818,3.898116e-05,482.7899999996818,2.924577e-05,482.7899999996818,1.260994e-05,482.7899999996818,1.007375e-05
482.8049999996818,3.928354e-05,482.8049999996818,2.569135e-05,482.8049999996818,1.349074e-05,482.8049999996818,9.937185e-06
482.8199999996818,3.954124e-05,482.8199999996818,2.550977e-05,482.8199999996818,1.351681e-05,482.8199999996818,9.602679e-06
482.83499999968177,4.037429e-05,482.83499999968177,2.958864e-05,482.83499999968177,1.304805e-05,482.83499999968177,9.478654e-06
482.84999999968176,4.093113e-05,482.84999999968176,2.894803e-05,482.84999999968176,1.287306e-05,482.84999999968176,9.295575e-06
482.86499999968174,4.239082e-05,482.86499999968174,2.921397e-05,482.86499999968174,1.364027e-05,482.86499999968174,9.570351e-06
482.87999999968173,4.069782e-05,482.87999999968173,2.987339e-05,482.87999999968173,1.402722e-05,482.87999999968173,9.10263e-06
482.8949999996817,4.068778e-05,482.8949999996817,3.347782e-05,482.8949999996817,1.387069e-05,482.8949999996817,8.990517e-06
482.9099999996817,3.983689e-05,482.9099999996817,3.448924e-05,482.9099999996817,1.345833e-05,482.9099999996817,8.859515e-06
482.9249999996817,3.898875e-05,482.9249999996817,3.514147e-05,482.9249999996817,1.329828e-05,482.9249999996817,8.862694e-06
482.9399999996817,3.648395e-05,482.9399999996817,3.443978e-05,482.9399999996817,1.371031e-05,482.9399999996817,9.051417e-06
482.95499999968166,3.525434e-05,482.95499999968166,3.518594e-05,482.95499999968166,1.267123e-05,482.95499999968166,8.935509e-06
482.96999999968165,3.27676e-05,482.96999999968165,3.523395e-05,482.96999999968165,1.326115e-05,482.96999999968165,8.2229e-06
482.98499999968163,3.370428e-05,482.98499999968163,3.549684e-05,482.98499999968163,1.330357e-05,482.98499999968163,7.808148e-06
482.9999999996816,3.260641e-05,482.9999999996816,3.540505e-05,482.9999999996816,1.320153e-05,482.9999999996816,7.337527e-06
483.0149999996816,3.094759e-05,483.0149999996816,3.203063e-05,483.0149999996816,1.342689e-05,483.0149999996816,7.233115e-06
483.0299999996816,3.027062e-05,483.0299999996816,3.294937e-05,483.0299999996816,1.309332e-05,483.0299999996816,7.461272e-06
483.0449999996816,2.978414e-05,483.0449999996816,3.305394e-05,483.0449999996816,1.24729e-05,483.0449999996816,7.912094e-06
483.05999999968157,2.908252e-05,483.05999999968157,3.305181e-05,483.05999999968157,1.172184e-05,483.05999999968157,8.402527e-06
483.07499999968155,2.73939e-05,483.07499999968155,3.382776e-05,483.07499999968155,1.176502e-05,483.07499999968155,8.620983e-06
483.08999999968154,2.630846e-05,483.08999999968154,3.042751e-05,483.08999999968154,1.208515e-05,483.08999999968154,8.475971e-06
483.1049999996815,2.419243e-05,483.1049999996815,3.086053e-05,483.1049999996815,1.196919e-05,483.1049999996815,8.289442e-06
483.1199999996815,2.090987e-05,483.1199999996815,3.095351e-05,483.1199999996815,1.111233e-05,483.1199999996815,8.136793e-06
483.1349999996815,2.06666e-05,483.1349999996815,3.11151e-05,483.1349999996815,1.105896e-05,483.1349999996815,8.148903e-06
483.1499999996815,1.938059e-05,483.1499999996815,2.739647e-05,483.1499999996815,1.100917e-05,483.1499999996815,8.186846e-06
483.16499999968147,1.825471e-05,483.16499999968147,2.679601e-05,483.16499999968147,1.141622e-05,483.16499999968147,8.341955e-06
483.17999999968146,1.900925e-05,483.17999999968146,3.083862e-05,483.17999999968146,1.149614e-05,483.17999999968146,8.538892e-06
483.19499999968144,1.876762e-05,483.19499999968144,3.381402e-05,483.19499999968144,1.176981e-05,483.19499999968144,8.39414e-06
483.20999999968143,2.070881e-05,483.20999999968143,3.545991e-05,483.20999999968143,1.088564e-05,483.20999999968143,8.301328e-06
483.2249999996814,2.102877e-05,483.2249999996814,4.049552e-05,483.2249999996814,1.09102e-05,483.2249999996814,8.314893e-06
483.2399999996814,1.916938e-05,483.2399999996814,4.091564e-05,483.2399999996814,1.107169e-05,483.2399999996814,8.477633e-06
483.2549999996814,1.940166e-05,483.2549999996814,4.109394e-05,483.2549999996814,1.090633e-05,483.2549999996814,8.542191e-06
483.2699999996814,1.913629e-05,483.2699999996814,4.329535e-05,483.2699999996814,1.066734e-05,483.2699999996814,8.573465e-06
483.28499999968136,1.953335e-05,483.28499999968136,4.343924e-05,483.28499999968136,1.086362e-05,483.28499999968136,8.41258e-06
483.29999999968135,1.987508e-05,483.29999999968135,4.423074e-05,483.29999999968135,1.101812e-05,483.29999999968135,8.074229e-06
483.31499999968133,2.183653e-05,483.31499999968133,4.569416e-05,483.31499999968133,1.117301e-05,483.31499999968133,7.878193e-06
483.3299999996813,2.240583e-05,483.3299999996813,4.617319e-05,483.3299999996813,1.141498e-05,483.3299999996813,8.018206e-06
483.3449999996813,2.274404e-05,483.3449999996813,5.214333e-05,483.3449999996813,1.160347e-05,483.3449999996813,8.246849e-06
483.3599999996813,2.305286e-05,483.3599999996813,5.533656e-05,483.3599999996813,1.155725e-05,483.3599999996813,8.29284e-06
483.3749999996813,2.34743e-05,483.3749999996813,5.57497e-05,483.3749999996813,1.137295e-05,483.3749999996813,8.494233e-06
483.38999999968127,2.355039e-05,483.38999999968127,5.719375e-05,483.38999999968127,1.134567e-05,483.38999999968127,8.583318e-06
483.40499999968125,2.366496e-05,483.40499999968125,6.181868e-05,483.40499999968125,1.103473e-05,483.40499999968125,8.581677e-06
483.41999999968124,2.198313e-05,483.41999999968124,6.253212e-05,483.41999999968124,1.105769e-05,483.41999999968124,8.233172e-06
483.4349999996812,2.052776e-05,483.4349999996812,6.378845e-05,483.4349999996812,1.146915e-05,483.4349999996812,8.121197e-06
483.4499999996812,1.968207e-05,483.4499999996812,6.460169e-05,483.4499999996812,1.114271e-05,483.4499999996812,7.791894e-06
483.4649999996812,1.900777e-05,483.4649999996812,6.328273e-05,483.4649999996812,1.119946e-05,483.4649999996812,7.849532e-06
483.4799999996812,1.92866e-05,483.4799999996812,6.780694e-05,483.4799999996812,1.099637e-05,483.4799999996812,8.164447e-06
483.49499999968117,1.930923e-05,483.49499999968117,6.789497e-05,483.49499999968117,1.129839e-05,483.49499999968117,7.904969e-06
483.50999999968116,1.976848e-05,483.50999999968116,6.842178e-05,483.50999999968116,1.150349e-05,483.50999999968116,8.081204e-06
483.52499999968114,1.990412e-05,483.52499999968114,6.971646e-05,483.52499999968114,1.134939e-05,483.52499999968114,8.571823e-06
483.53999999968113,1.915909e-05,483.53999999968113,7.016279e-05,483.53999999968113,1.126717e-05,483.53999999968113,8.645458e-06
483.5549999996811,1.806622e-05,483.5549999996811,7.145076e-05,483.5549999996811,1.152796e-05,483.5549999996811,8.640569e-06
483.5699999996811,1.693698e-05,483.5699999996811,7.223292e-05,483.5699999996811,1.142238e-05,483.5699999996811,8.309809e-06
483.5849999996811,1.559373e-05,483.5849999996811,7.04735e-05,483.5849999996811,1.090116e-05,483.5849999996811,8.02523e-06
483.5999999996811,1.618592e-05,483.5999999996811,6.790969e-05,483.5999999996811,1.093986e-05,483.5999999996811,7.647739e-06
483.61499999968106,1.563252e-05,483.61499999968106,6.805226e-05,483.61499999968106,1.122207e-05,483.61499999968106,7.658783e-06
483.62999999968105,1.561359e-05,483.62999999968105,7.117916e-05,483.62999999968105,1.135931e-05,483.62999999968105,7.809951e-06
483.64499999968103,1.557565e-05,483.64499999968103,6.685458e-05,483.64499999968103,1.166281e-05,483.64499999968103,8.604628e-06
483.659999999681,1.869542e-05,483.659999999681,6.647254e-05,483.659999999681,1.247629e-05,483.659999999681,8.76681e-06
483.674999999681,1.926687e-05,483.674999999681,6.355305e-05,483.674999999681,1.213284e-05,483.674999999681,8.739451e-06
483.689999999681,1.957514e-05,483.689999999681,6.174274e-05,483.689999999681,1.168091e-05,483.689999999681,8.792481e-06
483.704999999681,1.892458e-05,483.704999999681,6.263274e-05,483.704999999681,1.158525e-05,483.704999999681,9.097987e-06
483.71999999968097,1.959815e-05,483.71999999968097,6.670292e-05,483.71999999968097,1.132578e-05,483.71999999968097,9.351477e-06
483.73499999968095,1.906032e-05,483.73499999968095,6.609062e-05,483.73499999968095,1.211658e-05,483.73499999968095,9.441426e-06
483.74999999968094,1.914585e-05,483.74999999968094,7.709398e-05,483.74999999968094,1.193855e-05,483.74999999968094,9.871762e-06
483.7649999996809,1.856461e-05,483.7649999996809,8.048156e-05,483.7649999996809,1.321007e-05,483.7649999996809,9.680115e-06
483.7799999996809,1.846647e-05,483.7799999996809,8.205287e-05,483.7799999996809,1.418699e-05,483.7799999996809,1.168814e-05
483.7949999996809,1.84344e-05,483.7949999996809,8.495908e-05,483.7949999996809,1.417407e-05,483.7949999996809,1.255283e-05
483.8099999996809,1.835322e-05,483.8099999996809,8.452989e-05,483.8099999996809,1.406132e-05,483.8099999996809,1.81145e-05
483.82499999968087,1.810828e-05,483.82499999968087,8.553265e-05,483.82499999968087,1.415916e-05,483.82499999968087,2.14039e-05
483.83999999968086,1.814791e-05,483.83999999968086,8.507539e-05,483.83999999968086,1.422467e-05,483.83999999968086,2.519472e-05
483.85499999968084,1.772936e-05,483.85499999968084,8.617894e-05,483.85499999968084,1.380452e-05,483.85499999968084,3.948241e-05
483.86999999968083,1.688867e-05,483.86999999968083,8.882365e-05,483.86999999968083,1.450221e-05,483.86999999968083,4.567813e-05
483.8849999996808,1.74232e-05,483.8849999996808,9.511322e-05,483.8849999996808,1.647148e-05,483.8849999996808,5.302921e-05
483.8999999996808,2.173243e-05,483.8999999996808,0.0001066247,483.8999999996808,1.64398e-05,483.8999999996808,5.501206e-05
483.9149999996808,2.699452e-05,483.9149999996808,0.0001106382,483.9149999996808,1.596951e-05,483.9149999996808,5.531212e-05
483.9299999996808,2.799663e-05,483.9299999996808,0.0001166697,483.9299999996808,1.677317e-05,483.9299999996808,5.563487e-05
483.94499999968076,3.568208e-05,483.94499999968076,0.0001158178,483.94499999968076,1.831096e-05,483.94499999968076,5.617385e-05
483.95999999968075,4.421928e-05,483.95999999968075,0.0001185042,483.95999999968075,2.342985e-05,483.95999999968075,5.629484e-05
483.97499999968073,4.939618e-05,483.97499999968073,0.000121996,483.97499999968073,2.523048e-05,483.97499999968073,5.632962e-05
483.9899999996807,5.041544e-05,483.9899999996807,0.0001218427,483.9899999996807,2.530519e-05,483.9899999996807,5.635737e-05
484.0049999996807,5.062262e-05,484.0049999996807,0.000117632,484.0049999996807,2.533968e-05,484.0049999996807,5.637711e-05
484.0199999996807,5.126496e-05,484.0199999996807,0.0001177772,484.0199999996807,2.463384e-05,484.0199999996807,5.645252e-05
484.0349999996807,5.135775e-05,484.0349999996807,0.0001184503,484.0349999996807,2.522211e-05,484.0349999996807,5.610133e-05
484.04999999968067,5.15494e-05,484.04999999968067,0.0001213728,484.04999999968067,2.602042e-05,484.04999999968067,5.591597e-05
484.06499999968065,5.243966e-05,484.06499999968065,0.0001551446,484.06499999968065,2.605937e-05,484.06499999968065,5.526626e-05
484.07999999968064,5.469027e-05,484.07999999968064,0.0001593294,484.07999999968064,2.614356e-05,484.07999999968064,5.618188e-05
484.0949999996806,5.497389e-05,484.0949999996806,0.0001603258,484.0949999996806,2.611014e-05,484.0949999996806,5.296408e-05
484.1099999996806,5.514378e-05,484.1099999996806,0.000160523,484.1099999996806,2.624735e-05,484.1099999996806,4.633855e-05
484.1249999996806,5.500207e-05,484.1249999996806,0.0001573105,484.1249999996806,2.627899e-05,484.1249999996806,3.867787e-05
484.1399999996806,5.48356e-05,484.1399999996806,0.0001536719,484.1399999996806,2.534301e-05,484.1399999996806,2.943685e-05
484.15499999968057,5.317246e-05,484.15499999968057,0.0001595459,484.15499999968057,2.558586e-05,484.15499999968057,2.68081e-05
484.16999999968056,4.949504e-05,484.16999999968056,0.0001582482,484.16999999968056,2.528012e-05,484.16999999968056,2.687947e-05
484.18499999968054,4.839301e-05,484.18499999968054,0.0001576696,484.18499999968054,2.510062e-05,484.18499999968054,2.637584e-05
484.19999999968053,3.979266e-05,484.19999999968053,0.0001630526,484.19999999968053,2.469096e-05,484.19999999968053,2.546777e-05
484.2149999996805,3.655878e-05,484.2149999996805,0.0001622531,484.2149999996805,1.979838e-05,484.2149999996805,2.549486e-05
484.2299999996805,2.763708e-05,484.2299999996805,0.0001599276,484.2299999996805,1.88739e-05,484.2299999996805,2.540186e-05
484.2449999996805,3.008109e-05,484.2449999996805,0.0001572312,484.2449999996805,1.814791e-05,484.2449999996805,2.576308e-05
484.2599999996805,3.017787e-05,484.2599999996805,0.0001566399,484.2599999996805,1.813626e-05,484.2599999996805,2.669595e-05
484.27499999968046,2.992192e-05,484.27499999968046,0.0001569024,484.27499999968046,1.837393e-05,484.27499999968046,2.634912e-05
484.28999999968045,3.05098e-05,484.28999999968045,0.0001552098,484.28999999968045,1.696606e-05,484.28999999968045,2.628703e-05
484.30499999968043,3.064616e-05,484.30499999968043,0.0001248668,484.30499999968043,1.676981e-05,484.30499999968043,2.611229e-05
484.3199999996804,3.373978e-05,484.3199999996804,0.0001139266,484.3199999996804,1.657124e-05,484.3199999996804,2.377186e-05
484.3349999996804,3.542574e-05,484.3349999996804,0.0001138664,484.3349999996804,1.65389e-05,484.3349999996804,1.833326e-05
484.3499999996804,3.961456e-05,484.3499999996804,0.0001127175,484.3499999996804,1.67227e-05,484.3499999996804,1.630386e-05
484.3649999996804,4.144483e-05,484.3649999996804,0.0001109628,484.3649999996804,1.699095e-05,484.3649999996804,1.615282e-05
484.37999999968036,4.291594e-05,484.37999999968036,0.0001075179,484.37999999968036,1.682767e-05,484.37999999968036,1.569817e-05
484.39499999968035,4.398195e-05,484.39499999968035,0.0001007473,484.39499999968035,1.684106e-05,484.39499999968035,1.557655e-05
484.40999999968034,4.499487e-05,484.40999999968034,8.764656e-05,484.40999999968034,1.566493e-05,484.40999999968034,1.546765e-05
484.4249999996803,4.780051e-05,484.4249999996803,8.427753e-05,484.4249999996803,1.595009e-05,484.4249999996803,1.489514e-05
484.4399999996803,5.067352e-05,484.4399999996803,8.280192e-05,484.4399999996803,1.586153e-05,484.4399999996803,1.484209e-05
484.4549999996803,5.238644e-05,484.4549999996803,6.911028e-05,484.4549999996803,1.519569e-05,484.4549999996803,1.456618e-05
484.4699999996803,5.268755e-05,484.4699999996803,6.292175e-05,484.4699999996803,1.451095e-05,484.4699999996803,1.351577e-05
484.48499999968027,5.752701e-05,484.48499999968027,6.003421e-05,484.48499999968027,1.449152e-05,484.48499999968027,1.363407e-05
484.49999999968026,5.875203e-05,484.49999999968026,5.835025e-05,484.49999999968026,1.437636e-05,484.49999999968026,1.189482e-05
484.51499999968024,5.905527e-05,484.51499999968024,5.002442e-05,484.51499999968024,1.407934e-05,484.51499999968024,1.083895e-05
484.52999999968023,5.894759e-05,484.52999999968023,4.913971e-05,484.52999999968023,1.40041e-05,484.52999999968023,1.092955e-05
484.5449999996802,5.955929e-05,484.5449999996802,4.589503e-05,484.5449999996802,1.388084e-05,484.5449999996802,1.061572e-05
484.5599999996802,5.941318e-05,484.5599999996802,4.344118e-05,484.5599999996802,1.360511e-05,484.5599999996802,1.048084e-05
484.5749999996802,5.489876e-05,484.5749999996802,4.202471e-05,484.5749999996802,1.376364e-05,484.5749999996802,1.041477e-05
484.5899999996802,5.420881e-05,484.5899999996802,3.507889e-05,484.5899999996802,1.443406e-05,484.5899999996802,1.073317e-05
484.60499999968016,5.240849e-05,484.60499999968016,3.320743e-05,484.60499999968016,1.466929e-05,484.60499999968016,1.072004e-05
484.61999999968015,5.077128e-05,484.61999999968015,3.312334e-05,484.61999999968015,1.315771e-05,484.61999999968015,1.073842e-05
484.63499999968013,4.952833e-05,484.63499999968013,3.256535e-05,484.63499999968013,1.303077e-05,484.63499999968013,1.075415e-05
484.6499999996801,4.884326e-05,484.6499999996801,3.177143e-05,484.6499999996801,1.312233e-05,484.6499999996801,1.077639e-05
484.6649999996801,4.935338e-05,484.6649999996801,3.184539e-05,484.6649999996801,1.305669e-05,484.6649999996801,1.090891e-05
484.6799999996801,4.739891e-05,484.6799999996801,2.846913e-05,484.6799999996801,1.286869e-05,484.6799999996801,1.088564e-05
484.6949999996801,4.355356e-05,484.6949999996801,2.845923e-05,484.6949999996801,1.236173e-05,484.6949999996801,1.125842e-05
484.70999999968006,4.285418e-05,484.70999999968006,2.825606e-05,484.70999999968006,1.183783e-05,484.70999999968006,1.168211e-05
484.72499999968005,4.301495e-05,484.72499999968005,2.800518e-05,484.72499999968005,1.189008e-05,484.72499999968005,1.199858e-05
484.73999999968004,3.705022e-05,484.73999999968004,2.781389e-05,484.73999999968004,1.238336e-05,484.73999999968004,1.239132e-05
484.75499999968,3.841511e-05,484.75499999968,2.754825e-05,484.75499999968,1.252025e-05,484.75499999968,1.247403e-05
484.76999999968,4.207763e-05,484.76999999968,2.655946e-05,484.76999999968,1.176742e-05,484.76999999968,1.259541e-05
484.78499999968,4.770168e-05,484.78499999968,2.676288e-05,484.78499999968,1.200797e-05,484.78499999968,1.269677e-05
484.79999999968,4.698969e-05,484.79999999968,2.691247e-05,484.79999999968,1.213052e-05,484.79999999968,1.290476e-05
484.81499999967997,4.854617e-05,484.81499999967997,2.588418e-05,484.81499999967997,1.171102e-05,484.81499999967997,1.242311e-05
484.82999999967996,4.852121e-05,484.82999999967996,2.593203e-05,484.82999999967996,1.175903e-05,484.82999999967996,1.198448e-05
484.84499999967994,4.806324e-05,484.84499999967994,2.654832e-05,484.84499999967994,1.057983e-05,484.84499999967994,1.143964e-05
484.8599999996799,4.759229e-05,484.8599999996799,2.795937e-05,484.8599999996799,1.070689e-05,484.8599999996799,1.166643e-05
484.8749999996799,4.867888e-05,484.8749999996799,2.557981e-05,484.8749999996799,1.275323e-05,484.8749999996799,1.116166e-05
484.8899999996799,4.873384e-05,484.8899999996799,2.540464e-05,484.8899999996799,1.430958e-05,484.8899999996799,1.110345e-05
484.9049999996799,5.049891e-05,484.9049999996799,2.534635e-05,484.9049999996799,1.426324e-05,484.9049999996799,1.110472e-05
484.9199999996799,5.563994e-05,484.9199999996799,2.583461e-05,484.9199999996799,1.466737e-05,484.9199999996799,1.121203e-05
484.93499999967986,5.459179e-05,484.93499999967986,2.562712e-05,484.93499999967986,1.546128e-05,484.93499999967986,1.22507e-05
484.94999999967985,5.79362e-05,484.94999999967985,2.79377e-05,484.94999999967985,1.626233e-05,484.94999999967985,1.238791e-05
484.96499999967983,5.88749e-05,484.96499999967983,3.191741e-05,484.96499999967983,1.62632e-05,484.96499999967983,1.256181e-05
484.9799999996798,5.831572e-05,484.9799999996798,3.321761e-05,484.9799999996798,1.58233e-05,484.9799999996798,1.363614e-05
484.9949999996798,5.932586e-05,484.9949999996798,3.58015e-05,484.9949999996798,1.598009e-05,484.9949999996798,1.369181e-05
485.0099999996798,5.53783e-05,485.0099999996798,3.796288e-05,485.0099999996798,1.608991e-05,485.0099999996798,1.512134e-05
485.0249999996798,5.343936e-05,485.0249999996798,3.981991e-05,485.0249999996798,1.64398e-05,485.0249999996798,1.909944e-05
485.03999999967976,4.877429e-05,485.03999999967976,4.169018e-05,485.03999999967976,1.761298e-05,485.03999999967976,2.088358e-05
485.05499999967975,4.888362e-05,485.05499999967975,4.555151e-05,485.05499999967975,1.79826e-05,485.05499999967975,2.104819e-05
485.06999999967974,4.792441e-05,485.06999999967974,4.64806e-05,485.06999999967974,1.800217e-05,485.06999999967974,2.121551e-05
485.0849999996797,4.833679e-05,485.0849999996797,4.750578e-05,485.0849999996797,1.837547e-05,485.0849999996797,2.148142e-05
485.0999999996797,4.859315e-05,485.0999999996797,4.96238e-05,485.0999999996797,1.917453e-05,485.0999999996797,2.182298e-05
485.1149999996797,4.834962e-05,485.1149999996797,5.181433e-05,485.1149999996797,1.968135e-05,485.1149999996797,2.191574e-05
485.1299999996797,4.719579e-05,485.1299999996797,5.338952e-05,485.1299999996797,1.93085e-05,485.1299999996797,2.216055e-05
485.14499999967967,4.72468e-05,485.14499999967967,6.272263e-05,485.14499999967967,1.873155e-05,485.14499999967967,2.249743e-05
485.15999999967966,4.258478e-05,485.15999999967966,6.438763e-05,485.15999999967966,1.938859e-05,485.15999999967966,2.271925e-05
485.17499999967964,3.913408e-05,485.17499999967964,6.612962e-05,485.17499999967964,1.920756e-05,485.17499999967964,2.213765e-05
485.1899999996796,3.909446e-05,485.1899999996796,7.549e-05,485.1899999996796,1.849162e-05,485.1899999996796,2.193116e-05
485.2049999996796,3.202272e-05,485.2049999996796,7.419411e-05,485.2049999996796,1.842064e-05,485.2049999996796,2.169285e-05
485.2199999996796,3.058819e-05,485.2199999996796,8.101904e-05,485.2199999996796,1.854791e-05,485.2199999996796,2.135713e-05
485.2349999996796,2.794022e-05,485.2349999996796,8.738258e-05,485.2349999996796,1.885224e-05,485.2349999996796,2.065705e-05
485.2499999996796,2.657271e-05,485.2499999996796,8.806712e-05,485.2499999996796,1.902925e-05,485.2499999996796,2.064204e-05
485.26499999967956,2.585641e-05,485.26499999967956,9.410282e-05,485.26499999967956,1.897959e-05,485.26499999967956,1.820913e-05
485.27999999967955,2.58967e-05,485.27999999967955,9.59192e-05,485.27999999967955,1.8274e-05,485.27999999967955,1.575907e-05
485.29499999967953,2.420174e-05,485.29499999967953,9.997984e-05,485.29499999967953,1.749018e-05,485.29499999967953,1.377591e-05
485.3099999996795,2.532188e-05,485.3099999996795,0.0001010077,485.3099999996795,1.762497e-05,485.3099999996795,1.357816e-05
485.3249999996795,2.380147e-05,485.3249999996795,0.0001062875,485.3249999996795,1.79967e-05,485.3249999996795,1.367843e-05
485.3399999996795,2.293155e-05,485.3399999996795,0.0001059218,485.3399999996795,1.745148e-05,485.3399999996795,1.290257e-05
485.3549999996795,2.293216e-05,485.3549999996795,0.0001092095,485.3549999996795,1.735029e-05,485.3549999996795,1.262668e-05
485.36999999967946,2.22386e-05,485.36999999967946,0.0001174096,485.36999999967946,1.658823e-05,485.36999999967946,1.250111e-05
485.38499999967945,2.20835e-05,485.38499999967945,0.0001171478,485.38499999967945,1.643638e-05,485.38499999967945,1.266011e-05
485.39999999967944,1.883879e-05,485.39999999967944,0.0001143692,485.39999999967944,1.66704e-05,485.39999999967944,1.214445e-05
485.4149999996794,1.860403e-05,485.4149999996794,0.0001155114,485.4149999996794,1.619637e-05,485.4149999996794,1.253487e-05
485.4299999996794,1.84596e-05,485.4299999996794,0.000119517,485.4299999996794,1.601004e-05,485.4299999996794,1.260435e-05
485.4449999996794,1.842676e-05,485.4449999996794,0.0001148537,485.4449999996794,1.669826e-05,485.4449999996794,1.261217e-05
485.4599999996794,1.759537e-05,485.4599999996794,0.0001238188,485.4599999996794,1.707036e-05,485.4599999996794,1.348551e-05
485.47499999967937,2.06884e-05,485.47499999967937,0.0001182312,485.47499999967937,1.740703e-05,485.47499999967937,1.36382e-05
485.48999999967936,2.266649e-05,485.48999999967936,0.0001166689,485.48999999967936,1.756172e-05,485.48999999967936,1.30804e-05
485.50499999967934,2.368638e-05,485.50499999967934,0.0001192951,485.50499999967934,1.706871e-05,485.50499999967934,1.247629e-05
485.5199999996793,2.508546e-05,485.5199999996793,0.0001157743,485.5199999996793,1.740298e-05,485.5199999996793,1.181043e-05
485.5349999996793,2.545394e-05,485.5349999996793,0.0001131695,485.5349999996793,1.745713e-05,485.5349999996793,1.190665e-05
485.5499999996793,2.599117e-05,485.5499999996793,0.0001103113,485.5499999996793,1.771028e-05,485.5499999996793,1.182236e-05
485.5649999996793,2.451001e-05,485.5649999996793,0.0001068405,485.5649999996793,1.732347e-05,485.5649999996793,1.175184e-05
485.5799999996793,2.457086e-05,485.5799999996793,0.0001119164,485.5799999996793,1.749984e-05,485.5799999996793,1.186992e-05
485.59499999967926,2.471947e-05,485.59499999967926,0.0001121029,485.59499999967926,1.718468e-05,485.59499999967926,1.181043e-05
485.60999999967925,2.594452e-05,485.60999999967925,0.0001054765,485.60999999967925,1.674796e-05,485.60999999967925,1.144333e-05
485.62499999967923,2.674129e-05,485.62499999967923,9.935654e-05,485.62499999967923,1.670079e-05,485.62499999967923,1.128092e-05
485.6399999996792,2.726091e-05,485.6399999996792,9.910002e-05,485.6399999996792,1.683102e-05,485.6399999996792,1.093599e-05
485.6549999996792,2.87243e-05,485.6549999996792,0.0001025295,485.6549999996792,1.635303e-05,485.6549999996792,1.109457e-05
485.6699999996792,3.018674e-05,485.6699999996792,9.713208e-05,485.6699999996792,1.669995e-05,485.6699999996792,1.233892e-05
485.6849999996792,3.076178e-05,485.6849999996792,9.689904e-05,485.6849999996792,1.627272e-05,485.6849999996792,1.216647e-05
485.69999999967916,3.073429e-05,485.69999999967916,9.555134e-05,485.69999999967916,1.593861e-05,485.69999999967916,1.276427e-05
485.71499999967915,3.027016e-05,485.71499999967915,8.253678e-05,485.71499999967915,1.625887e-05,485.71499999967915,1.212936e-05
485.72999999967914,2.766815e-05,485.72999999967914,8.187895e-05,485.72999999967914,1.669066e-05,485.72999999967914,1.213516e-05
485.7449999996791,2.754416e-05,485.7449999996791,7.819235e-05,485.7449999996791,1.705054e-05,485.7449999996791,1.228858e-05
485.7599999996791,2.700026e-05,485.7599999996791,7.599271e-05,485.7599999996791,1.651845e-05,485.7599999996791,1.274328e-05
485.7749999996791,2.59684e-05,485.7749999996791,7.377008e-05,485.7749999996791,1.759217e-05,485.7749999996791,1.263003e-05
485.7899999996791,2.553461e-05,485.7899999996791,7.262055e-05,485.7899999996791,1.892384e-05,485.7899999996791,1.353348e-05
485.80499999967907,2.514099e-05,485.80499999967907,7.080036e-05,485.80499999967907,1.932527e-05,485.80499999967907,1.411731e-05
485.81999999967906,2.485756e-05,485.81999999967906,6.74827e-05,485.81999999967906,1.986799e-05,485.81999999967906,1.403926e-05
485.83499999967904,2.505006e-05,485.83499999967904,5.592051e-05,485.83499999967904,1.971568e-05,485.83499999967904,1.390922e-05
485.849999999679,2.383873e-05,485.849999999679,5.517519e-05,485.849999999679,2.057164e-05,485.849999999679,1.394463e-05
485.864999999679,2.374518e-05,485.864999999679,5.459411e-05,485.864999999679,2.043698e-05,485.864999999679,1.387982e-05
485.879999999679,2.246861e-05,485.879999999679,5.315576e-05,485.879999999679,2.073601e-05,485.879999999679,1.406032e-05
485.894999999679,2.096168e-05,485.894999999679,4.819144e-05,485.894999999679,2.139403e-05,485.894999999679,1.400008e-05
485.909999999679,1.939222e-05,485.909999999679,3.963553e-05,485.909999999679,2.237563e-05,485.909999999679,1.392441e-05
485.92499999967896,1.658568e-05,485.92499999967896,3.553809e-05,485.92499999967896,2.26994e-05,485.92499999967896,1.349491e-05
485.93999999967895,1.749984e-05,485.93999999967895,3.145013e-05,485.93999999967895,2.326211e-05,485.93999999967895,1.349491e-05
485.95499999967893,1.765133e-05,485.95499999967893,3.099399e-05,485.95499999967893,2.406106e-05,485.95499999967893,1.294073e-05
485.9699999996789,1.721253e-05,485.9699999996789,2.839928e-05,485.9699999996789,2.282626e-05,485.9699999996789,1.305884e-05
485.9849999996789,1.882233e-05,485.9849999996789,2.753393e-05,485.9849999996789,2.351867e-05,485.9849999996789,1.334903e-05
485.9999999996789,2.339014e-05,485.9999999996789,2.579587e-05,485.9999999996789,2.354261e-05,485.9999999996789,1.339433e-05
486.0149999996789,2.595592e-05,486.0149999996789,2.559852e-05,486.0149999996789,2.336604e-05,486.0149999996789,1.365575e-05
486.02999999967886,2.653505e-05,486.02999999967886,2.678813e-05,486.02999999967886,2.375645e-05,486.02999999967886,1.360097e-05
486.04499999967885,2.69177e-05,486.04499999967885,2.692346e-05,486.04499999967885,2.428947e-05,486.04499999967885,1.307178e-05
486.05999999967884,2.699348e-05,486.05999999967884,2.877134e-05,486.05999999967884,2.450771e-05,486.05999999967884,1.278522e-05
486.0749999996788,2.700809e-05,486.0749999996788,2.885836e-05,486.0749999996788,2.389539e-05,486.0749999996788,1.366915e-05
486.0899999996788,2.718743e-05,486.0899999996788,2.856694e-05,486.0899999996788,2.369767e-05,486.0899999996788,1.683269e-05
486.1049999996788,3.083039e-05,486.1049999996788,2.801323e-05,486.1049999996788,2.34827e-05,486.1049999996788,2.065296e-05
486.1199999996788,3.08016e-05,486.1199999996788,2.87189e-05,486.1199999996788,2.320087e-05,486.1199999996788,2.134723e-05
486.13499999967877,3.097762e-05,486.13499999967877,2.948801e-05,486.13499999967877,2.28386e-05,486.13499999967877,2.213384e-05
486.14999999967876,3.270994e-05,486.14999999967876,2.999387e-05,486.14999999967876,2.157304e-05,486.14999999967876,2.259677e-05
486.16499999967874,3.325788e-05,486.16499999967874,3.104304e-05,486.16499999967874,2.116565e-05,486.16499999967874,2.218914e-05
486.1799999996787,3.383484e-05,486.1799999996787,3.014004e-05,486.1799999996787,2.080315e-05,486.1799999996787,2.272979e-05
486.1949999996787,3.393835e-05,486.1949999996787,3.111646e-05,486.1949999996787,2.079638e-05,486.1949999996787,2.284723e-05
486.2099999996787,3.415433e-05,486.2099999996787,3.173416e-05,486.2099999996787,2.021521e-05,486.2099999996787,2.365186e-05
486.2249999996787,3.422396e-05,486.2249999996787,3.242924e-05,486.2249999996787,2.075366e-05,486.2249999996787,2.34671e-05
486.2399999996787,3.276287e-05,486.2399999996787,3.341844e-05,486.2399999996787,2.045214e-05,486.2399999996787,2.334131e-05
486.25499999967866,2.909898e-05,486.25499999967866,3.543965e-05,486.25499999967866,2.068636e-05,486.25499999967866,2.331957e-05
486.26999999967865,2.784477e-05,486.26999999967865,3.543965e-05,486.26999999967865,1.945024e-05,486.26999999967865,2.325969e-05
486.28499999967863,2.665581e-05,486.28499999967863,3.413865e-05,486.28499999967863,1.889479e-05,486.28499999967863,2.330326e-05
486.2999999996786,2.608962e-05,486.2999999996786,3.406513e-05,486.2999999996786,1.707778e-05,486.2999999996786,2.375764e-05
486.3149999996786,2.725574e-05,486.3149999996786,3.254891e-05,486.3149999996786,1.666279e-05,486.3149999996786,2.406691e-05
486.3299999996786,2.797347e-05,486.3299999996786,3.236053e-05,486.3299999996786,1.841758e-05,486.3299999996786,2.345809e-05
486.3449999996786,2.691666e-05,486.3449999996786,3.456228e-05,486.3449999996786,1.87293e-05,486.3449999996786,2.106358e-05
486.35999999967856,2.5957e-05,486.35999999967856,3.575504e-05,486.35999999967856,1.902259e-05,486.35999999967856,1.895731e-05
486.37499999967855,2.65637e-05,486.37499999967855,3.697868e-05,486.37499999967855,1.910239e-05,486.37499999967855,1.758977e-05
486.38999999967854,2.632827e-05,486.38999999967854,4.307974e-05,486.38999999967854,1.898626e-05,486.38999999967854,1.688867e-05
486.4049999996785,2.570232e-05,486.4049999996785,4.48016e-05,486.4049999996785,1.919068e-05,486.4049999996785,1.690618e-05
486.4199999996785,2.61608e-05,486.4199999996785,4.662796e-05,486.4199999996785,1.905736e-05,486.4199999996785,1.629003e-05
486.4349999996785,2.516843e-05,486.4349999996785,4.728793e-05,486.4349999996785,1.934276e-05,486.4349999996785,1.554578e-05
486.4499999996785,2.593637e-05,486.4499999996785,4.628532e-05,486.4499999996785,1.897587e-05,486.4499999996785,1.623112e-05
486.46499999967847,2.700078e-05,486.46499999967847,4.674081e-05,486.46499999967847,1.86237e-05,486.46499999967847,1.534329e-05
486.47999999967845,2.66706e-05,486.47999999967845,4.704602e-05,486.47999999967845,1.886419e-05,486.47999999967845,1.574655e-05
486.49499999967844,2.697364e-05,486.49499999967844,4.708942e-05,486.49499999967844,1.819984e-05,486.49499999967844,1.607151e-05
486.5099999996784,2.694699e-05,486.5099999996784,4.643057e-05,486.5099999996784,1.779439e-05,486.5099999996784,1.696357e-05
486.5249999996784,2.773883e-05,486.5249999996784,4.643755e-05,486.5249999996784,1.779519e-05,486.5249999996784,1.772936e-05
486.5399999996784,2.800317e-05,486.5399999996784,4.650302e-05,486.5399999996784,1.859267e-05,486.5399999996784,1.874884e-05
486.5549999996784,2.742833e-05,486.5549999996784,4.666571e-05,486.5549999996784,1.826166e-05,486.5549999996784,1.887763e-05
486.5699999996784,2.718121e-05,486.5699999996784,4.622015e-05,486.5699999996784,1.767525e-05,486.5699999996784,1.839998e-05
486.58499999967836,2.630471e-05,486.58499999967836,4.505431e-05,486.58499999967836,1.653805e-05,486.58499999967836,1.817661e-05
486.59999999967835,2.505231e-05,486.59999999967835,4.519635e-05,486.59999999967835,1.605222e-05,486.59999999967835,1.827323e-05
486.61499999967833,2.456914e-05,486.61499999967833,4.440715e-05,486.61499999967833,1.6678e-05,486.61499999967833,1.851218e-05
486.6299999996783,2.5383e-05,486.6299999996783,4.311994e-05,486.6299999996783,1.722153e-05,486.6299999996783,1.865922e-05
486.6449999996783,2.407511e-05,486.6449999996783,3.703045e-05,486.6449999996783,1.747245e-05,486.6449999996783,1.850076e-05
486.6599999996783,2.35976e-05,486.6599999996783,3.210619e-05,486.6599999996783,1.939585e-05,486.6599999996783,1.996277e-05
486.6749999996783,2.338291e-05,486.6749999996783,3.056562e-05,486.6749999996783,2.021033e-05,486.6749999996783,2.075434e-05
486.68999999967826,2.275271e-05,486.68999999967826,3.046452e-05,486.68999999967826,1.935586e-05,486.68999999967826,2.18417e-05
486.70499999967825,2.126657e-05,486.70499999967825,3.0602e-05,486.70499999967825,2.000436e-05,486.70499999967825,2.221134e-05
486.71999999967824,2.140654e-05,486.71999999967824,2.826952e-05,486.71999999967824,2.501911e-05,486.71999999967824,2.368519e-05
486.7349999996782,2.14072e-05,486.7349999996782,2.875126e-05,486.7349999996782,2.584715e-05,486.7349999996782,2.537467e-05
486.7499999996782,2.124271e-05,486.7499999996782,2.570451e-05,486.7499999996782,2.648776e-05,486.7499999996782,2.566612e-05
486.7649999996782,2.186748e-05,486.7649999996782,2.802127e-05,486.7649999996782,2.629614e-05,486.7649999996782,2.493056e-05
486.7799999996782,2.213829e-05,486.7799999996782,3.027574e-05,486.7799999996782,2.652496e-05,486.7799999996782,2.374399e-05
486.79499999967817,2.388713e-05,486.79499999967817,3.610515e-05,486.79499999967817,2.588799e-05,486.79499999967817,2.363875e-05
486.80999999967815,2.494807e-05,486.80999999967815,3.86735e-05,486.80999999967815,2.573135e-05,486.80999999967815,2.332984e-05
486.82499999967814,2.879483e-05,486.82499999967814,4.056156e-05,486.82499999967814,2.580788e-05,486.82499999967814,2.344067e-05
486.8399999996781,5.696819e-05,486.8399999996781,4.176479e-05,486.8399999996781,2.564251e-05,486.8399999996781,2.327664e-05
486.8549999996781,5.772013e-05,486.8549999996781,4.426735e-05,486.8549999996781,2.523439e-05,486.8549999996781,2.353663e-05
486.8699999996781,6.004359e-05,486.8699999996781,5.835652e-05,486.8699999996781,2.520646e-05,486.8699999996781,2.333527e-05
486.8849999996781,6.16105e-05,486.8849999996781,6.419701e-05,486.8849999996781,2.525838e-05,486.8849999996781,2.322272e-05
486.8999999996781,6.534986e-05,486.8999999996781,6.782418e-05,486.8999999996781,2.411544e-05,486.8999999996781,2.326393e-05
486.91499999967806,6.563614e-05,486.91499999967806,7.008786e-05,486.91499999967806,2.336182e-05,486.91499999967806,2.11723e-05
486.92999999967805,6.681496e-05,486.92999999967805,8.007359e-05,486.92999999967805,2.279291e-05,486.92999999967805,2.020545e-05
486.94499999967803,6.930142e-05,486.94499999967803,8.194739e-05,486.94499999967803,2.299718e-05,486.94499999967803,2.007887e-05
486.959999999678,7.021537e-05,486.959999999678,8.301736e-05,486.959999999678,2.08559e-05,486.959999999678,1.864109e-05
486.974999999678,7.061427e-05,486.974999999678,8.35144e-05,486.974999999678,1.661114e-05,486.974999999678,1.571072e-05
486.989999999678,7.194313e-05,486.989999999678,8.390817e-05,486.989999999678,1.663487e-05,486.989999999678,1.622764e-05
487.004999999678,7.2314e-05,487.004999999678,8.427887e-05,487.004999999678,1.666617e-05,487.004999999678,1.605309e-05
487.01999999967796,7.249086e-05,487.01999999967796,8.463414e-05,487.01999999967796,1.669742e-05,487.01999999967796,1.701167e-05
487.03499999967795,7.246131e-05,487.03499999967795,8.302669e-05,487.03499999967795,1.628484e-05,487.03499999967795,1.690034e-05
487.04999999967794,7.236853e-05,487.04999999967794,8.363172e-05,487.04999999967794,1.659502e-05,487.04999999967794,1.733485e-05
487.0649999996779,7.254952e-05,487.0649999996779,8.275921e-05,487.0649999996779,1.630817e-05,487.0649999996779,1.732835e-05
487.0799999996779,6.893477e-05,487.0799999996779,8.296559e-05,487.0799999996779,1.683353e-05,487.0799999996779,1.741916e-05
487.0949999996779,5.203164e-05,487.0949999996779,8.259888e-05,487.0949999996779,1.666871e-05,487.0949999996779,1.734135e-05
487.1099999996779,5.06165e-05,487.1099999996779,7.958285e-05,487.1099999996779,1.602411e-05,487.1099999996779,1.689701e-05
487.12499999967787,4.679383e-05,487.12499999967787,7.219527e-05,487.12499999967787,1.656783e-05,487.12499999967787,1.692783e-05
487.13999999967785,4.466115e-05,487.13999999967785,6.69285e-05,487.13999999967785,1.781022e-05,487.13999999967785,2.287065e-05
487.15499999967784,4.103322e-05,487.15499999967784,6.440863e-05,487.15499999967784,1.832864e-05,487.15499999967784,3.155432e-05
487.1699999996778,4.029955e-05,487.1699999996778,6.011651e-05,487.1699999996778,1.820371e-05,487.1699999996778,3.194211e-05
487.1849999996778,3.82884e-05,487.1849999996778,4.942241e-05,487.1849999996778,1.790724e-05,487.1849999996778,3.294252e-05
487.1999999996778,3.436854e-05,487.1999999996778,4.53109e-05,487.1999999996778,1.79732e-05,487.1999999996778,3.6477e-05
487.2149999996778,3.231174e-05,487.2149999996778,4.405875e-05,487.2149999996778,1.733973e-05,487.2149999996778,3.828472e-05
487.2299999996778,3.104213e-05,487.2299999996778,4.256989e-05,487.2299999996778,1.743614e-05,487.2299999996778,3.735051e-05
487.24499999967776,2.814617e-05,487.24499999967776,4.202939e-05,487.24499999967776,1.701084e-05,487.24499999967776,3.754649e-05
487.25999999967775,2.717966e-05,487.25999999967775,4.120519e-05,487.25999999967775,1.748213e-05,487.25999999967775,3.738821e-05
487.27499999967773,2.519864e-05,487.27499999967773,3.877063e-05,487.27499999967773,1.758256e-05,487.27499999967773,3.763081e-05
487.2899999996777,2.438267e-05,487.2899999996777,3.74428e-05,487.2899999996777,1.832557e-05,487.2899999996777,3.748829e-05
487.3049999996777,2.393309e-05,487.3049999996777,3.364111e-05,487.3049999996777,1.939512e-05,487.3049999996777,3.70905e-05
487.3199999996777,2.043767e-05,487.3199999996777,3.347109e-05,487.3199999996777,1.996701e-05,487.3199999996777,3.700838e-05
487.3349999996777,1.922075e-05,487.3349999996777,3.028598e-05,487.3349999996777,1.985522e-05,487.3349999996777,3.696458e-05
487.34999999967766,1.891044e-05,487.34999999967766,2.917585e-05,487.34999999967766,2.080383e-05,487.34999999967766,3.696344e-05
487.36499999967765,1.836013e-05,487.36499999967765,2.721591e-05,487.36499999967765,2.130562e-05,487.36499999967765,3.714554e-05
487.37999999967764,1.806778e-05,487.37999999967764,2.596894e-05,487.37999999967764,2.183653e-05,487.37999999967764,3.712922e-05
487.3949999996776,1.800061e-05,487.3949999996776,2.541683e-05,487.3949999996776,2.1109e-05,487.3949999996776,2.897576e-05
487.4099999996776,1.697602e-05,487.4099999996776,2.45657e-05,487.4099999996776,2.096033e-05,487.4099999996776,2.538855e-05
487.4249999996776,1.673365e-05,487.4249999996776,2.461611e-05,487.4249999996776,2.099391e-05,487.4249999996776,2.457888e-05
487.4399999996776,1.531481e-05,487.4399999996776,2.490399e-05,487.4399999996776,2.120089e-05,487.4399999996776,2.227657e-05
487.45499999967757,1.408734e-05,487.45499999967757,2.45238e-05,487.45499999967757,2.159718e-05,487.45499999967757,1.707778e-05
487.46999999967755,1.467025e-05,487.46999999967755,2.425349e-05,487.46999999967755,2.176999e-05,487.46999999967755,1.491216e-05
487.48499999967754,1.479551e-05,487.48499999967754,2.31285e-05,487.48499999967754,2.162782e-05,487.48499999967754,1.47755e-05
487.4999999996775,1.43646e-05,487.4999999996775,2.230691e-05,487.4999999996775,2.072105e-05,487.4999999996775,1.453423e-05
487.5149999996775,1.416115e-05,487.5149999996775,2.11876e-05,487.5149999996775,2.146174e-05,487.5149999996775,1.403023e-05
487.5299999996775,1.368357e-05,487.5299999996775,2.076452e-05,487.5299999996775,2.240772e-05,487.5299999996775,1.363924e-05
487.5449999996775,1.355636e-05,487.5449999996775,2.031323e-05,487.5449999996775,2.18346e-05,487.5449999996775,1.382695e-05
487.5599999996775,1.361649e-05,487.5599999996775,2.004305e-05,487.5599999996775,2.161609e-05,487.5599999996775,1.423259e-05
487.57499999967746,1.361236e-05,487.57499999967746,1.916718e-05,487.57499999967746,2.291803e-05,487.57499999967746,1.436166e-05
487.58999999967745,1.361649e-05,487.58999999967745,1.854867e-05,487.58999999967745,2.321422e-05,487.58999999967745,1.43979e-05
487.60499999967743,1.353244e-05,487.60499999967743,1.786865e-05,487.60499999967743,2.253935e-05,487.60499999967743,1.421674e-05
487.6199999996774,1.406633e-05,487.6199999996774,1.849162e-05,487.6199999996774,2.156846e-05,487.6199999996774,1.44993e-05
487.6349999996774,1.405932e-05,487.6349999996774,1.884776e-05,487.6349999996774,2.076859e-05,487.6349999996774,1.44993e-05
487.6499999996774,1.398397e-05,487.6499999996774,1.894765e-05,487.6499999996774,2.075841e-05,487.6499999996774,1.454683e-05
487.6649999996774,1.383306e-05,487.6649999996774,1.89082e-05,487.6649999996774,2.069657e-05,487.6649999996774,1.459323e-05
487.67999999967736,1.387982e-05,487.67999999967736,1.661538e-05,487.67999999967736,2.045076e-05,487.67999999967736,1.432532e-05
487.69499999967735,1.419989e-05,487.69499999967735,1.682851e-05,487.69499999967735,1.983322e-05,487.69499999967735,1.336379e-05
487.70999999967734,1.401315e-05,487.70999999967734,1.671849e-05,487.70999999967734,2.03354e-05,487.70999999967734,1.321326e-05
487.7249999996773,1.356882e-05,487.7249999996773,1.665095e-05,487.7249999996773,2.02535e-05,487.7249999996773,1.412928e-05
487.7399999996773,1.373187e-05,487.7399999996773,1.710581e-05,487.7399999996773,1.988217e-05,487.7399999996773,1.492349e-05
487.7549999996773,1.367328e-05,487.7549999996773,2.302106e-05,487.7549999996773,2.035894e-05,487.7549999996773,1.476787e-05
487.7699999996773,1.668644e-05,487.7699999996773,2.488531e-05,487.7699999996773,1.853272e-05,487.7699999996773,1.509897e-05
487.78499999967727,2.068908e-05,487.78499999967727,2.563042e-05,487.78499999967727,1.83839e-05,487.78499999967727,1.480503e-05
487.79999999967725,2.081195e-05,487.79999999967725,2.584224e-05,487.79999999967725,1.843822e-05,487.79999999967725,1.461349e-05
487.81499999967724,2.134657e-05,487.81499999967724,2.59005e-05,487.81499999967724,1.623546e-05,487.81499999967724,1.499317e-05
487.8299999996772,2.266897e-05,487.8299999996772,2.609826e-05,487.8299999996772,1.459613e-05,487.8299999996772,1.659162e-05
487.8449999996772,2.502756e-05,487.8449999996772,2.649946e-05,487.8449999996772,1.526413e-05,487.8449999996772,1.71198e-05
487.8599999996772,2.710233e-05,487.8599999996772,2.660662e-05,487.8599999996772,1.566493e-05,487.8599999996772,1.844586e-05
487.8749999996772,2.788268e-05,487.8749999996772,2.629668e-05,487.8749999996772,1.637799e-05,487.8749999996772,1.869994e-05
487.8899999996772,2.814317e-05,487.8899999996772,2.639986e-05,487.8899999996772,1.629003e-05,487.8899999996772,1.880061e-05
487.90499999967716,2.899617e-05,487.90499999967716,2.695901e-05,487.90499999967716,1.692117e-05,487.90499999967716,1.878937e-05
487.91999999967715,3.106798e-05,487.91999999967715,2.651221e-05,487.91999999967715,1.68895e-05,487.91999999967715,1.893649e-05
487.93499999967713,3.130422e-05,487.93499999967713,2.609395e-05,487.93499999967713,1.732835e-05,487.93499999967713,2.004727e-05
487.9499999996771,3.159982e-05,487.9499999996771,2.776421e-05,487.9499999996771,1.746036e-05,487.9499999996771,2.02173e-05
487.9649999996771,3.274394e-05,487.9649999996771,2.937985e-05,487.9649999996771,1.689701e-05,487.9649999996771,2.046109e-05
487.9799999996771,3.40953e-05,487.9799999996771,3.083724e-05,487.9799999996771,1.691367e-05,487.9799999996771,2.039213e-05
487.9949999996771,3.523275e-05,487.9949999996771,3.007454e-05,487.9949999996771,1.682432e-05,487.9949999996771,1.999661e-05
488.00999999967706,3.530465e-05,488.00999999967706,2.655681e-05,488.00999999967706,1.651503e-05,488.00999999967706,1.984458e-05
488.02499999967705,3.45582e-05,488.02499999967705,2.698617e-05,488.02499999967705,1.656358e-05,488.02499999967705,1.978486e-05
488.03999999967704,3.534851e-05,488.03999999967704,2.820267e-05,488.03999999967704,1.584376e-05,488.03999999967704,1.976492e-05
488.054999999677,3.564574e-05,488.054999999677,2.788774e-05,488.054999999677,1.636853e-05,488.054999999677,1.943068e-05
488.069999999677,3.738557e-05,488.069999999677,2.929342e-05,488.069999999677,1.677317e-05,488.069999999677,2.022009e-05
488.084999999677,3.928067e-05,488.084999999677,3.15503e-05,488.084999999677,1.779994e-05,488.084999999677,1.973139e-05
488.099999999677,3.757462e-05,488.099999999677,3.496344e-05,488.099999999677,1.738273e-05,488.099999999677,2.016428e-05
488.11499999967697,3.772092e-05,488.11499999967697,3.858452e-05,488.11499999967697,1.760178e-05,488.11499999967697,1.902925e-05
488.12999999967695,3.789529e-05,488.12999999967695,4.097928e-05,488.12999999967695,1.720107e-05,488.12999999967695,1.907287e-05
488.14499999967694,3.82258e-05,488.14499999967694,4.209738e-05,488.14499999967694,1.688617e-05,488.14499999967694,1.877137e-05
488.1599999996769,3.737162e-05,488.1599999996769,4.423043e-05,488.1599999996769,1.738192e-05,488.1599999996769,1.880661e-05
488.1749999996769,3.716298e-05,488.1749999996769,4.594565e-05,488.1749999996769,1.977418e-05,488.1749999996769,1.872855e-05
488.1899999996769,3.751947e-05,488.1899999996769,4.975449e-05,488.1899999996769,2.20241e-05,488.1899999996769,1.78284e-05
488.2049999996769,3.6952e-05,488.2049999996769,5.380347e-05,488.2049999996769,2.183266e-05,488.2049999996769,1.815257e-05
488.2199999996769,3.719101e-05,488.2199999996769,5.462378e-05,488.2199999996769,2.252872e-05,488.2199999996769,1.887241e-05
488.23499999967686,3.692531e-05,488.23499999967686,8.951291e-05,488.23499999967686,2.28534e-05,488.23499999967686,1.803423e-05
488.24999999967685,3.5842e-05,488.24999999967685,9.611095e-05,488.24999999967685,2.373925e-05,488.24999999967685,1.805531e-05
488.26499999967683,3.582785e-05,488.26499999967683,0.0001076593,488.26499999967683,2.380561e-05,488.26499999967683,1.803735e-05
488.2799999996768,3.531701e-05,488.2799999996768,0.0001121292,488.2799999996768,2.455537e-05,488.2799999996768,1.837623e-05
488.2949999996768,3.281013e-05,488.2949999996768,0.0001122526,488.2949999996768,2.421862e-05,488.2949999996768,1.900406e-05
488.3099999996768,3.073154e-05,488.3099999996768,0.0001133278,488.3099999996768,2.432482e-05,488.3099999996768,1.885747e-05
488.3249999996768,3.024641e-05,488.3249999996768,0.0001162716,488.3249999996768,2.616026e-05,488.3249999996768,1.683604e-05
488.33999999967676,2.816718e-05,488.33999999967676,0.0001158803,488.33999999967676,2.577784e-05,488.33999999967676,1.702822e-05
488.35499999967675,2.90641e-05,488.35499999967675,0.000117502,488.35499999967675,2.574667e-05,488.35499999967675,1.725993e-05
488.36999999967674,3.166217e-05,488.36999999967674,0.0001174252,488.36999999967674,2.51494e-05,488.36999999967674,1.727135e-05
488.3849999996767,3.342308e-05,488.3849999996767,0.0001183392,488.3849999996767,2.623286e-05,488.3849999996767,1.728195e-05
488.3999999996767,3.779852e-05,488.3999999996767,0.0001219828,488.3999999996767,2.740418e-05,488.3999999996767,1.713789e-05
488.4149999996767,3.988707e-05,488.4149999996767,0.0001228488,488.4149999996767,2.712155e-05,488.4149999996767,1.673449e-05
488.4299999996767,4.166078e-05,488.4299999996767,0.0001259865,488.4299999996767,2.534968e-05,488.4299999996767,1.710992e-05
488.44499999967667,4.351668e-05,488.44499999967667,0.0001256354,488.44499999967667,2.773883e-05,488.44499999967667,1.665602e-05
488.45999999967665,4.385557e-05,488.45999999967665,0.0001249436,488.45999999967665,2.888763e-05,488.45999999967665,1.689201e-05
488.47499999967664,4.483743e-05,488.47499999967664,0.0001270526,488.47499999967664,2.851363e-05,488.47499999967664,1.712145e-05
488.4899999996766,4.535285e-05,488.4899999996766,0.0001074631,488.4899999996766,2.780528e-05,488.4899999996766,1.822691e-05
488.5049999996766,4.637198e-05,488.5049999996766,0.0001050296,488.5049999996766,2.764319e-05,488.5049999996766,1.904405e-05
488.5199999996766,4.636499e-05,488.5199999996766,9.776955e-05,488.5199999996766,2.715581e-05,488.5199999996766,1.951099e-05
488.5349999996766,4.778518e-05,488.5349999996766,0.000100575,488.5349999996766,2.693078e-05,488.5349999996766,2.078689e-05
488.5499999996766,4.910616e-05,488.5499999996766,0.0001034959,488.5499999996766,2.728673e-05,488.5499999996766,2.00999e-05
488.56499999967656,5.04403e-05,488.56499999967656,0.0001072934,488.56499999967656,2.698774e-05,488.56499999967656,2.005711e-05
488.57999999967655,5.097286e-05,488.57999999967655,0.0001068691,488.57999999967655,2.485926e-05,488.57999999967655,2.032778e-05
488.59499999967653,5.021274e-05,488.59499999967653,0.0001075976,488.59499999967653,2.455595e-05,488.59499999967653,1.932236e-05
488.6099999996765,4.958319e-05,488.6099999996765,0.000107229,488.6099999996765,2.473941e-05,488.6099999996765,1.864411e-05
488.6249999996765,4.744377e-05,488.6249999996765,0.0001083821,488.6249999996765,2.447781e-05,488.6249999996765,1.862219e-05
488.6399999996765,4.666179e-05,488.6399999996765,0.0001097275,488.6399999996765,2.337448e-05,488.6399999996765,1.881409e-05
488.6549999996765,4.138939e-05,488.6549999996765,0.0001110207,488.6549999996765,2.332682e-05,488.6549999996765,1.909428e-05
488.66999999967646,4.081878e-05,488.66999999967646,0.000109388,488.66999999967646,2.288912e-05,488.66999999967646,1.876536e-05
488.68499999967645,3.713036e-05,488.68499999967645,0.0001113262,488.68499999967645,2.035964e-05,488.68499999967645,1.843364e-05
488.69999999967644,3.502222e-05,488.69999999967644,0.0001184124,488.69999999967644,1.92866e-05,488.69999999967644,1.840305e-05
488.7149999996764,3.414278e-05,488.7149999996764,0.0001171267,488.7149999996764,1.787575e-05,488.7149999996764,1.697602e-05
488.7299999996764,3.275297e-05,488.7299999996764,0.0001121524,488.7299999996764,1.831788e-05,488.7299999996764,1.624326e-05
488.7449999996764,3.207897e-05,488.7449999996764,0.0001118539,488.7449999996764,1.808493e-05,488.7449999996764,1.528903e-05
488.7599999996764,3.078101e-05,488.7599999996764,0.0001124321,488.7599999996764,1.876837e-05,488.7599999996764,1.311696e-05
488.77499999967637,3.028039e-05,488.77499999967637,0.0001093422,488.77499999967637,1.869241e-05,488.77499999967637,1.293855e-05
488.78999999967635,2.664313e-05,488.78999999967635,0.0001094287,488.78999999967635,1.8629e-05,488.78999999967635,1.034692e-05
488.80499999967634,2.602313e-05,488.80499999967634,0.000109202,488.80499999967634,1.862446e-05,488.80499999967634,1.044988e-05
488.8199999996763,2.234287e-05,488.8199999996763,0.0001044968,488.8199999996763,1.854867e-05,488.8199999996763,1.07999e-05
488.8349999996763,2.125928e-05,488.8349999996763,0.0001037041,488.8349999996763,1.91407e-05,488.8349999996763,1.024431e-05
488.8499999996763,2.062771e-05,488.8499999996763,0.0001024197,488.8499999996763,1.898849e-05,488.8499999996763,1.039988e-05
488.8649999996763,2.012862e-05,488.8649999996763,0.0001021901,488.8649999996763,1.881484e-05,488.8649999996763,1.041342e-05
488.8799999996763,2.016009e-05,488.8799999996763,9.880306e-05,488.8799999996763,1.948859e-05,488.8799999996763,1.0505e-05
488.89499999967626,2.103614e-05,488.89499999967626,9.557773e-05,488.89499999967626,1.890447e-05,488.89499999967626,1.02553e-05
488.90999999967624,2.111301e-05,488.90999999967624,9.041576e-05,488.90999999967624,1.781497e-05,488.90999999967624,1.018362e-05
488.92499999967623,2.132082e-05,488.92499999967623,8.702866e-05,488.92499999967623,1.823619e-05,488.92499999967623,1.065149e-05
488.9399999996762,2.140193e-05,488.9399999996762,7.295478e-05,488.9399999996762,1.625453e-05,488.9399999996762,1.072923e-05
488.9549999996762,2.144796e-05,488.9549999996762,7.146574e-05,488.9549999996762,1.658993e-05,488.9549999996762,1.049427e-05
488.9699999996762,2.196133e-05,488.9699999996762,7.110392e-05,488.9699999996762,1.681762e-05,488.9699999996762,1.109076e-05
488.9849999996762,2.179844e-05,488.9849999996762,6.853081e-05,488.9849999996762,1.673197e-05,488.9849999996762,1.11136e-05
488.99999999967616,2.355817e-05,488.99999999967616,6.336148e-05,488.99999999967616,1.614671e-05,488.99999999967616,1.143471e-05
489.01499999967615,2.34683e-05,489.01499999967615,5.940037e-05,489.01499999967615,1.590056e-05,489.01499999967615,1.174945e-05
489.02999999967614,2.399892e-05,489.02999999967614,5.387856e-05,489.02999999967614,1.638401e-05,489.02999999967614,1.179611e-05
489.0449999996761,2.396897e-05,489.0449999996761,5.045371e-05,489.0449999996761,1.635992e-05,489.0449999996761,1.154261e-05
489.0599999996761,2.407276e-05,489.0599999996761,4.681399e-05,489.0599999996761,1.661708e-05,489.0599999996761,1.155359e-05
489.0749999996761,2.422443e-05,489.0749999996761,4.516611e-05,489.0749999996761,1.676561e-05,489.0749999996761,1.142608e-05
489.0899999996761,2.497572e-05,489.0899999996761,4.715459e-05,489.0899999996761,1.753121e-05,489.0899999996761,1.21282e-05
489.10499999967607,2.520982e-05,489.10499999967607,4.453449e-05,489.10499999967607,1.795046e-05,489.10499999967607,1.222307e-05
489.11999999967605,2.495879e-05,489.11999999967605,4.221701e-05,489.11999999967605,1.739326e-05,489.11999999967605,1.213749e-05
489.13499999967604,2.681809e-05,489.13499999967604,4.186215e-05,489.13499999967604,1.801156e-05,489.13499999967604,1.235261e-05
489.149999999676,2.6355e-05,489.149999999676,4.041962e-05,489.149999999676,1.807947e-05,489.149999999676,1.227597e-05
489.164999999676,2.627256e-05,489.164999999676,3.841365e-05,489.164999999676,1.766329e-05,489.164999999676,1.192202e-05
489.179999999676,2.682229e-05,489.179999999676,3.79291e-05,489.179999999676,1.731697e-05,489.179999999676,1.154627e-05
489.194999999676,2.726917e-05,489.194999999676,3.764017e-05,489.194999999676,1.773492e-05,489.194999999676,1.148143e-05
489.209999999676,2.793669e-05,489.209999999676,3.820995e-05,489.209999999676,1.783393e-05,489.209999999676,1.083376e-05
489.22499999967596,2.699609e-05,489.22499999967596,3.813762e-05,489.22499999967596,1.781022e-05,489.22499999967596,1.047546e-05
489.23999999967594,2.707893e-05,489.23999999967594,3.839714e-05,489.23999999967594,1.78584e-05,489.23999999967594,1.029506e-05
489.25499999967593,2.663678e-05,489.25499999967593,3.854982e-05,489.25499999967593,1.947124e-05,489.25499999967593,1.017532e-05
489.2699999996759,2.653239e-05,489.2699999996759,3.9703e-05,489.2699999996759,2.00114e-05,489.2699999996759,1.051037e-05
489.2849999996759,2.649201e-05,489.2849999996759,4.387645e-05,489.2849999996759,1.989704e-05,489.2849999996759,1.037819e-05
489.2999999996759,2.595972e-05,489.2999999996759,4.420685e-05,489.2999999996759,1.965127e-05,489.2999999996759,1.040395e-05
489.3149999996759,2.606802e-05,489.3149999996759,4.562166e-05,489.3149999996759,1.92559e-05,489.3149999996759,1.026354e-05
489.32999999967586,2.581607e-05,489.32999999967586,4.658383e-05,489.32999999967586,1.965915e-05,489.32999999967586,9.576237e-06
489.34499999967585,2.535746e-05,489.34499999967585,4.53839e-05,489.34499999967585,1.874809e-05,489.34499999967585,8.810087e-06
489.35999999967584,2.532522e-05,489.35999999967584,5.368054e-05,489.35999999967584,1.9657e-05,489.35999999967584,8.745896e-06
489.3749999996758,2.311388e-05,489.3749999996758,5.676407e-05,489.3749999996758,2.031045e-05,489.3749999996758,8.826061e-06
489.3899999996758,2.198569e-05,489.3899999996758,5.733372e-05,489.3899999996758,2.069725e-05,489.3899999996758,8.884918e-06
489.4049999996758,2.139008e-05,489.4049999996758,5.866997e-05,489.4049999996758,2.071426e-05,489.4049999996758,9.590935e-06
489.4199999996758,2.076384e-05,489.4199999996758,6.2395e-05,489.4199999996758,2.133139e-05,489.4199999996758,9.78145e-06
489.43499999967577,2.01006e-05,489.43499999967577,6.365537e-05,489.43499999967577,2.121484e-05,489.43499999967577,1.075153e-05
489.44999999967575,1.917306e-05,489.44999999967575,6.515729e-05,489.44999999967575,2.114367e-05,489.44999999967575,1.124715e-05
489.46499999967574,1.880511e-05,489.46499999967574,6.84084e-05,489.46499999967574,2.139403e-05,489.46499999967574,1.140881e-05
489.4799999996757,1.975921e-05,489.4799999996757,7.180202e-05,489.4799999996757,2.139403e-05,489.4799999996757,1.169055e-05
489.4949999996757,2.248052e-05,489.4949999996757,7.308037e-05,489.4949999996757,2.156455e-05,489.4949999996757,1.140511e-05
489.5099999996757,2.33793e-05,489.5099999996757,7.565235e-05,489.5099999996757,2.106625e-05,489.5099999996757,1.16797e-05
489.5249999996757,3.154851e-05,489.5249999996757,7.302078e-05,489.5249999996757,2.154232e-05,489.5249999996757,1.240268e-05
489.5399999996757,3.946706e-05,489.5399999996757,7.76177e-05,489.5399999996757,2.270995e-05,489.5399999996757,1.250336e-05
489.55499999967566,4.391752e-05,489.55499999967566,7.892289e-05,489.55499999967566,2.431787e-05,489.55499999967566,1.280174e-05
489.56999999967564,4.426672e-05,489.56999999967564,7.845655e-05,489.56999999967564,2.597599e-05,489.56999999967564,1.283361e-05
489.58499999967563,4.425367e-05,489.58499999967563,8.535344e-05,489.58499999967563,2.598087e-05,489.58499999967563,1.287744e-05
489.5999999996756,4.599039e-05,489.5999999996756,9.560779e-05,489.5999999996756,2.706852e-05,489.5999999996756,1.307825e-05
489.6149999996756,4.678209e-05,489.6149999996756,0.000100689,489.6149999996756,2.64537e-05,489.6149999996756,1.3451e-05
489.6299999996756,4.686692e-05,489.6299999996756,0.0001073333,489.6299999996756,2.60961e-05,489.6299999996756,1.351369e-05
489.6449999996756,4.705081e-05,489.6449999996756,0.0001100998,489.6449999996756,2.555612e-05,489.6449999996756,1.301779e-05
489.65999999967556,4.763548e-05,489.65999999967556,0.0001115855,489.65999999967556,2.5693e-05,489.65999999967556,1.275544e-05
489.67499999967555,4.898668e-05,489.67499999967555,0.000110005,489.67499999967555,2.533745e-05,489.67499999967555,1.223343e-05
489.68999999967554,4.92997e-05,489.68999999967554,0.000111396,489.68999999967554,2.521708e-05,489.68999999967554,1.206648e-05
489.7049999996755,4.998921e-05,489.7049999996755,0.0001189594,489.7049999996755,2.562162e-05,489.7049999996755,1.207815e-05
489.7199999996755,5.025648e-05,489.7199999996755,0.000119878,489.7199999996755,2.53191e-05,489.7199999996755,1.269122e-05
489.7349999996755,4.907861e-05,489.7349999996755,0.0001196339,489.7349999996755,2.511801e-05,489.7349999996755,1.262333e-05
489.7499999996755,4.875724e-05,489.7499999996755,0.0001203692,489.7499999996755,2.52779e-05,489.7499999996755,1.304157e-05
489.76499999967547,4.88793e-05,489.76499999967547,0.0001200704,489.76499999967547,2.396015e-05,489.76499999967547,1.264897e-05
489.77999999967545,4.254175e-05,489.77999999967545,0.0001193106,489.77999999967545,2.301616e-05,489.77999999967545,1.185329e-05
489.79499999967544,3.526073e-05,489.79499999967544,0.0001175035,489.79499999967544,2.116831e-05,489.79499999967544,1.187941e-05
489.8099999996754,3.262715e-05,489.8099999996754,0.0001195319,489.8099999996754,2.103346e-05,489.8099999996754,1.163983e-05
489.8249999996754,3.192535e-05,489.8249999996754,0.000116878,489.8249999996754,1.835706e-05,489.8249999996754,1.166281e-05
489.8399999996754,3.166706e-05,489.8399999996754,0.0001129598,489.8399999996754,1.806389e-05,489.8399999996754,1.16616e-05
489.8549999996754,2.785741e-05,489.8549999996754,0.0001102533,489.8549999996754,1.66704e-05,489.8549999996754,1.155725e-05
489.8699999996754,2.756052e-05,489.8699999996754,0.0001054156,489.8699999996754,1.605748e-05,489.8699999996754,1.097842e-05
489.88499999967536,2.763708e-05,489.88499999967536,9.801849e-05,489.88499999967536,1.676393e-05,489.88499999967536,1.107805e-05
489.89999999967534,2.937458e-05,489.89999999967534,9.524805e-05,489.89999999967534,1.653038e-05,489.89999999967534,1.107805e-05
489.91499999967533,2.928236e-05,489.91499999967533,9.642877e-05,489.91499999967533,1.583131e-05,489.91499999967533,1.116544e-05
489.9299999996753,2.788319e-05,489.9299999996753,9.7899e-05,489.9299999996753,1.596863e-05,489.9299999996753,1.110979e-05
489.9449999996753,2.742268e-05,489.9449999996753,9.245767e-05,489.9449999996753,1.682516e-05,489.9449999996753,1.087787e-05
489.9599999996753,2.62393e-05,489.9599999996753,8.454505e-05,489.9599999996753,1.589702e-05,489.9599999996753,1.05184e-05
489.9749999996753,2.61861e-05,489.9749999996753,8.007359e-05,489.9749999996753,1.629348e-05,489.9749999996753,1.054382e-05
489.98999999967526,2.656476e-05,489.98999999967526,7.934388e-05,489.98999999967526,1.646891e-05,489.98999999967526,1.142485e-05
490.00499999967525,2.511913e-05,490.00499999967525,7.84508e-05,490.00499999967525,1.648174e-05,490.00499999967525,1.125466e-05
490.01999999967524,2.629775e-05,490.01999999967524,7.894269e-05,490.01999999967524,1.745632e-05,490.01999999967524,1.12459e-05
490.0349999996752,2.748836e-05,490.0349999996752,8.006761e-05,490.0349999996752,1.854032e-05,490.0349999996752,1.151695e-05
490.0499999996752,2.801977e-05,490.0499999996752,7.614512e-05,490.0499999996752,1.851522e-05,490.0499999996752,1.168091e-05
490.0649999996752,2.848892e-05,490.0649999996752,7.713143e-05,490.0649999996752,1.793397e-05,490.0649999996752,1.157065e-05
490.0799999996752,3.024362e-05,490.0799999996752,8.100409e-05,490.0799999996752,1.778964e-05,490.0799999996752,1.13779e-05
490.09499999967517,3.075857e-05,490.09499999967517,7.851291e-05,490.09499999967517,1.782366e-05,490.09499999967517,1.129589e-05
490.10999999967515,3.172884e-05,490.10999999967515,6.877621e-05,490.10999999967515,1.798338e-05,490.10999999967515,1.188771e-05
490.12499999967514,3.264484e-05,490.12499999967514,6.621434e-05,490.12499999967514,1.827168e-05,490.12499999967514,1.206882e-05
490.1399999996751,3.332389e-05,490.1399999996751,6.563828e-05,490.1399999996751,1.93726e-05,490.1399999996751,1.200914e-05
490.1549999996751,3.124206e-05,490.1549999996751,6.567433e-05,490.1549999996751,2.040801e-05,490.1549999996751,1.240496e-05
490.1699999996751,3.156146e-05,490.1699999996751,6.252063e-05,490.1699999996751,2.053119e-05,490.1699999996751,1.206531e-05
490.1849999996751,3.177054e-05,490.1849999996751,6.12238e-05,490.1849999996751,1.997547e-05,490.1849999996751,1.192557e-05
490.1999999996751,3.176123e-05,490.1999999996751,6.212418e-05,490.1999999996751,2.161218e-05,490.1999999996751,1.200914e-05
490.21499999967506,3.230476e-05,490.21499999967506,6.490754e-05,490.21499999967506,2.219675e-05,490.21499999967506,1.188415e-05
490.22999999967504,3.209565e-05,490.22999999967504,6.462108e-05,490.22999999967504,2.190738e-05,490.22999999967504,1.106151e-05
490.24499999967503,3.162433e-05,490.24499999967503,6.308162e-05,490.24499999967503,2.207584e-05,490.24499999967503,1.00275e-05
490.259999999675,3.168352e-05,490.259999999675,6.475697e-05,490.259999999675,2.253935e-05,490.259999999675,9.562988e-06
490.274999999675,2.912221e-05,490.274999999675,6.711934e-05,490.274999999675,2.090717e-05,490.274999999675,9.941437e-06
490.289999999675,2.89743e-05,490.289999999675,6.717955e-05,490.289999999675,2.060858e-05,490.289999999675,9.65972e-06
490.304999999675,2.847556e-05,490.304999999675,6.963721e-05,490.304999999675,2.05908e-05,490.304999999675,9.722225e-06
490.31999999967496,2.766866e-05,490.31999999967496,6.797397e-05,490.31999999967496,2.059285e-05,490.31999999967496,9.720776e-06
490.33499999967495,2.688209e-05,490.33499999967495,8.881065e-05,490.33499999967495,2.061883e-05,490.33499999967495,9.634898e-06
490.34999999967494,2.533412e-05,490.34999999967494,9.591317e-05,490.34999999967494,2.061063e-05,490.34999999967494,9.387561e-06
490.3649999996749,2.497177e-05,490.3649999996749,9.741216e-05,490.3649999996749,2.095966e-05,490.3649999996749,8.92131e-06
490.3799999996749,2.336121e-05,490.3799999996749,0.0001008326,490.3799999996749,2.021939e-05,490.3799999996749,8.594799e-06
