X[s],a: EMG RMS 1-1,X[s].1,a: EMG RMS 1-2,X[s].2,a: EMG RMS 1-3,X[s].3,a: EMG RMS 1-4
521.0099999996471,3.222312e-05,521.0099999996471,0.0001214844,521.0099999996471,1.539554e-05,521.0099999996471,1.951243e-05
521.0249999996471,3.342013e-05,521.0249999996471,0.0001283933,521.0249999996471,1.529732e-05,521.0249999996471,2.010901e-05
521.0399999996471,3.555949e-05,521.0399999996471,0.0001353362,521.0399999996471,1.507189e-05,521.0399999996471,2.049411e-05
521.0549999996471,3.534372e-05,521.0549999996471,0.0001483183,521.0549999996471,1.516506e-05,521.0549999996471,2.128246e-05
521.069999999647,3.590169e-05,521.069999999647,0.0001512184,521.069999999647,1.650394e-05,521.069999999647,2.142956e-05
521.084999999647,3.622395e-05,521.084999999647,0.0001546368,521.084999999647,1.696938e-05,521.084999999647,2.193822e-05
521.099999999647,3.649206e-05,521.099999999647,0.0001570642,521.099999999647,1.794103e-05,521.099999999647,2.271367e-05
521.114999999647,3.798032e-05,521.114999999647,0.0001569182,521.114999999647,1.79096e-05,521.114999999647,2.252997e-05
521.129999999647,4.180255e-05,521.129999999647,0.0001567609,521.129999999647,1.800687e-05,521.129999999647,2.254934e-05
521.144999999647,4.155684e-05,521.144999999647,0.0001556925,521.144999999647,1.754807e-05,521.144999999647,2.194657e-05
521.159999999647,4.153718e-05,521.159999999647,0.0001541696,521.159999999647,1.783709e-05,521.159999999647,2.047279e-05
521.174999999647,4.174995e-05,521.174999999647,0.0001509627,521.174999999647,1.828633e-05,521.174999999647,2.017685e-05
521.189999999647,4.200626e-05,521.189999999647,0.0001459576,521.189999999647,1.842141e-05,521.189999999647,2.014541e-05
521.2049999996469,4.313987e-05,521.2049999996469,0.0001421025,521.2049999996469,1.919655e-05,521.2049999996469,2.007045e-05
521.2199999996469,4.233762e-05,521.2199999996469,0.0001380719,521.2199999996469,1.779914e-05,521.2199999996469,1.997618e-05
521.2349999996469,4.217995e-05,521.2349999996469,0.0001257283,521.2349999996469,1.78852e-05,521.2349999996469,1.998393e-05
521.2499999996469,4.19294e-05,521.2499999996469,0.000116761,521.2499999996469,1.837317e-05,521.2499999996469,1.888957e-05
521.2649999996469,4.123048e-05,521.2649999996469,0.0001040453,521.2649999996469,1.872779e-05,521.2649999996469,1.899072e-05
521.2799999996469,4.096485e-05,521.2799999996469,9.471011e-05,521.2799999996469,1.972996e-05,521.2799999996469,1.874283e-05
521.2949999996468,4.058795e-05,521.2949999996468,8.868049e-05,521.2949999996468,2.011111e-05,521.2949999996468,1.896176e-05
521.3099999996468,4.144585e-05,521.3099999996468,6.519425e-05,521.3099999996468,1.928879e-05,521.3099999996468,1.863429e-05
521.3249999996468,4.303001e-05,521.3249999996468,5.950037e-05,521.3249999996468,2.039558e-05,521.3249999996468,1.958089e-05
521.3399999996468,4.252519e-05,521.3399999996468,4.131445e-05,521.3399999996468,2.046178e-05,521.3399999996468,2.090043e-05
521.3549999996468,4.18433e-05,521.3549999996468,3.850961e-05,521.3549999996468,2.14381e-05,521.3549999996468,2.138613e-05
521.3699999996468,4.108057e-05,521.3699999996468,3.503589e-05,521.3699999996468,2.145124e-05,521.3699999996468,2.236115e-05
521.3849999996468,3.699163e-05,521.3849999996468,2.707164e-05,521.3849999996468,2.155801e-05,521.3849999996468,2.326332e-05
521.3999999996468,3.713074e-05,521.3999999996468,2.509557e-05,521.3999999996468,2.163368e-05,521.3999999996468,2.573628e-05
521.4149999996467,3.816347e-05,521.4149999996467,2.238948e-05,521.4149999996467,2.203049e-05,521.4149999996467,2.725677e-05
521.4299999996467,3.891714e-05,521.4299999996467,2.131751e-05,521.4299999996467,2.2817e-05,521.4299999996467,2.709089e-05
521.4449999996467,3.781417e-05,521.4449999996467,2.164149e-05,521.4449999996467,2.364471e-05,521.4449999996467,2.788622e-05
521.4599999996467,3.808736e-05,521.4599999996467,2.238633e-05,521.4599999996467,2.361908e-05,521.4599999996467,2.848595e-05
521.4749999996467,3.711215e-05,521.4749999996467,2.311266e-05,521.4749999996467,2.34701e-05,521.4749999996467,2.870418e-05
521.4899999996467,3.684511e-05,521.4899999996467,2.429295e-05,521.4899999996467,2.306202e-05,521.4899999996467,2.944929e-05
521.5049999996467,3.506402e-05,521.5049999996467,2.655415e-05,521.5049999996467,2.259303e-05,521.5049999996467,2.958102e-05
521.5199999996466,3.447699e-05,521.5199999996466,3.090523e-05,521.5199999996466,2.258305e-05,521.5199999996466,2.899082e-05
521.5349999996466,3.381152e-05,521.5349999996466,3.795954e-05,521.5349999996466,2.182556e-05,521.5349999996466,2.943972e-05
521.5499999996466,3.075216e-05,521.5499999996466,3.979727e-05,521.5499999996466,2.184041e-05,521.5499999996466,2.925107e-05
521.5649999996466,2.841217e-05,521.5649999996466,4.268687e-05,521.5649999996466,2.199338e-05,521.5649999996466,2.883101e-05
521.5799999996466,3.107252e-05,521.5799999996466,4.412201e-05,521.5799999996466,2.061746e-05,521.5799999996466,2.797499e-05
521.5949999996466,3.133795e-05,521.5949999996466,4.660258e-05,521.5949999996466,1.974495e-05,521.5949999996466,2.665687e-05
521.6099999996466,3.217543e-05,521.6099999996466,5.405449e-05,521.6099999996466,1.898849e-05,521.6099999996466,2.754569e-05
521.6249999996465,3.21439e-05,521.6249999996465,8.524164e-05,521.6249999996465,1.932673e-05,521.6249999996465,2.741498e-05
521.6399999996465,3.735843e-05,521.6399999996465,0.0001107656,521.6399999996465,1.999661e-05,521.6399999996465,2.631756e-05
521.6549999996465,3.914884e-05,521.6549999996465,0.0001437697,521.6549999996465,2.053805e-05,521.6549999996465,2.418777e-05
521.6699999996465,4.189411e-05,521.6699999996465,0.0001477622,521.6699999996465,2.148798e-05,521.6699999996465,2.430397e-05
521.6849999996465,4.504681e-05,521.6849999996465,0.0001568898,521.6849999996465,2.037831e-05,521.6849999996465,2.435492e-05
521.6999999996465,4.544346e-05,521.6999999996465,0.0001599826,521.6999999996465,2.023958e-05,521.6999999996465,2.555612e-05
521.7149999996465,4.458191e-05,521.7149999996465,0.0001771157,521.7149999996465,2.001774e-05,521.7149999996465,2.562217e-05
521.7299999996465,4.534664e-05,521.7299999996465,0.0001836299,521.7299999996465,2.005921e-05,521.7299999996465,2.586676e-05
521.7449999996464,4.658625e-05,521.7449999996464,0.0001851275,521.7449999996464,2.046866e-05,521.7449999996464,2.712311e-05
521.7599999996464,4.763371e-05,521.7599999996464,0.000186428,521.7599999996464,2.060653e-05,521.7599999996464,2.721229e-05
521.7749999996464,4.728674e-05,521.7749999996464,0.0001888954,521.7749999996464,2.043974e-05,521.7749999996464,2.672021e-05
521.7899999996464,4.69903e-05,521.7899999996464,0.0001908058,521.7899999996464,2.087345e-05,521.7899999996464,2.638866e-05
521.8049999996464,4.743457e-05,521.8049999996464,0.0001911636,521.8049999996464,2.117896e-05,521.8049999996464,2.704718e-05
521.8199999996464,4.762011e-05,521.8199999996464,0.0001912237,521.8199999996464,2.093747e-05,521.8199999996464,2.685221e-05
521.8349999996464,4.652786e-05,521.8349999996464,0.000190768,521.8349999996464,2.059011e-05,521.8349999996464,2.667958e-05
521.8499999996463,4.641236e-05,521.8499999996463,0.0001896202,521.8499999996463,2.050923e-05,521.8499999996463,2.659868e-05
521.8649999996463,4.811626e-05,521.8649999996463,0.000187663,521.8649999996463,2.025628e-05,521.8649999996463,2.747503e-05
521.8799999996463,4.794058e-05,521.8799999996463,0.0001697327,521.8799999996463,2.004657e-05,521.8799999996463,2.770326e-05
521.8949999996463,4.417689e-05,521.8949999996463,0.0001582714,521.8949999996463,1.895582e-05,521.8949999996463,2.941387e-05
521.9099999996463,4.572621e-05,521.9099999996463,0.0001323011,521.9099999996463,1.746439e-05,521.9099999996463,3.242185e-05
521.9249999996463,4.036486e-05,521.9249999996463,0.0001265914,521.9249999996463,1.618767e-05,521.9249999996463,3.23466e-05
521.9399999996463,4.062715e-05,521.9399999996463,0.0001133396,521.9399999996463,1.632113e-05,521.9399999996463,3.387188e-05
521.9549999996462,4.091358e-05,521.9549999996462,0.0001115475,521.9549999996462,1.637541e-05,521.9549999996462,3.318707e-05
521.9699999996462,4.224802e-05,521.9699999996462,8.047526e-05,521.9699999996462,1.643209e-05,521.9699999996462,3.291429e-05
521.9849999996462,4.17803e-05,521.9849999996462,6.382466e-05,521.9849999996462,1.674039e-05,521.9849999996462,3.31076e-05
521.9999999996462,4.156532e-05,521.9999999996462,6.069114e-05,521.9999999996462,1.688367e-05,521.9999999996462,3.248045e-05
522.0149999996462,4.073483e-05,522.0149999996462,5.76564e-05,522.0149999996462,1.663063e-05,522.0149999996462,3.381194e-05
522.0299999996462,4.078046e-05,522.0299999996462,3.544243e-05,522.0299999996462,1.663317e-05,522.0299999996462,3.671143e-05
522.0449999996462,4.049343e-05,522.0449999996462,2.935107e-05,522.0449999996462,1.523457e-05,522.0449999996462,3.978841e-05
522.0599999996462,4.059211e-05,522.0599999996462,2.334975e-05,522.0599999996462,1.506161e-05,522.0599999996462,5.21055e-05
522.0749999996461,3.967993e-05,522.0749999996461,1.929171e-05,522.0749999996461,1.495178e-05,522.0749999996461,5.636786e-05
522.0899999996461,3.967496e-05,522.0899999996461,1.893798e-05,522.0899999996461,1.529364e-05,522.0899999996461,5.733348e-05
522.1049999996461,3.820294e-05,522.1049999996461,1.885448e-05,522.1049999996461,1.728766e-05,522.1049999996461,5.997105e-05
522.1199999996461,3.639349e-05,522.1199999996461,1.827554e-05,522.1199999996461,1.897513e-05,522.1199999996461,6.107845e-05
522.1349999996461,3.563705e-05,522.1349999996461,1.758897e-05,522.1349999996461,1.939077e-05,522.1349999996461,5.987891e-05
522.1499999996461,3.379193e-05,522.1499999996461,2.399716e-05,522.1499999996461,1.99317e-05,522.1499999996461,5.942076e-05
522.164999999646,3.061305e-05,522.164999999646,2.530797e-05,522.164999999646,1.977204e-05,522.164999999646,5.829494e-05
522.179999999646,2.926551e-05,522.179999999646,2.592877e-05,522.179999999646,1.988571e-05,522.179999999646,5.840141e-05
522.194999999646,2.917295e-05,522.194999999646,2.612254e-05,522.194999999646,2.011391e-05,522.194999999646,5.86923e-05
522.209999999646,2.728364e-05,522.209999999646,2.66299e-05,522.209999999646,2.038315e-05,522.209999999646,5.935364e-05
522.224999999646,2.540796e-05,522.224999999646,3.142504e-05,522.224999999646,2.092333e-05,522.224999999646,5.932776e-05
522.239999999646,2.410668e-05,522.239999999646,3.248783e-05,522.239999999646,2.09038e-05,522.239999999646,5.956047e-05
522.254999999646,2.403763e-05,522.254999999646,4.017071e-05,522.254999999646,2.110633e-05,522.254999999646,6.073197e-05
522.269999999646,2.461954e-05,522.269999999646,5.434791e-05,522.269999999646,2.114101e-05,522.269999999646,6.122841e-05
522.284999999646,2.71122e-05,522.284999999646,6.343236e-05,522.284999999646,2.179521e-05,522.284999999646,6.247736e-05
522.2999999996459,2.734192e-05,522.2999999996459,7.376759e-05,522.2999999996459,2.205222e-05,522.2999999996459,6.093297e-05
522.3149999996459,2.786752e-05,522.3149999996459,8.607688e-05,522.3149999996459,2.264223e-05,522.3149999996459,4.864617e-05
522.3299999996459,2.958578e-05,522.3299999996459,9.237307e-05,522.3299999996459,2.284847e-05,522.3299999996459,4.726827e-05
522.3449999996459,3.070357e-05,522.3449999996459,0.0001051213,522.3449999996459,2.24454e-05,522.3449999996459,4.556635e-05
522.3599999996459,3.151814e-05,522.3599999996459,0.0001128547,522.3599999996459,1.998464e-05,522.3599999996459,4.236356e-05
522.3749999996459,3.404362e-05,522.3749999996459,0.0001192214,522.3749999996459,1.961037e-05,522.3749999996459,4.13567e-05
522.3899999996459,3.44729e-05,522.3899999996459,0.0001289459,522.3899999996459,2.016917e-05,522.3899999996459,4.070335e-05
522.4049999996458,3.484883e-05,522.4049999996458,0.0001291478,522.4049999996458,2.016428e-05,522.4049999996458,4.047116e-05
522.4199999996458,3.454882e-05,522.4199999996458,0.0001302565,522.4199999996458,2.06884e-05,522.4199999996458,3.942385e-05
522.4349999996458,4.088085e-05,522.4349999996458,0.0001325528,522.4349999996458,2.023819e-05,522.4349999996458,3.849497e-05
522.4499999996458,4.082361e-05,522.4499999996458,0.0001332554,522.4499999996458,2.012932e-05,522.4499999996458,3.704148e-05
522.4649999996458,4.546298e-05,522.4649999996458,0.0001348904,522.4649999996458,2.250995e-05,522.4649999996458,3.601178e-05
522.4799999996458,4.806031e-05,522.4799999996458,0.0001354174,522.4799999996458,2.331776e-05,522.4799999996458,3.534054e-05
522.4949999996458,4.792412e-05,522.4949999996458,0.0001350578,522.4949999996458,2.401535e-05,522.4949999996458,3.523955e-05
522.5099999996457,4.896022e-05,522.5099999996457,0.0001324059,522.5099999996457,2.371728e-05,522.5099999996457,3.206843e-05
522.5249999996457,4.861837e-05,522.5249999996457,0.0001284292,522.5249999996457,2.342264e-05,522.5249999996457,4.294678e-05
522.5399999996457,4.995426e-05,522.5399999996457,0.0001240698,522.5399999996457,2.29254e-05,522.5399999996457,5.623025e-05
522.5549999996457,5.042466e-05,522.5549999996457,0.0001188082,522.5549999996457,2.260425e-05,522.5549999996457,6.506578e-05
522.5699999996457,5.096346e-05,522.5699999996457,0.0001072721,522.5699999996457,2.216055e-05,522.5699999996457,6.551584e-05
522.5849999996457,5.114557e-05,522.5849999996457,0.0001045854,522.5849999996457,2.290143e-05,522.5849999996457,6.948128e-05
522.5999999996457,5.329735e-05,522.5999999996457,8.949828e-05,522.5999999996457,2.477014e-05,522.5999999996457,7.01931e-05
522.6149999996456,5.580173e-05,522.6149999996456,8.020682e-05,522.6149999996456,2.485529e-05,522.6149999996456,7.053184e-05
522.6299999996456,5.558776e-05,522.6299999996456,7.220776e-05,522.6299999996456,2.391071e-05,522.6299999996456,7.142039e-05
522.6449999996456,5.555227e-05,522.6449999996456,5.586102e-05,522.6449999996456,2.377364e-05,522.6449999996456,7.179318e-05
522.6599999996456,5.532867e-05,522.6599999996456,5.24743e-05,522.6599999996456,2.339255e-05,522.6599999996456,7.405253e-05
522.6749999996456,5.485384e-05,522.6749999996456,4.684738e-05,522.6749999996456,2.315225e-05,522.6749999996456,7.498241e-05
522.6899999996456,5.081731e-05,522.6899999996456,4.331941e-05,522.6899999996456,2.295856e-05,522.6899999996456,7.502805e-05
522.7049999996456,5.098281e-05,522.7049999996456,4.073864e-05,522.7049999996456,2.26584e-05,522.7049999996456,7.627968e-05
522.7199999996456,4.530935e-05,522.7199999996456,3.436854e-05,522.7199999996456,1.981119e-05,522.7199999996456,7.695407e-05
522.7349999996455,4.458064e-05,522.7349999996455,3.298013e-05,522.7349999996455,1.91488e-05,522.7349999996455,7.741872e-05
522.7499999996455,4.396273e-05,522.7499999996455,3.53752e-05,522.7499999996455,1.820913e-05,522.7499999996455,7.741054e-05
522.7649999996455,4.245424e-05,522.7649999996455,4.393099e-05,522.7649999996455,1.8213e-05,522.7649999996455,7.581938e-05
522.7799999996455,3.998795e-05,522.7799999996455,4.814904e-05,522.7799999996455,1.84428e-05,522.7799999996455,6.576328e-05
522.7949999996455,3.91945e-05,522.7949999996455,5.045538e-05,522.7949999996455,1.90048e-05,522.7949999996455,5.149608e-05
522.8099999996455,3.881856e-05,522.8099999996455,5.250275e-05,522.8099999996455,1.947702e-05,522.8099999996455,4.32514e-05
522.8249999996455,3.874192e-05,522.8249999996455,5.281866e-05,522.8249999996455,1.952181e-05,522.8249999996455,4.258279e-05
522.8399999996454,3.922648e-05,522.8399999996454,5.662667e-05,522.8399999996454,1.940021e-05,522.8399999996454,3.898369e-05
522.8549999996454,3.22135e-05,522.8549999996454,6.633996e-05,522.8549999996454,1.788756e-05,522.8549999996454,3.947741e-05
522.8699999996454,3.440582e-05,522.8699999996454,7.828867e-05,522.8699999996454,1.930923e-05,522.8699999996454,3.813725e-05
522.8849999996454,3.49191e-05,522.8849999996454,8.776991e-05,522.8849999996454,2.230059e-05,522.8849999996454,3.629854e-05
522.8999999996454,3.595933e-05,522.8999999996454,9.516297e-05,522.8999999996454,2.342745e-05,522.8999999996454,3.469529e-05
522.9149999996454,3.841291e-05,522.9149999996454,0.0001079759,522.9149999996454,2.365424e-05,522.9149999996454,3.05541e-05
522.9299999996454,4.042554e-05,522.9299999996454,0.0001134745,522.9299999996454,2.354142e-05,522.9299999996454,3.082491e-05
522.9449999996453,4.087293e-05,522.9449999996453,0.0001261804,522.9449999996453,2.338291e-05,522.9449999996453,3.115175e-05
522.9599999996453,4.26228e-05,522.9599999996453,0.0001274976,522.9599999996453,2.339436e-05,522.9599999996453,2.688628e-05
522.9749999996453,4.559757e-05,522.9749999996453,0.0001335458,522.9749999996453,2.381686e-05,522.9749999996453,2.659921e-05
522.9899999996453,4.558923e-05,522.9899999996453,0.0001381612,522.9899999996453,2.350908e-05,522.9899999996453,2.521093e-05
523.0049999996453,4.672876e-05,523.0049999996453,0.0001355534,523.0049999996453,2.336965e-05,523.0049999996453,2.545781e-05
523.0199999996453,4.725426e-05,523.0199999996453,0.0001370683,523.0199999996453,2.334493e-05,523.0199999996453,2.553295e-05
523.0349999996453,4.908636e-05,523.0349999996453,0.0001378536,523.0349999996453,2.325969e-05,523.0349999996453,2.616511e-05
523.0499999996453,5.015435e-05,523.0499999996453,0.0001381801,523.0499999996453,2.339375e-05,523.0499999996453,2.651752e-05
523.0649999996452,4.91804e-05,523.0649999996452,0.0001381243,523.0649999996452,2.309986e-05,523.0649999996452,2.639399e-05
523.0799999996452,4.828022e-05,523.0799999996452,0.0001377631,523.0799999996452,2.28922e-05,523.0799999996452,2.481275e-05
523.0949999996452,4.741348e-05,523.0949999996452,0.0001359501,523.0949999996452,2.297635e-05,523.0949999996452,2.367269e-05
523.1099999996452,4.691679e-05,523.1099999996452,0.0001274079,523.1099999996452,2.205669e-05,523.1099999996452,2.238318e-05
523.1249999996452,4.695641e-05,523.1249999996452,0.0001245148,523.1249999996452,2.059559e-05,523.1249999996452,3.304755e-05
523.1399999996452,4.763785e-05,523.1399999996452,0.0001186729,523.1399999996452,2.077266e-05,523.1399999996452,3.65318e-05
523.1549999996452,4.650272e-05,523.1549999996452,0.0001102284,523.1549999996452,2.021451e-05,523.1549999996452,3.658343e-05
523.1699999996451,4.456927e-05,523.1699999996451,0.0001000286,523.1699999996451,2.029935e-05,523.1699999996451,3.896092e-05
523.1849999996451,4.375782e-05,523.1849999996451,9.509085e-05,523.1849999996451,2.055108e-05,523.1849999996451,4.913369e-05
523.1999999996451,4.36069e-05,523.1999999996451,7.734117e-05,523.1999999996451,2.009149e-05,523.1999999996451,5.565082e-05
523.2149999996451,3.841401e-05,523.2149999996451,6.876802e-05,523.2149999996451,2.057711e-05,523.2149999996451,6.526509e-05
523.2299999996451,3.927708e-05,523.2299999996451,6.044764e-05,523.2299999996451,2.127981e-05,523.2299999996451,6.560243e-05
523.2449999996451,3.944814e-05,523.2449999996451,5.343857e-05,523.2449999996451,2.089571e-05,523.2449999996451,6.644986e-05
523.2599999996451,3.811398e-05,523.2599999996451,5.394519e-05,523.2599999996451,2.140522e-05,523.2599999996451,6.756865e-05
523.274999999645,3.690241e-05,523.274999999645,4.361497e-05,523.274999999645,2.176481e-05,523.274999999645,6.756844e-05
523.289999999645,3.53509e-05,523.289999999645,3.370721e-05,523.289999999645,2.174409e-05,523.289999999645,6.7514e-05
523.304999999645,3.440131e-05,523.304999999645,3.085232e-05,523.304999999645,2.084847e-05,523.304999999645,6.766406e-05
523.319999999645,3.348119e-05,523.319999999645,3.04062e-05,523.319999999645,2.11989e-05,523.319999999645,6.872314e-05
523.334999999645,3.406802e-05,523.334999999645,3.327693e-05,523.334999999645,2.112635e-05,523.334999999645,7.417873e-05
523.349999999645,3.345004e-05,523.349999999645,3.37331e-05,523.349999999645,2.100062e-05,523.349999999645,8.535806e-05
523.364999999645,3.306034e-05,523.364999999645,3.481689e-05,523.364999999645,2.099793e-05,523.364999999645,8.555817e-05
523.379999999645,3.002438e-05,523.379999999645,3.650904e-05,523.379999999645,2.089908e-05,523.379999999645,8.387223e-05
523.3949999996449,2.966281e-05,523.3949999996449,3.55579e-05,523.3949999996449,2.010621e-05,523.3949999996449,8.343036e-05
523.4099999996449,2.917247e-05,523.4099999996449,3.672448e-05,523.4099999996449,1.945386e-05,523.4099999996449,8.34133e-05
523.4249999996449,2.931217e-05,523.4249999996449,3.905769e-05,523.4249999996449,2.168571e-05,523.4249999996449,8.084899e-05
523.4399999996449,2.761719e-05,523.4399999996449,4.437954e-05,523.4399999996449,2.195748e-05,523.4399999996449,7.468423e-05
523.4549999996449,2.95305e-05,523.4549999996449,4.574192e-05,523.4549999996449,2.31711e-05,523.4549999996449,6.967523e-05
523.4699999996449,3.316499e-05,523.4699999996449,5.351628e-05,523.4699999996449,2.283367e-05,523.4699999996449,6.455762e-05
523.4849999996449,3.266425e-05,523.4849999996449,5.698327e-05,523.4849999996449,2.220881e-05,523.4849999996449,6.540523e-05
523.4999999996448,3.289631e-05,523.4999999996448,5.936265e-05,523.4999999996448,2.366793e-05,523.4999999996448,6.492382e-05
523.5149999996448,3.327778e-05,523.5149999996448,6.657989e-05,523.5149999996448,2.364054e-05,523.5149999996448,6.44646e-05
523.5299999996448,3.745333e-05,523.5299999996448,7.437805e-05,523.5299999996448,2.343046e-05,523.5299999996448,6.711326e-05
523.5449999996448,3.77933e-05,523.5449999996448,7.836366e-05,523.5449999996448,2.316076e-05,523.5449999996448,6.700465e-05
523.5599999996448,3.877427e-05,523.5599999996448,8.421115e-05,523.5599999996448,2.38535e-05,523.5599999996448,6.695628e-05
523.5749999996448,3.946135e-05,523.5749999996448,8.93882e-05,523.5749999996448,2.443057e-05,523.5749999996448,6.506708e-05
523.5899999996448,3.99587e-05,523.5899999996448,9.137707e-05,523.5899999996448,2.443518e-05,523.5899999996448,5.173788e-05
523.6049999996447,4.013036e-05,523.6049999996447,9.155434e-05,523.6049999996447,2.359342e-05,523.6049999996447,4.116073e-05
523.6199999996447,4.206558e-05,523.6199999996447,9.204262e-05,523.6199999996447,2.377601e-05,523.6199999996447,3.967922e-05
523.6349999996447,4.289558e-05,523.6349999996447,9.278663e-05,523.6349999996447,2.295427e-05,523.6349999996447,4.049761e-05
523.6499999996447,4.316631e-05,523.6499999996447,9.373069e-05,523.6499999996447,2.232963e-05,523.6499999996447,4.274063e-05
523.6649999996447,4.370531e-05,523.6649999996447,9.405251e-05,523.6649999996447,2.254497e-05,523.6649999996447,4.834e-05
523.6799999996447,4.366952e-05,523.6799999996447,9.286736e-05,523.6799999996447,1.965485e-05,523.6799999996447,5.297871e-05
523.6949999996447,4.432587e-05,523.6949999996447,9.093526e-05,523.6949999996447,1.933037e-05,523.6949999996447,5.429527e-05
523.7099999996447,4.413669e-05,523.7099999996447,8.930258e-05,523.7099999996447,1.926395e-05,523.7099999996447,5.403912e-05
523.7249999996446,4.209805e-05,523.7249999996446,8.634436e-05,523.7249999996446,1.961539e-05,523.7249999996446,5.383671e-05
523.7399999996446,4.130899e-05,523.7399999996446,8.6878e-05,523.7399999996446,1.832941e-05,523.7399999996446,5.258746e-05
523.7549999996446,4.243168e-05,523.7549999996446,8.754717e-05,523.7549999996446,1.756091e-05,523.7549999996446,5.181351e-05
523.7699999996446,4.302477e-05,523.7699999996446,8.552788e-05,523.7699999996446,1.730639e-05,523.7699999996446,5.084198e-05
523.7849999996446,4.020646e-05,523.7849999996446,7.6203e-05,523.7849999996446,1.961324e-05,523.7849999996446,4.796966e-05
523.7999999996446,4.125508e-05,523.7999999996446,7.338238e-05,523.7999999996446,2.004516e-05,523.7999999996446,4.851947e-05
523.8149999996446,4.142137e-05,523.8149999996446,6.749648e-05,523.8149999996446,1.96527e-05,523.8149999996446,4.808844e-05
523.8299999996445,4.017913e-05,523.8299999996445,6.138327e-05,523.8299999996445,1.932309e-05,523.8299999996445,4.796261e-05
523.8449999996445,3.909698e-05,523.8449999996445,5.728333e-05,523.8449999996445,1.896102e-05,523.8449999996445,4.790912e-05
523.8599999996445,3.847008e-05,523.8599999996445,5.687489e-05,523.8599999996445,1.879837e-05,523.8599999996445,5.098364e-05
523.8749999996445,3.999112e-05,523.8749999996445,5.52925e-05,523.8749999996445,1.906475e-05,523.8749999996445,5.043723e-05
523.8899999996445,3.880332e-05,523.8899999996445,5.069964e-05,523.8899999996445,1.906697e-05,523.8899999996445,4.725128e-05
523.9049999996445,3.757987e-05,523.9049999996445,5.055356e-05,523.9049999996445,1.927856e-05,523.9049999996445,4.541245e-05
523.9199999996445,3.692416e-05,523.9199999996445,4.943324e-05,523.9199999996445,1.897662e-05,523.9199999996445,3.59836e-05
523.9349999996444,3.71588e-05,523.9349999996444,4.937222e-05,523.9349999996444,1.902777e-05,523.9349999996444,3.690737e-05
523.9499999996444,3.652486e-05,523.9499999996444,5.005173e-05,523.9499999996444,1.894541e-05,523.9499999996444,4.501396e-05
523.9649999996444,3.540386e-05,523.9649999996444,5.068019e-05,523.9649999996444,1.840151e-05,523.9649999996444,4.59717e-05
523.9799999996444,3.467133e-05,523.9799999996444,4.196735e-05,523.9799999996444,1.938859e-05,523.9799999996444,4.95542e-05
523.9949999996444,3.420749e-05,523.9949999996444,4.00724e-05,523.9949999996444,1.90773e-05,523.9949999996444,5.060481e-05
524.0099999996444,3.066225e-05,524.0099999996444,3.295578e-05,524.0099999996444,1.956722e-05,524.0099999996444,5.08586e-05
524.0249999996444,3.078009e-05,524.0249999996444,2.927081e-05,524.0249999996444,2.117297e-05,524.0249999996444,5.195795e-05
524.0399999996444,2.879092e-05,524.0399999996444,3.138871e-05,524.0399999996444,2.073125e-05,524.0399999996444,5.211955e-05
524.0549999996443,2.721384e-05,524.0549999996443,3.819483e-05,524.0549999996443,2.105019e-05,524.0549999996443,5.187465e-05
524.0699999996443,2.66135e-05,524.0699999996443,5.011811e-05,524.0699999996443,2.050854e-05,524.0699999996443,5.223214e-05
524.0849999996443,3.027481e-05,524.0849999996443,5.714274e-05,524.0849999996443,2.111301e-05,524.0849999996443,5.214469e-05
524.0999999996443,3.074712e-05,524.0999999996443,6.577699e-05,524.0999999996443,2.166816e-05,524.0999999996443,5.314649e-05
524.1149999996443,3.111963e-05,524.1149999996443,9.087018e-05,524.1149999996443,2.215292e-05,524.1149999996443,5.123418e-05
524.1299999996443,2.987198e-05,524.1299999996443,9.906305e-05,524.1299999996443,2.187714e-05,524.1299999996443,5.145832e-05
524.1449999996443,3.023151e-05,524.1449999996443,0.0001154368,524.1449999996443,2.183008e-05,524.1449999996443,5.381787e-05
524.1599999996442,3.26224e-05,524.1599999996442,0.0001231809,524.1599999996442,2.34683e-05,524.1599999996442,5.371569e-05
524.1749999996442,3.28097e-05,524.1749999996442,0.0001252314,524.1749999996442,2.397837e-05,524.1749999996442,5.365035e-05
524.1899999996442,3.382235e-05,524.1899999996442,0.0001266344,524.1899999996442,2.427613e-05,524.1899999996442,4.690478e-05
524.2049999996442,3.4137e-05,524.2049999996442,0.0001281617,524.2049999996442,2.424477e-05,524.2049999996442,4.113265e-05
524.2199999996442,3.530425e-05,524.2199999996442,0.0001295066,524.2199999996442,2.353603e-05,524.2199999996442,3.829796e-05
524.2349999996442,3.625932e-05,524.2349999996442,0.0001302461,524.2349999996442,2.338351e-05,524.2349999996442,3.594052e-05
524.2499999996442,3.664038e-05,524.2499999996442,0.0001304964,524.2499999996442,2.352226e-05,524.2499999996442,3.481405e-05
524.2649999996441,3.751496e-05,524.2649999996441,0.0001308097,524.2649999996441,2.399422e-05,524.2649999996441,3.482943e-05
524.2799999996441,3.838797e-05,524.2799999996441,0.0001302259,524.2799999996441,2.224367e-05,524.2799999996441,3.38211e-05
524.2949999996441,3.796029e-05,524.2949999996441,0.0001298119,524.2949999996441,2.247112e-05,524.2949999996441,3.44226e-05
524.3099999996441,3.777093e-05,524.3099999996441,0.0001246678,524.3099999996441,2.236619e-05,524.3099999996441,3.284531e-05
524.3249999996441,3.640549e-05,524.3249999996441,0.0001233042,524.3249999996441,2.330688e-05,524.3249999996441,3.234703e-05
524.3399999996441,3.468067e-05,524.3399999996441,0.0001196985,524.3399999996441,2.336061e-05,524.3399999996441,3.251167e-05
524.3549999996441,3.561886e-05,524.3549999996441,0.000114381,524.3549999996441,2.312302e-05,524.3549999996441,3.255669e-05
524.369999999644,3.475655e-05,524.369999999644,9.203053e-05,524.369999999644,2.339676e-05,524.369999999644,3.368881e-05
524.384999999644,3.410769e-05,524.384999999644,8.330803e-05,524.384999999644,2.332078e-05,524.384999999644,3.232351e-05
524.399999999644,3.267848e-05,524.399999999644,5.756886e-05,524.399999999644,2.329781e-05,524.399999999644,2.939902e-05
524.414999999644,3.125558e-05,524.414999999644,4.862764e-05,524.414999999644,2.290942e-05,524.414999999644,2.994404e-05
524.429999999644,3.067235e-05,524.429999999644,4.509338e-05,524.429999999644,2.248741e-05,524.429999999644,3.020727e-05
524.444999999644,2.898791e-05,524.444999999644,3.745258e-05,524.444999999644,2.477525e-05,524.444999999644,3.010403e-05
524.459999999644,2.956387e-05,524.459999999644,3.394748e-05,524.459999999644,2.660874e-05,524.459999999644,3.065719e-05
524.474999999644,2.877428e-05,524.474999999644,2.743912e-05,524.474999999644,2.761362e-05,524.474999999644,2.954385e-05
524.4899999996439,2.807953e-05,524.4899999996439,2.46407e-05,524.4899999996439,2.818018e-05,524.4899999996439,3.019188e-05
524.5049999996439,2.763657e-05,524.5049999996439,2.155344e-05,524.5049999996439,2.760393e-05,524.5049999996439,3.122853e-05
524.5199999996439,2.593963e-05,524.5199999996439,1.842982e-05,524.5199999996439,2.680863e-05,524.5199999996439,3.055317e-05
524.5349999996439,2.549983e-05,524.5349999996439,1.734054e-05,524.5349999996439,2.6569e-05,524.5349999996439,2.97548e-05
524.5499999996439,2.611445e-05,524.5499999996439,1.679667e-05,524.5499999996439,2.60799e-05,524.5499999996439,2.973396e-05
524.5649999996439,2.570615e-05,524.5649999996439,1.62068e-05,524.5649999996439,2.589234e-05,524.5649999996439,3.011432e-05
524.5799999996439,2.565294e-05,524.5799999996439,1.595804e-05,524.5799999996439,2.532244e-05,524.5799999996439,3.020587e-05
524.5949999996438,2.435781e-05,524.5949999996438,1.68017e-05,524.5949999996438,2.474624e-05,524.5949999996438,2.893489e-05
524.6099999996438,2.213002e-05,524.6099999996438,1.679835e-05,524.6099999996438,2.473998e-05,524.6099999996438,2.414872e-05
524.6249999996438,2.163303e-05,524.6249999996438,1.92698e-05,524.6249999996438,2.468525e-05,524.6249999996438,2.523216e-05
524.6399999996438,2.154755e-05,524.6399999996438,1.975066e-05,524.6399999996438,2.475022e-05,524.6399999996438,2.528904e-05
524.6549999996438,2.165906e-05,524.6549999996438,2.526229e-05,524.6549999996438,2.495202e-05,524.6549999996438,2.476957e-05
524.6699999996438,2.152073e-05,524.6699999996438,3.047469e-05,524.6699999996438,2.504387e-05,524.6699999996438,2.59266e-05
524.6849999996438,2.116166e-05,524.6849999996438,3.578576e-05,524.6849999996438,2.328451e-05,524.6849999996438,2.572533e-05
524.6999999996438,2.128842e-05,524.6999999996438,3.719064e-05,524.6999999996438,2.273227e-05,524.6999999996438,2.589398e-05
524.7149999996437,2.179779e-05,524.7149999996437,5.12776e-05,524.7149999996437,1.959384e-05,524.7149999996437,2.532466e-05
524.7299999996437,2.167141e-05,524.7299999996437,5.421609e-05,524.7299999996437,2.000859e-05,524.7299999996437,2.620599e-05
524.7449999996437,2.392544e-05,524.7449999996437,6.392522e-05,524.7449999996437,2.018941e-05,524.7449999996437,2.502136e-05
524.7599999996437,2.640893e-05,524.7599999996437,8.281162e-05,524.7599999996437,2.1155e-05,524.7599999996437,2.532077e-05
524.7749999996437,2.844141e-05,524.7749999996437,9.69313e-05,524.7749999996437,2.186361e-05,524.7749999996437,2.650743e-05
524.7899999996437,3.169774e-05,524.7899999996437,0.0001079252,524.7899999996437,2.270436e-05,524.7899999996437,2.685063e-05
524.8049999996437,3.209127e-05,524.8049999996437,0.0001215616,524.8049999996437,2.27056e-05,524.8049999996437,2.760801e-05
524.8199999996436,3.242229e-05,524.8199999996436,0.0001223403,524.8199999996436,2.239199e-05,524.8199999996436,2.849287e-05
524.8349999996436,3.414773e-05,524.8349999996436,0.000129833,524.8349999996436,2.255434e-05,524.8349999996436,2.869093e-05
524.8499999996436,3.513707e-05,524.8499999996436,0.0001300052,524.8499999996436,2.23857e-05,524.8499999996436,3.082948e-05
524.8649999996436,3.552857e-05,524.8649999996436,0.0001302486,524.8649999996436,2.256808e-05,524.8649999996436,3.103305e-05
524.8799999996436,3.663076e-05,524.8799999996436,0.000130694,524.8799999996436,2.238067e-05,524.8799999996436,3.034592e-05
524.8949999996436,3.708747e-05,524.8949999996436,0.0001306859,524.8949999996436,2.174085e-05,524.8949999996436,3.068062e-05
524.9099999996436,3.727236e-05,524.9099999996436,0.0001308748,524.9099999996436,2.106358e-05,524.9099999996436,2.978603e-05
524.9249999996435,3.739875e-05,524.9249999996435,0.0001306843,524.9249999996435,2.111634e-05,524.9249999996435,2.87963e-05
524.9399999996435,3.748416e-05,524.9399999996435,0.0001315695,524.9399999996435,2.113768e-05,524.9399999996435,2.7474e-05
524.9549999996435,3.704452e-05,524.9549999996435,0.0001312717,524.9549999996435,2.04356e-05,524.9549999996435,2.758351e-05
524.9699999996435,3.750933e-05,524.9699999996435,0.0001261053,524.9699999996435,1.995713e-05,524.9699999996435,2.763453e-05
524.9849999996435,3.702208e-05,524.9849999996435,0.0001244414,524.9849999996435,2.094016e-05,524.9849999996435,2.683332e-05
524.9999999996435,3.746988e-05,524.9999999996435,0.0001185108,524.9999999996435,2.033679e-05,524.9999999996435,2.739287e-05
525.0149999996435,3.645692e-05,525.0149999996435,0.0001028459,525.0149999996435,1.915762e-05,525.0149999996435,2.704509e-05
525.0299999996435,3.355306e-05,525.0299999996435,9.616678e-05,525.0299999996435,1.944879e-05,525.0299999996435,2.779058e-05
525.0449999996434,3.24952e-05,525.0449999996434,8.197421e-05,525.0449999996434,1.868939e-05,525.0449999996434,2.814016e-05
525.0599999996434,3.197605e-05,525.0599999996434,6.319585e-05,525.0599999996434,1.828016e-05,525.0599999996434,3.036541e-05
525.0749999996434,3.112461e-05,525.0749999996434,6.030298e-05,525.0749999996434,1.786787e-05,525.0749999996434,2.941579e-05
525.0899999996434,3.147699e-05,525.0899999996434,4.605191e-05,525.0899999996434,1.835015e-05,525.0899999996434,3.200511e-05
525.1049999996434,3.074116e-05,525.1049999996434,4.495446e-05,525.1049999996434,1.990553e-05,525.1049999996434,3.210794e-05
525.1199999996434,3.065581e-05,525.1199999996434,4.412776e-05,525.1199999996434,2.01489e-05,525.1199999996434,3.335642e-05
525.1349999996434,2.877281e-05,525.1349999996434,4.274162e-05,525.1349999996434,2.032293e-05,525.1349999996434,3.565523e-05
525.1499999996433,2.838687e-05,525.1499999996433,3.990861e-05,525.1499999996433,2.175445e-05,525.1499999996433,3.743716e-05
525.1649999996433,2.820766e-05,525.1649999996433,3.61496e-05,525.1649999996433,2.141509e-05,525.1649999996433,3.805183e-05
525.1799999996433,2.79266e-05,525.1799999996433,3.094077e-05,525.1799999996433,2.121418e-05,525.1799999996433,3.806886e-05
525.1949999996433,2.759474e-05,525.1949999996433,2.580078e-05,525.1949999996433,2.106491e-05,525.1949999996433,4.054419e-05
525.2099999996433,2.511016e-05,525.2099999996433,2.309315e-05,525.2099999996433,2.101202e-05,525.2099999996433,4.151479e-05
525.2249999996433,2.455021e-05,525.2249999996433,2.286511e-05,525.2249999996433,2.029657e-05,525.2249999996433,4.181906e-05
525.2399999996433,2.400655e-05,525.2399999996433,2.428657e-05,525.2399999996433,1.905366e-05,525.2399999996433,4.079669e-05
525.2549999996432,2.156389e-05,525.2549999996432,2.55037e-05,525.2549999996432,2.028408e-05,525.2549999996432,4.060842e-05
525.2699999996432,2.047348e-05,525.2699999996432,2.648829e-05,525.2699999996432,1.99945e-05,525.2699999996432,3.929286e-05
525.2849999996432,1.992746e-05,525.2849999996432,2.860882e-05,525.2849999996432,2.107695e-05,525.2849999996432,3.848472e-05
525.2999999996432,1.896548e-05,525.2999999996432,3.324856e-05,525.2999999996432,2.108029e-05,525.2999999996432,3.786442e-05
525.3149999996432,1.873306e-05,525.3149999996432,4.807731e-05,525.3149999996432,2.097041e-05,525.3149999996432,3.574834e-05
525.3299999996432,1.776111e-05,525.3299999996432,5.810106e-05,525.3299999996432,2.112968e-05,525.3299999996432,3.559512e-05
525.3449999996432,1.646292e-05,525.3449999996432,7.130511e-05,525.3449999996432,2.095025e-05,525.3449999996432,3.247655e-05
525.3599999996432,1.739731e-05,525.3599999996432,8.364199e-05,525.3599999996432,1.971925e-05,525.3599999996432,3.054487e-05
525.3749999996431,1.824314e-05,525.3749999996431,9.457288e-05,525.3749999996431,2.043629e-05,525.3749999996431,3.063559e-05
525.3899999996431,1.891788e-05,525.3899999996431,0.0001013948,525.3899999996431,2.029935e-05,525.3899999996431,2.777233e-05
525.4049999996431,2.119225e-05,525.4049999996431,0.0001068284,525.4049999996431,2.007887e-05,525.4049999996431,2.644997e-05
525.4199999996431,2.424884e-05,525.4199999996431,0.0001096314,525.4199999996431,2.114501e-05,525.4199999996431,2.644678e-05
525.4349999996431,2.445074e-05,525.4349999996431,0.0001203383,525.4349999996431,2.121351e-05,525.4349999996431,2.873361e-05
525.4499999996431,2.510399e-05,525.4499999996431,0.0001236818,525.4499999996431,2.116964e-05,525.4499999996431,2.569793e-05
525.464999999643,2.755898e-05,525.464999999643,0.0001246205,525.464999999643,2.113168e-05,525.464999999643,2.489833e-05
525.479999999643,2.838191e-05,525.479999999643,0.000125503,525.479999999643,2.115833e-05,525.479999999643,2.564471e-05
525.494999999643,2.891298e-05,525.494999999643,0.0001254347,525.494999999643,2.101671e-05,525.494999999643,2.776776e-05
525.509999999643,2.982101e-05,525.509999999643,0.0001263748,525.509999999643,1.949004e-05,525.509999999643,2.800518e-05
525.524999999643,2.958435e-05,525.524999999643,0.0001262393,525.524999999643,1.860403e-05,525.524999999643,2.876301e-05
525.539999999643,3.019374e-05,525.539999999643,0.0001271899,525.539999999643,1.797633e-05,525.539999999643,2.860882e-05
525.554999999643,3.007126e-05,525.554999999643,0.0001257072,525.554999999643,1.868562e-05,525.554999999643,2.837298e-05
525.569999999643,3.152037e-05,525.569999999643,0.0001209796,525.569999999643,1.912745e-05,525.569999999643,2.843943e-05
525.584999999643,3.191034e-05,525.584999999643,0.0001152886,525.584999999643,1.901888e-05,525.584999999643,2.840077e-05
525.5999999996429,3.178384e-05,525.5999999996429,0.0001070873,525.5999999996429,1.846265e-05,525.5999999996429,2.769767e-05
525.6149999996429,3.215266e-05,525.6149999996429,9.960972e-05,525.6149999996429,1.844204e-05,525.6149999996429,2.671546e-05
525.6299999996429,3.177941e-05,525.6299999996429,8.919099e-05,525.6299999996429,1.742644e-05,525.6299999996429,2.523327e-05
525.6449999996429,3.169152e-05,525.6449999996429,7.77566e-05,525.6449999996429,1.763775e-05,525.6449999996429,2.477298e-05
525.6599999996429,2.931073e-05,525.6599999996429,7.610885e-05,525.6599999996429,1.686697e-05,525.6599999996429,2.434046e-05
525.6749999996429,2.847111e-05,525.6749999996429,6.788999e-05,525.6749999996429,1.610216e-05,525.6749999996429,2.351627e-05
525.6899999996429,2.856694e-05,525.6899999996429,5.408133e-05,525.6899999996429,1.648345e-05,525.6899999996429,1.989845e-05
525.7049999996428,2.858271e-05,525.7049999996428,4.656296e-05,525.7049999996428,1.667969e-05,525.7049999996428,1.968493e-05
525.7199999996428,2.603395e-05,525.7199999996428,4.602192e-05,525.7199999996428,1.682181e-05,525.7199999996428,2.412245e-05
525.7349999996428,2.611607e-05,525.7349999996428,4.367694e-05,525.7349999996428,1.8067e-05,525.7349999996428,3.052504e-05
525.7499999996428,2.518746e-05,525.7499999996428,4.354386e-05,525.7499999996428,1.787102e-05,525.7499999996428,3.035845e-05
525.7649999996428,2.437573e-05,525.7649999996428,4.181367e-05,525.7649999996428,1.884103e-05,525.7649999996428,3.100353e-05
525.7799999996428,2.448126e-05,525.7799999996428,4.077562e-05,525.7799999996428,1.953119e-05,525.7799999996428,3.162032e-05
525.7949999996428,2.470351e-05,525.7949999996428,3.684625e-05,525.7949999996428,2.103145e-05,525.7949999996428,3.290102e-05
525.8099999996427,2.342204e-05,525.8099999996427,3.664384e-05,525.8099999996427,2.096033e-05,525.8099999996427,3.387895e-05
525.8249999996427,2.282935e-05,525.8249999996427,3.656187e-05,525.8249999996427,2.075434e-05,525.8249999996427,3.380652e-05
525.8399999996427,2.237563e-05,525.8399999996427,3.384026e-05,525.8399999996427,2.060174e-05,525.8399999996427,3.484439e-05
525.8549999996427,2.072173e-05,525.8549999996427,3.34492e-05,525.8549999996427,2.040663e-05,525.8549999996427,3.533336e-05
525.8699999996427,2.041905e-05,525.8699999996427,3.40047e-05,525.8699999996427,2.04156e-05,525.8699999996427,3.544402e-05
525.8849999996427,2.01922e-05,525.8849999996427,3.390305e-05,525.8849999996427,2.06161e-05,525.8849999996427,3.619205e-05
525.8999999996427,2.025002e-05,525.8999999996427,3.440091e-05,525.8999999996427,2.094554e-05,525.8999999996427,3.681566e-05
525.9149999996426,2.15469e-05,525.9149999996426,3.570142e-05,525.9149999996426,2.018732e-05,525.9149999996426,3.697487e-05
525.9299999996426,2.169739e-05,525.9299999996426,3.490377e-05,525.9299999996426,2.020754e-05,525.9299999996426,3.668495e-05
525.9449999996426,2.53152e-05,525.9449999996426,3.469326e-05,525.9449999996426,1.986232e-05,525.9449999996426,3.710949e-05
525.9599999996426,2.561723e-05,525.9599999996426,4.26631e-05,525.9599999996426,1.978415e-05,525.9599999996426,3.697792e-05
525.9749999996426,2.821166e-05,525.9749999996426,6.189541e-05,525.9749999996426,1.976919e-05,525.9749999996426,3.134964e-05
525.9899999996426,2.956387e-05,525.9899999996426,6.771713e-05,525.9899999996426,1.863505e-05,525.9899999996426,2.666057e-05
526.0049999996426,3.064846e-05,526.0049999996426,7.113957e-05,526.0049999996426,1.945676e-05,526.0049999996426,2.679391e-05
526.0199999996426,3.107252e-05,526.0199999996426,8.980765e-05,526.0199999996426,1.827014e-05,526.0199999996426,2.614949e-05
526.0349999996425,3.084364e-05,526.0349999996425,9.617864e-05,526.0349999996425,1.726809e-05,526.0349999996425,2.505062e-05
526.0499999996425,3.139588e-05,526.0499999996425,0.0001001022,526.0499999996425,1.611615e-05,526.0499999996425,2.22949e-05
526.0649999996425,3.226506e-05,526.0649999996425,0.0001013291,526.0649999996425,1.572148e-05,526.0649999996425,2.17415e-05
526.0799999996425,3.355012e-05,526.0799999996425,0.000111138,526.0799999996425,1.583931e-05,526.0799999996425,2.178487e-05
526.0949999996425,3.523195e-05,526.0949999996425,0.0001146548,526.0949999996425,1.643466e-05,526.0949999996425,2.090852e-05
526.1099999996425,3.54476e-05,526.1099999996425,0.0001176653,526.1099999996425,1.638745e-05,526.1099999996425,2.174539e-05
526.1249999996425,3.551588e-05,526.1249999996425,0.000120543,526.1249999996425,1.596334e-05,526.1249999996425,2.202602e-05
526.1399999996424,3.627447e-05,526.1399999996424,0.0001240096,526.1399999996424,1.521699e-05,526.1399999996424,2.128313e-05
526.1549999996424,3.63598e-05,526.1549999996424,0.0001252436,526.1549999996424,1.570893e-05,526.1549999996424,2.10033e-05
526.1699999996424,3.628301e-05,526.1699999996424,0.0001254821,526.1699999996424,1.592977e-05,526.1699999996424,2.176611e-05
526.1849999996424,3.630048e-05,526.1849999996424,0.0001256894,526.1849999996424,1.589702e-05,526.1849999996424,2.435145e-05
526.1999999996424,3.481243e-05,526.1999999996424,0.0001272677,526.1999999996424,1.607414e-05,526.1999999996424,2.467441e-05
526.2149999996424,3.553095e-05,526.2149999996424,0.0001178047,526.2149999996424,1.833633e-05,526.2149999996424,2.532077e-05
526.2299999996424,3.319725e-05,526.2299999996424,0.0001152188,526.2299999996424,2.041905e-05,526.2299999996424,2.51096e-05
526.2449999996423,3.194696e-05,526.2449999996423,0.0001130019,526.2449999996423,2.185652e-05,526.2449999996423,2.48048e-05
526.2599999996423,3.201568e-05,526.2599999996423,0.000107575,526.2599999996423,2.228289e-05,526.2599999996423,2.391189e-05
526.2749999996423,3.393254e-05,526.2749999996423,9.387606e-05,526.2749999996423,2.230943e-05,526.2749999996423,2.376179e-05
526.2899999996423,3.563151e-05,526.2899999996423,9.482576e-05,526.2899999996423,2.252184e-05,526.2899999996423,2.37991e-05
526.3049999996423,3.48549e-05,526.3049999996423,9.364062e-05,526.3049999996423,2.271739e-05,526.3049999996423,2.380739e-05
526.3199999996423,3.370428e-05,526.3199999996423,9.127141e-05,526.3199999996423,2.261297e-05,526.3199999996423,2.36834e-05
526.3349999996423,3.440705e-05,526.3349999996423,7.926359e-05,526.3349999996423,2.256621e-05,526.3349999996423,2.370481e-05
526.3499999996423,3.58133e-05,526.3499999996423,7.551164e-05,526.3499999996423,2.239262e-05,526.3499999996423,2.426394e-05
526.3649999996422,3.636561e-05,526.3649999996422,6.996012e-05,526.3649999996422,2.337568e-05,526.3649999996422,2.378253e-05
526.3799999996422,3.645189e-05,526.3799999996422,6.427201e-05,526.3799999996422,2.479458e-05,526.3799999996422,2.304124e-05
526.3949999996422,3.561016e-05,526.3949999996422,5.827536e-05,526.3949999996422,2.557705e-05,526.3949999996422,2.687895e-05
526.4099999996422,3.59558e-05,526.4099999996422,5.487284e-05,526.4099999996422,2.777943e-05,526.4099999996422,2.734449e-05
526.4249999996422,3.451252e-05,526.4249999996422,5.379274e-05,526.4249999996422,2.775457e-05,526.4249999996422,2.497008e-05
526.4399999996422,3.342308e-05,526.4399999996422,5.239586e-05,526.4399999996422,2.783515e-05,526.4399999996422,2.374874e-05
526.4549999996422,3.236793e-05,526.4549999996422,4.826359e-05,526.4549999996422,2.677077e-05,526.4549999996422,2.360297e-05
526.4699999996421,3.178384e-05,526.4699999996421,4.734182e-05,526.4699999996421,2.600147e-05,526.4699999996421,2.314799e-05
526.4849999996421,3.142011e-05,526.4849999996421,4.735461e-05,526.4849999996421,2.417087e-05,526.4849999996421,2.350968e-05
526.4999999996421,3.144027e-05,526.4999999996421,4.692189e-05,526.4999999996421,2.284415e-05,526.4999999996421,2.44248e-05
526.5149999996421,3.114587e-05,526.5149999996421,4.331779e-05,526.5149999996421,2.201322e-05,526.5149999996421,3.081668e-05
526.5299999996421,2.871449e-05,526.5299999996421,4.236955e-05,526.5299999996421,2.216055e-05,526.5299999996421,3.139364e-05
526.5449999996421,2.672653e-05,526.5449999996421,3.309143e-05,526.5449999996421,2.164539e-05,526.5449999996421,3.387562e-05
526.5599999996421,2.672021e-05,526.5599999996421,3.358705e-05,526.5599999996421,2.184943e-05,526.5599999996421,3.421943e-05
526.574999999642,2.635447e-05,526.574999999642,3.86877e-05,526.574999999642,2.155736e-05,526.574999999642,3.468311e-05
526.589999999642,2.34076e-05,526.589999999642,4.465421e-05,526.589999999642,2.206882e-05,526.589999999642,3.465589e-05
526.604999999642,1.890224e-05,526.604999999642,6.237085e-05,526.604999999642,2.165711e-05,526.604999999642,3.333572e-05
526.619999999642,1.966059e-05,526.619999999642,6.836906e-05,526.619999999642,1.999521e-05,526.619999999642,3.403907e-05
526.634999999642,2.040111e-05,526.634999999642,7.648899e-05,526.634999999642,1.831942e-05,526.634999999642,3.397693e-05
526.649999999642,2.127055e-05,526.649999999642,9.035373e-05,526.649999999642,1.534697e-05,526.649999999642,3.258265e-05
526.664999999642,2.224557e-05,526.664999999642,9.334576e-05,526.664999999642,1.34876e-05,526.664999999642,3.360256e-05
526.679999999642,2.269071e-05,526.679999999642,0.0001009561,526.679999999642,1.368563e-05,526.679999999642,3.438288e-05
526.6949999996419,2.762739e-05,526.6949999996419,0.0001218144,526.6949999996419,1.414223e-05,526.6949999996419,3.550993e-05
526.7099999996419,3.23453e-05,526.7099999996419,0.0001318325,526.7099999996419,1.456328e-05,526.7099999996419,3.71406e-05
526.7249999996419,3.379027e-05,526.7249999996419,0.0001379495,526.7249999996419,1.558921e-05,526.7249999996419,3.706809e-05
526.7399999996419,3.389183e-05,526.7399999996419,0.0001433321,526.7399999996419,1.59748e-05,526.7399999996419,3.721032e-05
526.7549999996419,3.525993e-05,526.7549999996419,0.000145319,526.7549999996419,1.646891e-05,526.7549999996419,3.463027e-05
526.7699999996419,3.524914e-05,526.7699999996419,0.0001540643,526.7699999996419,1.648601e-05,526.7699999996419,3.143176e-05
526.7849999996419,3.602117e-05,526.7849999996419,0.0001552074,526.7849999996419,1.623546e-05,526.7849999996419,3.062225e-05
526.7999999996418,3.744807e-05,526.7999999996418,0.0001595252,526.7999999996418,1.635648e-05,526.7999999996418,2.86349e-05
526.8149999996418,3.870372e-05,526.8149999996418,0.000159359,526.8149999996418,1.66391e-05,526.8149999996418,2.840523e-05
526.8299999996418,3.898043e-05,526.8299999996418,0.0001580734,526.8299999996418,1.704724e-05,526.8299999996418,2.80464e-05
526.8449999996418,3.972606e-05,526.8449999996418,0.0001558502,526.8449999996418,1.619114e-05,526.8449999996418,2.834566e-05
526.8599999996418,4.031772e-05,526.8599999996418,0.0001500725,526.8599999996418,1.608378e-05,526.8599999996418,2.827052e-05
526.8749999996418,4.118228e-05,526.8749999996418,0.0001476359,526.8749999996418,1.607502e-05,526.8749999996418,2.573901e-05
526.8899999996418,4.235226e-05,526.8899999996418,0.0001425827,526.8899999996418,1.621549e-05,526.8899999996418,2.523606e-05
526.9049999996417,4.21589e-05,526.9049999996417,0.0001345356,526.9049999996417,1.585176e-05,526.9049999996417,2.760087e-05
526.9199999996417,4.151479e-05,526.9199999996417,0.0001332688,526.9199999996417,1.570714e-05,526.9199999996417,3.117435e-05
526.9349999996417,4.398995e-05,526.9349999996417,0.0001244335,526.9349999996417,1.588993e-05,526.9349999996417,3.431275e-05
526.9499999996417,3.978275e-05,526.9499999996417,0.0001051918,526.9499999996417,1.555846e-05,526.9499999996417,3.53505e-05
526.9649999996417,3.952199e-05,526.9649999996417,9.433067e-05,526.9649999996417,1.554487e-05,526.9649999996417,3.434968e-05
526.9799999996417,3.868188e-05,526.9799999996417,8.274593e-05,526.9799999996417,1.629694e-05,526.9799999996417,3.970796e-05
526.9949999996417,3.825674e-05,526.9949999996417,7.561641e-05,526.9949999996417,1.616154e-05,526.9949999996417,4.157447e-05
527.0099999996416,3.673905e-05,527.0099999996416,7.177886e-05,527.0099999996416,1.665179e-05,527.0099999996416,4.287719e-05
527.0249999996416,3.687568e-05,527.0249999996416,4.669015e-05,527.0249999996416,1.756011e-05,527.0249999996416,4.48704e-05
527.0399999996416,3.544203e-05,527.0399999996416,3.180688e-05,527.0399999996416,1.816265e-05,527.0399999996416,4.7379e-05
527.0549999996416,3.393711e-05,527.0549999996416,2.137163e-05,527.0549999996416,1.785288e-05,527.0549999996416,4.775923e-05
527.0699999996416,3.370595e-05,527.0699999996416,2.042595e-05,527.0699999996416,1.741026e-05,527.0699999996416,4.77893e-05
527.0849999996416,3.339862e-05,527.0849999996416,2.002477e-05,527.0849999996416,1.786944e-05,527.0849999996416,4.771261e-05
527.0999999996416,3.225327e-05,527.0999999996416,1.914438e-05,527.0999999996416,1.824854e-05,527.0999999996416,4.784675e-05
527.1149999996416,3.222224e-05,527.1149999996416,1.806155e-05,527.1149999996416,1.865393e-05,527.1149999996416,4.804008e-05
527.1299999996415,2.946268e-05,527.1299999996415,1.876161e-05,527.1299999996415,1.864714e-05,527.1299999996415,4.810367e-05
527.1449999996415,2.76177e-05,527.1449999996415,2.146568e-05,527.1449999996415,1.842523e-05,527.1449999996415,4.790236e-05
527.1599999996415,2.952811e-05,527.1599999996415,3.459527e-05,527.1599999996415,1.875861e-05,527.1599999996415,4.486601e-05
527.1749999996415,2.955529e-05,527.1749999996415,3.681068e-05,527.1749999996415,1.908174e-05,527.1749999996415,4.128648e-05
527.1899999996415,2.524667e-05,527.1899999996415,3.989625e-05,527.1899999996415,1.89149e-05,527.1899999996415,3.962131e-05
527.2049999996415,2.375586e-05,527.2049999996415,4.237354e-05,527.2049999996415,1.914512e-05,527.2049999996415,3.741457e-05
527.2199999996415,2.557485e-05,527.2199999996415,6.092511e-05,527.2199999996415,1.809661e-05,527.2199999996415,3.378485e-05
527.2349999996414,2.616242e-05,527.2349999996414,6.689503e-05,527.2349999996414,1.812461e-05,527.2349999996414,3.203283e-05
527.2499999996414,2.642173e-05,527.2499999996414,7.271806e-05,527.2499999996414,1.79967e-05,527.2499999996414,2.758249e-05
527.2649999996414,2.63737e-05,527.2649999996414,8.180477e-05,527.2649999996414,1.710334e-05,527.2649999996414,2.663255e-05
527.2799999996414,2.622104e-05,527.2799999996414,8.823683e-05,527.2799999996414,1.589702e-05,527.2799999996414,2.251746e-05
527.2949999996414,2.77921e-05,527.2949999996414,9.26172e-05,527.2949999996414,1.631249e-05,527.2949999996414,2.128114e-05
527.3099999996414,2.776776e-05,527.3099999996414,9.630291e-05,527.3099999996414,1.68419e-05,527.3099999996414,2.343707e-05
527.3249999996414,2.939711e-05,527.3249999996414,0.0001010551,527.3249999996414,1.691534e-05,527.3249999996414,2.298922e-05
527.3399999996413,3.139005e-05,527.3399999996413,0.0001014093,527.3399999996413,1.658398e-05,527.3399999996413,2.310291e-05
527.3549999996413,3.161319e-05,527.3549999996413,0.0001030832,527.3549999996413,1.767923e-05,527.3549999996413,2.443807e-05
527.3699999996413,3.191211e-05,527.3699999996413,0.0001036416,527.3699999996413,1.814558e-05,527.3699999996413,2.445766e-05
527.3849999996413,3.282987e-05,527.3849999996413,0.0001064969,527.3849999996413,1.82215e-05,527.3849999996413,2.417204e-05
527.3999999996413,3.329217e-05,527.3999999996413,0.000103823,527.3999999996413,1.868638e-05,527.3999999996413,2.485586e-05
527.4149999996413,3.270261e-05,527.4149999996413,0.0001026761,527.4149999996413,1.892161e-05,527.4149999996413,2.504275e-05
527.4299999996413,3.222924e-05,527.4299999996413,0.0001018805,527.4299999996413,1.842676e-05,527.4299999996413,3.36319e-05
527.4449999996413,3.200907e-05,527.4449999996413,0.0001007725,527.4449999996413,1.791353e-05,527.4449999996413,4.924538e-05
527.4599999996412,3.457287e-05,527.4599999996412,9.67403e-05,527.4599999996412,1.764254e-05,527.4599999996412,5.090594e-05
527.4749999996412,3.436649e-05,527.4749999996412,8.892605e-05,527.4749999996412,1.896696e-05,527.4749999996412,5.165395e-05
527.4899999996412,3.432999e-05,527.4899999996412,8.167949e-05,527.4899999996412,1.88358e-05,527.4899999996412,5.427944e-05
527.5049999996412,3.559235e-05,527.5049999996412,7.875422e-05,527.5049999996412,1.951026e-05,527.5049999996412,5.414823e-05
527.5199999996412,3.619633e-05,527.5199999996412,6.671876e-05,527.5199999996412,1.92559e-05,527.5199999996412,5.454687e-05
527.5349999996412,3.672831e-05,527.5349999996412,6.067326e-05,527.5349999996412,1.906697e-05,527.5349999996412,5.464775e-05
527.5499999996412,3.645615e-05,527.5499999996412,5.392586e-05,527.5499999996412,1.935805e-05,527.5499999996412,5.425816e-05
527.5649999996411,3.549565e-05,527.5649999996411,4.176985e-05,527.5649999996411,1.884103e-05,527.5649999996411,5.379902e-05
527.5799999996411,3.577867e-05,527.5799999996411,3.80807e-05,527.5799999996411,1.906032e-05,527.5799999996411,5.44018e-05
527.5949999996411,3.382776e-05,527.5949999996411,3.677086e-05,527.5949999996411,1.996065e-05,527.5949999996411,5.427088e-05
527.6099999996411,3.350306e-05,527.6099999996411,3.303135e-05,527.6099999996411,2.132544e-05,527.6099999996411,5.387176e-05
527.6249999996411,3.286075e-05,527.6249999996411,2.142627e-05,527.6249999996411,2.093814e-05,527.6249999996411,5.387333e-05
527.6399999996411,3.243315e-05,527.6399999996411,1.864487e-05,527.6399999996411,2.119159e-05,527.6399999996411,5.386104e-05
527.6549999996411,3.176611e-05,527.6549999996411,1.878637e-05,527.6549999996411,2.140259e-05,527.6549999996411,5.358336e-05
527.669999999641,3.138063e-05,527.669999999641,1.829018e-05,527.669999999641,2.092333e-05,527.669999999641,5.447969e-05
527.684999999641,3.282172e-05,527.684999999641,1.867733e-05,527.684999999641,2.114434e-05,527.684999999641,4.433572e-05
527.699999999641,3.277877e-05,527.699999999641,1.865016e-05,527.699999999641,2.118162e-05,527.699999999641,3.217587e-05
527.714999999641,2.991392e-05,527.714999999641,1.830481e-05,527.714999999641,2.124669e-05,527.714999999641,3.245008e-05
527.729999999641,2.894657e-05,527.729999999641,1.930193e-05,527.729999999641,2.041974e-05,527.729999999641,3.186307e-05
527.744999999641,2.90287e-05,527.744999999641,2.013841e-05,527.744999999641,2.01468e-05,527.744999999641,2.848397e-05
527.759999999641,2.896992e-05,527.759999999641,2.062224e-05,527.759999999641,2.025072e-05,527.759999999641,2.812865e-05
527.774999999641,2.774949e-05,527.774999999641,2.189709e-05,527.774999999641,2.02528e-05,527.774999999641,2.769156e-05
527.7899999996409,2.727227e-05,527.7899999996409,2.686794e-05,527.7899999996409,2.039006e-05,527.7899999996409,2.693706e-05
527.8049999996409,2.621352e-05,527.8049999996409,3.335347e-05,527.8049999996409,1.991473e-05,527.8049999996409,2.562822e-05
527.8199999996409,2.651699e-05,527.8199999996409,3.624727e-05,527.8199999996409,2.03361e-05,527.8199999996409,2.52383e-05
527.8349999996409,2.881439e-05,527.8349999996409,3.762295e-05,527.8349999996409,1.929974e-05,527.8349999996409,2.436648e-05
527.8499999996409,2.863195e-05,527.8499999996409,4.071547e-05,527.8499999996409,1.641665e-05,527.8499999996409,2.448241e-05
527.8649999996409,2.830985e-05,527.8649999996409,4.716355e-05,527.8649999996409,1.563162e-05,527.8649999996409,2.499432e-05
527.8799999996409,2.936786e-05,527.8799999996409,5.264262e-05,527.8799999996409,1.605134e-05,527.8799999996409,2.63288e-05
527.8949999996408,2.961956e-05,527.8949999996408,6.218605e-05,527.8949999996408,1.536256e-05,527.8949999996408,2.620707e-05
527.9099999996408,3.08112e-05,527.9099999996408,7.197582e-05,527.9099999996408,1.533044e-05,527.9099999996408,2.658119e-05
527.9249999996408,2.89529e-05,527.9249999996408,7.432178e-05,527.9249999996408,1.541017e-05,527.9249999996408,3.278307e-05
527.9399999996408,4.073968e-05,527.9399999996408,7.659776e-05,527.9399999996408,1.585975e-05,527.9399999996408,3.563744e-05
527.9549999996408,4.255897e-05,527.9549999996408,7.661155e-05,527.9549999996408,1.610041e-05,527.9549999996408,3.715653e-05
527.9699999996408,4.310949e-05,527.9699999996408,7.673281e-05,527.9699999996408,1.560998e-05,527.9699999996408,3.616284e-05
527.9849999996408,4.418263e-05,527.9849999996408,7.663104e-05,527.9849999996408,1.596245e-05,527.9849999996408,3.649978e-05
527.9999999996407,4.366597e-05,527.9999999996407,7.673482e-05,527.9999999996407,1.603114e-05,527.9999999996407,3.601022e-05
528.0149999996407,4.445186e-05,528.0149999996407,7.657275e-05,528.0149999996407,1.526321e-05,528.0149999996407,3.608602e-05
528.0299999996407,4.452658e-05,528.0299999996407,7.582179e-05,528.0299999996407,1.599948e-05,528.0299999996407,3.653681e-05
528.0449999996407,4.4828e-05,528.0449999996407,7.503256e-05,528.0449999996407,1.643209e-05,528.0449999996407,3.771905e-05
528.0599999996407,4.498391e-05,528.0599999996407,7.281659e-05,528.0599999996407,1.630386e-05,528.0599999996407,4.1653e-05
528.0749999996407,4.529753e-05,528.0749999996407,7.221732e-05,528.0749999996407,1.575639e-05,528.0749999996407,4.198815e-05
528.0899999996407,4.425462e-05,528.0899999996407,7.178161e-05,528.0899999996407,1.677989e-05,528.0899999996407,4.202202e-05
528.1049999996407,4.526269e-05,528.1049999996407,6.994038e-05,528.1049999996407,1.730883e-05,528.1049999996407,4.252188e-05
528.1199999996406,4.508026e-05,528.1199999996406,6.632913e-05,528.1199999996406,1.756011e-05,528.1199999996406,4.872603e-05
528.1349999996406,4.5277e-05,528.1349999996406,6.21244e-05,528.1349999996406,1.747487e-05,528.1349999996406,5.218978e-05
528.1499999996406,4.650181e-05,528.1499999996406,4.84285e-05,528.1499999996406,1.78363e-05,528.1499999996406,5.375501e-05
528.1649999996406,4.634919e-05,528.1649999996406,3.966679e-05,528.1649999996406,1.78789e-05,528.1649999996406,5.240876e-05
528.1799999996406,4.619393e-05,528.1799999996406,3.444306e-05,528.1799999996406,1.762417e-05,528.1799999996406,4.956188e-05
528.1949999996406,3.628379e-05,528.1949999996406,3.017134e-05,528.1949999996406,1.747165e-05,528.1949999996406,4.977374e-05
528.2099999996406,3.473506e-05,528.2099999996406,3.029435e-05,528.2099999996406,1.815179e-05,528.2099999996406,4.871446e-05
528.2249999996405,3.387354e-05,528.2249999996405,3.054441e-05,528.2249999996405,1.764095e-05,528.2249999996405,4.800841e-05
528.2399999996405,3.204997e-05,528.2399999996405,3.014284e-05,528.2399999996405,1.739164e-05,528.2399999996405,5.102396e-05
528.2549999996405,3.275039e-05,528.2549999996405,3.012929e-05,528.2549999996405,1.762017e-05,528.2549999996405,5.531033e-05
528.2699999996405,3.155789e-05,528.2699999996405,3.149623e-05,528.2699999996405,1.756573e-05,528.2699999996405,5.593789e-05
528.2849999996405,3.194476e-05,528.2849999996405,3.085688e-05,528.2849999996405,1.691867e-05,528.2849999996405,5.845324e-05
528.2999999996405,3.097626e-05,528.2999999996405,3.072467e-05,528.2999999996405,1.70555e-05,528.2999999996405,5.712844e-05
528.3149999996405,3.100535e-05,528.3149999996405,3.002109e-05,528.3149999996405,1.764015e-05,528.3149999996405,5.539025e-05
528.3299999996404,2.988424e-05,528.3299999996404,3.029528e-05,528.3299999996404,1.698266e-05,528.3299999996404,5.513024e-05
528.3449999996404,2.920625e-05,528.3449999996404,2.635233e-05,528.3449999996404,1.698017e-05,528.3449999996404,5.502742e-05
528.3599999996404,2.73656e-05,528.3599999996404,2.875224e-05,528.3599999996404,1.646549e-05,528.3599999996404,5.383776e-05
528.3749999996404,2.68018e-05,528.3749999996404,2.861473e-05,528.3749999996404,1.560818e-05,528.3749999996404,4.641236e-05
528.3899999996404,2.370599e-05,528.3899999996404,3.057898e-05,528.3899999996404,1.604783e-05,528.3899999996404,4.491465e-05
528.4049999996404,2.194849e-05,528.4049999996404,3.0721e-05,528.4049999996404,1.562621e-05,528.4049999996404,4.395215e-05
528.4199999996404,2.032432e-05,528.4199999996404,3.571996e-05,528.4199999996404,1.524844e-05,528.4199999996404,4.422183e-05
528.4349999996404,2.077944e-05,528.4349999996404,4.231432e-05,528.4349999996404,1.688283e-05,528.4349999996404,4.052299e-05
528.4499999996403,2.101135e-05,528.4499999996403,4.314934e-05,528.4499999996403,1.687532e-05,528.4499999996403,4.004568e-05
528.4649999996403,2.080451e-05,528.4649999996403,4.979326e-05,528.4649999996403,1.660435e-05,528.4649999996403,4.082568e-05
528.4799999996403,1.997406e-05,528.4799999996403,5.652508e-05,528.4799999996403,1.771267e-05,528.4799999996403,4.007381e-05
528.4949999996403,1.96527e-05,528.4949999996403,6.21405e-05,528.4949999996403,1.808882e-05,528.4949999996403,3.380777e-05
528.5099999996403,2.026949e-05,528.5099999996403,7.363591e-05,528.5099999996403,1.847104e-05,528.5099999996403,2.964286e-05
528.5249999996403,2.371669e-05,528.5249999996403,7.687733e-05,528.5249999996403,1.834017e-05,528.5249999996403,2.712103e-05
528.5399999996403,2.646967e-05,528.5399999996403,7.673593e-05,528.5399999996403,1.875635e-05,528.5399999996403,2.219548e-05
528.5549999996402,2.878015e-05,528.5549999996402,7.760264e-05,528.5549999996402,1.863202e-05,528.5549999996402,2.228226e-05
528.5699999996402,2.93237e-05,528.5699999996402,8.3955e-05,528.5699999996402,1.906475e-05,528.5699999996402,2.209562e-05
528.5849999996402,3.261117e-05,528.5849999996402,8.460051e-05,528.5849999996402,1.896028e-05,528.5849999996402,2.187005e-05
528.5999999996402,3.339694e-05,528.5999999996402,8.501146e-05,528.5999999996402,1.879912e-05,528.5999999996402,2.172529e-05
528.6149999996402,3.391302e-05,528.6149999996402,8.533463e-05,528.6149999996402,1.916056e-05,528.6149999996402,2.161413e-05
528.6299999996402,3.431439e-05,528.6299999996402,8.828471e-05,528.6299999996402,1.954489e-05,528.6299999996402,2.152466e-05
528.6449999996402,3.511621e-05,528.6449999996402,9.020643e-05,528.6449999996402,1.928952e-05,528.6449999996402,2.126392e-05
528.6599999996401,3.667996e-05,528.6599999996401,9.073117e-05,528.6599999996401,1.90677e-05,528.6599999996401,2.193309e-05
528.6749999996401,3.731127e-05,528.6749999996401,8.906834e-05,528.6749999996401,1.833556e-05,528.6749999996401,2.658172e-05
528.6899999996401,3.69802e-05,528.6899999996401,8.841689e-05,528.6899999996401,1.774921e-05,528.6899999996401,2.75927e-05
528.7049999996401,3.682599e-05,528.7049999996401,8.742303e-05,528.7049999996401,2.010901e-05,528.7049999996401,2.843398e-05
528.7199999996401,3.677661e-05,528.7199999996401,8.210985e-05,528.7199999996401,2.240394e-05,528.7199999996401,2.805845e-05
528.7349999996401,3.670376e-05,528.7349999996401,7.892164e-05,528.7349999996401,2.278859e-05,528.7349999996401,2.720194e-05
528.7499999996401,3.667612e-05,528.7499999996401,7.356528e-05,528.7499999996401,2.2846e-05,528.7499999996401,2.888568e-05
528.76499999964,3.579481e-05,528.76499999964,6.298172e-05,528.76499999964,2.232773e-05,528.76499999964,4.006783e-05
528.77999999964,3.172306e-05,528.77999999964,5.97951e-05,528.77999999964,2.252122e-05,528.77999999964,5.015239e-05
528.79499999964,2.852351e-05,528.79499999964,5.946911e-05,528.79499999964,2.222529e-05,528.79499999964,5.035142e-05
528.80999999964,2.735376e-05,528.80999999964,5.126221e-05,528.80999999964,2.233152e-05,528.80999999964,5.135693e-05
528.82499999964,2.725471e-05,528.82499999964,4.836214e-05,528.82499999964,2.216119e-05,528.82499999964,5.29436e-05
528.83999999964,2.33799e-05,528.83999999964,4.69363e-05,528.83999999964,2.284723e-05,528.83999999964,5.388248e-05
528.85499999964,2.185137e-05,528.85499999964,4.539073e-05,528.85499999964,2.464185e-05,528.85499999964,5.394989e-05
528.86999999964,2.117696e-05,528.86999999964,4.169458e-05,528.86999999964,2.471035e-05,528.86999999964,5.381918e-05
528.88499999964,2.037554e-05,528.88499999964,3.483428e-05,528.88499999964,2.47525e-05,528.88499999964,5.376942e-05
528.8999999996399,1.791904e-05,528.8999999996399,3.04807e-05,528.8999999996399,2.520423e-05,528.8999999996399,5.391829e-05
528.9149999996399,1.433515e-05,528.9149999996399,2.750782e-05,528.9149999996399,2.560182e-05,528.9149999996399,5.257835e-05
528.9299999996399,1.376978e-05,528.9299999996399,2.354202e-05,528.9299999996399,2.650371e-05,528.9299999996399,5.040706e-05
528.9449999996399,1.342899e-05,528.9449999996399,1.837853e-05,528.9449999996399,2.626184e-05,528.9449999996399,4.985603e-05
528.9599999996399,1.310407e-05,528.9599999996399,1.807324e-05,528.9599999996399,2.490681e-05,528.9599999996399,4.950642e-05
528.9749999996399,1.290039e-05,528.9749999996399,2.991156e-05,528.9749999996399,2.34827e-05,528.9749999996399,4.955591e-05
528.9899999996398,1.234805e-05,528.9899999996398,3.187236e-05,528.9899999996398,2.295611e-05,528.9899999996398,4.948906e-05
529.0049999996398,1.157795e-05,529.0049999996398,3.228732e-05,529.0049999996398,2.3084e-05,529.0049999996398,4.767185e-05
529.0199999996398,1.101684e-05,529.0199999996398,3.343193e-05,529.0199999996398,2.302106e-05,529.0199999996398,3.363064e-05
529.0349999996398,1.092052e-05,529.0349999996398,3.494208e-05,529.0349999996398,2.305163e-05,529.0349999996398,2.710181e-05
529.0499999996398,1.113133e-05,529.0499999996398,3.781938e-05,529.0499999996398,2.360178e-05,529.0499999996398,2.654248e-05
529.0649999996398,1.221154e-05,529.0649999996398,3.8652e-05,529.0649999996398,2.331474e-05,529.0649999996398,2.596786e-05
529.0799999996398,1.262891e-05,529.0799999996398,3.831965e-05,529.0799999996398,2.364054e-05,529.0799999996398,2.270747e-05
529.0949999996398,1.691201e-05,529.0949999996398,3.878843e-05,529.0949999996398,2.182879e-05,529.0949999996398,2.19318e-05
529.1099999996397,1.732266e-05,529.1099999996397,3.996363e-05,529.1099999996397,2.132478e-05,529.1099999996397,2.369886e-05
529.1249999996397,1.8158e-05,529.1249999996397,4.006467e-05,529.1249999996397,2.226455e-05,529.1249999996397,2.875175e-05
529.1399999996397,1.819133e-05,529.1399999996397,4.082189e-05,529.1399999996397,2.326877e-05,529.1399999996397,2.880412e-05
529.1549999996397,1.840611e-05,529.1549999996397,4.185811e-05,529.1549999996397,2.354202e-05,529.1549999996397,3.003282e-05
529.1699999996397,1.904109e-05,529.1699999996397,4.236323e-05,529.1699999996397,2.334312e-05,529.1699999996397,3.032084e-05
529.1849999996397,1.974281e-05,529.1849999996397,4.313203e-05,529.1849999996397,2.245231e-05,529.1849999996397,3.034406e-05
529.1999999996397,1.986232e-05,529.1999999996397,4.320317e-05,529.1999999996397,2.192088e-05,529.1999999996397,3.004642e-05
529.2149999996396,1.987154e-05,529.2149999996396,4.264263e-05,529.2149999996396,2.141443e-05,529.2149999996396,3.008859e-05
529.2299999996396,2.022566e-05,529.2299999996396,3.554007e-05,529.2299999996396,2.101269e-05,529.2299999996396,3.016107e-05
529.2449999996396,2.059148e-05,529.2449999996396,3.353332e-05,529.2449999996396,2.120687e-05,529.2449999996396,3.041176e-05
529.2599999996396,2.105822e-05,529.2599999996396,3.312121e-05,529.2599999996396,2.123144e-05,529.2599999996396,3.044186e-05
529.2749999996396,2.113768e-05,529.2749999996396,3.109518e-05,529.2749999996396,2.126458e-05,529.2749999996396,2.898402e-05
529.2899999996396,2.12394e-05,529.2899999996396,3.005158e-05,529.2899999996396,2.019778e-05,529.2899999996396,2.832329e-05
529.3049999996396,2.054011e-05,529.3049999996396,2.57412e-05,529.3049999996396,2.082751e-05,529.3049999996396,2.828197e-05
529.3199999996395,2.037139e-05,529.3199999996395,2.457774e-05,529.3199999996395,2.035272e-05,529.3199999996395,2.72516e-05
529.3349999996395,2.03631e-05,529.3349999996395,2.459321e-05,529.3349999996395,2.087683e-05,529.3349999996395,2.660185e-05
529.3499999996395,1.753442e-05,529.3499999996395,2.410434e-05,529.3499999996395,2.106959e-05,529.3499999996395,2.650371e-05
529.3649999996395,1.732835e-05,529.3649999996395,2.264223e-05,529.3649999996395,2.079435e-05,529.3649999996395,2.364769e-05
529.3799999996395,1.709757e-05,529.3799999996395,2.290696e-05,529.3799999996395,1.876161e-05,529.3799999996395,1.884701e-05
529.3949999996395,1.727624e-05,529.3949999996395,2.20081e-05,529.3949999996395,1.771028e-05,529.3949999996395,1.705302e-05
529.4099999996395,1.758416e-05,529.4099999996395,1.959959e-05,529.4099999996395,1.740784e-05,529.4099999996395,1.510736e-05
529.4249999996395,1.811295e-05,529.4249999996395,1.924053e-05,529.4249999996395,1.752799e-05,529.4249999996395,1.471627e-05
529.4399999996394,1.721089e-05,529.4399999996394,1.903813e-05,529.4399999996394,1.758496e-05,529.4399999996394,1.449444e-05
529.4549999996394,1.66391e-05,529.4549999996394,1.996065e-05,529.4549999996394,1.757695e-05,529.4549999996394,1.450707e-05
529.4699999996394,1.650138e-05,529.4699999996394,2.023123e-05,529.4699999996394,1.805296e-05,529.4699999996394,1.43842e-05
529.4849999996394,1.602059e-05,529.4849999996394,2.099458e-05,529.4849999996394,1.690868e-05,529.4849999996394,1.341534e-05
529.4999999996394,1.598891e-05,529.4999999996394,2.082346e-05,529.4999999996394,1.839079e-05,529.4999999996394,1.323563e-05
529.5149999996394,1.639948e-05,529.5149999996394,2.090448e-05,529.5149999996394,1.819597e-05,529.5149999996394,1.251687e-05
529.5299999996394,1.699013e-05,529.5299999996394,2.106291e-05,529.5299999996394,1.821068e-05,529.5299999996394,1.191848e-05
529.5449999996393,1.644323e-05,529.5449999996393,2.076452e-05,529.5449999996393,1.900555e-05,529.5449999996393,1.14014e-05
529.5599999996393,1.632889e-05,529.5599999996393,2.071698e-05,529.5599999996393,1.791825e-05,529.5599999996393,1.169778e-05
529.5749999996393,1.613799e-05,529.5749999996393,2.304002e-05,529.5749999996393,1.830711e-05,529.5749999996393,1.126092e-05
529.5899999996393,1.665687e-05,529.5899999996393,2.459779e-05,529.5899999996393,1.736895e-05,529.5899999996393,1.129465e-05
529.6049999996393,1.597128e-05,529.6049999996393,2.83963e-05,529.6049999996393,1.710334e-05,529.6049999996393,1.124966e-05
529.6199999996393,1.520403e-05,529.6199999996393,3.165994e-05,529.6199999996393,1.721007e-05,529.6199999996393,1.141375e-05
529.6349999996393,1.49131e-05,529.6349999996393,3.455698e-05,529.6349999996393,1.71896e-05,529.6349999996393,1.139646e-05
529.6499999996392,1.467409e-05,529.6499999996392,4.056364e-05,529.6499999996392,1.720844e-05,529.6499999996392,1.154749e-05
529.6649999996392,1.374828e-05,529.6649999996392,4.942013e-05,529.6649999996392,1.713378e-05,529.6649999996392,1.377387e-05
529.6799999996392,1.243671e-05,529.6799999996392,5.219329e-05,529.6799999996392,1.728603e-05,529.6799999996392,1.48639e-05
529.6949999996392,1.242198e-05,529.6949999996392,5.688579e-05,529.6949999996392,1.707201e-05,529.6949999996392,1.47755e-05
529.7099999996392,1.25225e-05,529.7099999996392,5.837173e-05,529.7099999996392,1.716582e-05,529.7099999996392,1.587219e-05
529.7249999996392,1.452357e-05,529.7249999996392,7.142829e-05,529.7249999996392,1.606274e-05,529.7249999996392,1.773016e-05
529.7399999996392,1.50279e-05,529.7399999996392,7.391754e-05,529.7399999996392,1.621636e-05,529.7399999996392,1.918995e-05
529.7549999996392,1.457295e-05,529.7549999996392,8.053913e-05,529.7549999996392,1.492349e-05,529.7549999996392,2.017056e-05
529.7699999996391,1.422169e-05,529.7699999996391,8.555439e-05,529.7699999996391,1.503821e-05,529.7699999996391,2.014261e-05
529.7849999996391,1.377489e-05,529.7849999996391,9.527955e-05,529.7849999996391,1.467889e-05,529.7849999996391,2.016707e-05
529.7999999996391,1.44672e-05,529.7999999996391,0.0001054817,529.7999999996391,1.436166e-05,529.7999999996391,2.016847e-05
529.8149999996391,1.544122e-05,529.8149999996391,0.000111556,529.8149999996391,1.549586e-05,529.8149999996391,1.996489e-05
529.8299999996391,1.529824e-05,529.8299999996391,0.0001164349,529.8299999996391,1.469903e-05,529.8299999996391,1.967204e-05
529.8449999996391,1.710992e-05,529.8449999996391,0.0001268569,529.8449999996391,1.734947e-05,529.8449999996391,2.005219e-05
529.8599999996391,1.809894e-05,529.8599999996391,0.0001312144,529.8599999996391,1.772777e-05,529.8599999996391,1.988287e-05
529.874999999639,1.945748e-05,529.874999999639,0.0001430956,529.874999999639,1.756091e-05,529.874999999639,1.981688e-05
529.889999999639,1.954201e-05,529.889999999639,0.0001543794,529.889999999639,1.909723e-05,529.889999999639,1.942705e-05
529.904999999639,1.971139e-05,529.904999999639,0.0001579329,529.904999999639,1.903369e-05,529.904999999639,1.907804e-05
529.919999999639,2.065364e-05,529.919999999639,0.0001569101,529.919999999639,1.867884e-05,529.919999999639,1.820449e-05
529.934999999639,2.065705e-05,529.934999999639,0.0001614478,529.934999999639,1.917159e-05,529.934999999639,1.769755e-05
529.949999999639,2.072445e-05,529.949999999639,0.0001628548,529.949999999639,1.935222e-05,529.949999999639,1.768879e-05
529.964999999639,1.953696e-05,529.964999999639,0.0001629705,529.964999999639,1.910313e-05,529.964999999639,1.638143e-05
529.979999999639,1.884327e-05,529.979999999639,0.0001587781,529.979999999639,1.906475e-05,529.979999999639,1.42098e-05
529.9949999996389,1.890373e-05,529.9949999996389,0.0001614787,529.9949999996389,1.833172e-05,529.9949999996389,1.187467e-05
530.0099999996389,1.907213e-05,530.0099999996389,0.0001649342,530.0099999996389,1.852207e-05,530.0099999996389,1.226678e-05
530.0249999996389,1.926248e-05,530.0249999996389,0.0001640613,530.0249999996389,1.865469e-05,530.0249999996389,1.215836e-05
530.0399999996389,1.958737e-05,530.0399999996389,0.0001594163,530.0399999996389,1.876837e-05,530.0399999996389,1.245143e-05
530.0549999996389,1.968278e-05,530.0549999996389,0.0001548467,530.0549999996389,1.810906e-05,530.0549999996389,1.229087e-05
530.0699999996389,1.965629e-05,530.0699999996389,0.0001507962,530.0699999996389,1.778014e-05,530.0699999996389,1.235033e-05
530.0849999996389,1.922149e-05,530.0849999996389,0.0001494912,530.0849999996389,1.734135e-05,530.0849999996389,1.202438e-05
530.0999999996388,1.829865e-05,530.0999999996388,0.0001465444,530.0999999996388,1.673449e-05,530.0999999996388,1.188889e-05
530.1149999996388,1.720434e-05,530.1149999996388,0.0001490008,530.1149999996388,1.674796e-05,530.1149999996388,1.211076e-05
530.1299999996388,1.698349e-05,530.1299999996388,0.0001338929,530.1299999996388,1.754005e-05,530.1299999996388,1.2134e-05
530.1449999996388,1.704558e-05,530.1449999996388,0.0001339213,530.1449999996388,1.707366e-05,530.1449999996388,1.324202e-05
530.1599999996388,1.722971e-05,530.1599999996388,0.0001386665,530.1599999996388,1.700504e-05,530.1599999996388,1.26356e-05
530.1749999996388,1.648686e-05,530.1749999996388,0.0001403736,530.1749999996388,1.695443e-05,530.1749999996388,1.263114e-05
530.1899999996388,1.796849e-05,530.1899999996388,0.0001634792,530.1899999996388,1.720762e-05,530.1899999996388,1.286321e-05
530.2049999996387,1.850381e-05,530.2049999996387,0.0001621073,530.2049999996387,1.850685e-05,530.2049999996387,1.290148e-05
530.2199999996387,1.845044e-05,530.2199999996387,0.0001855465,530.2199999996387,1.903665e-05,530.2199999996387,1.292766e-05
530.2349999996387,1.877212e-05,530.2349999996387,0.000187519,530.2349999996387,1.980123e-05,530.2349999996387,1.264675e-05
530.2499999996387,1.848324e-05,530.2499999996387,0.0001953446,530.2499999996387,2.044318e-05,530.2499999996387,1.118057e-05
530.2649999996387,1.886195e-05,530.2649999996387,0.0001968414,530.2649999996387,2.036794e-05,530.2649999996387,1.115408e-05
530.2799999996387,2.190159e-05,530.2799999996387,0.0002117528,530.2799999996387,2.040594e-05,530.2799999996387,1.125967e-05
530.2949999996387,2.157695e-05,530.2949999996387,0.0002149775,530.2949999996387,2.044663e-05,530.2949999996387,1.095658e-05
530.3099999996386,2.223733e-05,530.3099999996386,0.0002192697,530.3099999996386,2.076723e-05,530.3099999996386,1.13779e-05
530.3249999996386,2.192281e-05,530.3249999996386,0.0002214073,530.3249999996386,2.099659e-05,530.3249999996386,1.141375e-05
530.3399999996386,2.221769e-05,530.3399999996386,0.0002181436,530.3399999996386,2.082413e-05,530.3399999996386,1.147529e-05
530.3549999996386,2.236808e-05,530.3549999996386,0.0002155176,530.3549999996386,1.983748e-05,530.3549999996386,1.070426e-05
530.3699999996386,2.298432e-05,530.3699999996386,0.0002226476,530.3699999996386,2.019429e-05,530.3699999996386,1.101301e-05
530.3849999996386,2.385763e-05,530.3849999996386,0.000217557,530.3849999996386,1.934713e-05,530.3849999996386,1.016562e-05
530.3999999996386,2.455652e-05,530.3999999996386,0.0002162178,530.3999999996386,1.950304e-05,530.3999999996386,1.008633e-05
530.4149999996386,2.481332e-05,530.4149999996386,0.000209898,530.4149999996386,1.945531e-05,530.4149999996386,1.020021e-05
530.4299999996385,2.467098e-05,530.4299999996385,0.0002097608,530.4299999996385,1.928222e-05,530.4299999996385,1.006536e-05
530.4449999996385,2.459664e-05,530.4449999996385,0.0001938638,530.4449999996385,1.732266e-05,530.4449999996385,9.96691e-06
530.4599999996385,2.444959e-05,530.4599999996385,0.0001912171,530.4599999996385,1.694446e-05,530.4599999996385,9.925839e-06
530.4749999996385,2.47075e-05,530.4749999996385,0.0001743356,530.4749999996385,1.692117e-05,530.4749999996385,1.077901e-05
530.4899999996385,2.446342e-05,530.4899999996385,0.0001680536,530.4899999996385,1.588549e-05,530.4899999996385,1.125341e-05
530.5049999996385,2.494468e-05,530.5049999996385,0.0001587006,530.5049999996385,1.548676e-05,530.5049999996385,1.154627e-05
530.5199999996385,2.536746e-05,530.5199999996385,0.0001567909,530.5199999996385,1.488947e-05,530.5199999996385,1.149369e-05
530.5349999996384,2.324454e-05,530.5349999996384,0.0001419566,530.5349999996384,1.503727e-05,530.5349999996384,1.147406e-05
530.5499999996384,2.402004e-05,530.5499999996384,0.0001388101,530.5499999996384,1.490271e-05,530.5499999996384,1.151573e-05
530.5649999996384,2.338171e-05,530.5649999996384,0.0001407716,530.5649999996384,1.621549e-05,530.5649999996384,1.154139e-05
530.5799999996384,2.385527e-05,530.5799999996384,0.000138952,530.5799999996384,1.721007e-05,530.5799999996384,1.173865e-05
530.5949999996384,2.335036e-05,530.5949999996384,0.0001459196,530.5949999996384,1.724523e-05,530.5949999996384,1.172424e-05
530.6099999996384,2.273103e-05,530.6099999996384,0.0001446834,530.6099999996384,1.668982e-05,530.6099999996384,1.227597e-05
530.6249999996384,2.226455e-05,530.6249999996384,0.000132099,530.6249999996384,1.607063e-05,530.6249999996384,1.199975e-05
530.6399999996383,2.08775e-05,530.6399999996383,0.0001322617,530.6399999996383,1.686029e-05,530.6399999996383,1.236856e-05
530.6549999996383,2.163823e-05,530.6549999996383,0.0001333454,530.6549999996383,1.676057e-05,530.6549999996383,1.224494e-05
530.6699999996383,2.099928e-05,530.6699999996383,0.0001312291,530.6699999996383,1.698349e-05,530.6699999996383,1.207232e-05
530.6849999996383,2.029657e-05,530.6849999996383,0.000124524,530.6849999996383,1.763056e-05,530.6849999996383,1.2884e-05
530.6999999996383,2.069725e-05,530.6999999996383,0.0001297352,530.6999999996383,1.784025e-05,530.6999999996383,1.403224e-05
530.7149999996383,2.121219e-05,530.7149999996383,0.0001284553,530.7149999996383,1.842752e-05,530.7149999996383,1.349804e-05
530.7299999996383,2.148995e-05,530.7299999996383,0.0001286356,530.7299999996383,1.857144e-05,530.7299999996383,1.319833e-05
530.7449999996383,2.174409e-05,530.7449999996383,0.0001282206,530.7449999996383,1.852663e-05,530.7449999996383,1.286759e-05
530.7599999996382,2.064546e-05,530.7599999996382,0.0001308056,530.7599999996382,1.901962e-05,530.7599999996382,1.252025e-05
530.7749999996382,1.958449e-05,530.7749999996382,0.0001182312,530.7749999996382,1.926102e-05,530.7749999996382,1.248081e-05
530.7899999996382,1.808493e-05,530.7899999996382,0.000131702,530.7899999996382,1.95665e-05,530.7899999996382,1.279623e-05
530.8049999996382,1.810595e-05,530.8049999996382,0.0001327182,530.8049999996382,1.91105e-05,530.8049999996382,1.261217e-05
530.8199999996382,1.839386e-05,530.8199999996382,0.000127185,530.8199999996382,1.826629e-05,530.8199999996382,1.215372e-05
530.8349999996382,1.758656e-05,530.8349999996382,0.0001233199,530.8349999996382,1.777856e-05,530.8349999996382,1.257862e-05
530.8499999996382,1.752799e-05,530.8499999996382,0.0001209245,530.8499999996382,1.797477e-05,530.8499999996382,1.261664e-05
530.8649999996381,1.839386e-05,530.8649999996381,0.0001333443,530.8649999996381,1.822923e-05,530.8649999996381,1.21514e-05
530.8799999996381,1.79151e-05,530.8799999996381,0.0001345466,530.8799999996381,1.762097e-05,530.8799999996381,1.2397e-05
530.8949999996381,1.899739e-05,530.8949999996381,0.0001424333,530.8949999996381,1.702491e-05,530.8949999996381,1.159983e-05
530.9099999996381,1.746197e-05,530.9099999996381,0.0001443262,530.9099999996381,1.732185e-05,530.9099999996381,1.178297e-05
530.9249999996381,1.732835e-05,530.9249999996381,0.0001468428,530.9249999996381,1.733729e-05,530.9249999996381,1.204779e-05
530.9399999996381,1.724278e-05,530.9399999996381,0.0001560189,530.9399999996381,1.853348e-05,530.9399999996381,1.159254e-05
530.9549999996381,1.635217e-05,530.9549999996381,0.0001536971,530.9549999996381,1.974281e-05,530.9549999996381,1.094114e-05
530.969999999638,1.580013e-05,530.969999999638,0.00015158,530.969999999638,2.033818e-05,530.969999999638,1.0972e-05
530.984999999638,1.658823e-05,530.984999999638,0.000153419,530.984999999638,2.088358e-05,530.984999999638,1.125717e-05
530.999999999638,1.68193e-05,530.999999999638,0.0001520994,530.999999999638,2.085455e-05,530.999999999638,1.159254e-05
531.014999999638,1.687949e-05,531.014999999638,0.0001571899,531.014999999638,2.030698e-05,531.014999999638,1.15816e-05
531.029999999638,1.698432e-05,531.029999999638,0.0001683282,531.029999999638,1.99423e-05,531.029999999638,1.156456e-05
531.044999999638,1.910903e-05,531.044999999638,0.0001555144,531.044999999638,1.985381e-05,531.044999999638,1.146915e-05
531.059999999638,1.889628e-05,531.059999999638,0.000154653,531.059999999638,1.979198e-05,531.059999999638,1.14802e-05
531.074999999638,1.921855e-05,531.074999999638,0.0001694814,531.074999999638,1.927856e-05,531.074999999638,1.243218e-05
531.0899999996379,2.082143e-05,531.0899999996379,0.0001747784,531.0899999996379,1.943938e-05,531.0899999996379,1.197508e-05
531.1049999996379,2.09267e-05,531.1049999996379,0.0001719931,531.1049999996379,2.02361e-05,531.1049999996379,1.218729e-05
531.1199999996379,2.029519e-05,531.1199999996379,0.0001639452,531.1199999996379,2.075027e-05,531.1199999996379,1.232064e-05
531.1349999996379,2.038038e-05,531.1349999996379,0.0001610996,531.1349999996379,2.110366e-05,531.1349999996379,1.232064e-05
531.1499999996379,2.036932e-05,531.1499999996379,0.0001569771,531.1499999996379,2.040387e-05,531.1499999996379,1.321859e-05
531.1649999996379,2.057232e-05,531.1649999996379,0.0001711709,531.1649999996379,2.055314e-05,531.1649999996379,1.319406e-05
531.1799999996379,2.015799e-05,531.1799999996379,0.0001673478,531.1799999996379,2.04294e-05,531.1799999996379,1.300913e-05
531.1949999996378,2.071902e-05,531.1949999996378,0.0001665546,531.1949999996378,1.850305e-05,531.1949999996378,1.270786e-05
531.2099999996378,2.192152e-05,531.2099999996378,0.0001788556,531.2099999996378,1.708191e-05,531.2099999996378,1.207932e-05
531.2249999996378,2.599659e-05,531.2249999996378,0.0001782271,531.2249999996378,1.738597e-05,531.2249999996378,1.256293e-05
531.2399999996378,2.612793e-05,531.2399999996378,0.0001765677,531.2399999996378,1.728847e-05,531.2399999996378,1.211541e-05
531.2549999996378,2.636836e-05,531.2549999996378,0.0001767266,531.2549999996378,1.819752e-05,531.2549999996378,1.268456e-05
531.2699999996378,2.933475e-05,531.2699999996378,0.000177721,531.2699999996378,1.882158e-05,531.2699999996378,1.285006e-05
531.2849999996378,3.355768e-05,531.2849999996378,0.0001990925,531.2849999996378,1.941545e-05,531.2849999996378,1.673281e-05
531.2999999996377,3.513867e-05,531.2999999996377,0.000211791,531.2999999996377,2.1103e-05,531.2999999996377,1.743937e-05
531.3149999996377,3.509735e-05,531.3149999996377,0.0002184309,531.3149999996377,2.198569e-05,531.3149999996377,2.106023e-05
531.3299999996377,3.499687e-05,531.3299999996377,0.0002123747,531.3299999996377,2.49379e-05,531.3299999996377,2.20113e-05
531.3449999996377,3.660114e-05,531.3449999996377,0.0002125107,531.3449999996377,2.457028e-05,531.3449999996377,2.20209e-05
531.3599999996377,3.696687e-05,531.3599999996377,0.0002117542,531.3599999996377,2.405754e-05,531.3599999996377,2.222022e-05
531.3749999996377,3.701409e-05,531.3749999996377,0.000216221,531.3749999996377,2.329721e-05,531.3749999996377,2.234728e-05
531.3899999996377,3.723833e-05,531.3899999996377,0.000216839,531.3899999996377,2.366436e-05,531.3899999996377,2.238696e-05
531.4049999996377,3.822985e-05,531.4049999996377,0.0002142963,531.4049999996377,2.379792e-05,531.4049999996377,2.182556e-05
531.4199999996376,3.95804e-05,531.4199999996376,0.0002034527,531.4199999996376,2.38777e-05,531.4199999996376,2.182556e-05
531.4349999996376,4.001717e-05,531.4349999996376,0.0002002093,531.4349999996376,2.435897e-05,531.4349999996376,2.1978e-05
531.4499999996376,3.978523e-05,531.4499999996376,0.0001921449,531.4499999996376,2.446975e-05,531.4499999996376,2.210518e-05
531.4649999996376,3.837145e-05,531.4649999996376,0.0001834486,531.4649999996376,2.326272e-05,531.4649999996376,2.174409e-05
531.4799999996376,3.71876e-05,531.4799999996376,0.0001846583,531.4799999996376,2.328148e-05,531.4799999996376,2.217771e-05
531.4949999996376,3.859219e-05,531.4949999996376,0.0001952069,531.4949999996376,2.351268e-05,531.4949999996376,2.310962e-05
531.5099999996376,3.842575e-05,531.5099999996376,0.0001985776,531.5099999996376,2.307668e-05,531.5099999996376,2.285895e-05
531.5249999996375,3.577158e-05,531.5249999996375,0.0001754921,531.5249999996375,2.237248e-05,531.5249999996375,2.240332e-05
531.5399999996375,3.161676e-05,531.5399999996375,0.000158972,531.5399999996375,2.240772e-05,531.5399999996375,1.910239e-05
531.5549999996375,3.04025e-05,531.5549999996375,0.0001437622,531.5549999996375,1.961898e-05,531.5549999996375,1.876837e-05
531.5699999996375,3.05255e-05,531.5699999996375,0.0001206166,531.5699999996375,1.910682e-05,531.5699999996375,1.511016e-05
531.5849999996375,2.87586e-05,531.5849999996375,0.0001187306,531.5849999996375,1.572775e-05,531.5849999996375,1.435773e-05
531.5999999996375,2.847556e-05,531.5999999996375,0.000120985,531.5999999996375,1.566313e-05,531.5999999996375,1.429973e-05
531.6149999996375,2.838687e-05,531.6149999996375,0.0001274427,531.6149999996375,1.639347e-05,531.6149999996375,1.400611e-05
531.6299999996374,2.811763e-05,531.6299999996374,0.0001255444,531.6299999996374,1.683353e-05,531.6299999996374,1.333213e-05
531.6449999996374,2.762331e-05,531.6449999996374,0.0001300389,531.6449999996374,1.696357e-05,531.6449999996374,1.338696e-05
531.6599999996374,2.515108e-05,531.6599999996374,0.0001433803,531.6599999996374,1.734135e-05,531.6599999996374,1.339643e-05
531.6749999996374,2.435723e-05,531.6749999996374,0.0001464265,531.6749999996374,1.71937e-05,531.6749999996374,1.330887e-05
531.6899999996374,2.393309e-05,531.6899999996374,0.0001661903,531.6899999996374,1.741512e-05,531.6899999996374,1.322818e-05
531.7049999996374,2.539743e-05,531.7049999996374,0.0001681745,531.7049999996374,1.760258e-05,531.7049999996374,1.332579e-05
531.7199999996374,2.511408e-05,531.7199999996374,0.0001749558,531.7199999996374,1.760418e-05,531.7199999996374,1.321007e-05
531.7349999996374,2.479003e-05,531.7349999996374,0.0001745648,531.7349999996374,1.759377e-05,531.7349999996374,1.256405e-05
531.7499999996373,2.203369e-05,531.7499999996373,0.0001603748,531.7499999996373,1.68536e-05,531.7499999996373,1.070689e-05
531.7649999996373,2.316319e-05,531.7649999996373,0.0001695093,531.7649999996373,1.768322e-05,531.7649999996373,1.086751e-05
531.7799999996373,2.452208e-05,531.7799999996373,0.0001734519,531.7799999996373,1.838313e-05,531.7799999996373,1.090762e-05
531.7949999996373,2.676866e-05,531.7949999996373,0.0001784582,531.7949999996373,1.9787e-05,531.7949999996373,1.081293e-05
531.8099999996373,2.761566e-05,531.8099999996373,0.0001840001,531.8099999996373,2.058054e-05,531.8099999996373,1.080902e-05
531.8249999996373,2.803133e-05,531.8249999996373,0.0001878292,531.8249999996373,2.177581e-05,531.8249999996373,9.634898e-06
531.8399999996373,2.785792e-05,531.8399999996373,0.0001892954,531.8399999996373,2.177581e-05,531.8399999996373,9.063859e-06
531.8549999996372,2.764676e-05,531.8549999996372,0.0001951257,531.8549999996372,2.216818e-05,531.8549999996372,9.158172e-06
531.8699999996372,2.821965e-05,531.8699999996372,0.0001925571,531.8699999996372,2.186941e-05,531.8699999996372,9.339419e-06
531.8849999996372,2.998682e-05,531.8849999996372,0.0001912679,531.8849999996372,2.163954e-05,531.8849999996372,1.052376e-05
531.8999999996372,3.098808e-05,531.8999999996372,0.0001810966,531.8999999996372,2.142232e-05,531.8999999996372,1.100533e-05
531.9149999996372,3.309824e-05,531.9149999996372,0.0001780338,531.9149999996372,2.161739e-05,531.9149999996372,1.096943e-05
531.9299999996372,3.335938e-05,531.9299999996372,0.0001728702,531.9299999996372,2.14519e-05,531.9299999996372,1.061306e-05
531.9449999996372,3.389973e-05,531.9449999996372,0.000164672,531.9449999996372,2.264472e-05,531.9449999996372,1.107042e-05
531.9599999996371,3.651984e-05,531.9599999996371,0.0001585704,531.9599999996371,2.257806e-05,531.9599999996371,1.089728e-05
531.9749999996371,3.621384e-05,531.9749999996371,0.0001593516,531.9749999996371,2.321301e-05,531.9749999996371,1.156943e-05
531.9899999996371,3.600513e-05,531.9899999996371,0.000164151,531.9899999996371,2.288051e-05,531.9899999996371,1.244916e-05
532.0049999996371,3.627835e-05,532.0049999996371,0.0001673704,532.0049999996371,2.292295e-05,532.0049999996371,1.278742e-05
532.0199999996371,3.751008e-05,532.0199999996371,0.0001518658,532.0199999996371,2.195427e-05,532.0199999996371,1.277861e-05
532.0349999996371,3.778435e-05,532.0349999996371,0.0001476634,532.0349999996371,2.171362e-05,532.0349999996371,1.260994e-05
532.0499999996371,3.677354e-05,532.0499999996371,0.0001477,532.0499999996371,2.006343e-05,532.0499999996371,1.255396e-05
532.064999999637,3.639349e-05,532.064999999637,0.0001512149,532.064999999637,1.866375e-05,532.064999999637,1.240609e-05
532.079999999637,3.601765e-05,532.079999999637,0.0001517998,532.079999999637,1.878562e-05,532.079999999637,1.262333e-05
532.094999999637,3.545912e-05,532.094999999637,0.000147983,532.094999999637,1.929244e-05,532.094999999637,1.302212e-05
532.109999999637,3.527391e-05,532.109999999637,0.000141706,532.109999999637,1.845807e-05,532.109999999637,1.333108e-05
532.124999999637,3.51114e-05,532.124999999637,0.0001411215,532.124999999637,1.872855e-05,532.124999999637,1.392542e-05
532.139999999637,3.403037e-05,532.139999999637,0.0001442598,532.139999999637,1.89922e-05,532.139999999637,1.334797e-05
532.154999999637,3.332727e-05,532.154999999637,0.0001535599,532.154999999637,1.910166e-05,532.154999999637,1.391834e-05
532.169999999637,3.125063e-05,532.169999999637,0.0001486981,532.169999999637,1.875936e-05,532.169999999637,1.418599e-05
532.184999999637,3.309441e-05,532.184999999637,0.000145437,532.184999999637,1.852283e-05,532.184999999637,1.401617e-05
532.1999999996369,3.259475e-05,532.1999999996369,0.0001481189,532.1999999996369,1.701084e-05,532.1999999996369,1.37329e-05
532.2149999996369,2.91773e-05,532.2149999996369,0.0001504386,532.2149999996369,1.725177e-05,532.2149999996369,1.325797e-05
532.2299999996369,2.879092e-05,532.2299999996369,0.0001648504,532.2299999996369,1.667969e-05,532.2299999996369,1.270454e-05
532.2449999996369,2.801071e-05,532.2449999996369,0.0001636096,532.2449999996369,1.718796e-05,532.2449999996369,1.252587e-05
532.2599999996369,2.71527e-05,532.2599999996369,0.0001609931,532.2599999996369,1.802798e-05,532.2599999996369,1.226563e-05
532.2749999996369,2.635768e-05,532.2749999996369,0.0001582888,532.2749999996369,1.890224e-05,532.2749999996369,1.24966e-05
532.2899999996368,2.653664e-05,532.2899999996368,0.0001582683,532.2899999996368,2.08721e-05,532.2899999996368,1.303725e-05
532.3049999996368,2.613117e-05,532.3049999996368,0.0001573324,532.3049999996368,2.086063e-05,532.3049999996368,1.356467e-05
532.3199999996368,2.609934e-05,532.3199999996368,0.0001467946,532.3199999996368,2.067478e-05,532.3199999996368,1.379227e-05
532.3349999996368,2.667641e-05,532.3349999996368,0.0001488849,532.3349999996368,2.210135e-05,532.3349999996368,1.411232e-05
532.3499999996368,2.694804e-05,532.3499999996368,0.0001529859,532.3499999996368,2.171622e-05,532.3499999996368,1.418996e-05
532.3649999996368,2.750577e-05,532.3649999996368,0.0001547829,532.3649999996368,2.332863e-05,532.3649999996368,1.3497e-05
532.3799999996368,2.821965e-05,532.3799999996368,0.0001533697,532.3799999996368,2.314373e-05,532.3799999996368,1.293311e-05
532.3949999996368,2.854967e-05,532.3949999996368,0.0001514494,532.3949999996368,2.313764e-05,532.3949999996368,1.27764e-05
532.4099999996367,3.00422e-05,532.4099999996367,0.000146644,532.4099999996367,2.298983e-05,532.4099999996367,1.241858e-05
532.4249999996367,2.923036e-05,532.4249999996367,0.0001480679,532.4249999996367,2.278117e-05,532.4249999996367,1.247516e-05
532.4399999996367,2.756972e-05,532.4399999996367,0.0001481367,532.4399999996367,2.25062e-05,532.4399999996367,1.23845e-05
532.4549999996367,2.734604e-05,532.4549999996367,0.0001485373,532.4549999996367,2.331172e-05,532.4549999996367,1.255396e-05
532.4699999996367,2.771394e-05,532.4699999996367,0.0001328039,532.4699999996367,2.26845e-05,532.4699999996367,1.241858e-05
532.4849999996367,2.860192e-05,532.4849999996367,0.0001323427,532.4849999996367,2.295427e-05,532.4849999996367,1.235147e-05
532.4999999996367,2.825058e-05,532.4999999996367,0.0001332334,532.4999999996367,2.246611e-05,532.4999999996367,1.226104e-05
532.5149999996366,2.839829e-05,532.5149999996366,0.0001487019,532.5149999996366,2.220944e-05,532.5149999996366,1.219538e-05
532.5299999996366,2.798304e-05,532.5299999996366,0.0001483196,532.5299999996366,2.164995e-05,532.5299999996366,1.24095e-05
532.5449999996366,2.805594e-05,532.5449999996366,0.0001445771,532.5449999996366,2.016917e-05,532.5449999996366,1.213632e-05
532.5599999996366,2.776827e-05,532.5599999996366,0.0001434927,532.5599999996366,2.032432e-05,532.5599999996366,1.322179e-05
532.5749999996366,2.754876e-05,532.5749999996366,0.0001392354,532.5749999996366,1.959815e-05,532.5749999996366,1.269566e-05
532.5899999996366,2.766815e-05,532.5899999996366,0.0001394803,532.5899999996366,1.823927e-05,532.5899999996366,1.229775e-05
532.6049999996366,2.708205e-05,532.6049999996366,0.0001339169,532.6049999996366,1.796457e-05,532.6049999996366,1.193029e-05
532.6199999996365,2.765084e-05,532.6199999996365,0.0001332789,532.6199999996365,1.719124e-05,532.6199999996365,1.178058e-05
532.6349999996365,2.73213e-05,532.6349999996365,0.0001345335,532.6349999996365,1.758656e-05,532.6349999996365,1.162651e-05
532.6499999996365,2.613548e-05,532.6499999996365,0.0001339707,532.6499999996365,1.768401e-05,532.6499999996365,1.207348e-05
532.6649999996365,2.531242e-05,532.6649999996365,0.0001331659,532.6649999996365,1.851218e-05,532.6649999996365,1.199975e-05
532.6799999996365,2.554895e-05,532.6799999996365,0.0001361249,532.6799999996365,2.000295e-05,532.6799999996365,1.158889e-05
532.6949999996365,2.548823e-05,532.6949999996365,0.0001353343,532.6949999996365,2.091189e-05,532.6949999996365,1.173865e-05
532.7099999996365,2.566173e-05,532.7099999996365,0.000129099,532.7099999996365,2.018383e-05,532.7099999996365,1.227597e-05
532.7249999996365,2.590812e-05,532.7249999996365,0.0001299116,532.7249999996365,2.034233e-05,532.7249999996365,1.219307e-05
532.7399999996364,2.522936e-05,532.7399999996364,0.0001306477,532.7399999996364,1.983251e-05,532.7399999996364,1.223919e-05
532.7549999996364,2.500785e-05,532.7549999996364,0.0001259274,532.7549999996364,1.973425e-05,532.7549999996364,1.230691e-05
532.7699999996364,2.721488e-05,532.7699999996364,0.0001115053,532.7699999996364,1.969924e-05,532.7699999996364,1.236287e-05
532.7849999996364,2.674339e-05,532.7849999996364,0.0001095726,532.7849999996364,1.966918e-05,532.7849999996364,1.226449e-05
532.7999999996364,2.572642e-05,532.7999999996364,0.0001097284,532.7999999996364,2.0055e-05,532.7999999996364,1.191375e-05
532.8149999996364,2.513539e-05,532.8149999996364,0.0001181675,532.8149999996364,1.996983e-05,532.8149999996364,1.123838e-05
532.8299999996364,2.701851e-05,532.8299999996364,0.0001170842,532.8299999996364,2.02166e-05,532.8299999996364,1.129215e-05
532.8449999996363,2.73213e-05,532.8449999996363,0.0001175219,532.8449999996363,2.04604e-05,532.8449999996363,1.188178e-05
532.8599999996363,2.676656e-05,532.8599999996363,0.0001231303,532.8599999996363,2.050304e-05,532.8599999996363,1.230577e-05
532.8749999996363,2.620814e-05,532.8749999996363,0.0001219249,532.8749999996363,2.000225e-05,532.8749999996363,1.279403e-05
532.8899999996363,2.612901e-05,532.8899999996363,0.0001226898,532.8899999996363,1.927345e-05,532.8899999996363,1.365369e-05
532.9049999996363,2.696215e-05,532.9049999996363,0.0001214717,532.9049999996363,1.907804e-05,532.9049999996363,1.372469e-05
532.9199999996363,2.599009e-05,532.9199999996363,0.0001176646,532.9199999996363,1.787653e-05,532.9199999996363,1.367122e-05
532.9349999996363,2.705759e-05,532.9349999996363,0.0001194244,532.9349999996363,1.647319e-05,532.9349999996363,1.361132e-05
532.9499999996362,2.730531e-05,532.9499999996362,0.0001210999,532.9499999996362,1.636595e-05,532.9499999996362,1.308901e-05
532.9649999996362,2.84904e-05,532.9649999996362,0.0001171625,532.9649999996362,1.621636e-05,532.9649999996362,1.332262e-05
532.9799999996362,2.806598e-05,532.9799999996362,0.0001141731,532.9799999996362,1.632372e-05,532.9799999996362,1.355636e-05
532.9949999996362,2.805343e-05,532.9949999996362,0.0001140639,532.9949999996362,1.640549e-05,532.9949999996362,1.337433e-05
533.0099999996362,2.946125e-05,533.0099999996362,0.0001325366,533.0099999996362,1.633493e-05,533.0099999996362,1.347088e-05
533.0249999996362,2.787763e-05,533.0249999996362,0.0001297238,533.0249999996362,1.699841e-05,533.0249999996362,1.397389e-05
533.0399999996362,2.844933e-05,533.0399999996362,0.0001290818,533.0399999996362,1.695527e-05,533.0399999996362,1.39416e-05
533.0549999996362,2.886177e-05,533.0549999996362,0.0001274818,533.0549999996362,1.724197e-05,533.0549999996362,1.40041e-05
533.0699999996361,2.974059e-05,533.0699999996361,0.0001235719,533.0699999996361,1.74434e-05,533.0699999996361,1.451386e-05
533.0849999996361,2.831682e-05,533.0849999996361,0.0001238514,533.0849999996361,1.73251e-05,533.0849999996361,1.496779e-05
533.0999999996361,2.838985e-05,533.0999999996361,0.0001170757,533.0999999996361,1.795752e-05,533.0999999996361,1.432237e-05
533.1149999996361,2.839977e-05,533.1149999996361,0.0001209817,533.1149999996361,1.805765e-05,533.1149999996361,1.551948e-05
533.1299999996361,2.83213e-05,533.1299999996361,0.0001264777,533.1299999996361,1.760658e-05,533.1299999996361,1.557022e-05
533.1449999996361,2.822414e-05,533.1449999996361,0.000124164,533.1449999996361,1.763216e-05,533.1449999996361,1.501008e-05
533.159999999636,2.819717e-05,533.159999999636,0.000127876,533.159999999636,1.76609e-05,533.159999999636,1.497249e-05
533.174999999636,2.836751e-05,533.174999999636,0.0001273877,533.174999999636,1.73381e-05,533.174999999636,1.545581e-05
533.189999999636,2.745862e-05,533.189999999636,0.0001273977,533.189999999636,1.670585e-05,533.189999999636,1.58642e-05
533.204999999636,2.847507e-05,533.204999999636,0.000126759,533.204999999636,1.593861e-05,533.204999999636,1.578497e-05
533.219999999636,2.76544e-05,533.219999999636,0.0001286633,533.219999999636,1.617809e-05,533.219999999636,1.579389e-05
533.234999999636,2.780427e-05,533.234999999636,0.0001286862,533.234999999636,1.585531e-05,533.234999999636,1.574208e-05
533.249999999636,2.69658e-05,533.249999999636,0.0001281546,533.249999999636,1.619897e-05,533.249999999636,1.586863e-05
533.264999999636,2.72066e-05,533.264999999636,0.0001108517,533.264999999636,1.584643e-05,533.264999999636,1.607063e-05
533.279999999636,2.717137e-05,533.279999999636,0.0001193523,533.279999999636,1.469424e-05,533.279999999636,1.677401e-05
533.2949999996359,2.78473e-05,533.2949999996359,0.0001196236,533.2949999996359,1.430564e-05,533.2949999996359,1.692367e-05
533.3099999996359,2.724902e-05,533.3099999996359,0.0001261414,533.3099999996359,1.401818e-05,533.3099999996359,1.656528e-05
533.3249999996359,2.728364e-05,533.3249999996359,0.0001312462,533.3249999996359,1.342164e-05,533.3249999996359,1.604695e-05
533.3399999996359,2.875175e-05,533.3399999996359,0.0001359134,533.3399999996359,1.350535e-05,533.3399999996359,1.599243e-05
533.3549999996359,2.86703e-05,533.3549999996359,0.0001353735,533.3549999996359,1.298528e-05,533.3549999996359,1.668222e-05
533.3699999996359,2.885982e-05,533.3699999996359,0.0001253881,533.3699999996359,1.307825e-05,533.3699999996359,1.588993e-05
533.3849999996359,2.957864e-05,533.3849999996359,0.0001282445,533.3849999996359,1.471819e-05,533.3849999996359,1.574834e-05
533.3999999996358,2.934771e-05,533.3999999996358,0.0001317699,533.3999999996358,1.500914e-05,533.3999999996358,1.566673e-05
533.4149999996358,2.908687e-05,533.4149999996358,0.0001278903,533.4149999996358,1.655082e-05,533.4149999996358,1.581973e-05
533.4299999996358,2.904762e-05,533.4299999996358,0.0001331972,533.4299999996358,1.765771e-05,533.4299999996358,1.539188e-05
533.4449999996358,2.872086e-05,533.4449999996358,0.0001327006,533.4449999996358,1.915909e-05,533.4449999996358,1.523272e-05
533.4599999996358,2.899325e-05,533.4599999996358,0.0001320882,533.4599999996358,2.000788e-05,533.4599999996358,1.485537e-05
533.4749999996358,2.906992e-05,533.4749999996358,0.0001292923,533.4749999996358,2.087683e-05,533.4749999996358,1.499036e-05
533.4899999996358,2.949804e-05,533.4899999996358,0.0001304507,533.4899999996358,2.081669e-05,533.4899999996358,1.498754e-05
533.5049999996357,2.905489e-05,533.5049999996357,0.0001304472,533.5049999996357,2.149519e-05,533.5049999996357,1.474974e-05
533.5199999996357,2.929871e-05,533.5199999996357,0.0001327432,533.5199999996357,2.139271e-05,533.5199999996357,1.549677e-05
533.5349999996357,2.883003e-05,533.5349999996357,0.0001286531,533.5349999996357,2.189516e-05,533.5349999996357,1.474305e-05
533.5499999996357,2.888226e-05,533.5499999996357,0.0001226853,533.5499999996357,2.195491e-05,533.5499999996357,1.539279e-05
533.5649999996357,2.912414e-05,533.5649999996357,0.0001214925,533.5649999996357,2.168311e-05,533.5649999996357,1.783867e-05
533.5799999996357,2.821565e-05,533.5799999996357,0.0001207947,533.5799999996357,2.224747e-05,533.5799999996357,1.756653e-05
533.5949999996357,2.760495e-05,533.5949999996357,0.0001194924,533.5949999996357,2.213511e-05,533.5949999996357,1.964983e-05
533.6099999996356,2.855707e-05,533.6099999996356,0.0001244615,533.6099999996356,2.244038e-05,533.6099999996356,1.960534e-05
533.6249999996356,2.887544e-05,533.6249999996356,0.0001229399,533.6249999996356,2.224113e-05,533.6249999996356,1.978629e-05
533.6399999996356,2.897867e-05,533.6399999996356,0.0001211536,533.6399999996356,2.121551e-05,533.6399999996356,1.979127e-05
533.6549999996356,2.891005e-05,533.6549999996356,0.0001163758,533.6549999996356,2.175704e-05,533.6549999996356,2.071562e-05
533.6699999996356,2.949995e-05,533.6699999996356,0.0001163906,533.6699999996356,2.076927e-05,533.6699999996356,2.100531e-05
533.6849999996356,2.91855e-05,533.6849999996356,0.0001092506,533.6849999996356,2.053325e-05,533.6849999996356,2.274651e-05
533.6999999996356,2.956959e-05,533.6999999996356,0.0001096351,533.6999999996356,1.898404e-05,533.6999999996356,2.276261e-05
533.7149999996356,2.894511e-05,533.7149999996356,0.0001160902,533.7149999996356,1.819907e-05,533.7149999996356,2.383459e-05
533.7299999996355,2.843646e-05,533.7299999996355,0.0001169882,533.7299999996355,1.810206e-05,533.7299999996355,2.415105e-05
533.7449999996355,2.815818e-05,533.7449999996355,0.0001200918,533.7449999996355,1.802407e-05,533.7449999996355,2.440865e-05
533.7599999996355,2.769258e-05,533.7599999996355,0.0001219751,533.7599999996355,1.714693e-05,533.7599999996355,2.422385e-05
533.7749999996355,2.819068e-05,533.7749999996355,0.0001185918,533.7749999996355,1.661792e-05,533.7749999996355,2.392779e-05
533.7899999996355,2.759117e-05,533.7899999996355,0.0001143217,533.7899999996355,1.64338e-05,533.7899999996355,2.376594e-05
533.8049999996355,2.732439e-05,533.8049999996355,0.0001133914,533.8049999996355,1.638659e-05,533.8049999996355,2.385586e-05
533.8199999996355,2.731511e-05,533.8199999996355,0.0001056936,533.8199999996355,1.651845e-05,533.8199999996355,2.344728e-05
533.8349999996354,2.718329e-05,533.8349999996354,9.607034e-05,533.8349999996354,1.554487e-05,533.8349999996354,2.316806e-05
533.8499999996354,2.690566e-05,533.8499999996354,9.589599e-05,533.8499999996354,1.546765e-05,533.8499999996354,2.218279e-05
533.8649999996354,2.647499e-05,533.8649999996354,9.04941e-05,533.8649999996354,1.482974e-05,533.8649999996354,2.228858e-05
533.8799999996354,2.685902e-05,533.8799999996354,0.0001066501,533.8799999996354,1.525398e-05,533.8799999996354,2.301066e-05
533.8949999996354,2.874636e-05,533.8949999996354,0.0001675925,533.8949999996354,1.547858e-05,533.8949999996354,2.5465e-05
533.9099999996354,2.880461e-05,533.9099999996354,0.0001823695,533.9099999996354,1.693199e-05,533.9099999996354,2.507254e-05
533.9249999996354,2.843695e-05,533.9249999996354,0.0001940513,533.9249999996354,1.857978e-05,533.9249999996354,2.659285e-05
533.9399999996353,2.901608e-05,533.9399999996353,0.0002427613,533.9399999996353,1.849239e-05,533.9399999996353,2.657749e-05
533.9549999996353,3.155655e-05,533.9549999996353,0.0002765724,533.9549999996353,1.856006e-05,533.9549999996353,3.224322e-05
533.9699999996353,3.192491e-05,533.9699999996353,0.0003001805,533.9699999996353,1.835783e-05,533.9699999996353,3.295236e-05
533.9849999996353,3.337668e-05,533.9849999996353,0.0002992794,533.9849999996353,1.924126e-05,533.9849999996353,3.396117e-05
533.9999999996353,3.437838e-05,533.9999999996353,0.0002964119,533.9999999996353,2.111434e-05,533.9999999996353,3.813061e-05
534.0149999996353,3.734636e-05,534.0149999996353,0.0002957495,534.0149999996353,2.139074e-05,534.0149999996353,4.004146e-05
534.0299999996353,3.66692e-05,534.0299999996353,0.0002958703,534.0299999996353,2.165971e-05,534.0299999996353,4.005095e-05
534.0449999996353,3.713264e-05,534.0449999996353,0.0002958628,534.0449999996353,2.223353e-05,534.0449999996353,4.023623e-05
534.0599999996352,3.6808e-05,534.0599999996352,0.0002960196,534.0599999996352,2.273722e-05,534.0599999996352,4.003934e-05
534.0749999996352,3.663384e-05,534.0749999996352,0.0002967084,534.0749999996352,2.365841e-05,534.0749999996352,4.061015e-05
534.0899999996352,3.768879e-05,534.0899999996352,0.0003053061,534.0899999996352,2.397602e-05,534.0899999996352,4.069159e-05
534.1049999996352,3.900933e-05,534.1049999996352,0.0003070475,534.1049999996352,2.389008e-05,534.1049999996352,4.038928e-05
534.1199999996352,4.254705e-05,534.1199999996352,0.0003070153,534.1199999996352,2.445593e-05,534.1199999996352,4.007908e-05
534.1349999996352,4.183017e-05,534.1349999996352,0.00029725,534.1349999996352,2.561943e-05,534.1349999996352,3.93226e-05
534.1499999996352,4.045062e-05,534.1499999996352,0.0002756466,534.1499999996352,2.507591e-05,534.1499999996352,3.8169e-05
534.1649999996351,4.025618e-05,534.1649999996351,0.0002640245,534.1649999996351,2.541794e-05,534.1649999996351,3.797995e-05
534.1799999996351,4.121408e-05,534.1799999996351,0.0002435662,534.1799999996351,2.499771e-05,534.1799999996351,3.599026e-05
534.1949999996351,4.063304e-05,534.1949999996351,0.0002043567,534.1949999996351,2.488022e-05,534.1949999996351,3.518074e-05
534.2099999996351,3.880731e-05,534.2099999996351,0.0001331151,534.2099999996351,2.432193e-05,534.2099999996351,2.981108e-05
534.2249999996351,3.880876e-05,534.2249999996351,0.0001277545,534.2249999996351,2.447608e-05,534.2249999996351,2.866735e-05
534.2399999996351,3.802924e-05,534.2399999996351,0.0001298043,534.2399999996351,2.376297e-05,534.2399999996351,2.870467e-05
534.2549999996351,3.843967e-05,534.2549999996351,0.0001311144,534.2549999996351,2.286018e-05,534.2549999996351,2.275704e-05
534.269999999635,3.582942e-05,534.269999999635,0.0001352058,534.269999999635,2.267953e-05,534.269999999635,2.029102e-05
534.284999999635,3.546865e-05,534.284999999635,0.0001383096,534.284999999635,2.19562e-05,534.284999999635,2.026045e-05
534.299999999635,3.659652e-05,534.299999999635,0.0001416352,534.299999999635,2.190802e-05,534.299999999635,2.052227e-05
534.314999999635,3.788711e-05,534.314999999635,0.0001419776,534.314999999635,2.111434e-05,534.314999999635,1.818978e-05
534.329999999635,3.765214e-05,534.329999999635,0.0001367148,534.329999999635,2.113301e-05,534.329999999635,1.860857e-05
534.344999999635,3.577237e-05,534.344999999635,0.0001205439,534.344999999635,2.106625e-05,534.344999999635,1.825086e-05
534.359999999635,3.508852e-05,534.359999999635,0.0001218663,534.359999999635,2.106692e-05,534.359999999635,1.975137e-05
534.374999999635,3.12168e-05,534.374999999635,0.0001177796,534.374999999635,1.961827e-05,534.374999999635,2.001211e-05
534.3899999996349,3.324856e-05,534.3899999996349,0.0001123299,534.3899999996349,1.876086e-05,534.3899999996349,2.301984e-05
534.4049999996349,3.488842e-05,534.4049999996349,0.0001078818,534.4049999996349,1.77841e-05,534.4049999996349,2.454677e-05
534.4199999996349,3.466036e-05,534.4199999996349,0.0001099396,534.4199999996349,1.656273e-05,534.4199999996349,2.655309e-05
534.4349999996349,3.353962e-05,534.4349999996349,0.0001126231,534.4349999996349,1.628051e-05,534.4349999996349,2.669858e-05
534.4499999996349,3.359669e-05,534.4499999996349,0.0001066872,534.4499999996349,1.649797e-05,534.4499999996349,2.633629e-05
534.4649999996349,3.332135e-05,534.4649999996349,0.0001091917,534.4649999996349,1.825471e-05,534.4649999996349,2.61015e-05
534.4799999996349,3.37886e-05,534.4799999996349,0.0001119936,534.4799999996349,1.781497e-05,534.4799999996349,2.558586e-05
534.4949999996348,3.312929e-05,534.4949999996348,0.0001110262,534.4949999996348,1.810361e-05,534.4949999996348,2.483942e-05
534.5099999996348,3.192535e-05,534.5099999996348,0.0001121283,534.5099999996348,1.871877e-05,534.5099999996348,2.477468e-05
534.5249999996348,3.163546e-05,534.5249999996348,0.0001126791,534.5249999996348,1.924053e-05,534.5249999996348,2.609934e-05
534.5399999996348,3.214039e-05,534.5399999996348,0.0001113153,534.5399999996348,1.930266e-05,534.5399999996348,2.661879e-05
534.5549999996348,3.259043e-05,534.5549999996348,0.0001098772,534.5549999996348,1.935586e-05,534.5549999996348,2.649946e-05
534.5699999996348,3.099126e-05,534.5699999996348,0.0001148541,534.5699999996348,1.847333e-05,534.5699999996348,2.637531e-05
534.5849999996348,3.337373e-05,534.5849999996348,0.0001175162,534.5849999996348,1.861916e-05,534.5849999996348,2.647712e-05
534.5999999996347,3.30305e-05,534.5999999996347,0.0001127538,534.5999999996347,1.875861e-05,534.5999999996347,2.715425e-05
534.6149999996347,3.229692e-05,534.6149999996347,0.0001104906,534.6149999996347,1.881185e-05,534.6149999996347,2.717085e-05
534.6299999996347,3.223754e-05,534.6299999996347,0.0001167933,534.6299999996347,1.970281e-05,534.6299999996347,2.86762e-05
534.6449999996347,3.104167e-05,534.6449999996347,0.0001172386,534.6449999996347,1.994865e-05,534.6449999996347,2.674866e-05
534.6599999996347,3.146849e-05,534.6599999996347,0.0001199015,534.6599999996347,2.083225e-05,534.6599999996347,2.585532e-05
534.6749999996347,3.233353e-05,534.6749999996347,0.000113224,534.6749999996347,2.050098e-05,534.6749999996347,2.436591e-05
534.6899999996347,3.20447e-05,534.6899999996347,0.000112365,534.6899999996347,2.141904e-05,534.6899999996347,2.441211e-05
534.7049999996347,3.181706e-05,534.7049999996347,0.0001096381,534.7049999996347,2.03354e-05,534.7049999996347,2.418427e-05
534.7199999996346,3.190814e-05,534.7199999996346,0.0001044818,534.7199999996346,2.021172e-05,534.7199999996346,2.430107e-05
534.7349999996346,3.212329e-05,534.7349999996346,0.0001063776,534.7349999996346,2.001281e-05,534.7349999996346,2.479969e-05
534.7499999996346,3.30305e-05,534.7499999996346,0.0001145952,534.7499999996346,2.01922e-05,534.7499999996346,2.543124e-05
534.7649999996346,3.389807e-05,534.7649999996346,0.000114321,534.7649999996346,2.005078e-05,534.7649999996346,2.512418e-05
534.7799999996346,3.509013e-05,534.7799999996346,0.000105545,534.7799999996346,2.195555e-05,534.7799999996346,2.431672e-05
534.7949999996346,3.256967e-05,534.7949999996346,0.000107583,534.7949999996346,2.460123e-05,534.7949999996346,2.34779e-05
534.8099999996346,3.266081e-05,534.8099999996346,0.0001116677,534.8099999996346,2.502249e-05,534.8099999996346,2.405989e-05
534.8249999996345,3.219557e-05,534.8249999996345,0.0001062528,534.8249999996345,2.552247e-05,534.8249999996345,2.367805e-05
534.8399999996345,2.998024e-05,534.8399999996345,0.0001038292,534.8399999996345,2.566173e-05,534.8399999996345,2.415863e-05
534.8549999996345,2.975717e-05,534.8549999996345,0.0001037027,534.8549999996345,2.654354e-05,534.8549999996345,2.369054e-05
534.8699999996345,2.990921e-05,534.8699999996345,0.0001034997,534.8699999996345,2.660132e-05,534.8699999996345,2.298861e-05
534.8849999996345,3.039694e-05,534.8849999996345,0.0001012473,534.8849999996345,2.623017e-05,534.8849999996345,2.14243e-05
534.8999999996345,2.930159e-05,534.8999999996345,0.0001010458,534.8999999996345,2.574613e-05,534.8999999996345,2.097243e-05
534.9149999996345,3.088654e-05,534.9149999996345,9.856467e-05,534.9149999996345,2.521317e-05,534.9149999996345,2.113834e-05
534.9299999996344,2.950855e-05,534.9299999996344,0.0001008886,534.9299999996344,2.494976e-05,534.9299999996344,2.085117e-05
534.9449999996344,2.96267e-05,534.9449999996344,9.898182e-05,534.9449999996344,2.464871e-05,534.9449999996344,2.167726e-05
534.9599999996344,2.903161e-05,534.9599999996344,9.956813e-05,534.9599999996344,2.481105e-05,534.9599999996344,2.178422e-05
534.9749999996344,2.865654e-05,534.9749999996344,0.000101774,534.9749999996344,2.44421e-05,534.9749999996344,2.155997e-05
534.9899999996344,2.750321e-05,534.9899999996344,9.310975e-05,534.9899999996344,2.483034e-05,534.9899999996344,2.077266e-05
535.0049999996344,2.764574e-05,535.0049999996344,9.164523e-05,535.0049999996344,2.454619e-05,535.0049999996344,2.074755e-05
535.0199999996344,2.542681e-05,535.0199999996344,9.994108e-05,535.0199999996344,2.363935e-05,535.0199999996344,2.119691e-05
535.0349999996344,2.52059e-05,535.0349999996344,0.0001010236,535.0349999996344,2.24636e-05,535.0349999996344,2.096772e-05
535.0499999996343,2.618663e-05,535.0499999996343,9.787453e-05,535.0499999996343,2.077808e-05,535.0499999996343,2.129041e-05
535.0649999996343,2.745092e-05,535.0649999996343,9.281031e-05,535.0649999996343,1.986515e-05,535.0649999996343,2.05456e-05
535.0799999996343,2.740007e-05,535.0799999996343,9.228946e-05,535.0799999996343,2.022287e-05,535.0799999996343,1.983961e-05
535.0949999996343,2.84201e-05,535.0949999996343,9.237947e-05,535.0949999996343,2.030143e-05,535.0949999996343,1.899442e-05
535.1099999996343,2.848644e-05,535.1099999996343,9.215856e-05,535.1099999996343,1.903665e-05,535.1099999996343,1.837393e-05
535.1249999996343,2.850276e-05,535.1249999996343,9.055478e-05,535.1249999996343,1.871049e-05,535.1249999996343,1.889926e-05
535.1399999996343,2.84092e-05,535.1399999996343,8.523751e-05,535.1399999996343,1.851903e-05,535.1399999996343,1.833095e-05
535.1549999996342,2.672179e-05,535.1549999996342,8.206764e-05,535.1549999996342,1.897513e-05,535.1549999996342,1.859039e-05
535.1699999996342,2.434393e-05,535.1699999996342,8.252381e-05,535.1699999996342,1.933693e-05,535.1699999996342,1.893203e-05
535.1849999996342,2.444786e-05,535.1849999996342,8.2702e-05,535.1849999996342,1.95737e-05,535.1849999996342,1.772698e-05
535.1999999996342,2.417612e-05,535.1999999996342,8.770231e-05,535.1999999996342,1.890745e-05,535.1999999996342,1.756172e-05
535.2149999996342,2.655521e-05,535.2149999996342,9.857625e-05,535.2149999996342,1.98119e-05,535.2149999996342,1.720516e-05
535.2299999996342,2.702686e-05,535.2299999996342,9.794086e-05,535.2299999996342,2.041284e-05,535.2299999996342,1.704641e-05
535.2449999996342,2.916716e-05,535.2449999996342,0.0001012174,535.2449999996342,2.019429e-05,535.2449999996342,1.704145e-05
535.2599999996341,2.856151e-05,535.2599999996341,9.649346e-05,535.2599999996341,2.046729e-05,535.2599999996341,1.777459e-05
535.2749999996341,2.904422e-05,535.2749999996341,0.0001047931,535.2749999996341,2.083766e-05,535.2749999996341,1.704393e-05
535.2899999996341,2.925685e-05,535.2899999996341,0.0001043735,535.2899999996341,2.057437e-05,535.2899999996341,1.721007e-05
535.3049999996341,2.878896e-05,535.3049999996341,0.0001046291,535.3049999996341,2.193951e-05,535.3049999996341,1.705632e-05
535.3199999996341,2.80263e-05,535.3199999996341,0.0001073636,535.3199999996341,2.253372e-05,535.3199999996341,1.700173e-05
535.3349999996341,2.858419e-05,535.3349999996341,0.0001073625,535.3349999996341,2.244101e-05,535.3349999996341,1.731127e-05
535.3499999996341,2.773375e-05,535.3499999996341,0.0001065453,535.3499999996341,2.273289e-05,535.3499999996341,1.741188e-05
535.364999999634,2.641053e-05,535.364999999634,0.0001068493,535.364999999634,2.35474e-05,535.364999999634,1.73584e-05
535.379999999634,2.647606e-05,535.379999999634,0.0001080592,535.379999999634,2.536357e-05,535.379999999634,1.591915e-05
535.394999999634,2.671757e-05,535.394999999634,0.0001119393,535.394999999634,2.529851e-05,535.394999999634,1.541839e-05
535.409999999634,2.612685e-05,535.409999999634,0.0001112218,535.409999999634,2.515052e-05,535.409999999634,1.48942e-05
535.424999999634,2.709401e-05,535.424999999634,0.0001184775,535.424999999634,2.512025e-05,535.424999999634,1.430367e-05
535.439999999634,2.714854e-05,535.439999999634,0.0001203505,535.439999999634,2.521764e-05,535.439999999634,1.483164e-05
535.454999999634,2.563427e-05,535.454999999634,0.0001124283,535.454999999634,2.497064e-05,535.454999999634,1.513252e-05
535.469999999634,2.529683e-05,535.469999999634,0.0001088989,535.469999999634,2.391955e-05,535.469999999634,1.542205e-05
535.4849999996339,2.393839e-05,535.4849999996339,0.00011446,535.4849999996339,2.436764e-05,535.4849999996339,1.676309e-05
535.4999999996339,2.121351e-05,535.4999999996339,0.0001117737,535.4999999996339,2.473371e-05,535.4999999996339,1.650394e-05
535.5149999996339,2.13657e-05,535.5149999996339,0.0001027544,535.5149999996339,2.532856e-05,535.5149999996339,1.635131e-05
535.5299999996339,2.060516e-05,535.5299999996339,0.000101894,535.5299999996339,2.464413e-05,535.5299999996339,1.756332e-05
535.5449999996339,2.017126e-05,535.5449999996339,0.0001032872,535.5449999996339,2.29837e-05,535.5449999996339,1.824777e-05
535.5599999996339,2.03361e-05,535.5599999996339,0.0001028961,535.5599999996339,2.344308e-05,535.5599999996339,1.835169e-05
535.5749999996339,1.975208e-05,535.5749999996339,9.888101e-05,535.5749999996339,2.34076e-05,535.5749999996339,1.867658e-05
535.5899999996338,1.913113e-05,535.5899999996338,9.925157e-05,535.5899999996338,2.291188e-05,535.5899999996338,1.855019e-05
535.6049999996338,1.897439e-05,535.6049999996338,0.0001013755,535.6049999996338,2.234413e-05,535.6049999996338,1.926468e-05
