X[s],a: EMG RMS 1-1,X[s].1,a: EMG RMS 1-2,X[s].2,a: EMG RMS 1-3,X[s].3,a: EMG RMS 1-4
406.00499999975165,8.186949e-05,406.00499999975165,6.501986e-05,406.00499999975165,4.144177e-05,406.00499999975165,3.537201e-05
406.01999999975163,8.391925e-05,406.01999999975163,6.243969e-05,406.01999999975163,4.135875e-05,406.01999999975163,3.545634e-05
406.0349999997516,8.365513e-05,406.0349999997516,6.302957e-05,406.0349999997516,4.115593e-05,406.0349999997516,3.618193e-05
406.0499999997516,8.956373e-05,406.0499999997516,6.50595e-05,406.0499999997516,3.915063e-05,406.0499999997516,3.727992e-05
406.0649999997516,9.148076e-05,406.0649999997516,6.279536e-05,406.0649999997516,3.385149e-05,406.0649999997516,3.879969e-05
406.0799999997516,9.200221e-05,406.0799999997516,6.254586e-05,406.0799999997516,3.079016e-05,406.0799999997516,3.90346e-05
406.09499999975156,9.362784e-05,406.09499999975156,6.657587e-05,406.09499999975156,2.442826e-05,406.09499999975156,3.952663e-05
406.10999999975155,9.697242e-05,406.10999999975155,6.849504e-05,406.10999999975155,1.763056e-05,406.10999999975155,3.949739e-05
406.12499999975154,9.697344e-05,406.12499999975154,6.812363e-05,406.12499999975154,1.627272e-05,406.12499999975154,3.945564e-05
406.1399999997515,9.743312e-05,406.1399999997515,7.208729e-05,406.1399999997515,2.023262e-05,406.1399999997515,3.9314e-05
406.1549999997515,9.745597e-05,406.1549999997515,7.333609e-05,406.1549999997515,2.515892e-05,406.1549999997515,3.930612e-05
406.1699999997515,9.664036e-05,406.1699999997515,7.485625e-05,406.1699999997515,3.360298e-05,406.1699999997515,3.927888e-05
406.1849999997515,9.67202e-05,406.1849999997515,7.302966e-05,406.1849999997515,3.969945e-05,406.1849999997515,3.909951e-05
406.19999999975147,9.362874e-05,406.19999999975147,7.062325e-05,406.19999999975147,4.450664e-05,406.19999999975147,3.777055e-05
406.21499999975146,8.819771e-05,406.21499999975146,6.906604e-05,406.21499999975146,4.555584e-05,406.21499999975146,2.692503e-05
406.22999999975144,8.635187e-05,406.22999999975144,6.870183e-05,406.22999999975144,4.57884e-05,406.22999999975144,2.274342e-05
406.2449999997514,7.980785e-05,406.2449999997514,6.756698e-05,406.2449999997514,4.572313e-05,406.2449999997514,1.974709e-05
406.2599999997514,6.928413e-05,406.2599999997514,6.750733e-05,406.2599999997514,4.578901e-05,406.2599999997514,1.965772e-05
406.2749999997514,6.64736e-05,406.2749999997514,6.793873e-05,406.2749999997514,4.584159e-05,406.2749999997514,1.889031e-05
406.2899999997514,6.563099e-05,406.2899999997514,6.854088e-05,406.2899999997514,4.589135e-05,406.2899999997514,1.812927e-05
406.3049999997514,6.078391e-05,406.3049999997514,7.062206e-05,406.3049999997514,4.58763e-05,406.3049999997514,1.739002e-05
406.31999999975136,5.978026e-05,406.31999999975136,7.068008e-05,406.31999999975136,4.585142e-05,406.31999999975136,1.8715e-05
406.33499999975135,6.038935e-05,406.33499999975135,7.186731e-05,406.33499999975135,4.5817e-05,406.33499999975135,2.117763e-05
406.34999999975133,5.974018e-05,406.34999999975133,6.718165e-05,406.34999999975133,4.578655e-05,406.34999999975133,2.18533e-05
406.3649999997513,5.75368e-05,406.3649999997513,6.575878e-05,406.3649999997513,4.529971e-05,406.3649999997513,2.420058e-05
406.3799999997513,6.210921e-05,406.3799999997513,6.276462e-05,406.3799999997513,4.356165e-05,406.3799999997513,2.655097e-05
406.3949999997513,6.262126e-05,406.3949999997513,6.3323e-05,406.3949999997513,4.17405e-05,406.3949999997513,2.680548e-05
406.4099999997513,6.360601e-05,406.4099999997513,6.268512e-05,406.4099999997513,3.308972e-05,406.4099999997513,2.69893e-05
406.42499999975126,6.451418e-05,406.42499999975126,5.808554e-05,406.42499999975126,3.064754e-05,406.42499999975126,2.713557e-05
406.43999999975125,6.269725e-05,406.43999999975125,5.402295e-05,406.43999999975125,2.311754e-05,406.43999999975125,2.726711e-05
406.45499999975124,6.409863e-05,406.45499999975124,5.449701e-05,406.45499999975124,1.439105e-05,406.45499999975124,2.727176e-05
406.4699999997512,6.544808e-05,406.4699999997512,5.747605e-05,406.4699999997512,9.574765e-06,406.4699999997512,2.743706e-05
406.4849999997512,6.558053e-05,406.4849999997512,5.840454e-05,406.4849999997512,1.076331e-05,406.4849999997512,2.744014e-05
406.4999999997512,6.450523e-05,406.4999999997512,6.582023e-05,406.4999999997512,2.151157e-05,406.4999999997512,2.745554e-05
406.5149999997512,6.423584e-05,406.5149999997512,6.754217e-05,406.5149999997512,2.999574e-05,406.5149999997512,2.756665e-05
406.52999999975117,6.234012e-05,406.52999999975117,6.646343e-05,406.52999999975117,3.378735e-05,406.52999999975117,2.755643e-05
406.54499999975116,6.024034e-05,406.54499999975116,6.321546e-05,406.54499999975116,4.625549e-05,406.54499999975116,2.680548e-05
406.55999999975114,6.007221e-05,406.55999999975114,6.17521e-05,406.55999999975114,4.747167e-05,406.55999999975114,2.375052e-05
406.5749999997511,5.69343e-05,406.5749999997511,6.133461e-05,406.5749999997511,4.775805e-05,406.5749999997511,2.127386e-05
406.5899999997511,5.610736e-05,406.5899999997511,5.982949e-05,406.5899999997511,4.784351e-05,406.5899999997511,2.033056e-05
406.6049999997511,5.30839e-05,406.6049999997511,6.024549e-05,406.6049999997511,4.788236e-05,406.6049999997511,1.886569e-05
406.6199999997511,4.674081e-05,406.6199999997511,6.13176e-05,406.6199999997511,4.780994e-05,406.6199999997511,1.494989e-05
406.6349999997511,4.636773e-05,406.6349999997511,6.303449e-05,406.6349999997511,4.788972e-05,406.6349999997511,1.246839e-05
406.64999999975106,4.553605e-05,406.64999999975106,6.174366e-05,406.64999999975106,4.790795e-05,406.64999999975106,1.797241e-05
406.66499999975105,5.070131e-05,406.66499999975105,6.728766e-05,406.66499999975105,4.798639e-05,406.66499999975105,2.483091e-05
406.67999999975103,5.931803e-05,406.67999999975103,7.00752e-05,406.67999999975103,4.798316e-05,406.67999999975103,2.832378e-05
406.694999999751,6.235819e-05,406.694999999751,7.192198e-05,406.694999999751,4.803656e-05,406.694999999751,2.877623e-05
406.709999999751,6.181503e-05,406.709999999751,6.973242e-05,406.709999999751,4.78953e-05,406.709999999751,3.290958e-05
406.724999999751,6.209469e-05,406.724999999751,6.92402e-05,406.724999999751,4.779225e-05,406.724999999751,3.415598e-05
406.739999999751,6.283707e-05,406.739999999751,6.645601e-05,406.739999999751,4.631727e-05,406.739999999751,3.72001e-05
406.75499999975096,6.409688e-05,406.75499999975096,6.04185e-05,406.75499999975096,4.29635e-05,406.75499999975096,3.761434e-05
406.76999999975095,6.389899e-05,406.76999999975095,5.92427e-05,406.76999999975095,3.790681e-05,406.76999999975095,3.752848e-05
406.78499999975094,6.416036e-05,406.78499999975094,5.947361e-05,406.78499999975094,1.962903e-05,406.78499999975094,3.791759e-05
406.7999999997509,6.421325e-05,406.7999999997509,6.173659e-05,406.7999999997509,1.358024e-05,406.7999999997509,3.81727e-05
406.8149999997509,6.38926e-05,406.8149999997509,6.763929e-05,406.8149999997509,1.209214e-05,406.8149999997509,3.830532e-05
406.8299999997509,6.345168e-05,406.8299999997509,7.257185e-05,406.8299999997509,1.200445e-05,406.8299999997509,3.837439e-05
406.8449999997509,6.254743e-05,406.8449999997509,7.297814e-05,406.8449999997509,1.491877e-05,406.8449999997509,3.833987e-05
406.85999999975087,6.150478e-05,406.85999999975087,7.634318e-05,406.85999999975087,1.733648e-05,406.85999999975087,3.82906e-05
406.87499999975086,6.143282e-05,406.87499999975086,7.574335e-05,406.87499999975086,2.31285e-05,406.87499999975086,3.8207e-05
406.88999999975084,6.043575e-05,406.88999999975084,7.400743e-05,406.88999999975084,3.114542e-05,406.88999999975084,3.737841e-05
406.9049999997508,5.767008e-05,406.9049999997508,7.357045e-05,406.9049999997508,3.247438e-05,406.9049999997508,3.474601e-05
406.9199999997508,5.4656e-05,406.9199999997508,7.040831e-05,406.9199999997508,3.26008e-05,406.9199999997508,3.047839e-05
406.9349999997508,4.316663e-05,406.9349999997508,6.714473e-05,406.9349999997508,3.258784e-05,406.9349999997508,2.78938e-05
406.9499999997508,4.293759e-05,406.9499999997508,6.501618e-05,406.9499999997508,3.262369e-05,406.9499999997508,2.709037e-05
406.9649999997508,4.145774e-05,406.9649999997508,6.419438e-05,406.9649999997508,3.270822e-05,406.9649999997508,2.004938e-05
406.97999999975076,4.075731e-05,406.97999999975076,6.629344e-05,406.97999999975076,3.277576e-05,406.97999999975076,1.946979e-05
406.99499999975075,4.138837e-05,406.99499999975075,6.61637e-05,406.99499999975075,3.281657e-05,406.99499999975075,1.676309e-05
407.00999999975073,4.299759e-05,407.00999999975073,6.563657e-05,407.00999999975073,3.277447e-05,407.00999999975073,2.035964e-05
407.0249999997507,4.319665e-05,407.0249999997507,6.441957e-05,407.0249999997507,3.26457e-05,407.0249999997507,2.370302e-05
407.0399999997507,4.309576e-05,407.0399999997507,6.174389e-05,407.0399999997507,3.256102e-05,407.0399999997507,2.458576e-05
407.0549999997507,4.069366e-05,407.0549999997507,5.933322e-05,407.0549999997507,3.251903e-05,407.0549999997507,2.538744e-05
407.0699999997507,4.17297e-05,407.0699999997507,5.227339e-05,407.0699999997507,3.177896e-05,407.0699999997507,2.722782e-05
407.08499999975066,4.157243e-05,407.08499999975066,4.57296e-05,407.08499999975066,3.130422e-05,407.08499999975066,2.73347e-05
407.09999999975065,4.126464e-05,407.09999999975065,4.425335e-05,407.09999999975065,2.988094e-05,407.09999999975065,2.748426e-05
407.11499999975064,4.126088e-05,407.11499999975064,4.124517e-05,407.11499999975064,2.733985e-05,407.11499999975064,2.761311e-05
407.1299999997506,4.094902e-05,407.1299999997506,4.061466e-05,407.1299999997506,2.177193e-05,407.1299999997506,2.779464e-05
407.1449999997506,4.011211e-05,407.1449999997506,3.959357e-05,407.1449999997506,9.883171e-06,407.1449999997506,2.779413e-05
407.1599999997506,3.91348e-05,407.1599999997506,3.654491e-05,407.1599999997506,8.365563e-06,407.1599999997506,2.805443e-05
407.1749999997506,3.895441e-05,407.1749999997506,3.366539e-05,407.1749999997506,7.446153e-06,407.1749999997506,2.812314e-05
407.18999999975057,3.645344e-05,407.18999999975057,3.222793e-05,407.18999999975057,7.125195e-06,407.18999999975057,2.846567e-05
407.20499999975056,3.460871e-05,407.20499999975056,3.148683e-05,407.20499999975056,7.156758e-06,407.20499999975056,2.85245e-05
407.21999999975054,3.394458e-05,407.21999999975054,3.0602e-05,407.21999999975054,7.16266e-06,407.21999999975054,2.864671e-05
407.2349999997505,3.113004e-05,407.2349999997505,3.101761e-05,407.2349999997505,6.906339e-06,407.2349999997505,2.828446e-05
407.2499999997505,2.800619e-05,407.2499999997505,3.213206e-05,407.2499999997505,6.809799e-06,407.2499999997505,2.574996e-05
407.2649999997505,2.457201e-05,407.2649999997505,3.194123e-05,407.2649999997505,6.914493e-06,407.2649999997505,2.334734e-05
407.2799999997505,2.16545e-05,407.2799999997505,3.185113e-05,407.2799999997505,6.848989e-06,407.2799999997505,2.195363e-05
407.2949999997505,2.024237e-05,407.2949999997505,3.12718e-05,407.2949999997505,6.811867e-06,407.2949999997505,2.072989e-05
407.30999999975046,1.971282e-05,407.30999999975046,3.040064e-05,407.30999999975046,6.855157e-06,407.30999999975046,1.796849e-05
407.32499999975045,1.785367e-05,407.32499999975045,3.030643e-05,407.32499999975045,6.64861e-06,407.32499999975045,1.776746e-05
407.33999999975043,1.722316e-05,407.33999999975043,3.026876e-05,407.33999999975043,6.554722e-06,407.33999999975043,1.790567e-05
407.3549999997504,1.791353e-05,407.3549999997504,2.892856e-05,407.3549999997504,6.273611e-06,407.3549999997504,1.777935e-05
407.3699999997504,1.791904e-05,407.3699999997504,2.569135e-05,407.3699999997504,6.203613e-06,407.3699999997504,1.728603e-05
407.3849999997504,1.840228e-05,407.3849999997504,2.551971e-05,407.3849999997504,6.426676e-06,407.3849999997504,1.768641e-05
407.3999999997504,1.794732e-05,407.3999999997504,2.547109e-05,407.3999999997504,6.395915e-06,407.3999999997504,1.726564e-05
407.41499999975036,1.766568e-05,407.41499999975036,2.5388e-05,407.41499999975036,6.327271e-06,407.41499999975036,1.72248e-05
407.42999999975035,1.771426e-05,407.42999999975035,2.25356e-05,407.42999999975035,6.244353e-06,407.42999999975035,1.693947e-05
407.44499999975034,1.743533e-05,407.44499999975034,2.229111e-05,407.44499999975034,6.160319e-06,407.44499999975034,1.685694e-05
407.4599999997503,1.699261e-05,407.4599999997503,2.237248e-05,407.4599999997503,5.927241e-06,407.4599999997503,1.772539e-05
407.4749999997503,1.655848e-05,407.4749999997503,2.216246e-05,407.4749999997503,5.352786e-06,407.4749999997503,1.692616e-05
407.4899999997503,1.679499e-05,407.4899999997503,1.50457e-05,407.4899999997503,5.462197e-06,407.4899999997503,1.632889e-05
407.5049999997503,1.683186e-05,407.5049999997503,1.272116e-05,407.5049999997503,5.619817e-06,407.5049999997503,1.634958e-05
407.51999999975027,1.669404e-05,407.51999999975027,1.259541e-05,407.51999999975027,5.462197e-06,407.51999999975027,1.513438e-05
407.53499999975026,1.701415e-05,407.53499999975026,1.25135e-05,407.53499999975026,5.881913e-06,407.53499999975026,1.514555e-05
407.54999999975024,1.620071e-05,407.54999999975024,1.26144e-05,407.54999999975024,5.872325e-06,407.54999999975024,1.496496e-05
407.5649999997502,1.564603e-05,407.5649999997502,1.27134e-05,407.5649999997502,5.893875e-06,407.5649999997502,1.460095e-05
407.5799999997502,1.60285e-05,407.5799999997502,1.278853e-05,407.5799999997502,5.797484e-06,407.5799999997502,1.608027e-05
407.5949999997502,1.656188e-05,407.5949999997502,1.288509e-05,407.5949999997502,5.893875e-06,407.5949999997502,1.713954e-05
407.6099999997502,2.058806e-05,407.6099999997502,1.220115e-05,407.6099999997502,5.910582e-06,407.6099999997502,1.734298e-05
407.6249999997502,2.097981e-05,407.6249999997502,1.08947e-05,407.6249999997502,6.035575e-06,407.6249999997502,1.72068e-05
407.63999999975016,2.105019e-05,407.63999999975016,1.093599e-05,407.63999999975016,5.731505e-06,407.63999999975016,1.754807e-05
407.65499999975015,2.113301e-05,407.65499999975015,1.077639e-05,407.65499999975015,5.721665e-06,407.65499999975015,1.782208e-05
407.66999999975013,2.148011e-05,407.66999999975013,1.067394e-05,407.66999999975013,5.751133e-06,407.66999999975013,1.838543e-05
407.6849999997501,2.16545e-05,407.6849999997501,1.084935e-05,407.6849999997501,5.841057e-06,407.6849999997501,1.862673e-05
407.6999999997501,2.177775e-05,407.6999999997501,1.103728e-05,407.6999999997501,6.114414e-06,407.6999999997501,1.866299e-05
407.7149999997501,2.178487e-05,407.7149999997501,1.041071e-05,407.7149999997501,6.230803e-06,407.7149999997501,1.799356e-05
407.7299999997501,2.152401e-05,407.7299999997501,9.001478e-06,407.7299999997501,6.358363e-06,407.7299999997501,1.80514e-05
407.74499999975006,2.121816e-05,407.74499999975006,8.894426e-06,407.74499999975006,6.239839e-06,407.74499999975006,1.80311e-05
407.75999999975005,2.106224e-05,407.75999999975005,8.808488e-06,407.75999999975005,6.280343e-06,407.75999999975005,1.786077e-05
407.77499999975004,2.080586e-05,407.77499999975004,8.739451e-06,407.77499999975004,6.342836e-06,407.77499999975004,1.776111e-05
407.78999999975,2.050579e-05,407.78999999975,8.70068e-06,407.78999999975,5.991066e-06,407.78999999975,1.774048e-05
407.80499999975,2.011952e-05,407.80499999975,8.243432e-06,407.80499999975,5.941484e-06,407.80499999975,1.768561e-05
407.81999999975,1.991402e-05,407.81999999975,8.072484e-06,407.81999999975,6.042573e-06,407.81999999975,1.677401e-05
407.83499999975,1.877137e-05,407.83499999975,7.862084e-06,407.83499999975,6.146583e-06,407.83499999975,1.493292e-05
407.84999999974997,1.767127e-05,407.84999999974997,7.497057e-06,407.84999999974997,6.023894e-06,407.84999999974997,1.39749e-05
407.86499999974995,1.213168e-05,407.86499999974995,7.069622e-06,407.86499999974995,5.943854e-06,407.86499999974995,1.356675e-05
407.87999999974994,1.091407e-05,407.87999999974994,6.965238e-06,407.87999999974994,5.741327e-06,407.87999999974994,1.299179e-05
407.8949999997499,1.041612e-05,407.8949999997499,6.716067e-06,407.8949999997499,5.943854e-06,407.8949999997499,1.180089e-05
407.9099999997499,1.013648e-05,407.9099999997499,6.638008e-06,407.9099999997499,5.905813e-06,407.9099999997499,1.131334e-05
407.9249999997499,9.006171e-06,407.9249999997499,6.208153e-06,407.9249999997499,5.753582e-06,407.9249999997499,9.752604e-06
407.9399999997499,9.251524e-06,407.9399999997499,5.571988e-06,407.9399999997499,5.704405e-06,407.9399999997499,9.138154e-06
407.9549999997499,9.384559e-06,407.9549999997499,5.046655e-06,407.9549999997499,5.405162e-06,407.9549999997499,9.026482e-06
407.96999999974986,9.168933e-06,407.96999999974986,4.856038e-06,407.96999999974986,5.397339e-06,407.96999999974986,8.806888e-06
407.98499999974985,8.971695e-06,407.98499999974985,4.68176e-06,407.98499999974985,5.246463e-06,407.98499999974985,8.70068e-06
407.99999999974983,9.198077e-06,407.99999999974983,4.642481e-06,407.99999999974983,5.104936e-06,407.99999999974983,8.806888e-06
408.0149999997498,8.998348e-06,408.0149999997498,4.459865e-06,408.0149999997498,5.052234e-06,408.0149999997498,8.635676e-06
408.0299999997498,9.023361e-06,408.0299999997498,4.478776e-06,408.0299999997498,5.178904e-06,408.0299999997498,8.45767e-06
408.0449999997498,9.040516e-06,408.0449999997498,4.744526e-06,408.0449999997498,5.115961e-06,408.0449999997498,8.277538e-06
408.0599999997498,9.167396e-06,408.0599999997498,4.711753e-06,408.0599999997498,5.124215e-06,408.0599999997498,8.147174e-06
408.07499999974976,9.265217e-06,408.07499999974976,4.654602e-06,408.07499999974976,5.14616e-06,408.07499999974976,8.007658e-06
408.08999999974975,9.131986e-06,408.08999999974975,4.575239e-06,408.08999999974975,4.962209e-06,408.08999999974975,7.910313e-06
408.10499999974974,9.313742e-06,408.10499999974974,4.48192e-06,408.10499999974974,4.93374e-06,408.10499999974974,7.744747e-06
408.1199999997497,9.125813e-06,408.1199999997497,4.717728e-06,408.1199999997497,5.024275e-06,408.1199999997497,7.790086e-06
408.1349999997497,9.116548e-06,408.1349999997497,4.910845e-06,408.1349999997497,5.027078e-06,408.1349999997497,7.737468e-06
408.1499999997497,8.935509e-06,408.1499999997497,5.360675e-06,408.1499999997497,4.847328e-06,408.1499999997497,7.815361e-06
408.1649999997497,8.976404e-06,408.1649999997497,5.249148e-06,408.1649999997497,5.00461e-06,408.1649999997497,7.708283e-06
408.17999999974967,8.088174e-06,408.17999999974967,5.313164e-06,408.17999999974967,5.523745e-06,408.17999999974967,7.704628e-06
408.19499999974965,8.352081e-06,408.19499999974965,5.365928e-06,408.19499999974965,5.657291e-06,408.19499999974965,7.974164e-06
408.20999999974964,7.813558e-06,408.20999999974964,5.436346e-06,408.20999999974964,5.652309e-06,408.20999999974964,7.612662e-06
408.2249999997496,7.713764e-06,408.2249999997496,5.667242e-06,408.2249999997496,5.8867e-06,408.2249999997496,7.822567e-06
408.2399999997496,7.888914e-06,408.2399999997496,5.765811e-06,408.2399999997496,5.929618e-06,408.2399999997496,7.735647e-06
408.2549999997496,7.96002e-06,408.2549999997496,5.75603e-06,408.2549999997496,5.908198e-06,408.2549999997496,7.186222e-06
408.2699999997496,8.192006e-06,408.2699999997496,5.654801e-06,408.2699999997496,5.760922e-06,408.2699999997496,6.885912e-06
408.2849999997496,8.086432e-06,408.2849999997496,5.564399e-06,408.2849999997496,5.855509e-06,408.2849999997496,7.025649e-06
408.29999999974956,7.888914e-06,408.29999999974956,5.368553e-06,408.29999999974956,5.855509e-06,408.29999999974956,6.997522e-06
408.31499999974955,7.750201e-06,408.31499999974955,5.275916e-06,408.31499999974955,5.770695e-06,408.31499999974955,7.029658e-06
408.32999999974953,7.741108e-06,408.32999999974953,5.286585e-06,408.32999999974953,5.706874e-06,408.32999999974953,7.217518e-06
408.3449999997495,7.928101e-06,408.3449999997495,5.329048e-06,408.3449999997495,5.912964e-06,408.3449999997495,7.432898e-06
408.3599999997495,7.757469e-06,408.3599999997495,5.307859e-06,408.3599999997495,5.948592e-06,408.3599999997495,7.413922e-06
408.3749999997495,7.908532e-06,408.3749999997495,5.165286e-06,408.3749999997495,6.105191e-06,408.3749999997495,8.016449e-06
408.3899999997495,7.879981e-06,408.3899999997495,4.87919e-06,408.3899999997495,6.137409e-06,408.3899999997495,7.790086e-06
408.40499999974946,7.90675e-06,408.40499999974946,4.672725e-06,408.40499999974946,6.01219e-06,408.40499999974946,7.919212e-06
408.41999999974945,7.66246e-06,408.41999999974945,4.569077e-06,408.41999999974945,5.714275e-06,408.41999999974945,8.128133e-06
408.43499999974944,7.697311e-06,408.43499999974944,4.70577e-06,408.43499999974944,5.415577e-06,408.43499999974944,8.352081e-06
408.4499999997494,7.444261e-06,408.4499999997494,4.759348e-06,408.4499999997494,5.513535e-06,408.4499999997494,8.178238e-06
408.4649999997494,7.423416e-06,408.4649999997494,4.684768e-06,408.4649999997494,5.423375e-06,408.4649999997494,7.990047e-06
408.4799999997494,7.320229e-06,408.4799999997494,4.318654e-06,408.4799999997494,5.275916e-06,408.4799999997494,7.827967e-06
408.4949999997494,7.037669e-06,408.4949999997494,4.216325e-06,408.4949999997494,5.339611e-06,408.4949999997494,8.095138e-06
408.50999999974937,6.667651e-06,408.50999999974937,4.196231e-06,408.50999999974937,5.472503e-06,408.50999999974937,8.319974e-06
408.52499999974935,6.589018e-06,408.52499999974935,4.162526e-06,408.52499999974935,5.371176e-06,408.52499999974935,8.655229e-06
408.53999999974934,6.393712e-06,408.53999999974934,4.070128e-06,408.53999999974934,5.336972e-06,408.53999999974934,8.648716e-06
408.5549999997493,6.340615e-06,408.5549999997493,4.094283e-06,408.5549999997493,5.275916e-06,408.5549999997493,8.985815e-06
408.5699999997493,6.431058e-06,408.5699999997493,5.137942e-06,408.5699999997493,5.230329e-06,408.5699999997493,8.998348e-06
408.5849999997493,6.300498e-06,408.5849999997493,5.399948e-06,408.5849999997493,5.181623e-06,408.5849999997493,8.827657e-06
408.5999999997493,6.121322e-06,408.5999999997493,5.760922e-06,408.5999999997493,4.928026e-06,408.5999999997493,8.5108e-06
408.6149999997493,6.061194e-06,408.6149999997493,5.962784e-06,408.6149999997493,4.970719e-06,408.6149999997493,8.565246e-06
408.62999999974926,5.910582e-06,408.62999999974926,5.853103e-06,408.62999999974926,4.809401e-06,408.62999999974926,8.067247e-06
408.64499999974925,6.107498e-06,408.64499999974925,5.953326e-06,408.64499999974925,4.73561e-06,408.64499999974925,8.105571e-06
408.65999999974923,5.953326e-06,408.65999999974923,6.002811e-06,408.65999999974923,4.711753e-06,408.65999999974923,8.070739e-06
408.6749999997492,6.08439e-06,408.6749999997492,6.007502e-06,408.6749999997492,4.774123e-06,408.6749999997492,7.938755e-06
408.6899999997492,6.068162e-06,408.6899999997492,5.901041e-06,408.6899999997492,4.741556e-06,408.6899999997492,7.903186e-06
408.7049999997492,6.865424e-06,408.7049999997492,5.855509e-06,408.7049999997492,4.386617e-06,408.7049999997492,8.357139e-06
408.7199999997492,6.834577e-06,408.7199999997492,5.934367e-06,408.7199999997492,4.338181e-06,408.7199999997492,8.350395e-06
408.73499999974916,6.94904e-06,408.73499999974916,5.955692e-06,408.73499999974916,4.844421e-06,408.73499999974916,8.258797e-06
408.74999999974915,6.747456e-06,408.74999999974915,5.965146e-06,408.74999999974915,4.684768e-06,408.74999999974915,7.97593e-06
408.76499999974914,7.057657e-06,408.76499999974914,6.072803e-06,408.76499999974914,4.66971e-06,408.76499999974914,7.448044e-06
408.7799999997491,7.16266e-06,408.7799999997491,6.2781e-06,408.7799999997491,4.699779e-06,408.7799999997491,7.304818e-06
408.7949999997491,7.2409e-06,408.7949999997491,6.296025e-06,408.7949999997491,4.672725e-06,408.7949999997491,7.312527e-06
408.8099999997491,7.316379e-06,408.8099999997491,6.037908e-06,408.8099999997491,4.666692e-06,408.8099999997491,7.324076e-06
408.8249999997491,7.446153e-06,408.8249999997491,5.352786e-06,408.8249999997491,4.639445e-06,408.8249999997491,7.60896e-06
408.83999999974907,7.302889e-06,408.83999999974907,4.824024e-06,408.83999999974907,4.466178e-06,408.83999999974907,8.489256e-06
408.85499999974905,7.502692e-06,408.85499999974905,4.812329e-06,408.85499999974905,4.418613e-06,408.85499999974905,8.348708e-06
408.86999999974904,7.377733e-06,408.86999999974904,4.541245e-06,408.86999999974904,4.506994e-06,408.86999999974904,8.475971e-06
408.884999999749,7.329844e-06,408.884999999749,4.472482e-06,408.884999999749,4.541245e-06,408.884999999749,8.519072e-06
408.899999999749,7.22142e-06,408.899999999749,4.459865e-06,408.899999999749,4.738583e-06,408.899999999749,8.484277e-06
408.914999999749,7.549485e-06,408.914999999749,4.373753e-06,408.914999999749,4.913713e-06,408.914999999749,8.439329e-06
408.929999999749,7.38918e-06,408.929999999749,4.328428e-06,408.929999999749,4.890725e-06,408.929999999749,8.39414e-06
408.944999999749,6.851046e-06,408.944999999749,4.412233e-06,408.944999999749,4.856038e-06,408.944999999749,7.96002e-06
408.95999999974896,6.466009e-06,408.95999999974896,4.987693e-06,408.95999999974896,4.81818e-06,408.95999999974896,7.766543e-06
408.97499999974895,6.439814e-06,408.97499999974895,5.222243e-06,408.97499999974895,4.756387e-06,408.97499999974895,7.735647e-06
408.98999999974893,6.461651e-06,408.98999999974893,5.291911e-06,408.98999999974893,4.453544e-06,408.98999999974893,7.793701e-06
409.0049999997489,6.296025e-06,409.0049999997489,5.321112e-06,409.0049999997489,4.444044e-06,409.0049999997489,7.748384e-06
409.0199999997489,6.132817e-06,409.0199999997489,5.140683e-06,409.0199999997489,4.373753e-06,409.0199999997489,7.597844e-06
409.0349999997489,6.123622e-06,409.0349999997489,4.979213e-06,409.0349999997489,4.578317e-06,409.0349999997489,7.667973e-06
409.0499999997489,6.239839e-06,409.0499999997489,5.00461e-06,409.0499999997489,4.73561e-06,409.0499999997489,7.675319e-06
409.06499999974886,6.342836e-06,409.06499999974886,4.987693e-06,409.06499999974886,4.702775e-06,409.06499999974886,7.337527e-06
409.07999999974885,6.333946e-06,409.07999999974885,4.979213e-06,409.07999999974885,4.717728e-06,409.07999999974885,7.065636e-06
409.09499999974884,6.692956e-06,409.09499999974884,4.925167e-06,409.09499999974884,4.738583e-06,409.09499999974884,6.404719e-06
409.1099999997488,6.500773e-06,409.1099999997488,4.806471e-06,409.1099999997488,4.826943e-06,409.1099999997488,6.409116e-06
409.1249999997488,6.559019e-06,409.1249999997488,4.899358e-06,409.1249999997488,4.794733e-06,409.1249999997488,6.535352e-06
409.1399999997488,6.522406e-06,409.1399999997488,4.876302e-06,409.1399999997488,4.672725e-06,409.1399999997488,6.614623e-06
409.1549999997488,6.53104e-06,409.1549999997488,4.856038e-06,409.1549999997488,4.553636e-06,409.1549999997488,6.711871e-06
409.16999999974877,6.282586e-06,409.16999999974877,4.870521e-06,409.16999999974877,4.605925e-06,409.16999999974877,6.513761e-06
409.18499999974875,6.483414e-06,409.18499999974875,5.00461e-06,409.18499999974875,4.714741e-06,409.18499999974875,6.914493e-06
409.19999999974874,6.580461e-06,409.19999999974874,4.497608e-06,409.19999999974874,5.010237e-06,409.19999999974874,7.750201e-06
409.2149999997487,6.892046e-06,409.2149999997487,4.145571e-06,409.2149999997487,4.998978e-06,409.2149999997487,7.887128e-06
409.2299999997487,6.957143e-06,409.2299999997487,3.834905e-06,409.2299999997487,5.007424e-06,409.2299999997487,7.981227e-06
409.2449999997487,6.957143e-06,409.2449999997487,3.711708e-06,409.2449999997487,4.884961e-06,409.2449999997487,7.92099e-06
409.2599999997487,7.059652e-06,409.2599999997487,3.692683e-06,409.2599999997487,4.942298e-06,409.2599999997487,8.021719e-06
409.2749999997487,7.233115e-06,409.2749999997487,3.820184e-06,409.2749999997487,4.907976e-06,409.2749999997487,8.072484e-06
409.28999999974866,7.264208e-06,409.28999999974866,3.882364e-06,409.28999999974866,4.510119e-06,409.28999999974866,7.997096e-06
409.30499999974865,7.154789e-06,409.30499999974865,3.932833e-06,409.30499999974865,4.602866e-06,409.30499999974865,7.931653e-06
409.31999999974863,7.019631e-06,409.31999999974863,3.979125e-06,409.31999999974863,4.624239e-06,409.31999999974863,8.063755e-06
409.3349999997486,7.065636e-06,409.3349999997486,4.196231e-06,409.3349999997486,4.663672e-06,409.3349999997486,8.275836e-06
409.3499999997486,6.879772e-06,409.3499999997486,4.27604e-06,409.3499999997486,4.732634e-06,409.3499999997486,8.212614e-06
409.3649999997486,6.881819e-06,409.3649999997486,4.259536e-06,409.3649999997486,4.553636e-06,409.3649999997486,8.148903e-06
409.3799999997486,6.772462e-06,409.3799999997486,4.114875e-06,409.3799999997486,4.809401e-06,409.3799999997486,7.95825e-06
409.39499999974856,6.784931e-06,409.39499999974856,3.96849e-06,409.39499999974856,5.038274e-06,409.39499999974856,7.827967e-06
409.40999999974855,6.902258e-06,409.40999999974855,4.007346e-06,409.40999999974855,5.096651e-06,409.40999999974855,7.887128e-06
409.42499999974854,6.780777e-06,409.42499999974854,4.249604e-06,409.42499999974854,4.850233e-06,409.42499999974854,7.981227e-06
409.4399999997485,6.74119e-06,409.4399999997485,4.128545e-06,409.4399999997485,4.747494e-06,409.4399999997485,7.457495e-06
409.4549999997485,6.552573e-06,409.4549999997485,4.169289e-06,409.4549999997485,4.52882e-06,409.4549999997485,6.898175e-06
409.4699999997485,6.349495e-06,409.4699999997485,4.186148e-06,409.4699999997485,4.648545e-06,409.4699999997485,6.944984e-06
409.4849999997485,6.371642e-06,409.4849999997485,4.216325e-06,409.4849999997485,4.75046e-06,409.4849999997485,7.59599e-06
409.49999999974847,6.091332e-06,409.49999999974847,4.216325e-06,409.49999999974847,4.720713e-06,409.49999999974847,7.901403e-06
409.51499999974845,6.233063e-06,409.51499999974845,4.249604e-06,409.51499999974845,4.744526e-06,409.51499999974845,8.326743e-06
409.52999999974844,5.960421e-06,409.52999999974844,4.042345e-06,409.52999999974844,4.910845e-06,409.52999999974844,8.321666e-06
409.5449999997484,6.040241e-06,409.5449999997484,4.318654e-06,409.5449999997484,4.95937e-06,409.5449999997484,8.384065e-06
409.5599999997484,6.051891e-06,409.5599999997484,4.559819e-06,409.5599999997484,4.905105e-06,409.5599999997484,8.432649e-06
409.5749999997484,6.100575e-06,409.5749999997484,4.463023e-06,409.5749999997484,4.916579e-06,409.5749999997484,8.095138e-06
409.5899999997484,6.016875e-06,409.5899999997484,4.370531e-06,409.5899999997484,4.82986e-06,409.5899999997484,8.026986e-06
409.6049999997484,5.934367e-06,409.6049999997484,4.459865e-06,409.6049999997484,4.930884e-06,409.6049999997484,7.947621e-06
409.61999999974836,6.075122e-06,409.61999999974836,4.636408e-06,409.61999999974836,5.018664e-06,409.61999999974836,7.952937e-06
409.63499999974835,6.205884e-06,409.63499999974835,5.371176e-06,409.63499999974835,4.806471e-06,409.63499999974835,8.306418e-06
409.64999999974833,6.331722e-06,409.64999999974833,5.418178e-06,409.64999999974833,4.841512e-06,409.64999999974833,8.601352e-06
409.6649999997483,6.260124e-06,409.6649999997483,5.270573e-06,409.6649999997483,5.222243e-06,409.6649999997483,8.744285e-06
409.6799999997483,6.353931e-06,409.6799999997483,5.249148e-06,409.6799999997483,5.2679e-06,409.6799999997483,8.668239e-06
409.6949999997483,6.494269e-06,409.6949999997483,5.157098e-06,409.6949999997483,5.286585e-06,409.6949999997483,8.702299e-06
409.7099999997483,6.635885e-06,409.7099999997483,5.195198e-06,409.7099999997483,5.22494e-06,409.7099999997483,8.859515e-06
409.72499999974826,6.552573e-06,409.72499999974826,5.173461e-06,409.72499999974826,5.187057e-06,409.72499999974826,8.676361e-06
409.73999999974825,6.483414e-06,409.73999999974825,5.238403e-06,409.73999999974825,5.184341e-06,409.73999999974825,8.023475e-06
409.75499999974824,6.776621e-06,409.75499999974824,5.554263e-06,409.75499999974824,5.339611e-06,409.75499999974824,7.549485e-06
409.7699999997482,7.34712e-06,409.7699999997482,5.503306e-06,409.7699999997482,5.326404e-06,409.7699999997482,7.571843e-06
409.7849999997482,7.406318e-06,409.7849999997482,5.418178e-06,409.7849999997482,5.270573e-06,409.7849999997482,7.470705e-06
409.7999999997482,7.645896e-06,409.7999999997482,5.310512e-06,409.7999999997482,5.297233e-06,409.7999999997482,7.788277e-06
409.8149999997482,7.632989e-06,409.8149999997482,5.140683e-06,409.8149999997482,5.257193e-06,409.8149999997482,7.979462e-06
409.82999999974817,7.60896e-06,409.82999999974817,5.113207e-06,409.82999999974817,5.329048e-06,409.82999999974817,8.048017e-06
409.84499999974815,7.667973e-06,409.84499999974815,5.162558e-06,409.84499999974815,5.297233e-06,409.84499999974815,8.188566e-06
409.85999999974814,8.545489e-06,409.85999999974814,5.082812e-06,409.85999999974814,5.318464e-06,409.85999999974814,8.313199e-06
409.8749999997481,9.040516e-06,409.8749999997481,4.581393e-06,409.8749999997481,5.305204e-06,409.8749999997481,8.274134e-06
409.8899999997481,9.165859e-06,409.8899999997481,4.29576e-06,409.8899999997481,5.342249e-06,409.8899999997481,7.733825e-06
409.9049999997481,9.505367e-06,409.9049999997481,4.299038e-06,409.9049999997481,5.313164e-06,409.9049999997481,7.741108e-06
409.9199999997481,9.691749e-06,409.9199999997481,4.383405e-06,409.9199999997481,5.148897e-06,409.9199999997481,8.262207e-06
409.9349999997481,9.62173e-06,409.9349999997481,4.389827e-06,409.9349999997481,5.110451e-06,409.9349999997481,8.461e-06
409.94999999974806,9.565934e-06,409.94999999974806,5.323759e-06,409.94999999974806,5.118714e-06,409.94999999974806,8.308113e-06
409.96499999974804,9.656803e-06,409.96499999974804,5.731505e-06,409.96499999974804,4.970719e-06,409.96499999974804,8.049767e-06
409.97999999974803,1.020435e-05,409.97999999974803,6.125922e-06,409.97999999974803,4.942298e-06,409.97999999974803,8.407555e-06
409.994999999748,1.032239e-05,409.994999999748,6.302733e-06,409.994999999748,4.723696e-06,409.994999999748,8.414254e-06
410.009999999748,1.060908e-05,410.009999999748,6.176305e-06,410.009999999748,4.853136e-06,410.009999999748,8.851561e-06
410.024999999748,1.099124e-05,410.024999999748,6.160319e-06,410.024999999748,4.850233e-06,410.024999999748,8.535592e-06
410.039999999748,1.116923e-05,410.039999999748,6.158032e-06,410.039999999748,5.148897e-06,410.039999999748,8.475971e-06
410.05499999974796,1.135559e-05,410.05499999974796,6.342836e-06,410.05499999974796,5.115961e-06,410.05499999974796,8.419275e-06
410.06999999974795,1.521514e-05,410.06999999974795,6.439814e-06,410.06999999974795,5.795054e-06,410.06999999974795,8.133331e-06
410.08499999974794,1.615107e-05,410.08499999974794,6.431058e-06,410.08499999974794,6.293787e-06,410.08499999974794,8.253678e-06
410.0999999997479,1.82817e-05,410.0999999997479,6.66131e-06,410.0999999997479,6.654963e-06,410.0999999997479,8.171345e-06
410.1149999997479,1.817506e-05,410.1149999997479,6.669763e-06,410.1149999997479,6.550423e-06,410.1149999997479,8.363879e-06
410.1299999997479,1.873983e-05,410.1299999997479,6.983416e-06,410.1299999997479,6.616753e-06,410.1299999997479,8.492574e-06
410.1449999997479,1.911566e-05,410.1449999997479,7.067629e-06,410.1449999997479,6.584741e-06,410.1449999997479,8.655229e-06
410.15999999974787,2.130165e-05,410.15999999974787,7.795508e-06,410.15999999974787,6.608231e-06,410.15999999974787,8.598076e-06
410.17499999974785,2.223987e-05,410.17499999974785,7.92099e-06,410.17499999974785,6.621009e-06,410.17499999974785,8.216045e-06
410.18999999974784,2.33395e-05,410.18999999974784,8.630781e-06,410.18999999974784,6.621009e-06,410.18999999974784,8.348708e-06
410.2049999997478,2.40833e-05,410.2049999997478,1.113386e-05,410.2049999997478,6.650728e-06,410.2049999997478,8.537242e-06
410.2199999997478,2.437978e-05,410.2199999997478,1.181043e-05,410.2199999997478,6.680315e-06,410.2199999997478,8.246849e-06
410.2349999997478,2.460409e-05,410.2349999997478,1.372982e-05,410.2349999997478,6.669763e-06,410.2349999997478,8.221186e-06
410.2499999997478,2.579641e-05,410.2499999997478,1.606625e-05,410.2499999997478,6.705572e-06,410.2499999997478,8.145445e-06
410.2649999997478,2.664736e-05,410.2649999997478,2.006834e-05,410.2649999997478,6.505105e-06,410.2649999997478,7.981227e-06
410.27999999974776,2.852894e-05,410.27999999974776,2.595429e-05,410.27999999974776,6.554722e-06,410.27999999974776,8.105571e-06
410.29499999974774,3.030876e-05,410.29499999974774,2.711843e-05,410.29499999974774,6.563313e-06,410.29499999974774,7.896054e-06
410.30999999974773,3.195843e-05,410.30999999974773,2.890664e-05,410.30999999974773,6.64861e-06,410.30999999974773,7.881768e-06
410.3249999997477,3.214653e-05,410.3249999997477,3.281141e-05,410.3249999997477,5.833818e-06,410.3249999997477,7.897837e-06
410.3399999997477,3.271381e-05,410.3399999997477,3.650634e-05,410.3399999997477,5.627332e-06,410.3399999997477,8.770023e-06
410.3549999997477,3.305181e-05,410.3549999997477,3.962238e-05,410.3549999997477,5.2679e-06,410.3549999997477,9.253046e-06
410.3699999997477,3.322779e-05,410.3699999997477,4.139824e-05,410.3699999997477,5.278585e-06,410.3699999997477,1.016147e-05
410.38499999974766,3.353668e-05,410.38499999974766,4.551222e-05,410.38499999974766,5.238403e-06,410.38499999974766,1.018915e-05
410.39999999974765,3.246744e-05,410.39999999974765,4.69402e-05,410.39999999974765,4.867628e-06,410.39999999974765,1.012258e-05
410.41499999974764,3.227117e-05,410.41499999974764,4.965672e-05,410.41499999974764,4.753424e-06,410.41499999974764,1.099637e-05
410.4299999997476,3.191829e-05,410.4299999997476,5.225721e-05,410.4299999997476,4.785911e-06,410.4299999997476,1.155725e-05
410.4449999997476,3.119965e-05,410.4449999997476,5.658063e-05,410.4449999997476,4.916579e-06,410.4449999997476,1.164709e-05
410.4599999997476,3.081988e-05,410.4599999997476,5.780256e-05,410.4599999997476,5.043863e-06,410.4599999997476,1.166643e-05
410.4749999997476,3.158466e-05,410.4749999997476,6.059148e-05,410.4749999997476,5.336972e-06,410.4749999997476,1.217688e-05
410.48999999974757,3.120552e-05,410.48999999974757,6.197934e-05,410.48999999974757,5.647323e-06,410.48999999974757,1.21096e-05
410.50499999974755,3.084455e-05,410.50499999974755,6.880836e-05,410.50499999974755,6.239839e-06,410.50499999974755,1.226334e-05
410.51999999974754,2.920287e-05,410.51999999974754,7.089877e-05,410.51999999974754,6.673986e-06,410.51999999974754,1.233663e-05
410.5349999997475,2.887348e-05,410.5349999997475,7.447117e-05,410.5349999997475,6.413511e-06,410.5349999997475,1.234006e-05
410.5499999997475,2.692346e-05,410.5499999997475,7.850752e-05,410.5499999997475,6.459471e-06,410.5499999997475,1.239246e-05
410.5649999997475,2.490399e-05,410.5649999997475,8.086345e-05,410.5649999997475,6.470365e-06,410.5649999997475,1.239132e-05
410.5799999997475,2.316806e-05,410.5799999997475,8.742432e-05,410.5799999997475,6.391509e-06,410.5799999997475,1.235261e-05
410.5949999997475,2.245983e-05,410.5949999997475,0.0001013641,410.5949999997475,6.513761e-06,410.5949999997475,1.473636e-05
410.60999999974746,2.185072e-05,410.60999999974746,0.0001093928,410.60999999974746,6.774542e-06,410.60999999974746,1.519291e-05
410.62499999974744,2.152466e-05,410.62499999974744,0.0001117498,410.62499999974744,6.791156e-06,410.62499999974744,1.651077e-05
410.63999999974743,2.14473e-05,410.63999999974743,0.0001120669,410.63999999974743,6.855157e-06,410.63999999974743,1.636939e-05
410.6549999997474,2.201514e-05,410.6549999997474,0.0001162213,410.6549999997474,6.855157e-06,410.6549999997474,1.662555e-05
410.6699999997474,2.202921e-05,410.6699999997474,0.0001224347,410.6699999997474,7.127172e-06,410.6699999997474,1.707613e-05
410.6849999997474,2.217961e-05,410.6849999997474,0.0001280339,410.6849999997474,7.099447e-06,410.6849999997474,1.771664e-05
410.6999999997474,2.333889e-05,410.6999999997474,0.0001356549,410.6999999997474,7.033664e-06,410.6999999997474,1.803032e-05
410.71499999974736,2.323485e-05,410.71499999974736,0.0001385695,410.71499999974736,6.844875e-06,410.71499999974736,1.826474e-05
410.72999999974735,2.179973e-05,410.72999999974735,0.0001404878,410.72999999974735,6.720261e-06,410.72999999974735,1.848477e-05
410.74499999974734,2.263103e-05,410.74499999974734,0.0001460844,410.74499999974734,6.797376e-06,410.74499999974734,1.86494e-05
410.7599999997473,2.26273e-05,410.7599999997473,0.0001617963,410.7599999997473,5.962784e-06,410.7599999997473,1.905366e-05
410.7749999997473,2.42221e-05,410.7749999997473,0.0001643991,410.7749999997473,6.005157e-06,410.7749999997473,1.954705e-05
410.7899999997473,2.34755e-05,410.7899999997473,0.0001686542,410.7899999997473,5.976941e-06,410.7899999997473,1.987012e-05
410.8049999997473,2.390128e-05,410.8049999997473,0.0001768021,410.8049999997473,6.663425e-06,410.8049999997473,1.993594e-05
410.81999999974727,2.391071e-05,410.81999999974727,0.0001789866,410.81999999974727,6.826328e-06,410.81999999974727,2.01538e-05
410.83499999974725,2.433698e-05,410.83499999974725,0.0001759585,410.83499999974725,6.869526e-06,410.83499999974725,2.030213e-05
410.84999999974724,2.43792e-05,410.84999999974724,0.0001799844,410.84999999974724,6.476893e-06,410.84999999974724,1.966202e-05
410.8649999997472,2.483261e-05,410.8649999997472,0.0001810568,410.8649999997472,6.459471e-06,410.8649999997472,1.901073e-05
410.8799999997472,2.527901e-05,410.8799999997472,0.0001910209,410.8799999997472,6.470365e-06,410.8799999997472,1.830249e-05
410.8949999997472,2.537634e-05,410.8949999997472,0.0001962193,410.8949999997472,6.433248e-06,410.8949999997472,1.831481e-05
410.9099999997472,2.601176e-05,410.9099999997472,0.0001937702,410.9099999997472,6.437625e-06,410.9099999997472,1.745148e-05
410.9249999997472,2.639399e-05,410.9249999997472,0.0001932615,410.9249999997472,6.322817e-06,410.9249999997472,1.688367e-05
410.93999999974716,2.609556e-05,410.93999999974716,0.0001864814,410.93999999974716,6.2781e-06,410.93999999974716,1.603466e-05
410.95499999974714,2.634752e-05,410.95499999974714,0.0001855055,410.95499999974714,6.356147e-06,410.95499999974714,1.632803e-05
410.96999999974713,2.71584e-05,410.96999999974713,0.0001890008,410.96999999974713,6.472542e-06,410.96999999974713,1.60074e-05
410.9849999997471,3.087194e-05,410.9849999997471,0.0001945168,410.9849999997471,6.329497e-06,410.9849999997471,1.721416e-05
410.9999999997471,3.101807e-05,410.9999999997471,0.0001834035,410.9999999997471,6.203613e-06,410.9999999997471,1.747003e-05
411.0149999997471,3.090478e-05,411.0149999997471,0.0001807975,411.0149999997471,6.424483e-06,411.0149999997471,1.773413e-05
411.0299999997471,3.0119e-05,411.0299999997471,0.0001813722,411.0299999997471,6.450741e-06,411.0299999997471,1.723379e-05
411.04499999974706,2.99746e-05,411.04499999974706,0.0001731469,411.04499999974706,6.463831e-06,411.04499999974706,1.699758e-05
411.05999999974705,2.987622e-05,411.05999999974705,0.0001702177,411.05999999974705,5.627332e-06,411.05999999974705,1.826937e-05
411.07499999974704,3.017367e-05,411.07499999974704,0.0001742008,411.07499999974704,5.407768e-06,411.07499999974704,1.979483e-05
411.089999999747,2.984509e-05,411.089999999747,0.0001690557,411.089999999747,5.642331e-06,411.089999999747,1.960103e-05
411.104999999747,2.964286e-05,411.104999999747,0.0001694395,411.104999999747,5.500745e-06,411.104999999747,1.850381e-05
411.119999999747,2.925974e-05,411.119999999747,0.0001618306,411.119999999747,5.462197e-06,411.119999999747,1.885672e-05
411.134999999747,2.81061e-05,411.134999999747,0.0001580654,411.134999999747,5.513535e-06,411.134999999747,1.894839e-05
411.14999999974697,2.751397e-05,411.14999999974697,0.0001555463,411.14999999974697,5.48022e-06,411.14999999974697,1.887539e-05
411.16499999974695,2.796693e-05,411.16499999974695,0.0001600049,411.16499999974695,5.428567e-06,411.16499999974695,1.875034e-05
411.17999999974694,2.7718e-05,411.17999999974694,0.0001604453,411.17999999974694,5.233022e-06,411.17999999974694,1.879687e-05
411.1949999997469,2.772105e-05,411.1949999997469,0.0001605462,411.1949999997469,5.222243e-06,411.1949999997469,1.851827e-05
411.2099999997469,2.716411e-05,411.2099999997469,0.0001595695,411.2099999997469,5.195198e-06,411.2099999997469,1.827168e-05
411.2249999997469,2.631756e-05,411.2249999997469,0.000158614,411.2249999997469,4.858938e-06,411.2249999997469,1.817506e-05
411.2399999997469,2.219866e-05,411.2399999997469,0.000152109,411.2399999997469,4.657627e-06,411.2399999997469,1.650053e-05
411.2549999997469,2.25062e-05,411.2549999997469,0.0001544223,411.2549999997469,4.578317e-06,411.2549999997469,1.564783e-05
411.26999999974686,2.32603e-05,411.26999999974686,0.0001521303,411.26999999974686,4.266145e-06,411.26999999974686,1.537997e-05
411.28499999974684,2.36155e-05,411.28499999974684,0.0001551961,411.28499999974684,4.17604e-06,411.28499999974684,1.532768e-05
411.29999999974683,2.391248e-05,411.29999999974683,0.0001612562,411.29999999974683,4.223002e-06,411.29999999974683,1.510736e-05
411.3149999997468,2.376297e-05,411.3149999997468,0.0001551401,411.3149999997468,4.285911e-06,411.3149999997468,1.301021e-05
411.3299999997468,2.426104e-05,411.3299999997468,0.0001565372,411.3299999997468,4.389827e-06,411.3299999997468,1.056251e-05
411.3449999997468,2.418253e-05,411.3449999997468,0.0001600666,411.3449999997468,4.165909e-06,411.3449999997468,1.066999e-05
411.3599999997468,2.389893e-05,411.3599999997468,0.0001583309,411.3599999997468,4.95937e-06,411.3599999997468,1.185092e-05
411.37499999974676,2.426046e-05,411.37499999974676,0.0001540756,411.37499999974676,4.75046e-06,411.37499999974676,1.22461e-05
411.38999999974675,2.422385e-05,411.38999999974675,0.0001529708,411.38999999974675,4.780021e-06,411.38999999974675,1.220346e-05
411.40499999974674,2.39719e-05,411.40499999974674,0.0001578292,411.40499999974674,4.947995e-06,411.40499999974674,1.222307e-05
411.4199999997467,2.315955e-05,411.4199999997467,0.0001570025,411.4199999997467,5.035477e-06,411.4199999997467,1.321433e-05
411.4349999997467,2.277622e-05,411.4349999997467,0.0001547465,411.4349999997467,5.043863e-06,411.4349999997467,1.403023e-05
411.4499999997467,2.287558e-05,411.4499999997467,0.0001565815,411.4499999997467,5.027078e-06,411.4499999997467,1.416115e-05
411.4649999997467,2.313216e-05,411.4649999997467,0.0001553858,411.4649999997467,5.027078e-06,411.4649999997467,1.482024e-05
411.47999999974667,2.324515e-05,411.47999999974667,0.0001705875,411.47999999974667,5.222243e-06,411.47999999974667,1.535431e-05
411.49499999974665,2.3084e-05,411.49499999974665,0.0001756197,411.49499999974665,5.168013e-06,411.49499999974665,1.524012e-05
411.50999999974664,2.285648e-05,411.50999999974664,0.0001740797,411.50999999974664,5.257193e-06,411.50999999974664,1.518827e-05
411.5249999997466,2.301616e-05,411.5249999997466,0.0001703638,411.5249999997466,5.795054e-06,411.5249999997466,1.521329e-05
411.5399999997466,2.273041e-05,411.5399999997466,0.0001669844,411.5399999997466,5.845879e-06,411.5399999997466,1.519754e-05
411.5549999997466,2.232079e-05,411.5549999997466,0.0001694253,411.5549999997466,5.857914e-06,411.5549999997466,1.505599e-05
411.5699999997466,2.176481e-05,411.5699999997466,0.0001715092,411.5699999997466,5.910582e-06,411.5699999997466,1.46904e-05
411.58499999974657,2.199209e-05,411.58499999974657,0.0001722632,411.58499999974657,5.865124e-06,411.58499999974657,1.464142e-05
411.59999999974656,2.290573e-05,411.59999999974656,0.0001643409,411.59999999974656,5.444114e-06,411.59999999974656,1.429776e-05
411.61499999974654,2.494242e-05,411.61499999974654,0.0001698245,411.61499999974654,5.402556e-06,411.61499999974654,1.174225e-05
411.62999999974653,2.447205e-05,411.62999999974653,0.0001717897,411.62999999974653,5.334332e-06,411.62999999974653,1.167005e-05
411.6449999997465,2.428599e-05,411.6449999997465,0.0001747967,411.6449999997465,5.297233e-06,411.6449999997465,1.165797e-05
411.6599999997465,2.513707e-05,411.6599999997465,0.0001737612,411.6599999997465,5.118714e-06,411.6599999997465,1.16483e-05
411.6749999997465,2.549596e-05,411.6749999997465,0.0001711794,411.6749999997465,5.121465e-06,411.6749999997465,9.551197e-06
411.6899999997465,2.495766e-05,411.6899999997465,0.0001711098,411.6899999997465,5.289249e-06,411.6899999997465,9.074732e-06
411.70499999974646,2.525113e-05,411.70499999974646,0.0001689935,411.70499999974646,5.397339e-06,411.70499999974646,8.377342e-06
411.71999999974645,2.5245e-05,411.71999999974645,0.0001638907,411.71999999974645,5.334332e-06,411.71999999974645,6.284828e-06
411.73499999974644,2.432309e-05,411.73499999974644,0.0001505085,411.73499999974644,5.170737e-06,411.73499999974644,6.05887e-06
411.7499999997464,2.40218e-05,411.7499999997464,0.0001436008,411.7499999997464,5.102175e-06,411.7499999997464,5.943854e-06
411.7649999997464,2.385054e-05,411.7649999997464,0.0001434209,411.7649999997464,4.608983e-06,411.7649999997464,5.706874e-06
411.7799999997464,2.368816e-05,411.7799999997464,0.000142116,411.7799999997464,4.472482e-06,411.7799999997464,5.974584e-06
411.7949999997464,2.361908e-05,411.7949999997464,0.0001449331,411.7949999997464,4.569077e-06,411.7949999997464,5.787757e-06
411.80999999974637,2.34593e-05,411.80999999974637,0.0001428656,411.80999999974637,4.478776e-06,411.80999999974637,5.841057e-06
411.82499999974635,2.380621e-05,411.82499999974635,0.0001374208,411.82499999974635,4.424985e-06,411.82499999974635,5.679657e-06
411.83999999974634,2.318082e-05,411.83999999974634,0.0001358774,411.83999999974634,4.469331e-06,411.83999999974634,5.592176e-06
411.8549999997463,2.045627e-05,411.8549999997463,0.0001356701,411.8549999997463,4.590608e-06,411.8549999997463,5.546649e-06
411.8699999997463,2.090448e-05,411.8699999997463,0.0001339091,411.8699999997463,4.516361e-06,411.8699999997463,5.787757e-06
411.8849999997463,2.204136e-05,411.8849999997463,0.0001322544,411.8849999997463,4.844421e-06,411.8849999997463,5.857914e-06
411.8999999997463,2.27397e-05,411.8999999997463,0.0001352014,411.8999999997463,4.996159e-06,411.8999999997463,5.953326e-06
411.91499999974627,2.242468e-05,411.91499999974627,0.0001329901,411.91499999974627,4.979213e-06,411.91499999974627,6.246608e-06
411.92999999974626,2.195684e-05,411.92999999974626,0.0001364982,411.92999999974626,4.884961e-06,411.92999999974626,6.125922e-06
411.94499999974624,2.210581e-05,411.94499999974624,0.0001429142,411.94499999974624,4.919443e-06,411.94499999974624,6.007502e-06
411.95999999974623,2.115899e-05,411.95999999974623,0.0001529225,411.95999999974623,4.936594e-06,411.95999999974623,5.967507e-06
411.9749999997462,2.135976e-05,411.9749999997462,0.0001585298,411.9749999997462,4.998978e-06,411.9749999997462,6.11211e-06
411.9899999997462,2.149191e-05,411.9899999997462,0.0001574161,411.9899999997462,5.068936e-06,411.9899999997462,6.123622e-06
412.0049999997462,2.190867e-05,412.0049999997462,0.0001573923,412.0049999997462,5.066156e-06,412.0049999997462,6.329497e-06
412.0199999997462,2.198761e-05,412.0199999997462,0.0001584743,412.0199999997462,4.910845e-06,412.0199999997462,6.132817e-06
412.03499999974616,2.249493e-05,412.03499999974616,0.0001572588,412.03499999974616,4.782967e-06,412.03499999974616,6.070483e-06
412.04999999974615,2.245921e-05,412.04999999974615,0.000153783,412.04999999974615,4.762306e-06,412.04999999974615,6.219488e-06
412.06499999974614,2.194272e-05,412.06499999974614,0.0001557052,412.06499999974614,4.744526e-06,412.06499999974614,6.242096e-06
412.0799999997461,2.269071e-05,412.0799999997461,0.0001549899,412.0799999997461,4.815255e-06,412.0799999997461,6.437625e-06
412.0949999997461,2.336785e-05,412.0949999997461,0.0001537075,412.0949999997461,6.291548e-06,412.0949999997461,6.571893e-06
412.1099999997461,2.261983e-05,412.1099999997461,0.0001604897,412.1099999997461,8.573465e-06,412.1099999997461,7.125195e-06
412.1249999997461,2.158479e-05,412.1249999997461,0.0001597327,412.1249999997461,8.682853e-06,412.1249999997461,7.003558e-06
412.13999999974607,2.124072e-05,412.13999999974607,0.0001496831,412.13999999974607,8.668239e-06,412.13999999974607,7.019631e-06
412.15499999974605,2.204583e-05,412.15499999974605,0.0001604461,412.15499999974605,8.758771e-06,412.15499999974605,7.174451e-06
412.16999999974604,2.210135e-05,412.16999999974604,0.0001606191,412.16999999974604,9.23476e-06,412.16999999974604,7.142966e-06
412.184999999746,2.175575e-05,412.184999999746,0.0001567999,412.184999999746,9.683024e-06,412.184999999746,7.333686e-06
412.199999999746,2.175575e-05,412.199999999746,0.0001515899,412.199999999746,9.704822e-06,412.199999999746,7.396802e-06
412.214999999746,2.177387e-05,412.214999999746,0.0001352256,412.214999999746,1.010307e-05,412.214999999746,7.444261e-06
412.229999999746,2.131024e-05,412.229999999746,0.0001290792,412.229999999746,1.007655e-05,412.229999999746,7.453716e-06
412.24499999974597,2.104417e-05,412.24499999974597,0.0001275357,412.24499999974597,1.014065e-05,412.24499999974597,7.339447e-06
412.25999999974596,2.000718e-05,412.25999999974596,0.0001264677,412.25999999974596,1.036325e-05,412.25999999974596,7.252564e-06
412.27499999974594,2.012372e-05,412.27499999974594,0.0001239873,412.27499999974594,1.056917e-05,412.27499999974594,7.483893e-06
412.28999999974593,1.957082e-05,412.28999999974593,0.0001201828,412.28999999974593,1.117301e-05,412.28999999974593,7.413922e-06
412.3049999997459,1.924932e-05,412.3049999997459,0.0001140277,412.3049999997459,1.127842e-05,412.3049999997459,7.584854e-06
412.3199999997459,1.879537e-05,412.3199999997459,0.0001121851,412.3199999997459,1.128841e-05,412.3199999997459,7.682656e-06
412.3349999997459,1.861462e-05,412.3349999997459,0.0001120955,412.3349999997459,1.124715e-05,412.3349999997459,7.878193e-06
412.3499999997459,1.779994e-05,412.3499999997459,0.0001145107,412.3499999997459,9.509811e-06,412.3499999997459,7.500814e-06
412.36499999974586,1.756332e-05,412.36499999974586,9.684057e-05,412.36499999974586,8.619349e-06,412.36499999974586,7.250621e-06
412.37999999974585,1.757374e-05,412.37999999974585,9.370814e-05,412.37999999974585,8.512456e-06,412.37999999974585,7.325999e-06
412.39499999974583,1.766887e-05,412.39499999974583,8.862487e-05,412.39499999974583,8.474309e-06,412.39499999974583,7.22532e-06
412.4099999997458,1.457005e-05,412.4099999997458,6.975525e-05,412.4099999997458,8.427637e-06,412.4099999997458,7.256447e-06
412.4249999997458,1.464527e-05,412.4249999997458,6.059288e-05,412.4249999997458,7.506446e-06,412.4249999997458,7.19993e-06
412.4399999997458,1.541657e-05,412.4399999997458,6.227139e-05,412.4399999997458,7.291306e-06,412.4399999997458,7.021637e-06
412.4549999997458,1.616415e-05,412.4549999997458,6.273274e-05,412.4549999997458,6.74119e-06,412.4549999997458,7.154789e-06
412.46999999974577,1.636681e-05,412.46999999974577,6.314411e-05,412.46999999974577,6.780777e-06,412.46999999974577,7.156758e-06
412.48499999974575,1.690701e-05,412.48499999974575,6.561102e-05,412.48499999974575,6.745368e-06,412.48499999974575,7.144938e-06
412.49999999974574,1.742563e-05,412.49999999974574,6.66076e-05,412.49999999974574,6.724452e-06,412.49999999974574,7.588568e-06
412.5149999997457,1.868261e-05,412.5149999997457,6.238146e-05,412.5149999997457,6.089019e-06,412.5149999997457,7.601551e-06
412.5299999997457,1.902629e-05,412.5299999997457,6.060566e-05,412.5299999997457,6.114414e-06,412.5299999997457,7.432898e-06
412.5449999997457,1.929609e-05,412.5449999997457,6.596539e-05,412.5449999997457,4.708762e-06,412.5449999997457,7.502692e-06
412.5599999997457,1.99945e-05,412.5599999997457,6.851457e-05,412.5599999997457,4.873412e-06,412.5599999997457,7.3106e-06
412.57499999974567,2.074619e-05,412.57499999974567,6.810109e-05,412.57499999974567,4.93374e-06,412.57499999974567,7.146909e-06
412.58999999974566,2.097914e-05,412.58999999974566,6.599721e-05,412.58999999974566,5.041069e-06,412.58999999974566,6.906339e-06
412.60499999974564,2.150305e-05,412.60499999974564,6.327315e-05,412.60499999974564,4.896482e-06,412.60499999974564,6.96726e-06
412.61999999974563,2.271863e-05,412.61999999974563,6.654857e-05,412.61999999974563,4.762306e-06,412.61999999974563,7.178377e-06
412.6349999997456,2.38777e-05,412.6349999997456,6.718165e-05,412.6349999997456,4.864733e-06,412.6349999997456,7.29903e-06
412.6499999997456,2.419592e-05,412.6499999997456,6.541234e-05,412.6499999997456,5.208738e-06,412.6499999997456,6.916529e-06
412.6649999997456,2.439018e-05,412.6649999997456,6.49531e-05,412.6649999997456,5.464775e-06,412.6649999997456,7.077588e-06
412.6799999997456,2.537357e-05,412.6799999997456,6.409512e-05,412.6799999997456,5.574516e-06,412.6799999997456,7.273898e-06
412.69499999974556,2.482921e-05,412.69499999974556,6.562476e-05,412.69499999974556,5.536481e-06,412.69499999974556,7.331766e-06
412.70999999974555,2.529628e-05,412.70999999974555,6.769903e-05,412.70999999974555,5.612292e-06,412.70999999974555,7.352869e-06
412.72499999974553,2.560733e-05,412.72499999974553,6.56078e-05,412.72499999974553,5.674694e-06,412.72499999974553,7.415822e-06
412.7399999997455,2.589126e-05,412.7399999997455,6.700928e-05,412.7399999997455,5.632336e-06,412.7399999997455,7.404416e-06
412.7549999997455,2.537357e-05,412.7549999997455,6.705467e-05,412.7549999997455,5.556798e-06,412.7549999997455,6.936866e-06
412.7699999997455,2.406106e-05,412.7699999997455,6.646957e-05,412.7699999997455,5.579567e-06,412.7699999997455,7.125195e-06
412.7849999997455,2.435318e-05,412.7849999997455,6.668074e-05,412.7849999997455,5.672212e-06,412.7849999997455,7.037669e-06
412.79999999974547,2.432772e-05,412.79999999974547,5.771134e-05,412.79999999974547,5.855509e-06,412.79999999974547,7.252564e-06
412.81499999974545,2.412829e-05,412.81499999974545,6.07598e-05,412.81499999974545,5.657291e-06,412.81499999974545,7.387274e-06
412.82999999974544,2.390835e-05,412.82999999974544,6.154599e-05,412.82999999974544,5.701935e-06,412.82999999974544,7.523317e-06
412.8449999997454,2.29512e-05,412.8449999997454,6.657016e-05,412.8449999997454,5.526294e-06,412.8449999997454,8.282642e-06
412.8599999997454,2.32215e-05,412.8599999997454,6.532679e-05,412.8599999997454,5.508422e-06,412.8599999997454,9.576237e-06
412.8749999997454,2.171362e-05,412.8749999997454,6.468754e-05,412.8749999997454,5.462197e-06,412.8749999997454,1.03442e-05
412.8899999997454,2.193887e-05,412.8899999997454,6.549648e-05,412.8899999997454,5.195198e-06,412.8899999997454,1.100533e-05
412.90499999974537,2.190159e-05,412.90499999974537,6.366179e-05,412.90499999974537,5.013047e-06,412.90499999974537,1.15609e-05
412.91999999974536,2.157826e-05,412.91999999974536,6.425645e-05,412.91999999974536,4.615091e-06,412.91999999974536,1.335114e-05
412.93499999974534,1.936169e-05,412.93499999974534,6.205793e-05,412.93499999974534,4.553636e-06,412.93499999974534,1.340589e-05
412.94999999974533,1.869693e-05,412.94999999974533,6.09302e-05,412.94999999974533,4.608983e-06,412.94999999974533,1.342479e-05
412.9649999997453,1.795516e-05,412.9649999997453,5.939895e-05,412.9649999997453,4.219664e-06,412.9649999997453,1.345205e-05
412.9799999997453,1.936387e-05,412.9799999997453,5.780134e-05,412.9799999997453,4.279333e-06,412.9799999997453,1.351681e-05
412.9949999997453,1.911493e-05,412.9949999997453,5.530499e-05,412.9949999997453,4.239647e-06,412.9949999997453,1.361132e-05
413.0099999997453,1.920609e-05,413.0099999997453,5.318597e-05,413.0099999997453,4.302314e-06,413.0099999997453,1.368357e-05
413.02499999974526,1.931506e-05,413.02499999974526,5.233425e-05,413.02499999974526,4.516361e-06,413.02499999974526,1.367225e-05
413.03999999974525,2.074008e-05,413.03999999974525,5.144079e-05,413.03999999974525,4.500739e-06,413.03999999974525,1.393553e-05
413.05499999974523,2.122347e-05,413.05499999974523,4.876677e-05,413.05499999974523,4.450379e-06,413.05499999974523,1.49659e-05
413.0699999997452,2.308583e-05,413.0699999997452,4.439033e-05,413.0699999997452,4.47563e-06,413.0699999997452,1.609691e-05
413.0849999997452,2.494073e-05,413.0849999997452,4.004568e-05,413.0849999997452,4.478776e-06,413.0849999997452,1.648088e-05
413.0999999997452,2.630204e-05,413.0999999997452,3.58365e-05,413.0999999997452,4.605925e-06,413.0999999997452,1.639862e-05
413.1149999997452,2.671124e-05,413.1149999997452,3.295492e-05,413.1149999997452,4.675739e-06,413.1149999997452,1.570176e-05
413.12999999974517,2.606153e-05,413.12999999974517,2.728983e-05,413.12999999974517,4.67875e-06,413.12999999974517,1.483354e-05
413.14499999974515,2.715114e-05,413.14499999974515,2.425175e-05,413.14499999974515,4.67875e-06,413.14499999974515,1.428988e-05
413.15999999974514,2.748169e-05,413.15999999974514,2.445708e-05,413.15999999974514,4.70577e-06,413.15999999974514,1.39628e-05
413.1749999997451,2.778095e-05,413.1749999997451,2.073465e-05,413.1749999997451,4.624239e-06,413.1749999997451,1.304589e-05
413.1899999997451,2.784325e-05,413.1899999997451,2.690304e-05,413.1899999997451,4.714741e-06,413.1899999997451,1.324415e-05
413.2049999997451,2.804791e-05,413.2049999997451,2.682124e-05,413.2049999997451,4.684768e-06,413.2049999997451,1.326328e-05
413.2199999997451,2.81051e-05,413.2199999997451,3.205481e-05,413.2199999997451,4.67875e-06,413.2199999997451,1.36774e-05
413.23499999974507,2.801826e-05,413.23499999974507,3.478207e-05,413.23499999974507,4.654602e-06,413.23499999974507,1.364853e-05
413.24999999974506,2.79629e-05,413.24999999974506,3.77478e-05,413.24999999974506,4.832776e-06,413.24999999974506,1.364956e-05
413.26499999974504,2.850474e-05,413.26499999974504,4.19858e-05,413.26499999974504,4.690778e-06,413.26499999974504,1.36413e-05
413.27999999974503,2.872871e-05,413.27999999974503,4.406546e-05,413.27999999974503,4.488202e-06,413.27999999974503,1.369592e-05
413.294999999745,2.755438e-05,413.294999999745,4.853804e-05,413.294999999745,4.491339e-06,413.294999999745,1.333636e-05
413.309999999745,2.714076e-05,413.309999999745,4.995228e-05,413.309999999745,4.219664e-06,413.309999999745,1.205947e-05
413.324999999745,2.56738e-05,413.324999999745,5.527824e-05,413.324999999745,4.232997e-06,413.324999999745,1.103473e-05
413.339999999745,2.483885e-05,413.339999999745,5.961579e-05,413.339999999745,4.125132e-06,413.339999999745,1.028274e-05
413.35499999974496,2.499207e-05,413.35499999974496,6.364431e-05,413.35499999974496,4.338181e-06,413.35499999974496,1.044718e-05
413.36999999974495,2.479003e-05,413.36999999974495,7.391334e-05,413.36999999974495,4.602866e-06,413.36999999974495,1.083376e-05
413.38499999974493,2.476957e-05,413.38499999974493,8.423942e-05,413.38499999974493,4.67875e-06,413.38499999974493,1.079729e-05
413.3999999997449,2.397132e-05,413.3999999997449,8.633229e-05,413.3999999997449,4.720713e-06,413.3999999997449,1.078554e-05
413.4149999997449,2.416038e-05,413.4149999997449,8.995466e-05,413.4149999997449,4.70577e-06,413.4149999997449,1.071083e-05
413.4299999997449,2.445535e-05,413.4299999997449,9.355845e-05,413.4299999997449,4.696781e-06,413.4299999997449,1.094372e-05
413.4449999997449,2.518522e-05,413.4449999997449,9.854852e-05,413.4449999997449,4.645514e-06,413.4449999997449,1.071215e-05
413.45999999974487,2.581497e-05,413.45999999974487,0.000103153,413.45999999974487,4.675739e-06,413.45999999974487,1.150961e-05
413.47499999974485,2.441961e-05,413.47499999974485,0.0001073621,413.47499999974485,4.870521e-06,413.47499999974485,1.111867e-05
413.48999999974484,2.499714e-05,413.48999999974484,0.0001252191,413.48999999974484,4.838602e-06,413.48999999974484,1.136303e-05
413.5049999997448,2.514435e-05,413.5049999997448,0.0001311718,413.5049999997448,4.756387e-06,413.5049999997448,1.152307e-05
413.5199999997448,2.626076e-05,413.5199999997448,0.0001344372,413.5199999997448,4.651575e-06,413.5199999997448,1.559644e-05
413.5349999997448,2.82406e-05,413.5349999997448,0.0001388184,413.5349999997448,4.729657e-06,413.5349999997448,2.10522e-05
413.5499999997448,2.788673e-05,413.5499999997448,0.0001409324,413.5499999997448,4.858938e-06,413.5499999997448,2.239388e-05
413.56499999974477,2.711895e-05,413.56499999974477,0.0001450262,413.56499999974477,4.873412e-06,413.56499999974477,2.254247e-05
413.57999999974476,2.697416e-05,413.57999999974476,0.0001488805,413.57999999974476,4.870521e-06,413.57999999974476,2.248679e-05
413.59499999974474,2.565349e-05,413.59499999974474,0.0001509354,413.59499999974474,4.841512e-06,413.59499999974474,2.262107e-05
413.60999999974473,2.534913e-05,413.60999999974473,0.000152464,413.60999999974473,4.559819e-06,413.60999999974473,3.052319e-05
413.6249999997447,2.533134e-05,413.6249999997447,0.0001504578,413.6249999997447,4.29576e-06,413.6249999997447,3.755324e-05
413.6399999997447,2.472403e-05,413.6399999997447,0.000153814,413.6399999997447,4.450379e-06,413.6399999997447,3.832333e-05
413.6549999997447,2.4965e-05,413.6549999997447,0.000153998,413.6549999997447,5.433755e-06,413.6549999997447,4.508338e-05
413.6699999997447,2.437111e-05,413.6699999997447,0.0001560583,413.6699999997447,5.48279e-06,413.6699999997447,5.051593e-05
413.68499999974466,2.392897e-05,413.68499999974466,0.0001577355,413.68499999974466,5.462197e-06,413.68499999974466,5.358493e-05
413.69999999974465,2.310718e-05,413.69999999974465,0.0001645566,413.69999999974465,5.48022e-06,413.69999999974465,5.816745e-05
413.71499999974463,2.308034e-05,413.71499999974463,0.0001675611,413.71499999974463,5.438937e-06,413.71499999974463,6.069741e-05
413.7299999997446,2.327301e-05,413.7299999997446,0.0001588957,413.7299999997446,5.281253e-06,413.7299999997446,6.121598e-05
413.7449999997446,2.254934e-05,413.7449999997446,0.0001569387,413.7449999997446,5.365928e-06,413.7449999997446,6.448754e-05
413.7599999997446,2.235674e-05,413.7599999997446,0.0001645641,413.7599999997446,5.399948e-06,413.7599999997446,6.465922e-05
413.7749999997446,1.930047e-05,413.7749999997446,0.0001666729,413.7749999997446,5.358047e-06,413.7749999997446,6.409951e-05
413.78999999974457,1.802172e-05,413.78999999974457,0.0001723049,413.78999999974457,5.352786e-06,413.78999999974457,6.51761e-05
413.80499999974455,1.891044e-05,413.80499999974455,0.0001767836,413.80499999974455,5.251831e-06,413.80499999974455,6.649245e-05
413.81999999974454,1.95384e-05,413.81999999974454,0.000181752,413.81999999974454,5.297233e-06,413.81999999974454,6.776226e-05
413.8349999997445,1.9326e-05,413.8349999997445,0.0001812826,413.8349999997445,5.704405e-06,413.8349999997445,6.907236e-05
413.8499999997445,2.016637e-05,413.8499999997445,0.0001822739,413.8499999997445,5.773135e-06,413.8499999997445,7.044911e-05
413.8649999997445,1.959743e-05,413.8649999997445,0.0001901888,413.8649999997445,5.782887e-06,413.8649999997445,6.824511e-05
413.8799999997445,2.006483e-05,413.8799999997445,0.0002013131,413.8799999997445,5.905813e-06,413.8799999997445,6.73201e-05
413.89499999974447,1.985664e-05,413.89499999974447,0.0002000869,413.89499999974447,5.049445e-06,413.89499999974447,7.620633e-05
413.90999999974446,2.049411e-05,413.90999999974446,0.0002004548,413.90999999974446,5.060592e-06,413.90999999974446,7.411927e-05
413.92499999974444,2.182427e-05,413.92499999974444,0.0002057572,413.92499999974444,5.055022e-06,413.92499999974444,8.429425e-05
413.93999999974443,2.286511e-05,413.93999999974443,0.0002107905,413.93999999974443,5.124215e-06,413.93999999974443,8.560591e-05
413.9549999997444,2.379378e-05,413.9549999997444,0.0002080293,413.9549999997444,5.262549e-06,413.9549999997444,8.931899e-05
413.9699999997444,2.372856e-05,413.9699999997444,0.0002087335,413.9699999997444,5.315815e-06,413.9699999997444,8.766054e-05
413.9849999997444,2.401124e-05,413.9849999997444,0.00020898,413.9849999997444,5.233022e-06,413.9849999997444,8.769862e-05
413.9999999997444,2.364173e-05,413.9999999997444,0.0002087796,413.9999999997444,5.549188e-06,413.9999999997444,8.665704e-05
414.01499999974436,2.390423e-05,414.01499999974436,0.0002103505,414.01499999974436,5.589657e-06,414.01499999974436,8.664062e-05
414.02999999974435,2.381094e-05,414.02999999974435,0.0002099718,414.02999999974435,5.549188e-06,414.02999999974435,8.438712e-05
414.04499999974433,2.386412e-05,414.04499999974433,0.0002064466,414.04499999974433,5.602244e-06,414.04499999974433,8.361201e-05
414.0599999997443,2.334613e-05,414.0599999997443,0.0002028554,414.0599999997443,5.579567e-06,414.0599999997443,8.252927e-05
414.0749999997443,2.34677e-05,414.0749999997443,0.0001972996,414.0749999997443,5.574516e-06,414.0749999997443,8.329568e-05
414.0899999997443,2.364888e-05,414.0899999997443,0.0001967203,414.0899999997443,5.029879e-06,414.0899999997443,8.228688e-05
414.1049999997443,2.435839e-05,414.1049999997443,0.0002002236,414.1049999997443,5.184341e-06,414.1049999997443,8.049679e-05
414.11999999974427,2.401124e-05,414.11999999974427,0.0001904194,414.11999999974427,5.124215e-06,414.11999999974427,8.056658e-05
414.13499999974425,2.579587e-05,414.13499999974425,0.0001768679,414.13499999974425,5.041069e-06,414.13499999974425,7.701482e-05
414.14999999974424,2.591301e-05,414.14999999974424,0.0001785282,414.14999999974424,5.071714e-06,414.14999999974424,6.758595e-05
414.1649999997442,2.502981e-05,414.1649999997442,0.0001834896,414.1649999997442,4.973552e-06,414.1649999997442,6.448295e-05
414.1799999997442,2.429179e-05,414.1799999997442,0.0001834385,414.1799999997442,4.939447e-06,414.1799999997442,4.541183e-05
414.1949999997442,2.34887e-05,414.1949999997442,0.0001758215,414.1949999997442,4.962209e-06,414.1949999997442,3.710341e-05
414.2099999997442,2.417262e-05,414.2099999997442,0.000181308,414.2099999997442,4.870521e-06,414.2099999997442,2.924433e-05
414.22499999974417,2.373925e-05,414.22499999974417,0.0001829815,414.22499999974417,4.794733e-06,414.22499999974417,2.894317e-05
414.23999999974416,2.44248e-05,414.23999999974416,0.0001799116,414.23999999974416,4.738583e-06,414.23999999974416,2.716722e-05
414.25499999974414,2.396191e-05,414.25499999974414,0.0001807266,414.25499999974414,4.431347e-06,414.25499999974414,2.487795e-05
414.26999999974413,2.359461e-05,414.26999999974413,0.0001787597,414.26999999974413,4.35762e-06,414.26999999974413,2.489946e-05
414.2849999997441,2.367329e-05,414.2849999997441,0.0001767359,414.2849999997441,4.547444e-06,414.2849999997441,2.492321e-05
414.2999999997441,2.32215e-05,414.2999999997441,0.0001724623,414.2999999997441,4.962209e-06,414.2999999997441,2.522881e-05
414.3149999997441,2.337387e-05,414.3149999997441,0.0001742644,414.3149999997441,5.397339e-06,414.3149999997441,2.485529e-05
414.3299999997441,2.305652e-05,414.3299999997441,0.0001749776,414.3299999997441,6.836638e-06,414.3299999997441,1.911787e-05
414.34499999974406,2.377364e-05,414.34499999974406,0.000171122,414.34499999974406,7.46882e-06,414.34499999974406,1.758256e-05
414.35999999974405,2.289897e-05,414.35999999974405,0.000181256,414.35999999974405,1.224494e-05,414.35999999974405,1.662809e-05
414.37499999974403,2.194785e-05,414.37499999974403,0.0001816358,414.37499999974403,1.427212e-05,414.37499999974403,1.277751e-05
414.389999999744,2.15227e-05,414.389999999744,0.0001817249,414.389999999744,1.589879e-05,414.389999999744,1.11604e-05
414.404999999744,2.205222e-05,414.404999999744,0.0001795685,414.404999999744,1.621896e-05,414.404999999744,1.127342e-05
414.419999999744,2.230754e-05,414.419999999744,0.0001715879,414.419999999744,1.717648e-05,414.419999999744,1.256517e-05
414.434999999744,2.230501e-05,414.434999999744,0.0001698256,414.434999999744,1.751191e-05,414.434999999744,1.233778e-05
414.44999999974397,2.279291e-05,414.44999999974397,0.0001659966,414.44999999974397,1.782919e-05,414.44999999974397,1.287634e-05
414.46499999974395,2.134525e-05,414.46499999974395,0.0001546774,414.46499999974395,1.827862e-05,414.46499999974395,1.266567e-05
414.47999999974394,2.151353e-05,414.47999999974394,0.0001471375,414.47999999974394,1.832864e-05,414.47999999974394,1.267345e-05
414.4949999997439,2.196518e-05,414.4949999997439,0.0001406514,414.4949999997439,1.838466e-05,414.4949999997439,1.269788e-05
414.5099999997439,2.263912e-05,414.5099999997439,0.0001392915,414.5099999997439,1.847333e-05,414.5099999997439,1.228285e-05
414.5249999997439,2.378845e-05,414.5249999997439,0.0001269536,414.5249999997439,6.25337e-05,414.5249999997439,1.238336e-05
414.5399999997439,2.363875e-05,414.5399999997439,0.0001234502,414.5399999997439,6.998327e-05,414.5399999997439,1.232407e-05
414.55499999974387,2.400362e-05,414.55499999974387,0.0001212062,414.55499999974387,7.862694e-05,414.55499999974387,1.172785e-05
414.56999999974386,2.375526e-05,414.56999999974386,0.0001136809,414.56999999974386,7.949855e-05,414.56999999974386,1.167126e-05
414.58499999974384,2.27688e-05,414.58499999974384,0.0001143538,414.58499999974384,7.967767e-05,414.58499999974384,1.112753e-05
414.59999999974383,2.334432e-05,414.59999999974383,0.0001129358,414.59999999974383,7.998716e-05,414.59999999974383,1.12158e-05
414.6149999997438,2.336363e-05,414.6149999997438,8.598551e-05,414.6149999997438,8.031389e-05,414.6149999997438,1.123963e-05
414.6299999997438,2.324879e-05,414.6299999997438,8.811414e-05,414.6299999997438,7.978491e-05,414.6299999997438,1.113639e-05
414.6449999997438,2.241086e-05,414.6449999997438,8.558633e-05,414.6449999997438,7.976142e-05,414.6449999997438,1.045796e-05
414.6599999997438,2.195234e-05,414.6599999997438,7.365331e-05,414.6599999997438,7.97139e-05,414.6599999997438,9.958426e-06
414.67499999974376,2.18958e-05,414.67499999974376,7.256486e-05,414.67499999974376,7.955027e-05,414.67499999974376,7.739288e-06
414.68999999974375,2.262916e-05,414.68999999974375,7.196506e-05,414.68999999974375,7.94654e-05,414.68999999974375,7.105398e-06
414.70499999974373,2.280836e-05,414.70499999974373,7.249106e-05,414.70499999974373,7.933429e-05,414.70499999974373,6.515924e-06
414.7199999997437,2.269754e-05,414.7199999997437,7.153569e-05,414.7199999997437,7.932506e-05,414.7199999997437,6.797376e-06
414.7349999997437,2.277808e-05,414.7349999997437,8.1902e-05,414.7349999997437,7.933661e-05,414.7349999997437,6.734918e-06
414.7499999997437,2.164409e-05,414.7499999997437,8.187224e-05,414.7499999997437,7.934726e-05,414.7499999997437,6.869526e-06
414.7649999997437,2.225063e-05,414.7649999997437,8.234284e-05,414.7649999997437,7.893306e-05,414.7649999997437,6.713969e-06
414.77999999974367,2.15763e-05,414.77999999974367,8.586633e-05,414.77999999974367,4.955562e-05,414.77999999974367,6.667651e-06
414.79499999974365,2.169025e-05,414.79499999974365,8.570722e-05,414.79499999974365,3.355012e-05,414.79499999974365,6.446372e-06
414.80999999974364,2.141706e-05,414.80999999974364,9.119142e-05,414.80999999974364,1.692783e-05,414.80999999974364,6.483414e-06
414.8249999997436,2.196325e-05,414.8249999997436,9.16566e-05,414.8249999997436,1.534788e-05,414.8249999997436,6.713969e-06
414.8399999997436,2.058669e-05,414.8399999997436,9.334637e-05,414.8399999997436,1.344157e-05,414.8399999997436,6.697164e-06
414.8549999997436,2.045352e-05,414.8549999997436,9.399977e-05,414.8549999997436,9.576237e-06,414.8549999997436,6.66131e-06
414.8699999997436,2.074687e-05,414.8699999997436,9.216482e-05,414.8699999997436,7.586711e-06,414.8699999997436,6.612493e-06
414.88499999974357,2.105755e-05,414.88499999974357,8.796245e-05,414.88499999974357,6.863372e-06,414.88499999974357,6.635885e-06
414.89999999974356,2.07774e-05,414.89999999974356,9.070042e-05,414.89999999974356,7.015617e-06,414.89999999974356,6.481242e-06
414.91499999974354,2.133997e-05,414.91499999974354,9.3231e-05,414.91499999974354,7.029658e-06,414.91499999974354,6.561167e-06
414.92999999974353,2.048724e-05,414.92999999974353,9.383448e-05,414.92999999974353,6.936866e-06,414.92999999974353,6.618881e-06
414.9449999997435,1.96398e-05,414.9449999997435,8.842724e-05,414.9449999997435,7.440475e-06,414.9449999997435,6.896133e-06
414.9599999997435,1.97021e-05,414.9599999997435,8.679591e-05,414.9599999997435,7.322153e-06,414.9599999997435,7.063642e-06
414.9749999997435,2.168116e-05,414.9749999997435,8.466543e-05,414.9749999997435,7.172487e-06,414.9749999997435,7.077588e-06
414.9899999997435,2.374933e-05,414.9899999997435,7.653391e-05,414.9899999997435,6.840758e-06,414.9899999997435,7.360529e-06
415.00499999974346,2.371134e-05,415.00499999974346,7.641972e-05,415.00499999974346,6.153455e-06,415.00499999974346,7.926324e-06
415.01999999974345,2.289097e-05,415.01999999974345,7.5041e-05,415.01999999974345,6.021555e-06,415.01999999974345,8.005899e-06
415.03499999974343,2.300698e-05,415.03499999974343,7.137995e-05,415.03499999974343,6.044903e-06,415.03499999974343,8.297934e-06
415.0499999997434,2.304797e-05,415.0499999997434,7.287403e-05,415.0499999997434,6.135114e-06,415.0499999997434,8.442667e-06
415.0649999997434,2.352286e-05,415.0649999997434,7.201632e-05,415.0649999997434,6.08439e-06,415.0649999997434,9.204201e-06
415.0799999997434,2.34677e-05,415.0799999997434,7.251087e-05,415.0799999997434,6.068162e-06,415.0799999997434,9.774246e-06
415.0949999997434,2.35468e-05,415.0949999997434,7.138606e-05,415.0949999997434,6.398117e-06,415.0949999997434,9.901682e-06
415.10999999974337,2.369054e-05,415.10999999974337,7.031721e-05,415.10999999974337,6.349495e-06,415.10999999974337,1.021952e-05
415.12499999974335,2.290266e-05,415.12499999974335,7.209413e-05,415.12499999974335,6.356147e-06,415.12499999974335,1.023743e-05
415.13999999974334,2.29045e-05,415.13999999974334,6.359626e-05,415.13999999974334,6.373853e-06,415.13999999974334,1.045258e-05
415.1549999997433,2.274527e-05,415.1549999997433,6.23862e-05,415.1549999997433,5.523745e-06,415.1549999997433,1.043504e-05
415.1699999997433,2.248303e-05,415.1699999997433,5.912107e-05,415.1699999997433,5.760922e-06,415.1699999997433,1.075415e-05
415.1849999997433,2.268388e-05,415.1849999997433,5.88603e-05,415.1849999997433,5.848288e-06,415.1849999997433,1.102196e-05
415.1999999997433,2.296531e-05,415.1999999997433,6.144864e-05,415.1999999997433,5.192486e-06,415.1999999997433,1.126092e-05
415.21499999974327,2.218787e-05,415.21499999974327,6.094314e-05,415.21499999974327,5.168013e-06,415.21499999974327,1.15974e-05
415.22999999974326,2.117896e-05,415.22999999974326,6.206201e-05,415.22999999974326,5.137942e-06,415.22999999974326,1.395876e-05
415.24499999974324,2.204903e-05,415.24499999974324,6.247826e-05,415.24499999974324,5.124215e-06,415.24499999974324,1.59845e-05
415.25999999974323,2.277622e-05,415.25999999974323,6.317333e-05,415.25999999974323,5.2679e-06,415.25999999974323,1.922588e-05
415.2749999997432,2.422966e-05,415.2749999997432,6.242863e-05,415.2749999997432,5.323759e-06,415.2749999997432,2.1724e-05
415.2899999997432,2.428773e-05,415.2899999997432,6.225533e-05,415.2899999997432,5.360675e-06,415.2899999997432,2.206882e-05
415.3049999997432,2.421105e-05,415.3049999997432,5.52869e-05,415.3049999997432,5.523745e-06,415.3049999997432,2.21039e-05
415.3199999997432,2.344007e-05,415.3199999997432,5.01566e-05,415.3199999997432,5.56946e-06,415.3199999997432,3.205261e-05
415.33499999974316,2.330326e-05,415.33499999974316,4.660409e-05,415.33499999974316,5.449287e-06,415.33499999974316,3.624417e-05
415.34999999974315,2.363041e-05,415.34999999974315,4.241275e-05,415.34999999974315,5.170737e-06,415.34999999974315,4.093388e-05
415.36499999974313,2.468525e-05,415.36499999974313,3.929393e-05,415.36499999974313,5.355417e-06,415.36499999974313,4.183994e-05
415.3799999997431,2.558862e-05,415.3799999997431,3.632569e-05,415.3799999997431,5.339611e-06,415.3799999997431,4.403988e-05
415.3949999997431,2.601338e-05,415.3949999997431,3.628107e-05,415.3949999997431,5.34752e-06,415.3949999997431,4.47056e-05
415.4099999997431,2.641587e-05,415.4099999997431,3.593228e-05,415.4099999997431,5.399948e-06,415.4099999997431,4.466935e-05
415.4249999997431,2.690043e-05,415.4249999997431,3.536883e-05,415.4249999997431,5.107694e-06,415.4249999997431,4.467029e-05
415.43999999974307,2.734964e-05,415.43999999974307,3.020307e-05,415.43999999974307,5.093886e-06,415.43999999974307,4.473237e-05
415.45499999974305,2.745759e-05,415.45499999974305,3.354676e-05,415.45499999974305,5.331691e-06,415.45499999974305,4.470213e-05
415.46999999974304,2.772258e-05,415.46999999974304,3.140486e-05,415.46999999974304,5.350154e-06,415.46999999974304,4.439509e-05
415.484999999743,2.746323e-05,415.484999999743,3.568563e-05,415.484999999743,5.420777e-06,415.484999999743,4.385236e-05
415.499999999743,2.539964e-05,415.499999999743,3.703616e-05,415.499999999743,5.528843e-06,415.499999999743,4.297268e-05
415.514999999743,2.504106e-05,415.514999999743,3.504473e-05,415.514999999743,5.352786e-06,415.514999999743,4.160969e-05
415.529999999743,2.343947e-05,415.529999999743,3.634314e-05,415.529999999743,5.318464e-06,415.529999999743,4.051639e-05
415.54499999974297,2.336182e-05,415.54499999974297,3.824496e-05,415.54499999974297,5.143422e-06,415.54499999974297,4.038056e-05
415.55999999974296,2.355817e-05,415.55999999974296,4.374687e-05,415.55999999974296,5.088352e-06,415.55999999974296,4.027613e-05
415.57499999974294,2.360058e-05,415.57499999974294,4.76136e-05,415.57499999974294,5.043863e-06,415.57499999974294,3.175635e-05
415.58999999974293,2.401359e-05,415.58999999974293,5.313032e-05,415.58999999974293,5.124215e-06,415.58999999974293,2.474168e-05
415.6049999997429,2.364411e-05,415.6049999997429,5.836932e-05,415.6049999997429,5.007424e-06,415.6049999997429,1.804438e-05
415.6199999997429,2.233657e-05,415.6199999997429,6.058916e-05,415.6199999997429,4.753424e-06,415.6199999997429,1.582953e-05
415.6349999997429,2.18591e-05,415.6349999997429,6.34965e-05,415.6349999997429,4.850233e-06,415.6349999997429,1.180327e-05
415.6499999997429,2.227215e-05,415.6499999997429,7.364374e-05,415.6499999997429,4.654602e-06,415.6499999997429,1.327602e-05
415.66499999974286,2.185459e-05,415.66499999974286,7.962478e-05,415.66499999974286,4.806471e-06,415.66499999974286,1.525028e-05
415.67999999974285,2.160892e-05,415.67999999974285,8.450255e-05,415.67999999974285,4.762306e-06,415.67999999974285,1.560095e-05
415.69499999974283,2.035756e-05,415.69499999974283,8.701716e-05,415.69499999974283,4.684768e-06,415.69499999974283,1.583576e-05
415.7099999997428,1.931652e-05,415.7099999997428,8.679542e-05,415.7099999997428,4.456705e-06,415.7099999997428,1.608465e-05
415.7249999997428,1.907435e-05,415.7249999997428,9.417584e-05,415.7249999997428,4.440873e-06,415.7249999997428,1.633665e-05
415.7399999997428,1.880136e-05,415.7399999997428,0.000105539,415.7399999997428,4.35115e-06,415.7399999997428,1.60408e-05
415.7549999997428,1.913997e-05,415.7549999997428,0.0001076703,415.7549999997428,4.236323e-06,415.7549999997428,1.617722e-05
415.76999999974277,1.882832e-05,415.76999999974277,0.0001113126,415.76999999974277,4.861837e-06,415.76999999974277,1.631422e-05
415.78499999974275,1.891788e-05,415.78499999974275,0.0001151772,415.78499999974275,5.052234e-06,415.78499999974275,1.700504e-05
415.79999999974274,1.937478e-05,415.79999999974274,0.0001256042,415.79999999974274,5.132455e-06,415.79999999974274,1.71091e-05
415.8149999997427,2.083698e-05,415.8149999997427,0.0001273048,415.8149999997427,5.251831e-06,415.8149999997427,1.877587e-05
415.8299999997427,2.128511e-05,415.8299999997427,0.0001330402,415.8299999997427,5.307859e-06,415.8299999997427,1.885374e-05
415.8449999997427,2.156063e-05,415.8449999997427,0.0001355949,415.8449999997427,5.118714e-06,415.8449999997427,1.893203e-05
415.8599999997427,2.104083e-05,415.8599999997427,0.0001361828,415.8599999997427,5.063375e-06,415.8599999997427,1.917453e-05
415.87499999974267,2.107828e-05,415.87499999974267,0.0001382929,415.87499999974267,5.052234e-06,415.87499999974267,1.881409e-05
415.88999999974266,2.203369e-05,415.88999999974266,0.0001493362,415.88999999974266,5.622323e-06,415.88999999974266,1.776508e-05
415.90499999974264,2.153186e-05,415.90499999974264,0.0001489824,415.90499999974264,5.500745e-06,415.90499999974264,1.761937e-05
415.91999999974263,2.136438e-05,415.91999999974263,0.0001632913,415.91999999974263,5.415577e-06,415.91999999974263,3.77127e-05
415.9349999997426,2.15227e-05,415.9349999997426,0.0001637896,415.9349999997426,5.472503e-06,415.9349999997426,5.029067e-05
415.9499999997426,2.21866e-05,415.9499999997426,0.0001648188,415.9499999997426,5.397339e-06,415.9499999997426,5.097507e-05
415.9649999997426,2.184621e-05,415.9649999997426,0.0001740235,415.9649999997426,5.451871e-06,415.9649999997426,6.310149e-05
415.9799999997426,2.17227e-05,415.9799999997426,0.0001748216,415.9799999997426,5.505864e-06,415.9799999997426,6.796361e-05
415.99499999974256,2.185395e-05,415.99499999974256,0.0001800849,415.99499999974256,5.503306e-06,415.99499999974256,7.037388e-05
416.00999999974255,2.160957e-05,416.00999999974255,0.0001803573,416.00999999974255,5.594695e-06,416.00999999974255,8.46398e-05
416.02499999974253,2.384818e-05,416.02499999974253,0.0001803953,416.02499999974253,4.976383e-06,416.02499999974253,9.395016e-05
416.0399999997425,2.41598e-05,416.0399999997425,0.0001813356,416.0399999997425,4.873412e-06,416.0399999997425,9.410791e-05
416.0549999997425,2.481445e-05,416.0549999997425,0.0001803968,416.0549999997425,5.418178e-06,416.0549999997425,9.569762e-05
416.0699999997425,2.422559e-05,416.0699999997425,0.0001844419,416.0699999997425,5.428567e-06,416.0699999997425,0.0001017823
416.0849999997425,2.470921e-05,416.0849999997425,0.0001851745,416.0849999997425,5.451871e-06,416.0849999997425,0.0001023959
416.09999999974247,2.559027e-05,416.09999999974247,0.0001849668,416.09999999974247,5.662269e-06,416.09999999974247,0.0001025623
416.11499999974245,2.591464e-05,416.11499999974245,0.0001860713,416.11499999974245,5.689569e-06,416.11499999974245,0.0001069669
416.12999999974244,2.549154e-05,416.12999999974244,0.0001865742,416.12999999974244,5.765811e-06,416.12999999974244,0.0001113717
416.1449999997424,2.437053e-05,416.1449999997424,0.0001815174,416.1449999997424,5.126963e-06,416.1449999997424,0.0001118725
416.1599999997424,2.559412e-05,416.1599999997424,0.0001840002,416.1599999997424,5.12971e-06,416.1599999997424,0.0001178156
416.1749999997424,2.57691e-05,416.1749999997424,0.0001878911,416.1749999997424,5.173461e-06,416.1749999997424,0.00011181
416.1899999997424,2.593909e-05,416.1899999997424,0.0002049845,416.1899999997424,5.2679e-06,416.1899999997424,0.0001140603
416.20499999974237,2.571328e-05,416.20499999974237,0.0002093004,416.20499999974237,5.48022e-06,416.20499999974237,0.0001142894
416.21999999974236,2.590268e-05,416.21999999974236,0.000206399,416.21999999974236,5.619817e-06,416.21999999974236,0.0001096408
416.23499999974234,2.61904e-05,416.23499999974234,0.0002018017,416.23499999974234,6.219488e-06,416.23499999974234,0.0001064326
416.24999999974233,2.588472e-05,416.24999999974233,0.0002041366,416.24999999974233,6.047233e-06,416.24999999974233,0.000105834
416.2649999997423,2.587384e-05,416.2649999997423,0.0002128895,416.2649999997423,6.095956e-06,416.2649999997423,9.047619e-05
416.2799999997423,2.365126e-05,416.2799999997423,0.0002117385,416.2799999997423,6.194524e-06,416.2799999997423,8.645409e-05
416.2949999997423,2.339074e-05,416.2949999997423,0.0002148862,416.2949999997423,6.035575e-06,416.2949999997423,8.663996e-05
416.3099999997423,2.285956e-05,416.3099999997423,0.0002153332,416.3099999997423,5.579567e-06,416.3099999997423,8.229236e-05
416.32499999974226,2.289835e-05,416.32499999974226,0.0002198361,416.32499999974226,5.753582e-06,416.32499999974226,7.731457e-05
416.33999999974225,2.0864e-05,416.33999999974225,0.0002222262,416.33999999974225,5.760922e-06,416.33999999974225,7.684545e-05
416.35499999974223,2.024028e-05,416.35499999974223,0.0002243718,416.35499999974223,5.629835e-06,416.35499999974223,7.645399e-05
416.3699999997422,1.977275e-05,416.3699999997422,0.0002364239,416.3699999997422,5.551726e-06,416.3699999997422,6.702694e-05
416.3849999997422,2.039351e-05,416.3849999997422,0.0002350807,416.3849999997422,5.528843e-06,416.3849999997422,6.257671e-05
416.3999999997422,2.187263e-05,416.3999999997422,0.0002448622,416.3999999997422,5.536481e-06,416.3999999997422,5.955929e-05
416.4149999997422,2.048586e-05,416.4149999997422,0.0002444935,416.4149999997422,5.56946e-06,416.4149999997422,4.542548e-05
416.42999999974217,2.07394e-05,416.42999999974217,0.0002346765,416.42999999974217,5.867525e-06,416.42999999974217,4.156023e-05
416.44499999974215,2.026393e-05,416.44499999974215,0.0002194833,416.44499999974215,5.689569e-06,416.44499999974215,2.748221e-05
416.45999999974214,2.060858e-05,416.45999999974214,0.0002228467,416.45999999974214,5.785323e-06,416.45999999974214,2.425465e-05
416.4749999997421,2.03049e-05,416.4749999997421,0.000222705,416.4749999997421,5.371176e-06,416.4749999997421,2.039903e-05
416.4899999997421,2.011671e-05,416.4899999997421,0.0002283892,416.4899999997421,7.449935e-06,416.4899999997421,2.024028e-05
416.5049999997421,2.142956e-05,416.5049999997421,0.000226655,416.5049999997421,7.768356e-06,416.5049999997421,1.730313e-05
416.5199999997421,2.111301e-05,416.5199999997421,0.0002222621,416.5199999997421,7.71559e-06,416.5199999997421,1.657973e-05
416.53499999974207,2.266897e-05,416.53499999974207,0.0002234518,416.53499999974207,8.135063e-06,416.53499999974207,1.652868e-05
416.54999999974206,2.206053e-05,416.54999999974206,0.000219748,416.54999999974206,8.547137e-06,416.54999999974206,1.372674e-05
416.56499999974204,2.157565e-05,416.56499999974204,0.0002165188,416.56499999974204,1.729825e-05,416.56499999974204,1.325053e-05
416.57999999974203,2.266586e-05,416.57999999974203,0.0002092498,416.57999999974203,1.732591e-05,416.57999999974203,1.273554e-05
416.594999999742,2.321847e-05,416.594999999742,0.0002134729,416.594999999742,1.735029e-05,416.594999999742,1.179253e-05
416.609999999742,2.332319e-05,416.609999999742,0.000207059,416.609999999742,1.816653e-05,416.609999999742,1.142485e-05
416.624999999742,2.376356e-05,416.624999999742,0.0001996772,416.624999999742,1.853195e-05,416.624999999742,1.123838e-05
416.639999999742,2.390069e-05,416.639999999742,0.0002000152,416.639999999742,1.856992e-05,416.639999999742,1.086362e-05
416.65499999974196,2.314007e-05,416.65499999974196,0.0001867544,416.65499999974196,1.877137e-05,416.65499999974196,1.095144e-05
416.66999999974195,2.306385e-05,416.66999999974195,0.0001772749,416.66999999974195,1.908026e-05,416.66999999974195,1.065413e-05
416.68499999974193,2.251621e-05,416.68499999974193,0.0001750825,416.68499999974193,1.904183e-05,416.68499999974193,9.828859e-06
416.6999999997419,2.227784e-05,416.6999999997419,0.0001708813,416.6999999997419,2.011601e-05,416.6999999997419,9.76848e-06
416.7149999997419,2.196004e-05,416.7149999997419,0.0001601744,416.7149999997419,2.090582e-05,416.7149999997419,9.411539e-06
416.7299999997419,2.245544e-05,416.7299999997419,0.0001492306,416.7299999997419,2.094756e-05,416.7299999997419,9.44441e-06
416.7449999997419,2.159718e-05,416.7449999997419,0.0001379594,416.7449999997419,2.041077e-05,416.7449999997419,9.365025e-06
416.75999999974186,2.080451e-05,416.75999999974186,0.000124539,416.75999999974186,2.121351e-05,416.75999999974186,9.148938e-06
416.77499999974185,2.015589e-05,416.77499999974185,0.0001220419,416.77499999974185,2.112635e-05,416.77499999974185,8.616079e-06
416.78999999974184,1.946834e-05,416.78999999974184,0.000116187,416.78999999974184,2.110033e-05,416.78999999974184,7.373913e-06
416.8049999997418,1.961827e-05,416.8049999997418,0.0001098284,416.8049999997418,1.989279e-05,416.8049999997418,7.366268e-06
416.8199999997418,1.94198e-05,416.8199999997418,0.0001067971,416.8199999997418,1.467601e-05,416.8199999997418,7.235062e-06
416.8349999997418,1.809505e-05,416.8349999997418,9.724528e-05,416.8349999997418,1.464911e-05,416.8349999997418,6.855157e-06
416.8499999997418,1.790173e-05,416.8499999997418,8.77081e-05,416.8499999997418,1.469999e-05,416.8499999997418,6.782854e-06
416.86499999974177,1.724197e-05,416.86499999974177,8.034528e-05,416.86499999974177,1.41193e-05,416.86499999974177,6.369431e-06
416.87999999974176,1.580994e-05,416.87999999974176,7.753381e-05,416.87999999974176,1.389504e-05,416.87999999974176,6.550423e-06
416.89499999974174,1.617461e-05,416.89499999974174,6.975666e-05,416.89499999974174,1.380962e-05,416.89499999974174,6.309435e-06
416.90999999974173,1.624413e-05,416.90999999974173,6.850861e-05,416.90999999974173,1.352203e-05,416.90999999974173,6.280343e-06
416.9249999997417,1.629348e-05,416.9249999997417,7.059692e-05,416.9249999997417,1.312019e-05,416.9249999997417,6.16489e-06
416.9399999997417,1.639433e-05,416.9399999997417,7.044051e-05,416.9399999997417,1.302428e-05,416.9399999997417,6.16489e-06
416.9549999997417,1.843211e-05,416.9549999997417,7.29345e-05,416.9549999997417,1.13779e-05,416.9549999997417,6.219488e-06
416.9699999997417,1.855171e-05,416.9699999997417,8.503598e-05,416.9699999997417,9.881745e-06,416.9699999997417,6.382687e-06
416.98499999974166,1.819907e-05,416.98499999974166,8.876956e-05,416.98499999974166,9.945687e-06,416.98499999974166,6.481242e-06
416.99999999974165,1.880361e-05,416.99999999974165,9.033861e-05,416.99999999974165,9.42201e-06,416.99999999974165,6.442001e-06
417.01499999974163,2.006764e-05,417.01499999974163,9.215214e-05,417.01499999974163,7.599698e-06,417.01499999974163,6.520246e-06
417.0299999997416,2.055519e-05,417.0299999997416,9.338257e-05,417.0299999997416,7.432898e-06,417.0299999997416,6.260124e-06
417.0449999997416,2.066114e-05,417.0449999997416,9.554928e-05,417.0449999997416,7.354785e-06,417.0449999997416,6.25337e-06
417.0599999997416,2.092333e-05,417.0599999997416,9.645404e-05,417.0599999997416,7.095478e-06,417.0599999997416,6.019215e-06
417.0749999997416,2.103882e-05,417.0749999997416,9.25463e-05,417.0749999997416,7.201887e-06,417.0749999997416,6.194524e-06
417.08999999974156,2.106424e-05,417.08999999974156,9.493815e-05,417.08999999974156,6.818068e-06,417.08999999974156,6.633762e-06
417.10499999974155,2.133007e-05,417.10499999974155,9.576075e-05,417.10499999974155,5.799914e-06,417.10499999974155,7.140994e-06
417.11999999974154,2.143087e-05,417.11999999974154,9.798371e-05,417.11999999974154,6.333946e-06,417.11999999974154,7.448044e-06
417.1349999997415,2.125796e-05,417.1349999997415,9.776595e-05,417.1349999997415,6.360578e-06,417.1349999997415,8.098617e-06
417.1499999997415,2.066319e-05,417.1499999997415,9.564123e-05,417.1499999997415,6.582601e-06,417.1499999997415,8.856334e-06
417.1649999997415,2.059764e-05,417.1649999997415,0.0001007683,417.1649999997415,6.543968e-06,417.1649999997415,1.173025e-05
417.1799999997415,2.063454e-05,417.1799999997415,0.0001001126,417.1799999997415,6.463831e-06,417.1799999997415,1.284239e-05
417.19499999974147,2.018034e-05,417.19499999974147,0.0001019811,417.19499999974147,6.404719e-06,417.19499999974147,2.764829e-05
417.20999999974146,1.940021e-05,417.20999999974146,0.0001003427,417.20999999974146,6.498606e-06,417.20999999974146,4.583698e-05
417.22499999974144,1.948931e-05,417.22499999974144,9.013035e-05,417.22499999974144,6.282586e-06,417.22499999974144,5.278345e-05
417.2399999997414,1.937405e-05,417.2399999997414,8.647951e-05,417.2399999997414,6.091332e-06,417.2399999997414,5.532714e-05
417.2549999997414,1.907657e-05,417.2549999997414,8.520627e-05,417.2549999997414,5.993417e-06,417.2549999997414,5.560701e-05
417.2699999997414,1.791353e-05,417.2699999997414,8.498428e-05,417.2699999997414,6.042573e-06,417.2699999997414,5.568549e-05
417.2849999997414,1.881335e-05,417.2849999997414,8.20896e-05,417.2849999997414,6.021555e-06,417.2849999997414,5.675092e-05
417.2999999997414,1.805842e-05,417.2999999997414,7.969234e-05,417.2999999997414,5.995767e-06,417.2999999997414,5.722354e-05
417.31499999974136,1.892533e-05,417.31499999974136,7.905699e-05,417.31499999974136,5.881913e-06,417.31499999974136,5.726931e-05
417.32999999974135,1.883355e-05,417.32999999974135,7.695681e-05,417.32999999974135,5.941484e-06,417.32999999974135,5.746085e-05
417.34499999974133,1.81611e-05,417.34499999974133,7.149826e-05,417.34499999974133,5.867525e-06,417.34499999974133,5.768327e-05
417.3599999997413,2.005359e-05,417.3599999997413,6.25695e-05,417.3599999997413,6.019215e-06,417.3599999997413,5.835073e-05
417.3749999997413,2.00304e-05,417.3749999997413,6.154737e-05,417.3749999997413,5.516089e-06,417.3749999997413,5.922177e-05
417.3899999997413,2.0151e-05,417.3899999997413,6.082329e-05,417.3899999997413,5.384273e-06,417.3899999997413,5.924722e-05
417.4049999997413,2.011321e-05,417.4049999997413,5.956591e-05,417.4049999997413,5.331691e-06,417.4049999997413,5.90264e-05
417.41999999974126,1.979127e-05,417.41999999974126,4.786e-05,417.41999999974126,5.254512e-06,417.41999999974126,5.843661e-05
417.43499999974125,1.997124e-05,417.43499999974125,4.527296e-05,417.43499999974125,5.2679e-06,417.43499999974125,5.830122e-05
417.44999999974124,1.994865e-05,417.44999999974124,3.36955e-05,417.44999999974124,5.110451e-06,417.44999999974124,4.153786e-05
417.4649999997412,1.957873e-05,417.4649999997412,3.338723e-05,417.4649999997412,4.979213e-06,417.4649999997412,3.583178e-05
417.4799999997412,1.937478e-05,417.4799999997412,3.203107e-05,417.4799999997412,4.950841e-06,417.4799999997412,2.621459e-05
417.4949999997412,1.91782e-05,417.4949999997412,2.904956e-05,417.4949999997412,5.032679e-06,417.4949999997412,2.290389e-05
417.5099999997412,2.130496e-05,417.5099999997412,2.840325e-05,417.5099999997412,4.936594e-06,417.5099999997412,2.496726e-05
417.52499999974117,2.1299e-05,417.52499999974117,2.602746e-05,417.52499999974117,4.896482e-06,417.52499999974117,2.719417e-05
417.53999999974116,2.084915e-05,417.53999999974116,2.602259e-05,417.53999999974116,4.893604e-06,417.53999999974116,2.688314e-05
417.55499999974114,2.15384e-05,417.55499999974114,2.598142e-05,417.55499999974114,4.876302e-06,417.55499999974114,2.638759e-05
417.5699999997411,2.094621e-05,417.5699999997411,2.459378e-05,417.5699999997411,5.015856e-06,417.5699999997411,2.669014e-05
417.5849999997411,2.203113e-05,417.5849999997411,2.41353e-05,417.5849999997411,4.899358e-06,417.5849999997411,2.625111e-05
417.5999999997411,2.301678e-05,417.5999999997411,1.806232e-05,417.5999999997411,4.928026e-06,417.5999999997411,2.537357e-05
417.6149999997411,2.20535e-05,417.6149999997411,1.491971e-05,417.6149999997411,4.478776e-06,417.6149999997411,2.477412e-05
417.6299999997411,2.243096e-05,417.6299999997411,1.136675e-05,417.6299999997411,4.624239e-06,417.6299999997411,2.237689e-05
417.64499999974106,2.241337e-05,417.64499999974106,9.325834e-06,417.64499999974106,4.636408e-06,417.64499999974106,2.24943e-05
417.65999999974105,2.285217e-05,417.65999999974105,8.42262e-06,417.65999999974105,4.409039e-06,417.65999999974105,2.265467e-05
417.67499999974103,2.324152e-05,417.67499999974103,8.502521e-06,417.67499999974103,4.285911e-06,417.67499999974103,2.264659e-05
417.689999999741,2.32954e-05,417.689999999741,8.42262e-06,417.689999999741,4.246287e-06,417.689999999741,2.253747e-05
417.704999999741,2.362623e-05,417.704999999741,8.323359e-06,417.704999999741,4.31539e-06,417.704999999741,2.224937e-05
417.719999999741,2.368459e-05,417.719999999741,8.286042e-06,417.719999999741,4.236323e-06,417.719999999741,2.218342e-05
417.734999999741,2.358805e-05,417.734999999741,9.116548e-06,417.734999999741,4.402644e-06,417.734999999741,2.197736e-05
417.74999999974096,2.22329e-05,417.74999999974096,1.206415e-05,417.74999999974096,4.35115e-06,417.74999999974096,2.063727e-05
417.76499999974095,2.111034e-05,417.76499999974095,1.4652e-05,417.76499999974095,4.162526e-06,417.76499999974095,1.751915e-05
417.77999999974094,2.053737e-05,417.77999999974094,1.583665e-05,417.77999999974094,4.239647e-06,417.77999999974094,1.253824e-05
417.7949999997409,2.003462e-05,417.7949999997409,1.800217e-05,417.7949999997409,4.252917e-06,417.7949999997409,1.095915e-05
417.8099999997409,1.943865e-05,417.8099999997409,2.570615e-05,417.8099999997409,4.246287e-06,417.8099999997409,1.06581e-05
417.8249999997409,1.841758e-05,417.8249999997409,3.140396e-05,417.8249999997409,4.165909e-06,417.8249999997409,9.565934e-06
417.8399999997409,1.786234e-05,417.8399999997409,3.375231e-05,417.8399999997409,4.125132e-06,417.8399999997409,9.37104e-06
417.85499999974087,1.616241e-05,417.85499999974087,4.132604e-05,417.85499999974087,4.118297e-06,417.85499999974087,7.831566e-06
417.86999999974086,1.61807e-05,417.86999999974086,5.033547e-05,417.86999999974086,3.989731e-06,417.86999999974086,7.22532e-06
417.88499999974084,1.606625e-05,417.88499999974084,6.318136e-05,417.88499999974084,3.78313e-06,417.88499999974084,8.049767e-06
417.8999999997408,1.690868e-05,417.8999999997408,6.540932e-05,417.8999999997408,3.8751e-06,417.8999999997408,8.527336e-06
417.9149999997408,1.83839e-05,417.9149999997408,6.731445e-05,417.9149999997408,3.947135e-06,417.9149999997408,8.687718e-06
417.9299999997408,1.849239e-05,417.9299999997408,7.238974e-05,417.9299999997408,4.035369e-06,417.9299999997408,1.06581e-05
417.9449999997408,1.945169e-05,417.9449999997408,7.620485e-05,417.9449999997408,4.035369e-06,417.9449999997408,1.172544e-05
417.9599999997408,2.031114e-05,417.9599999997408,9.069654e-05,417.9599999997408,4.017877e-06,417.9599999997408,1.203843e-05
417.97499999974076,2.148405e-05,417.97499999974076,0.0001093183,417.97499999974076,4.031877e-06,417.97499999974076,1.480883e-05
417.98999999974075,2.234476e-05,417.98999999974075,0.0001180857,417.98999999974075,3.936414e-06,417.98999999974075,1.553943e-05
418.00499999974073,2.351747e-05,418.00499999974073,0.0001221431,418.00499999974073,3.896851e-06,418.00499999974073,1.583842e-05
418.0199999997407,2.374696e-05,418.0199999997407,0.0001236738,418.0199999997407,3.964939e-06,418.0199999997407,1.589879e-05
418.0349999997407,2.37689e-05,418.0349999997407,0.0001314882,418.0349999997407,3.889614e-06,418.0349999997407,1.596069e-05
418.0499999997407,2.380384e-05,418.0499999997407,0.0001330238,418.0499999997407,4.070128e-06,418.0499999997407,1.613886e-05
418.0649999997407,2.376653e-05,418.0649999997407,0.0001356002,418.0649999997407,4.097722e-06,418.0649999997407,1.666363e-05
418.07999999974066,2.391307e-05,418.07999999974066,0.0001407924,418.07999999974066,3.989731e-06,418.07999999974066,1.699344e-05
418.09499999974065,2.406633e-05,418.09499999974065,0.0001469122,418.09499999974065,4.145571e-06,418.09499999974065,1.710169e-05
418.10999999974064,2.418253e-05,418.10999999974064,0.0001471762,418.10999999974064,4.29248e-06,418.10999999974064,1.763616e-05
418.1249999997406,2.401066e-05,418.1249999997406,0.0001497473,418.1249999997406,4.242968e-06,418.1249999997406,1.824545e-05
418.1399999997406,2.443461e-05,418.1399999997406,0.0001547091,418.1399999997406,4.34467e-06,418.1399999997406,1.784499e-05
418.1549999997406,2.441557e-05,418.1549999997406,0.0001581871,418.1549999997406,4.209638e-06,418.1549999997406,1.803735e-05
418.1699999997406,2.484282e-05,418.1699999997406,0.0001656783,418.1699999997406,4.131956e-06,418.1699999997406,1.838696e-05
418.18499999974057,2.44098e-05,418.18499999974057,0.0001677587,418.18499999974057,4.236323e-06,418.18499999974057,2.063863e-05
418.19999999974056,2.356594e-05,418.19999999974056,0.0001743269,418.19999999974056,4.196231e-06,418.19999999974056,7.097523e-05
418.21499999974054,2.241526e-05,418.21499999974054,0.000167398,418.21499999974054,4.212983e-06,418.21499999974054,8.881255e-05
418.2299999997405,2.17402e-05,418.2299999997405,0.0001807684,418.2299999997405,4.252917e-06,418.2299999997405,0.0001004206
418.2449999997405,2.030351e-05,418.2449999997405,0.0001773853,418.2449999997405,4.135364e-06,418.2449999997405,0.0001210274
418.2599999997405,2.065023e-05,418.2599999997405,0.0002029413,418.2599999997405,4.094283e-06,418.2599999997405,0.0001253529
418.2749999997405,2.100531e-05,418.2749999997405,0.0002081583,418.2749999997405,4.312125e-06,418.2749999997405,0.0001398731
418.2899999997405,2.141114e-05,418.2899999997405,0.0002081743,418.2899999997405,4.155752e-06,418.2899999997405,0.0001570267
418.30499999974046,2.240269e-05,418.30499999974046,0.0002129552,418.30499999974046,4.152361e-06,418.30499999974046,0.0001585173
418.31999999974045,2.273474e-05,418.31999999974045,0.0002120216,418.31999999974045,4.077044e-06,418.31999999974045,0.0001610184
418.33499999974043,2.383105e-05,418.33499999974043,0.0002165144,418.33499999974043,4.223002e-06,418.33499999974043,0.0001624817
418.3499999997404,2.38659e-05,418.3499999997404,0.0002121119,418.3499999997404,4.11145e-06,418.3499999997404,0.0001629416
418.3649999997404,2.513147e-05,418.3649999997404,0.0002134666,418.3649999997404,4.045829e-06,418.3649999997404,0.0001648552
418.3799999997404,2.522155e-05,418.3799999997404,0.0002113141,418.3799999997404,4.11145e-06,418.3799999997404,0.0001708187
418.3949999997404,2.606856e-05,418.3949999997404,0.0002173405,418.3949999997404,4.059732e-06,418.3949999997404,0.0001804582
418.40999999974036,2.518074e-05,418.40999999974036,0.0002171716,418.40999999974036,4.186148e-06,418.40999999974036,0.0001821461
418.42499999974035,2.416854e-05,418.42499999974035,0.0002147919,418.42499999974035,4.114875e-06,418.42499999974035,0.0001867956
418.43999999974034,2.440115e-05,418.43999999974034,0.0002178088,418.43999999974034,4.070128e-06,418.43999999974034,0.0001852801
418.4549999997403,2.515892e-05,418.4549999997403,0.0002245601,418.4549999997403,3.96849e-06,418.4549999997403,0.0001758723
418.4699999997403,2.522602e-05,418.4699999997403,0.0002221036,418.4699999997403,4.239647e-06,418.4699999997403,0.0001736919
418.4849999997403,2.534357e-05,418.4849999997403,0.0002125235,418.4849999997403,4.29576e-06,418.4849999997403,0.0001640231
418.4999999997403,2.521429e-05,418.4999999997403,0.000195132,418.4999999997403,4.289197e-06,418.4999999997403,0.000154483
418.51499999974027,2.442192e-05,418.51499999974027,0.0001964305,418.51499999974027,4.29576e-06,418.51499999974027,0.0001520878
418.52999999974026,2.435665e-05,418.52999999974026,0.0001997163,418.52999999974026,4.080498e-06,418.52999999974026,0.0001313614
418.54499999974024,2.422385e-05,418.54499999974024,0.0002019552,418.54499999974024,4.152361e-06,418.54499999974024,0.000120277
418.5599999997402,2.345269e-05,418.5599999997402,0.0001980921,418.5599999997402,4.135364e-06,418.5599999997402,0.0001183952
418.5749999997402,2.401007e-05,418.5749999997402,0.0001998652,418.5749999997402,4.256228e-06,418.5749999997402,0.0001157037
418.5899999997402,2.314129e-05,418.5899999997402,0.0001972049,418.5899999997402,4.189512e-06,418.5899999997402,0.0001143795
418.6049999997402,2.326151e-05,418.6049999997402,0.0002012609,418.6049999997402,4.152361e-06,418.6049999997402,0.0001127868
418.6199999997402,2.244289e-05,418.6199999997402,0.0002034257,418.6199999997402,4.152361e-06,418.6199999997402,0.0001095339
418.63499999974016,2.229554e-05,418.63499999974016,0.0002047704,418.63499999974016,4.383405e-06,418.63499999974016,9.515868e-05
418.64999999974015,2.000295e-05,418.64999999974015,0.0001967248,418.64999999974015,4.4377e-06,418.64999999974015,8.064418e-05
418.66499999974013,2.081331e-05,418.66499999974013,0.0001962138,418.66499999974013,4.409039e-06,418.66499999974013,7.515149e-05
418.6799999997401,2.115966e-05,418.6799999997401,0.0001971866,418.6799999997401,4.572159e-06,418.6799999997401,6.351026e-05
418.6949999997401,2.078486e-05,418.6949999997401,0.0001907215,418.6949999997401,4.675739e-06,418.6949999997401,5.191564e-05
418.7099999997401,2.099189e-05,418.7099999997401,0.0001764648,418.7099999997401,5.310512e-06,418.7099999997401,3.388602e-05
418.7249999997401,2.118494e-05,418.7249999997401,0.000179748,418.7249999997401,6.316129e-06,418.7249999997401,2.701486e-05
418.73999999974006,2.136768e-05,418.73999999974006,0.0001800534,418.73999999974006,1.016008e-05,418.73999999974006,2.138679e-05
418.75499999974005,2.163303e-05,418.75499999974005,0.0001747845,418.75499999974005,1.02388e-05,418.75499999974005,1.711486e-05
418.76999999974004,2.213765e-05,418.76999999974004,0.0001729813,418.76999999974004,1.066734e-05,418.76999999974004,1.655082e-05
418.78499999974,2.210581e-05,418.78499999974,0.000167432,418.78499999974,1.066866e-05,418.78499999974,1.411431e-05
418.79999999974,2.143219e-05,418.79999999974,0.0001748731,418.79999999974,1.067131e-05,418.79999999974,1.299396e-05
418.81499999974,2.18475e-05,418.81499999974,0.0001715696,418.81499999974,1.088694e-05,418.81499999974,1.153773e-05
418.82999999974,2.129173e-05,418.82999999974,0.0001756197,418.82999999974,1.425039e-05,418.82999999974,1.145071e-05
418.84499999973997,2.197543e-05,418.84499999973997,0.0001716715,418.84499999973997,1.433122e-05,418.84499999973997,1.127967e-05
418.85999999973996,2.097108e-05,418.85999999973996,0.0001715161,418.85999999973996,1.51027e-05,418.85999999973996,9.922999e-06
418.87499999973994,2.17674e-05,418.87499999973994,0.0001656298,418.87499999973994,1.52964e-05,418.87499999973994,1.067262e-05
418.8899999997399,2.197928e-05,418.8899999997399,0.0001619072,418.8899999997399,1.557836e-05,418.8899999997399,1.056117e-05
418.9049999997399,2.24272e-05,418.9049999997399,0.0001599393,418.9049999997399,1.569188e-05,418.9049999997399,1.026903e-05
418.9199999997399,2.167596e-05,418.9199999997399,0.0001536179,418.9199999997399,1.600652e-05,418.9199999997399,1.021952e-05
418.9349999997399,2.064068e-05,418.9349999997399,0.0001517233,418.9349999997399,1.601883e-05,418.9349999997399,1.046873e-05
418.9499999997399,2.045627e-05,418.9499999997399,0.0001512102,418.9499999997399,1.5928e-05,418.9499999997399,1.041071e-05
418.96499999973986,2.103681e-05,418.96499999973986,0.0001478155,418.96499999973986,1.6131e-05,418.96499999973986,1.02388e-05
418.97999999973985,2.07163e-05,418.97999999973985,0.0001391885,418.97999999973985,1.509337e-05,418.97999999973985,1.020435e-05
418.99499999973983,2.08883e-05,418.99499999973983,0.0001330838,418.99499999973983,1.38351e-05,418.99499999973983,1.008354e-05
419.0099999997398,2.019778e-05,419.0099999997398,0.0001265056,419.0099999997398,1.357298e-05,419.0099999997398,1.014204e-05
419.0249999997398,1.959815e-05,419.0249999997398,0.000122015,419.0249999997398,1.355116e-05,419.0249999997398,9.275854e-06
419.0399999997398,1.9464e-05,419.0399999997398,0.0001170054,419.0399999997398,1.374828e-05,419.0399999997398,9.246955e-06
419.0549999997398,1.936896e-05,419.0549999997398,9.909191e-05,419.0549999997398,1.384527e-05,419.0549999997398,9.185817e-06
419.06999999973976,1.827939e-05,419.06999999973976,9.139819e-05,419.06999999973976,1.083245e-05,419.06999999973976,8.914992e-06
419.08499999973975,1.714611e-05,419.08499999973975,7.989959e-05,419.08499999973975,1.10933e-05,419.08499999973975,8.78607e-06
419.09999999973974,1.754567e-05,419.09999999973974,7.698061e-05,419.09999999973974,1.09102e-05,419.09999999973974,8.635676e-06
419.1149999997397,1.702408e-05,419.1149999997397,7.490478e-05,419.1149999997397,9.645126e-06,419.1149999997397,8.159269e-06
419.1299999997397,1.74426e-05,419.1299999997397,6.686912e-05,419.1299999997397,9.448883e-06,419.1299999997397,7.115304e-06
419.1449999997397,1.717566e-05,419.1449999997397,7.246773e-05,419.1449999997397,9.333384e-06,419.1449999997397,7.073606e-06
419.1599999997397,1.757615e-05,419.1599999997397,7.331881e-05,419.1599999997397,8.865873e-06,419.1599999997397,7.14888e-06
419.17499999973967,1.911566e-05,419.17499999973967,7.571768e-05,419.17499999973967,8.835633e-06,419.17499999973967,7.190141e-06
419.18999999973965,1.953335e-05,419.18999999973965,7.621816e-05,419.18999999973965,8.859515e-06,419.18999999973965,6.411314e-06
419.20499999973964,1.859115e-05,419.20499999973964,7.751164e-05,419.20499999973964,8.333508e-06,419.20499999973964,6.132817e-06
419.2199999997396,1.829249e-05,419.2199999997396,7.919461e-05,419.2199999997396,8.155816e-06,419.2199999997396,5.969867e-06
419.2349999997396,1.834017e-05,419.2349999997396,7.950935e-05,419.2349999997396,7.874616e-06,419.2349999997396,5.908198e-06
419.2499999997396,1.81285e-05,419.2499999997396,8.196459e-05,419.2499999997396,7.795508e-06,419.2499999997396,5.711809e-06
419.2649999997396,1.828787e-05,419.2649999997396,8.48509e-05,419.2649999997396,8.088174e-06,419.2649999997396,5.867525e-06
419.2799999997396,1.839462e-05,419.2799999997396,8.792593e-05,419.2799999997396,8.075974e-06,419.2799999997396,6.135114e-06
419.29499999973956,1.856385e-05,419.29499999973956,9.026123e-05,419.29499999973956,7.748384e-06,419.29499999973956,5.95096e-06
419.30999999973955,1.863505e-05,419.30999999973955,9.11508e-05,419.30999999973955,7.671647e-06,419.30999999973955,6.248863e-06
419.32499999973953,1.884925e-05,419.32499999973953,9.265795e-05,419.32499999973953,7.581139e-06,419.32499999973953,6.834577e-06
419.3399999997395,1.85722e-05,419.3399999997395,8.70238e-05,419.3399999997395,6.311667e-06,419.3399999997395,6.902258e-06
419.3549999997395,1.863958e-05,419.3549999997395,8.360123e-05,419.3549999997395,6.342836e-06,419.3549999997395,6.961192e-06
419.3699999997395,1.81859e-05,419.3699999997395,8.497317e-05,419.3699999997395,6.7391e-06,419.3699999997395,7.594135e-06
419.3849999997395,1.860781e-05,419.3849999997395,8.459935e-05,419.3849999997395,6.342836e-06,419.3849999997395,7.658783e-06
419.39999999973946,1.849467e-05,419.39999999973946,7.826546e-05,419.39999999973946,6.121322e-06,419.39999999973946,8.150632e-06
419.41499999973945,1.710004e-05,419.41499999973945,7.655122e-05,419.41499999973945,6.548272e-06,419.41499999973945,8.575109e-06
419.42999999973944,1.785603e-05,419.42999999973944,7.178357e-05,419.42999999973944,6.526725e-06,419.42999999973944,8.651973e-06
419.4449999997394,1.68126e-05,419.4449999997394,6.987852e-05,419.4449999997394,6.591156e-06,419.4449999997394,8.721702e-06
419.4599999997394,1.684691e-05,419.4599999997394,6.994924e-05,419.4599999997394,6.896133e-06,419.4599999997394,9.013988e-06
419.4749999997394,1.662131e-05,419.4749999997394,6.891003e-05,419.4749999997394,6.869526e-06,419.4749999997394,9.617337e-06
419.4899999997394,1.699758e-05,419.4899999997394,6.865629e-05,419.4899999997394,6.842817e-06,419.4899999997394,1.07999e-05
419.50499999973937,1.898107e-05,419.50499999973937,6.641784e-05,419.50499999973937,6.705572e-06,419.50499999973937,1.247403e-05
419.51999999973935,1.986161e-05,419.51999999973935,6.331188e-05,419.51999999973935,6.4921e-06,419.51999999973935,1.316948e-05
419.53499999973934,2.141246e-05,419.53499999973934,5.611238e-05,419.53499999973934,6.389304e-06,419.53499999973934,1.863429e-05
419.5499999997393,2.287127e-05,419.5499999997393,5.937428e-05,419.5499999997393,6.413511e-06,419.5499999997393,1.959024e-05
419.5649999997393,2.290389e-05,419.5649999997393,5.941602e-05,419.5649999997393,6.539662e-06,419.5649999997393,2.002266e-05
419.5799999997393,2.298432e-05,419.5799999997393,5.770231e-05,419.5799999997393,6.404719e-06,419.5799999997393,1.994654e-05
419.5949999997393,2.32215e-05,419.5949999997393,6.261182e-05,419.5949999997393,6.178585e-06,419.5949999997393,2.030421e-05
419.6099999997393,2.353244e-05,419.6099999997393,6.435678e-05,419.6099999997393,5.901041e-06,419.6099999997393,2.057232e-05
419.62499999973926,2.461096e-05,419.62499999973926,8.074473e-05,419.62499999973926,5.833818e-06,419.62499999973926,2.170324e-05
419.63999999973925,2.559082e-05,419.63999999973925,8.616243e-05,419.63999999973925,5.775575e-06,419.63999999973925,2.385645e-05
419.65499999973923,2.582043e-05,419.65499999973923,9.984124e-05,419.65499999973923,5.397339e-06,419.65499999973923,2.404232e-05
419.6699999997392,2.556383e-05,419.6699999997392,9.977377e-05,419.6699999997392,5.085583e-06,419.6699999997392,2.638652e-05
419.6849999997392,2.574065e-05,419.6849999997392,0.0001001312,419.6849999997392,5.102175e-06,419.6849999997392,2.79926e-05
419.6999999997392,2.620975e-05,419.6999999997392,9.968549e-05,419.6999999997392,5.013047e-06,419.6999999997392,3.271037e-05
419.7149999997392,2.628007e-05,419.7149999997392,9.749715e-05,419.7149999997392,4.762306e-06,419.7149999997392,3.269615e-05
419.72999999973916,2.693549e-05,419.72999999973916,9.730451e-05,419.72999999973916,4.973552e-06,419.72999999973916,3.278908e-05
419.74499999973915,2.65223e-05,419.74499999973915,9.707347e-05,419.74499999973915,4.803539e-06,419.74499999973915,3.225109e-05
419.75999999973914,2.493112e-05,419.75999999973914,9.622945e-05,419.75999999973914,4.870521e-06,419.75999999973914,3.374313e-05
419.7749999997391,2.534357e-05,419.7749999997391,9.605612e-05,419.7749999997391,4.905105e-06,419.7749999997391,3.566036e-05
419.7899999997391,2.460008e-05,419.7899999997391,9.507722e-05,419.7899999997391,4.838602e-06,419.7899999997391,3.614336e-05
419.8049999997391,2.461554e-05,419.8049999997391,9.238588e-05,419.8049999997391,4.791795e-06,419.8049999997391,3.608681e-05
419.8199999997391,2.496444e-05,419.8199999997391,9.008471e-05,419.8199999997391,4.675739e-06,419.8199999997391,3.660845e-05
419.83499999973907,2.539632e-05,419.83499999973907,8.914928e-05,419.83499999973907,4.723696e-06,419.83499999973907,3.711974e-05
419.84999999973905,2.624091e-05,419.84999999973905,8.427403e-05,419.84999999973905,4.844421e-06,419.84999999973905,3.674058e-05
419.86499999973904,2.571821e-05,419.86499999973904,7.949004e-05,419.86499999973904,4.774123e-06,419.86499999973904,3.647391e-05
419.879999999739,2.477298e-05,419.879999999739,6.098127e-05,419.879999999739,4.79767e-06,419.879999999739,3.532419e-05
419.894999999739,2.522378e-05,419.894999999739,4.455504e-05,419.894999999739,4.70577e-06,419.894999999739,3.452027e-05
419.909999999739,2.503318e-05,419.909999999739,2.12082e-05,419.909999999739,4.780021e-06,419.909999999739,3.346646e-05
419.924999999739,2.458977e-05,419.924999999739,2.282441e-05,419.924999999739,4.717728e-06,419.924999999739,3.214696e-05
419.939999999739,2.49136e-05,419.939999999739,2.219993e-05,419.939999999739,4.699779e-06,419.939999999739,2.828845e-05
419.95499999973896,2.453127e-05,419.95499999973896,2.320208e-05,419.95499999973896,4.587538e-06,419.95499999973896,2.601392e-05
419.96999999973895,2.471434e-05,419.96999999973895,2.629828e-05,419.96999999973895,4.431347e-06,419.96999999973895,2.591736e-05
419.98499999973893,2.3986e-05,419.98499999973893,2.730325e-05,419.98499999973893,4.535037e-06,419.98499999973893,2.58673e-05
419.9999999997389,2.435434e-05,419.9999999997389,3.119829e-05,419.9999999997389,4.440873e-06,419.9999999997389,2.538467e-05
420.0149999997389,2.409382e-05,420.0149999997389,3.718078e-05,420.0149999997389,4.389827e-06,420.0149999997389,2.075773e-05
420.0299999997389,2.343406e-05,420.0299999997389,4.053203e-05,420.0299999997389,4.29576e-06,420.0299999997389,1.669742e-05
420.0449999997389,2.279353e-05,420.0449999997389,4.807936e-05,420.0449999997389,4.289197e-06,420.0449999997389,1.212471e-05
420.05999999973886,2.27589e-05,420.05999999973886,5.202893e-05,420.05999999973886,4.318654e-06,420.05999999973886,1.140758e-05
420.07499999973885,2.260799e-05,420.07499999973885,6.196388e-05,420.07499999973885,4.347911e-06,420.07499999973885,1.260211e-05
420.08999999973884,2.141049e-05,420.08999999973884,6.560565e-05,420.08999999973884,4.299038e-06,420.08999999973884,1.817273e-05
420.1049999997388,2.15227e-05,420.1049999997388,6.821538e-05,420.1049999997388,4.478776e-06,420.1049999997388,2.178551e-05
420.1199999997388,2.135779e-05,420.1199999997388,7.109302e-05,420.1199999997388,4.412233e-06,420.1199999997388,2.550701e-05
420.1349999997388,2.021451e-05,420.1349999997388,8.970612e-05,420.1349999997388,4.510119e-06,420.1349999997388,2.592334e-05
420.1499999997388,2.06884e-05,420.1499999997388,9.278921e-05,420.1499999997388,4.593675e-06,420.1499999997388,2.643612e-05
420.16499999973877,2.041836e-05,420.16499999973877,0.0001007606,420.16499999973877,4.510119e-06,420.16499999973877,2.695065e-05
420.17999999973875,2.033679e-05,420.17999999973875,0.000101494,420.17999999973875,4.510119e-06,420.17999999973875,2.792509e-05
420.19499999973874,2.02813e-05,420.19499999973874,0.0001044207,420.19499999973874,4.565993e-06,420.19499999973874,2.825357e-05
420.2099999997387,2.114701e-05,420.2099999997387,0.0001119084,420.2099999997387,4.466178e-06,420.2099999997387,2.857433e-05
420.2249999997387,2.087548e-05,420.2249999997387,0.0001138129,420.2249999997387,4.239647e-06,420.2249999997387,2.875665e-05
420.2399999997387,2.105755e-05,420.2399999997387,0.0001243232,420.2399999997387,4.272744e-06,420.2399999997387,2.87341e-05
420.2549999997387,2.05408e-05,420.2549999997387,0.0001273815,420.2549999997387,4.269446e-06,420.2549999997387,2.891785e-05
420.2699999997387,2.059832e-05,420.2699999997387,0.0001300564,420.2699999997387,4.20629e-06,420.2699999997387,2.934483e-05
420.28499999973866,2.036379e-05,420.28499999973866,0.0001329687,420.28499999973866,4.279333e-06,420.28499999973866,2.948323e-05
420.29999999973865,1.900703e-05,420.29999999973865,0.0001358101,420.29999999973865,4.334932e-06,420.29999999973865,2.954623e-05
420.31499999973863,1.926248e-05,420.31499999973863,0.0001408726,420.31499999973863,4.229668e-06,420.31499999973863,2.95753e-05
420.3299999997386,1.969137e-05,420.3299999997386,0.0001407862,420.3299999997386,4.165909e-06,420.3299999997386,2.702633e-05
420.3449999997386,1.932381e-05,420.3449999997386,0.0001442419,420.3449999997386,4.017877e-06,420.3449999997386,2.763657e-05
420.3599999997386,2.007817e-05,420.3599999997386,0.0001452449,420.3599999997386,3.882364e-06,420.3599999997386,3.290016e-05
420.3749999997386,2.011391e-05,420.3749999997386,0.0001448009,420.3749999997386,3.853228e-06,420.3749999997386,3.909734e-05
