X[s],a: EMG RMS 1-1,X[s].1,a: EMG RMS 1-2,X[s].2,a: EMG RMS 1-3,X[s].3,a: EMG RMS 1-4
256.00499999988807,1.238564e-05,256.00499999988807,9.883171e-06,256.00499999988807,7.459384e-06,256.00499999988807,7.791894e-06
256.01999999988806,1.234348e-05,256.01999999988806,9.520175e-06,256.01999999988806,7.463159e-06,256.01999999988806,8.02523e-06
256.03499999988804,1.211076e-05,256.03499999988804,9.564462e-06,256.03499999988804,7.673483e-06,256.03499999988804,8.291141e-06
256.04999999988803,1.212239e-05,256.04999999988803,8.36051e-06,256.04999999988803,7.691819e-06,256.04999999988803,8.442667e-06
256.064999999888,1.158038e-05,256.064999999888,8.452672e-06,256.064999999888,7.802733e-06,256.064999999888,8.37566e-06
256.079999999888,1.186399e-05,256.079999999888,8.581677e-06,256.079999999888,8.077717e-06,256.079999999888,8.115992e-06
256.094999999888,1.273554e-05,256.094999999888,8.341955e-06,256.094999999888,8.197163e-06,256.094999999888,8.519072e-06
256.109999999888,1.253599e-05,256.109999999888,8.336888e-06,256.109999999888,8.009417e-06,256.109999999888,8.570179e-06
256.12499999988796,1.196802e-05,256.12499999988796,8.547137e-06,256.12499999988796,7.897837e-06,256.12499999988796,8.827657e-06
256.13999999988795,1.294182e-05,256.13999999988795,8.707154e-06,256.13999999988795,7.612662e-06,256.13999999988795,9.50833e-06
256.15499999988793,1.314914e-05,256.15499999988793,8.78607e-06,256.15499999988793,7.750201e-06,256.15499999988793,9.831725e-06
256.1699999998879,1.382593e-05,256.1699999998879,8.985815e-06,256.1699999998879,7.571843e-06,256.1699999998879,9.533483e-06
256.1849999998879,1.364646e-05,256.1849999998879,9.728018e-06,256.1849999998879,7.413922e-06,256.1849999998879,9.413036e-06
256.1999999998879,1.389707e-05,256.1999999998879,1.009331e-05,256.1999999998879,7.517698e-06,256.1999999998879,9.407047e-06
256.2149999998879,1.381676e-05,256.2149999998879,1.046335e-05,256.2149999998879,7.669811e-06,256.2149999998879,9.448883e-06
256.22999999988787,1.440377e-05,256.22999999988787,1.11174e-05,256.22999999988787,8.048017e-06,256.22999999988787,9.552672e-06
256.24499999988785,1.64843e-05,256.24499999988785,1.182474e-05,256.24499999988785,8.011176e-06,256.24499999988785,1.005836e-05
256.25999999988784,1.757454e-05,256.25999999988784,1.189837e-05,256.25999999988784,8.068993e-06,256.25999999988784,1.031146e-05
256.2749999998878,2.079706e-05,256.2749999998878,1.195035e-05,256.2749999998878,7.904969e-06,256.2749999998878,9.975386e-06
256.2899999998878,2.161544e-05,256.2899999998878,1.201735e-05,256.2899999998878,7.995334e-06,256.2899999998878,1.054382e-05
256.3049999998878,2.332742e-05,256.3049999998878,1.208981e-05,256.3049999998878,8.905506e-06,256.3049999998878,1.060908e-05
256.3199999998878,2.475762e-05,256.3199999998878,1.231378e-05,256.3199999998878,8.81648e-06,256.3199999998878,1.164104e-05
256.33499999988777,2.574777e-05,256.33499999988777,1.278302e-05,256.33499999988777,9.028043e-06,256.33499999988777,1.203726e-05
256.34999999988776,2.583843e-05,256.34999999988776,1.31073e-05,256.34999999988776,8.729774e-06,256.34999999988776,1.233778e-05
256.36499999988774,2.695379e-05,256.36499999988774,1.66069e-05,256.36499999988774,9.20267e-06,256.36499999988774,1.235033e-05
256.37999999988773,2.769716e-05,256.37999999988773,1.664672e-05,256.37999999988773,9.236285e-06,256.37999999988773,1.214213e-05
256.3949999998877,2.948562e-05,256.3949999998877,1.684357e-05,256.3949999998877,9.398059e-06,256.3949999998877,1.19031e-05
256.4099999998877,2.992898e-05,256.4099999998877,1.74232e-05,256.4099999998877,9.518695e-06,256.4099999998877,1.172785e-05
256.4249999998877,2.989602e-05,256.4249999998877,1.770233e-05,256.4249999998877,9.687388e-06,256.4249999998877,1.180924e-05
256.4399999998877,3.022219e-05,256.4399999998877,1.807792e-05,256.4399999998877,9.91874e-06,256.4399999998877,1.165435e-05
256.45499999988766,3.019654e-05,256.45499999988766,1.891342e-05,256.45499999988766,1.044179e-05,256.45499999988766,1.182116e-05
256.46999999988765,3.087012e-05,256.46999999988765,2.319783e-05,256.46999999988765,1.104876e-05,256.46999999988765,1.172424e-05
256.48499999988763,3.022778e-05,256.48499999988763,2.420814e-05,256.48499999988763,1.118939e-05,256.48499999988763,1.160833e-05
256.4999999998876,2.991109e-05,256.4999999998876,2.560017e-05,256.4999999998876,1.14802e-05,256.4999999998876,1.160833e-05
256.5149999998876,2.952191e-05,256.5149999998876,2.923614e-05,256.5149999998876,1.155115e-05,256.5149999998876,1.164467e-05
256.5299999998876,2.807351e-05,256.5299999998876,3.424618e-05,256.5299999998876,1.178297e-05,256.5299999998876,1.152673e-05
256.5449999998876,2.759168e-05,256.5449999998876,3.478005e-05,256.5449999998876,1.153529e-05,256.5449999998876,1.193147e-05
256.55999999988757,2.679549e-05,256.55999999988757,3.524834e-05,256.55999999988757,1.126967e-05,256.55999999988757,1.192084e-05
256.57499999988755,2.572806e-05,256.57499999988755,3.577946e-05,256.57499999988755,1.128092e-05,256.57499999988755,1.12934e-05
256.58999999988754,2.537134e-05,256.58999999988754,3.604697e-05,256.58999999988754,1.1125e-05,256.58999999988754,1.092955e-05
256.6049999998875,2.479799e-05,256.6049999998875,3.861116e-05,256.6049999998875,1.083115e-05,256.6049999998875,1.119568e-05
256.6199999998875,2.393485e-05,256.6199999998875,3.798959e-05,256.6199999998875,1.072529e-05,256.6199999998875,1.173625e-05
256.6349999998875,2.283552e-05,256.6349999998875,3.909158e-05,256.6349999998875,1.070952e-05,256.6349999998875,1.271008e-05
256.6499999998875,2.018522e-05,256.6499999998875,3.93115e-05,256.6499999998875,1.058648e-05,256.6499999998875,1.281054e-05
256.66499999988747,2.062224e-05,256.66499999988747,3.919379e-05,256.66499999988747,1.041477e-05,256.66499999988747,1.253374e-05
256.67999999988746,2.307484e-05,256.67999999988746,3.900933e-05,256.67999999988746,1.027177e-05,256.67999999988746,1.246274e-05
256.69499999988744,2.281762e-05,256.69499999988744,3.884069e-05,256.69499999988744,1.001344e-05,256.69499999988744,1.265231e-05
256.70999999988743,2.257681e-05,256.70999999988743,3.773884e-05,256.70999999988743,9.558568e-06,256.70999999988743,1.277971e-05
256.7249999998874,2.23372e-05,256.7249999998874,3.839347e-05,256.7249999998874,9.195013e-06,256.7249999998874,1.283361e-05
256.7399999998874,2.333648e-05,256.7399999998874,3.776198e-05,256.7399999998874,9.407047e-06,256.7399999998874,1.284897e-05
256.7549999998874,2.326998e-05,256.7549999998874,3.791907e-05,256.7549999998874,8.805288e-06,256.7549999998874,1.282043e-05
256.7699999998874,2.202602e-05,256.7699999998874,3.648897e-05,256.7699999998874,8.525684e-06,256.7699999998874,1.2884e-05
256.78499999988736,2.261671e-05,256.78499999988736,3.557454e-05,256.78499999988736,8.456004e-06,256.78499999988736,1.266567e-05
256.79999999988735,2.423373e-05,256.79999999988735,3.644648e-05,256.79999999988735,8.181682e-06,256.79999999988735,1.212006e-05
256.81499999988733,2.387475e-05,256.81499999988733,3.713112e-05,256.81499999988733,8.140256e-06,256.81499999988733,1.228858e-05
256.8299999998873,2.378016e-05,256.8299999998873,3.711291e-05,256.8299999998873,7.673483e-06,256.8299999998873,1.235945e-05
256.8449999998873,2.48207e-05,256.8449999998873,3.652794e-05,256.8449999998873,7.521444e-06,256.8449999998873,1.280284e-05
256.8599999998873,2.734913e-05,256.8599999998873,3.416588e-05,256.8599999998873,8.051516e-06,256.8599999998873,1.258869e-05
256.8749999998873,3.259691e-05,256.8749999998873,3.452353e-05,256.8749999998873,8.932356e-06,256.8749999998873,1.240155e-05
256.88999999988727,3.548096e-05,256.88999999988727,3.425852e-05,256.88999999988727,9.021799e-06,256.88999999988727,1.257078e-05
256.90499999988725,3.975051e-05,256.90499999988725,3.408414e-05,256.90499999988725,9.116548e-06,256.90499999988725,1.279073e-05
256.91999999988724,4.149239e-05,256.91999999988724,3.431522e-05,256.91999999988724,9.557095e-06,256.91999999988724,1.29527e-05
256.9349999998872,4.095281e-05,256.9349999998872,3.403741e-05,256.9349999998872,9.709175e-06,256.9349999998872,1.280944e-05
256.9499999998872,4.132195e-05,256.9499999998872,3.425029e-05,256.9499999998872,9.68448e-06,256.9499999998872,1.29983e-05
256.9649999998872,4.125951e-05,256.9649999998872,3.196063e-05,256.9649999998872,9.346957e-06,256.9649999998872,1.293202e-05
256.9799999998872,4.15175e-05,256.9799999998872,3.13896e-05,256.9799999998872,8.943388e-06,256.9799999998872,1.310192e-05
256.99499999988717,4.166652e-05,256.99499999988717,2.952334e-05,256.99499999988717,8.62425e-06,256.99499999988717,1.303617e-05
257.00999999988716,4.247714e-05,257.00999999988716,2.811763e-05,257.00999999988716,8.617714e-06,257.00999999988716,1.261552e-05
257.02499999988714,4.414754e-05,257.02499999988714,2.604153e-05,257.02499999988714,8.891258e-06,257.02499999988714,1.293746e-05
257.03999999988713,4.672906e-05,257.03999999988713,2.34833e-05,257.03999999988713,8.810087e-06,257.03999999988713,1.380043e-05
257.0549999998871,4.75612e-05,257.0549999998871,2.20388e-05,257.0549999998871,9.181215e-06,257.0549999998871,1.455167e-05
257.0699999998871,5.284293e-05,257.0699999998871,2.022427e-05,257.0699999998871,9.351477e-06,257.0699999998871,1.438714e-05
257.0849999998871,5.446572e-05,257.0849999998871,1.912008e-05,257.0849999998871,9.392062e-06,257.0849999998871,1.413924e-05
257.0999999998871,5.392926e-05,257.0999999998871,1.878112e-05,257.0999999998871,9.352983e-06,257.0999999998871,1.367225e-05
257.11499999988706,5.239263e-05,257.11499999988706,1.815101e-05,257.11499999988706,9.236285e-06,257.11499999988706,1.427607e-05
257.12999999988705,4.945034e-05,257.12999999988705,1.556117e-05,257.12999999988705,9.127357e-06,257.12999999988705,1.402922e-05
257.14499999988703,4.956216e-05,257.14499999988703,1.504663e-05,257.14499999988703,9.15971e-06,257.14499999988703,1.357194e-05
257.159999999887,4.58336e-05,257.159999999887,1.609778e-05,257.159999999887,9.494987e-06,257.159999999887,1.368152e-05
257.174999999887,4.432873e-05,257.174999999887,1.563703e-05,257.174999999887,9.375548e-06,257.174999999887,1.358335e-05
257.189999999887,4.474843e-05,257.189999999887,1.53873e-05,257.189999999887,9.857482e-06,257.189999999887,1.390821e-05
257.204999999887,4.76547e-05,257.204999999887,1.570086e-05,257.204999999887,9.838886e-06,257.204999999887,1.39527e-05
257.21999999988697,4.768159e-05,257.21999999988697,1.570534e-05,257.21999999988697,9.94427e-06,257.21999999988697,1.401114e-05
257.23499999988695,4.710347e-05,257.23499999988695,1.564603e-05,257.23499999988695,9.844612e-06,257.23499999988695,1.379737e-05
257.24999999988694,4.699209e-05,257.24999999988694,1.615195e-05,257.24999999988694,1.018777e-05,257.24999999988694,1.399907e-05
257.2649999998869,4.589442e-05,257.2649999998869,1.592711e-05,257.2649999998869,9.959841e-06,257.2649999998869,1.453132e-05
257.2799999998869,4.520134e-05,257.2799999998869,1.473158e-05,257.2799999998869,1.00961e-05,257.2799999998869,1.430466e-05
257.2949999998869,4.359397e-05,257.2949999998869,1.489987e-05,257.2949999998869,1.012814e-05,257.2949999998869,1.387576e-05
257.3099999998869,4.089842e-05,257.3099999998869,1.477836e-05,257.3099999998869,9.639282e-06,257.3099999998869,1.39072e-05
257.32499999988687,3.423754e-05,257.32499999988687,1.409334e-05,257.32499999988687,9.612942e-06,257.32499999988687,1.44993e-05
257.33999999988686,3.490215e-05,257.33999999988686,1.454101e-05,257.33999999988686,9.752604e-06,257.33999999988686,1.482309e-05
257.35499999988684,3.550121e-05,257.35499999988684,1.501008e-05,257.35499999988684,9.722225e-06,257.35499999988684,1.440573e-05
257.36999999988683,3.495901e-05,257.36999999988683,1.437342e-05,257.36999999988683,9.787209e-06,257.36999999988683,1.371853e-05
257.3849999998868,3.426633e-05,257.3849999998868,1.434497e-05,257.3849999998868,9.683024e-06,257.3849999998868,1.362994e-05
257.3999999998868,3.274523e-05,257.3999999998868,1.468657e-05,257.3999999998868,9.794402e-06,257.3999999998868,1.363097e-05
257.4149999998868,3.333023e-05,257.4149999998868,1.526782e-05,257.4149999998868,9.465269e-06,257.4149999998868,1.336485e-05
257.4299999998868,3.353332e-05,257.4299999998868,1.559373e-05,257.4299999998868,8.827657e-06,257.4299999998868,1.364027e-05
257.44499999988676,3.151456e-05,257.44499999988676,1.527151e-05,257.44499999988676,8.692581e-06,257.44499999988676,1.33796e-05
257.45999999988675,2.766102e-05,257.45999999988675,1.47421e-05,257.45999999988675,8.753946e-06,257.45999999988675,1.309009e-05
257.47499999988673,2.811763e-05,257.47499999988673,1.466161e-05,257.47499999988673,8.838821e-06,257.47499999988673,1.321007e-05
257.4899999998867,2.911205e-05,257.4899999998867,1.470861e-05,257.4899999998867,8.870637e-06,257.4899999998867,1.313735e-05
257.5049999998867,2.966519e-05,257.5049999998867,1.422764e-05,257.5049999998867,8.568535e-06,257.5049999998867,1.316841e-05
257.5199999998867,2.994028e-05,257.5199999998867,1.45536e-05,257.5199999998867,9.042074e-06,257.5199999998867,1.323031e-05
257.5349999998867,2.836007e-05,257.5349999998867,1.551857e-05,257.5349999998867,8.842007e-06,257.5349999998867,1.50999e-05
257.54999999988667,2.653293e-05,257.54999999988667,1.547949e-05,257.54999999988667,8.899176e-06,257.54999999988667,1.511855e-05
257.56499999988665,2.677866e-05,257.56499999988665,1.545125e-05,257.56499999988665,9.227129e-06,257.56499999988665,1.497343e-05
257.57999999988664,2.570944e-05,257.57999999988664,1.524012e-05,257.57999999988664,1.09797e-05,257.57999999988664,1.481929e-05
257.5949999998866,2.513203e-05,257.5949999998866,1.57546e-05,257.5949999998866,1.260323e-05,257.5949999998866,1.50803e-05
257.6099999998866,2.651646e-05,257.6099999998866,1.56163e-05,257.6099999998866,1.351786e-05,257.6099999998866,1.506441e-05
257.6249999998866,2.783262e-05,257.6249999998866,1.611527e-05,257.6249999998866,1.82817e-05,257.6249999998866,1.514462e-05
257.6399999998866,2.846567e-05,257.6399999998866,1.638745e-05,257.6399999998866,1.842599e-05,257.6399999998866,1.490649e-05
257.65499999988657,3.172617e-05,257.65499999988657,1.530284e-05,257.65499999988657,1.853803e-05,257.65499999988657,1.539096e-05
257.66999999988656,3.168085e-05,257.66999999988656,1.452842e-05,257.66999999988656,1.863353e-05,257.66999999988656,1.540194e-05
257.68499999988654,3.32422e-05,257.68499999988654,1.451678e-05,257.68499999988654,1.866149e-05,257.68499999988654,1.514369e-05
257.69999999988653,3.64882e-05,257.69999999988653,1.444674e-05,257.69999999988653,1.852891e-05,257.69999999988653,1.543027e-05
257.7149999998865,4.336686e-05,257.7149999998865,1.422863e-05,257.7149999998865,1.859948e-05,257.7149999998865,1.542661e-05
257.7299999998865,5.136022e-05,257.7299999998865,1.424149e-05,257.7299999998865,1.860857e-05,257.7299999998865,1.528258e-05
257.7449999998865,5.327621e-05,257.7449999998865,1.496214e-05,257.7449999998865,1.872629e-05,257.7449999998865,1.530284e-05
257.7599999998865,5.336286e-05,257.7599999998865,1.506815e-05,257.7599999998865,1.891193e-05,257.7599999998865,1.478789e-05
257.77499999988646,5.405788e-05,257.77499999988646,1.400309e-05,257.77499999988646,1.879312e-05,257.77499999988646,1.508497e-05
257.78999999988645,5.416487e-05,257.78999999988645,1.38137e-05,257.78999999988645,1.912377e-05,257.78999999988645,1.276758e-05
257.80499999988643,5.403912e-05,257.80499999988643,1.372572e-05,257.80499999988643,1.898181e-05,257.80499999988643,1.243671e-05
257.8199999998864,5.548351e-05,257.8199999998864,1.373392e-05,257.8199999998864,1.928003e-05,257.8199999998864,1.227482e-05
257.8349999998864,5.564221e-05,257.8349999998864,1.353348e-05,257.8349999998864,1.798652e-05,257.8349999998864,1.167367e-05
257.8499999998864,5.640159e-05,257.8499999998864,1.255396e-05,257.8499999998864,1.731046e-05,257.8499999998864,1.134939e-05
257.8649999998864,5.825554e-05,257.8649999998864,1.196802e-05,257.8649999998864,1.49131e-05,257.8649999998864,1.14421e-05
257.87999999988637,5.92465e-05,257.87999999988637,1.111233e-05,257.87999999988637,1.105514e-05,257.87999999988637,1.170019e-05
257.89499999988635,5.998938e-05,257.89499999988635,1.108441e-05,257.89499999988635,1.123587e-05,257.89499999988635,1.192557e-05
257.90999999988634,5.876138e-05,257.90999999988634,1.121956e-05,257.90999999988634,1.14014e-05,257.90999999988634,1.148756e-05
257.9249999998863,5.948521e-05,257.9249999998863,1.135435e-05,257.9249999998863,1.137171e-05,257.9249999998863,1.127467e-05
257.9399999998863,5.941982e-05,257.9399999998863,1.148511e-05,257.9399999998863,1.121831e-05,257.9399999998863,1.098483e-05
257.9549999998863,5.794349e-05,257.9549999998863,1.134691e-05,257.9549999998863,1.111993e-05,257.9549999998863,1.082075e-05
257.9699999998863,5.456211e-05,257.9699999998863,1.152796e-05,257.9699999998863,1.111486e-05,257.9699999998863,1.101557e-05
257.98499999988627,5.056526e-05,257.98499999988627,1.110979e-05,257.98499999988627,1.093728e-05,257.98499999988627,1.094758e-05
257.99999999988626,5.092254e-05,257.99999999988626,1.012675e-05,257.99999999988626,1.083506e-05,257.99999999988626,1.107423e-05
258.01499999988624,5.167113e-05,258.01499999988624,1.009331e-05,258.01499999988624,1.056651e-05,258.01499999988624,1.064487e-05
258.02999999988623,5.822627e-05,258.02999999988623,9.723673e-06,258.02999999988623,1.081684e-05,258.02999999988623,1.032512e-05
258.0449999998862,5.850286e-05,258.0449999998862,1.001485e-05,258.0449999998862,1.0306e-05,258.0449999998862,1.020849e-05
258.0599999998862,5.816624e-05,258.0599999998862,1.000359e-05,258.0599999998862,1.014621e-05,258.0599999998862,1.03809e-05
258.0749999998862,6.010995e-05,258.0749999998862,1.001907e-05,258.0749999998862,9.500919e-06,258.0749999998862,1.028684e-05
258.0899999998862,6.080893e-05,258.0899999998862,1.058515e-05,258.0899999998862,9.195013e-06,258.0899999998862,1.027177e-05
258.10499999988616,5.910749e-05,258.10499999988616,1.2284e-05,258.10499999988616,9.142777e-06,258.10499999988616,1.018501e-05
258.11999999988615,5.748928e-05,258.11999999988615,1.247516e-05,258.11999999988615,8.794083e-06,258.11999999988615,1.032102e-05
258.13499999988613,5.688653e-05,258.13499999988613,1.291785e-05,258.13499999988613,9.096438e-06,258.13499999988613,9.937185e-06
258.1499999998861,5.817738e-05,258.1499999998861,1.362477e-05,258.1499999998861,9.487566e-06,258.1499999998861,9.115002e-06
258.1649999998861,5.920535e-05,258.1649999998861,1.261217e-05,258.1649999998861,8.813284e-06,258.1649999998861,1.084155e-05
258.1799999998861,5.927194e-05,258.1799999998861,1.312448e-05,258.1799999998861,8.795684e-06,258.1799999998861,1.092181e-05
258.1949999998861,6.007784e-05,258.1949999998861,1.373495e-05,258.1949999998861,9.063859e-06,258.1949999998861,1.151206e-05
258.20999999988607,5.805109e-05,258.20999999988607,1.370518e-05,258.20999999988607,9.37705e-06,258.20999999988607,1.244124e-05
258.22499999988605,5.711735e-05,258.22499999988605,1.37892e-05,258.22499999988605,9.368033e-06,258.22499999988605,1.239132e-05
258.23999999988604,6.00389e-05,258.23999999988604,1.456812e-05,258.23999999988604,9.447393e-06,258.23999999988604,1.23092e-05
258.254999999886,6.249313e-05,258.254999999886,1.471723e-05,258.254999999886,9.091791e-06,258.254999999886,1.240496e-05
258.269999999886,6.247803e-05,258.269999999886,1.573313e-05,258.269999999886,8.781259e-06,258.269999999886,1.265565e-05
258.284999999886,6.010995e-05,258.284999999886,1.584198e-05,258.284999999886,9.070073e-06,258.284999999886,1.404929e-05
258.299999999886,6.325333e-05,258.299999999886,1.635131e-05,258.299999999886,9.986677e-06,258.299999999886,1.45478e-05
258.31499999988597,6.391839e-05,258.31499999988597,1.671091e-05,258.31499999988597,1.052108e-05,258.31499999988597,1.454876e-05
258.32999999988596,6.296182e-05,258.32999999988596,1.703814e-05,258.32999999988596,1.167729e-05,258.32999999988596,1.570355e-05
258.34499999988594,6.2675e-05,258.34499999988594,1.683771e-05,258.34499999988594,1.174945e-05,258.34499999988594,1.592358e-05
258.35999999988593,6.368812e-05,258.35999999988593,1.577158e-05,258.35999999988593,1.204896e-05,258.35999999988593,1.676981e-05
258.3749999998859,6.466336e-05,258.3749999998859,1.746197e-05,258.3749999998859,1.164467e-05,258.3749999998859,1.674039e-05
258.3899999998859,6.377277e-05,258.3899999998859,1.739893e-05,258.3899999998859,1.123211e-05,258.3899999998859,1.743937e-05
258.4049999998859,6.376416e-05,258.4049999998859,1.685862e-05,258.4049999998859,1.134939e-05,258.4049999998859,1.712885e-05
258.4199999998859,6.269748e-05,258.4199999998859,1.670332e-05,258.4199999998859,1.150961e-05,258.4199999998859,1.706293e-05
258.43499999988586,6.524177e-05,258.43499999988586,1.582063e-05,258.43499999988586,1.163741e-05,258.43499999988586,1.725258e-05
258.44999999988585,6.409051e-05,258.44999999988585,1.576175e-05,258.44999999988585,1.1332e-05,258.44999999988585,1.669066e-05
258.46499999988583,6.411621e-05,258.46499999988583,1.609778e-05,258.46499999988583,1.141128e-05,258.46499999988583,1.621549e-05
258.4799999998858,6.784328e-05,258.4799999998858,1.609341e-05,258.4799999998858,1.172665e-05,258.4799999998858,1.640893e-05
258.4949999998858,6.271905e-05,258.4949999998858,1.597657e-05,258.4949999998858,1.210494e-05,258.4949999998858,1.686363e-05
258.5099999998858,5.908889e-05,258.5099999998858,1.671597e-05,258.5099999998858,1.246047e-05,258.5099999998858,1.686029e-05
258.5249999998858,5.949445e-05,258.5249999998858,1.581172e-05,258.5249999998858,1.243331e-05,258.5249999998858,1.681427e-05
258.53999999988577,5.505506e-05,258.53999999988577,1.565414e-05,258.53999999988577,1.184497e-05,258.53999999988577,1.558017e-05
258.55499999988575,5.517315e-05,258.55499999988575,1.588461e-05,258.55499999988575,1.169296e-05,258.55499999988575,1.540194e-05
258.56999999988574,5.389137e-05,258.56999999988574,1.617112e-05,258.56999999988574,1.055984e-05,258.56999999988574,1.556027e-05
258.5849999998857,5.375737e-05,258.5849999998857,1.584287e-05,258.5849999998857,1.007655e-05,258.5849999998857,1.439888e-05
258.5999999998857,5.358152e-05,258.5999999998857,1.577515e-05,258.5999999998857,9.728018e-06,258.5999999998857,1.427508e-05
258.6149999998857,5.300742e-05,258.6149999998857,1.615107e-05,258.6149999998857,9.743934e-06,258.6149999998857,1.323138e-05
258.6299999998857,5.339585e-05,258.6299999998857,1.476787e-05,258.6299999998857,1.001907e-05,258.6299999998857,1.342374e-05
258.64499999988567,5.18483e-05,258.64499999988567,1.461253e-05,258.64499999988567,1.025118e-05,258.64499999988567,1.267012e-05
258.65999999988566,5.174877e-05,258.65999999988566,1.517249e-05,258.65999999988566,9.913058e-06,258.65999999988566,1.243105e-05
258.67499999988564,5.17553e-05,258.67499999988564,1.606976e-05,258.67499999988564,9.74827e-06,258.67499999988564,1.201969e-05
258.68999999988563,4.826592e-05,258.68999999988563,1.622504e-05,258.68999999988563,9.871762e-06,258.68999999988563,1.187111e-05
258.7049999998856,4.806617e-05,258.7049999998856,1.630386e-05,258.7049999998856,9.886021e-06,258.7049999998856,1.212471e-05
258.7199999998856,4.489991e-05,258.7199999998856,1.618157e-05,258.7199999998856,1.020159e-05,258.7199999998856,1.209097e-05
258.7349999998856,4.231233e-05,258.7349999998856,1.661199e-05,258.7349999998856,9.999364e-06,258.7349999998856,1.19586e-05
258.7499999998856,4.208399e-05,258.7499999998856,1.623546e-05,258.7499999998856,9.542344e-06,258.7499999998856,1.147038e-05
258.76499999988556,4.308857e-05,258.76499999988556,1.667378e-05,258.76499999988556,9.611476e-06,258.76499999988556,1.120071e-05
258.77999999988555,4.267928e-05,258.77999999988555,1.684942e-05,258.77999999988555,9.631973e-06,258.77999999988555,1.071215e-05
258.79499999988553,4.257915e-05,258.79499999988553,1.593242e-05,258.79499999988553,9.349971e-06,258.79499999988553,1.028137e-05
258.8099999998855,4.410444e-05,258.8099999998855,1.583842e-05,258.8099999998855,9.295575e-06,258.8099999998855,1.035645e-05
258.8249999998855,4.294416e-05,258.8249999998855,1.578408e-05,258.8249999998855,9.331874e-06,258.8249999998855,1.010447e-05
258.8399999998855,4.245723e-05,258.8399999998855,1.620941e-05,258.8399999998855,9.96691e-06,258.8399999998855,9.959841e-06
258.8549999998855,4.219898e-05,258.8549999998855,1.622157e-05,258.8549999998855,1.015037e-05,258.8549999998855,9.858911e-06
258.86999999988547,4.15192e-05,258.86999999988547,1.542388e-05,258.86999999988547,9.985267e-06,258.86999999988547,9.911636e-06
258.88499999988545,4.2304e-05,258.88499999988545,1.57546e-05,258.88499999988545,9.777128e-06,258.88499999988545,9.608544e-06
258.89999999988544,4.32833e-05,258.89999999988544,1.563072e-05,258.89999999988544,9.511293e-06,258.89999999988544,9.30012e-06
258.9149999998854,4.348235e-05,258.9149999998854,1.516971e-05,258.9149999998854,9.648047e-06,258.9149999998854,9.158172e-06
258.9299999998854,5.387699e-05,258.9299999998854,1.474496e-05,258.9299999998854,9.741042e-06,258.9299999998854,9.35449e-06
258.9449999998854,5.766446e-05,258.9449999998854,1.481073e-05,258.9449999998854,9.457824e-06,258.9449999998854,9.10263e-06
258.9599999998854,5.956236e-05,258.9599999998854,1.445162e-05,258.9599999998854,9.375548e-06,258.9599999998854,8.622616e-06
258.97499999988537,6.231391e-05,258.97499999988537,1.428396e-05,258.97499999988537,8.957552e-06,258.97499999988537,8.558665e-06
258.98999999988536,6.220621e-05,258.98999999988536,1.307609e-05,258.98999999988536,8.889673e-06,258.98999999988536,9.685934e-06
259.00499999988534,6.152928e-05,259.00499999988534,1.327495e-05,259.00499999988534,9.315255e-06,259.00499999988534,1.102196e-05
259.01999999988533,6.117823e-05,259.01999999988533,1.394362e-05,259.01999999988533,8.881747e-06,259.01999999988533,1.167005e-05
259.0349999998853,6.134861e-05,259.0349999998853,1.480027e-05,259.0349999998853,8.861105e-06,259.0349999998853,1.175304e-05
259.0499999998853,5.999572e-05,259.0499999998853,1.506909e-05,259.0499999998853,1.000641e-05,259.0499999998853,1.239018e-05
259.0649999998853,5.921297e-05,259.0649999998853,1.483259e-05,259.0649999998853,9.982445e-06,259.0649999998853,1.29342e-05
259.0799999998853,6.017132e-05,259.0799999998853,1.431647e-05,259.0799999998853,9.720776e-06,259.0799999998853,1.321859e-05
259.09499999988526,5.981913e-05,259.09499999988526,1.420683e-05,259.09499999988526,9.399558e-06,259.09499999988526,1.331416e-05
259.10999999988525,5.837849e-05,259.10999999988525,1.436362e-05,259.10999999988525,9.144318e-06,259.10999999988525,1.336168e-05
259.12499999988523,6.647869e-05,259.12499999988523,1.337328e-05,259.12499999988523,9.179681e-06,259.12499999988523,1.327602e-05
259.1399999998852,6.726923e-05,259.1399999998852,1.333002e-05,259.1399999998852,9.08249e-06,259.1399999998852,1.324095e-05
259.1549999998852,6.567196e-05,259.1549999998852,1.307717e-05,259.1549999998852,8.962269e-06,259.1549999998852,1.339117e-05
259.1699999998852,6.100922e-05,259.1699999998852,1.277861e-05,259.1699999998852,9.158172e-06,259.1699999998852,1.359268e-05
259.1849999998852,5.513765e-05,259.1849999998852,1.305561e-05,259.1849999998852,9.173541e-06,259.1849999998852,1.360718e-05
259.19999999988516,5.573783e-05,259.19999999988516,1.332473e-05,259.19999999988516,9.982445e-06,259.19999999988516,1.363407e-05
259.21499999988515,5.33882e-05,259.21499999988515,1.344052e-05,259.21499999988515,1.031146e-05,259.21499999988515,1.368049e-05
259.22999999988514,5.002414e-05,259.22999999988514,1.375647e-05,259.22999999988514,1.024431e-05,259.22999999988514,1.365575e-05
259.2449999998851,5.050952e-05,259.2449999998851,1.321753e-05,259.2449999998851,1.008773e-05,259.2449999998851,1.274439e-05
259.2599999998851,5.380923e-05,259.2599999998851,1.319086e-05,259.2599999998851,9.957012e-06,259.2599999998851,1.098868e-05
259.2749999998851,5.504892e-05,259.2749999998851,1.114524e-05,259.2749999998851,9.834591e-06,259.2749999998851,1.078293e-05
259.2899999998851,5.721419e-05,259.2899999998851,1.076069e-05,259.2899999998851,9.729466e-06,259.2899999998851,1.070689e-05
259.30499999988507,5.633587e-05,259.30499999988507,1.05745e-05,259.30499999988507,9.665551e-06,259.30499999988507,1.045123e-05
259.31999999988506,5.576764e-05,259.31999999988506,1.051171e-05,259.31999999988506,9.675749e-06,259.31999999988506,9.324323e-06
259.33499999988504,5.543372e-05,259.33499999988504,1.058915e-05,259.33499999988504,9.546771e-06,259.33499999988504,9.063859e-06
259.34999999988503,5.564525e-05,259.34999999988503,1.020435e-05,259.34999999988503,9.533483e-06,259.34999999988503,9.221021e-06
259.364999999885,5.634337e-05,259.364999999885,1.0625e-05,259.364999999885,9.633435e-06,259.364999999885,9.366529e-06
259.379999999885,4.509275e-05,259.379999999885,1.05358e-05,259.379999999885,9.691749e-06,259.379999999885,9.224075e-06
259.394999999885,4.670886e-05,259.394999999885,1.059978e-05,259.394999999885,9.880319e-06,259.394999999885,9.227129e-06
259.409999999885,4.803246e-05,259.409999999885,1.05585e-05,259.409999999885,9.97821e-06,259.409999999885,8.91025e-06
259.42499999988496,4.921733e-05,259.42499999988496,1.064752e-05,259.42499999988496,9.667009e-06,259.42499999988496,9.108818e-06
259.43999999988495,4.969953e-05,259.43999999988495,1.044853e-05,259.43999999988495,9.515735e-06,259.43999999988495,8.933933e-06
259.45499999988493,4.595147e-05,259.45499999988493,1.02209e-05,259.45499999988493,8.607901e-06,259.45499999988493,8.810087e-06
259.4699999998849,4.599529e-05,259.4699999998849,1.018501e-05,259.4699999998849,8.568535e-06,259.4699999998849,8.747506e-06
259.4849999998849,4.660923e-05,259.4849999998849,9.736703e-06,259.4849999998849,8.992083e-06,259.4849999998849,8.500864e-06
259.4999999998849,4.803305e-05,259.4999999998849,1.071083e-05,259.4999999998849,8.981111e-06,259.4999999998849,8.744285e-06
259.5149999998849,4.481512e-05,259.5149999998849,1.076462e-05,259.5149999998849,8.849969e-06,259.5149999998849,8.962269e-06
259.52999999988486,4.396977e-05,259.52999999988486,1.057983e-05,259.52999999988486,8.897593e-06,259.52999999988486,9.094889e-06
259.54499999988485,4.163947e-05,259.54499999988485,1.068318e-05,259.54499999988485,8.075974e-06,259.54499999988485,9.023361e-06
259.55999999988484,4.183623e-05,259.55999999988484,1.051439e-05,259.55999999988484,7.990047e-06,259.55999999988484,8.684475e-06
259.5749999998848,4.538546e-05,259.5749999998848,1.077639e-05,259.5749999998848,8.154087e-06,259.5749999998848,9.37104e-06
259.5899999998848,4.60461e-05,259.5899999998848,1.078423e-05,259.5899999998848,8.102095e-06,259.5899999998848,9.287995e-06
259.6049999998848,4.585818e-05,259.6049999998848,9.881745e-06,259.6049999998848,8.358825e-06,259.6049999998848,9.31979e-06
259.6199999998848,4.852469e-05,259.6199999998848,1.020021e-05,259.6199999998848,8.477633e-06,259.6199999998848,9.878894e-06
259.63499999988477,4.852643e-05,259.63499999988477,1.066866e-05,259.63499999988477,8.309809e-06,259.63499999988477,1.08714e-05
259.64999999988476,4.785058e-05,259.64999999988476,1.11136e-05,259.64999999988476,9.035841e-06,259.64999999988476,1.118939e-05
259.66499999988474,4.816016e-05,259.66499999988474,1.134567e-05,259.66499999988474,9.530527e-06,259.66499999988474,1.093213e-05
259.6799999998847,4.953401e-05,259.6799999998847,1.122458e-05,259.6799999998847,9.975386e-06,259.6799999998847,1.086103e-05
259.6949999998847,5.153901e-05,259.6949999998847,1.1896e-05,259.6949999998847,1.005976e-05,259.6949999998847,1.130088e-05
259.7099999998847,5.202027e-05,259.7099999998847,1.301562e-05,259.7099999998847,1.006536e-05,259.7099999998847,1.141992e-05
259.7249999998847,5.409148e-05,259.7249999998847,1.296031e-05,259.7249999998847,1.096815e-05,259.7249999998847,1.167729e-05
259.7399999998847,5.498824e-05,259.7399999998847,1.300263e-05,259.7399999998847,1.108059e-05,259.7399999998847,1.158525e-05
259.75499999988466,5.345465e-05,259.75499999988466,1.212239e-05,259.75499999988466,1.13096e-05,259.75499999988466,1.126342e-05
259.76999999988465,5.282053e-05,259.76999999988465,1.272116e-05,259.76999999988465,1.138161e-05,259.76999999988465,1.141868e-05
259.78499999988463,5.318226e-05,259.78499999988463,1.301238e-05,259.78499999988463,1.194799e-05,259.78499999988463,1.143348e-05
259.7999999998846,5.398304e-05,259.7999999998846,1.305884e-05,259.7999999998846,1.201969e-05,259.7999999998846,1.158038e-05
259.8149999998846,5.38375e-05,259.8149999998846,1.338486e-05,259.8149999998846,1.224034e-05,259.8149999998846,1.140511e-05
259.8299999998846,5.135007e-05,259.8299999998846,1.309116e-05,259.8299999998846,1.217457e-05,259.8299999998846,1.16362e-05
259.8449999998846,5.462996e-05,259.8449999998846,1.329298e-05,259.8449999998846,1.261775e-05,259.8449999998846,1.19527e-05
259.85999999988456,5.643804e-05,259.85999999988456,1.348865e-05,259.85999999988456,1.234691e-05,259.85999999988456,1.175304e-05
259.87499999988455,5.437694e-05,259.87499999988455,1.320793e-05,259.87499999988455,1.230004e-05,259.87499999988455,1.056251e-05
259.88999999988454,5.79486e-05,259.88999999988454,1.313092e-05,259.88999999988454,1.230577e-05,259.88999999988454,1.119317e-05
259.9049999998845,6.142709e-05,259.9049999998845,1.298962e-05,259.9049999998845,1.156943e-05,259.9049999998845,1.086881e-05
259.9199999998845,6.149722e-05,259.9199999998845,1.292875e-05,259.9199999998845,1.117931e-05,259.9199999998845,1.084285e-05
259.9349999998845,5.986032e-05,259.9349999998845,1.249322e-05,259.9349999998845,1.098996e-05,259.9349999998845,1.057317e-05
259.9499999998845,5.778087e-05,259.9499999998845,1.103601e-05,259.9499999998845,1.097714e-05,259.9499999998845,1.068713e-05
259.96499999988447,5.452363e-05,259.96499999988447,1.083766e-05,259.96499999988447,1.04053e-05,259.96499999988447,1.09797e-05
259.97999999988446,5.444373e-05,259.97999999988446,1.069504e-05,259.97999999988446,9.637821e-06,259.97999999988446,1.076069e-05
259.99499999988444,5.312528e-05,259.99499999988444,1.069372e-05,259.99499999988444,9.23476e-06,259.99499999988444,1.120071e-05
260.0099999998844,5.285599e-05,260.0099999998844,1.03142e-05,260.0099999998844,9.240859e-06,260.0099999998844,1.117301e-05
260.0249999998844,5.262442e-05,260.0249999998844,9.884596e-06,260.0249999998844,9.342435e-06,260.0249999998844,1.103984e-05
260.0399999998844,5.541619e-05,260.0399999998844,9.565934e-06,260.0399999998844,8.758771e-06,260.0399999998844,1.117301e-05
260.0549999998844,5.461913e-05,260.0549999998844,9.374045e-06,260.0549999998844,7.97593e-06,260.0549999998844,1.107423e-05
260.0699999998844,5.412793e-05,260.0699999998844,1.000922e-05,260.0699999998844,7.949394e-06,260.0699999998844,1.098098e-05
260.08499999988436,5.359545e-05,260.08499999988436,1.045662e-05,260.08499999988436,8.002378e-06,260.08499999988436,1.024705e-05
260.09999999988435,4.975817e-05,260.09999999988435,1.010307e-05,260.09999999988435,7.242846e-06,260.09999999988435,1.003592e-05
260.11499999988433,5.076323e-05,260.11499999988433,1.009471e-05,260.11499999988433,7.178377e-06,260.11499999988433,1.005696e-05
260.1299999998843,4.856445e-05,260.1299999998843,1.092697e-05,260.1299999998843,7.125195e-06,260.1299999998843,1.034964e-05
260.1449999998843,4.268654e-05,260.1449999998843,1.07266e-05,260.1449999998843,7.033664e-06,260.1449999998843,9.854623e-06
260.1599999998843,3.984573e-05,260.1599999998843,1.061837e-05,260.1599999998843,7.089519e-06,260.1599999998843,9.97821e-06
260.1749999998843,3.945064e-05,260.1749999998843,1.028137e-05,260.1749999998843,7.568121e-06,260.1749999998843,9.979622e-06
260.18999999988426,3.985881e-05,260.18999999988426,1.036868e-05,260.18999999988426,7.605257e-06,260.18999999988426,1.010865e-05
260.20499999988425,3.947278e-05,260.20499999988425,1.133076e-05,260.20499999988425,7.862084e-06,260.20499999988425,9.729466e-06
260.21999999988424,4.106273e-05,260.21999999988424,1.172304e-05,260.21999999988424,8.183403e-06,260.21999999988424,9.278891e-06
260.2349999998842,4.11443e-05,260.2349999998842,1.238905e-05,260.2349999998842,8.43766e-06,260.2349999998842,9.173541e-06
260.2499999998842,4.111004e-05,260.2499999998842,1.232292e-05,260.2499999998842,8.710389e-06,260.2499999998842,9.67866e-06
260.2649999998842,4.109942e-05,260.2649999998842,1.241517e-05,260.2649999998842,8.34702e-06,260.2649999998842,1.027314e-05
260.2799999998842,4.151072e-05,260.2799999998842,1.224494e-05,260.2799999998842,8.28094e-06,260.2799999998842,1.076069e-05
260.29499999988417,3.729956e-05,260.29499999988417,1.241404e-05,260.29499999988417,8.181682e-06,260.29499999988417,1.086492e-05
260.30999999988416,3.680685e-05,260.30999999988416,1.287197e-05,260.30999999988416,8.202317e-06,260.30999999988416,1.086751e-05
260.32499999988414,3.727765e-05,260.32499999988414,1.264118e-05,260.32499999988414,8.340267e-06,260.32499999988414,1.098611e-05
260.3399999998841,3.797921e-05,260.3399999998841,1.278742e-05,260.3399999998841,8.286042e-06,260.3399999998841,1.098355e-05
260.3549999998841,3.618971e-05,260.3549999998841,1.274881e-05,260.3549999998841,8.034001e-06,260.3549999998841,1.091924e-05
260.3699999998841,3.31042e-05,260.3699999998841,1.214561e-05,260.3699999998841,8.193725e-06,260.3699999998841,1.129215e-05
260.3849999998841,3.281485e-05,260.3849999998841,1.165797e-05,260.3849999998841,8.442667e-06,260.3849999998841,1.099893e-05
260.3999999998841,3.276716e-05,260.3999999998841,1.157308e-05,260.3999999998841,8.321666e-06,260.3999999998841,1.060244e-05
260.41499999988406,3.23601e-05,260.41499999988406,1.143717e-05,260.41499999988406,8.43432e-06,260.41499999988406,1.042829e-05
260.42999999988405,3.159937e-05,260.42999999988405,1.154017e-05,260.42999999988405,8.067247e-06,260.42999999988405,1.035509e-05
260.44499999988403,3.076819e-05,260.44499999988403,1.119065e-05,260.44499999988403,7.951166e-06,260.44499999988403,1.034011e-05
260.459999999884,3.054764e-05,260.459999999884,1.024705e-05,260.459999999884,7.790086e-06,260.459999999884,1.059447e-05
260.474999999884,2.885836e-05,260.474999999884,9.928676e-06,260.474999999884,7.370092e-06,260.474999999884,1.052644e-05
260.489999999884,2.855214e-05,260.489999999884,9.068521e-06,260.489999999884,7.093493e-06,260.489999999884,1.001907e-05
260.504999999884,3.141831e-05,260.504999999884,8.851561e-06,260.504999999884,7.109361e-06,260.504999999884,9.857482e-06
260.51999999988396,3.12736e-05,260.51999999988396,8.723317e-06,260.51999999988396,7.196016e-06,260.51999999988396,8.907087e-06
260.53499999988395,3.161007e-05,260.53499999988395,9.756936e-06,260.53499999988395,7.291306e-06,260.53499999988395,8.352081e-06
260.54999999988394,3.074346e-05,260.54999999988394,1.018915e-05,260.54999999988394,7.2971e-06,260.54999999988394,8.202317e-06
260.5649999998839,2.966424e-05,260.5649999998839,9.714977e-06,260.5649999998839,7.256447e-06,260.5649999998839,8.077717e-06
260.5799999998839,3.007782e-05,260.5799999998839,8.861105e-06,260.5799999998839,6.809799e-06,260.5799999998839,7.885342e-06
260.5949999998839,3.08345e-05,260.5949999998839,9.045189e-06,260.5949999998839,6.753716e-06,260.5949999998839,8.021719e-06
260.6099999998839,3.065352e-05,260.6099999998839,9.026482e-06,260.6099999998839,6.734918e-06,260.6099999998839,8.051516e-06
260.62499999988387,3.063191e-05,260.62499999988387,9.268258e-06,260.62499999988387,6.64861e-06,260.62499999988387,7.618211e-06
260.63999999988386,3.161007e-05,260.63999999988386,1.050634e-05,260.63999999988386,6.260124e-06,260.63999999988386,7.512074e-06
260.65499999988384,3.179137e-05,260.65499999988384,1.071609e-05,260.65499999988384,6.107498e-06,260.65499999988384,7.726537e-06
260.6699999998838,3.128892e-05,260.6699999998838,1.062633e-05,260.6699999998838,5.743781e-06,260.6699999998838,7.99181e-06
260.6849999998838,3.108611e-05,260.6849999998838,1.056784e-05,260.6849999998838,5.848288e-06,260.6849999998838,8.533942e-06
260.6999999998838,3.119152e-05,260.6999999998838,1.078684e-05,260.6999999998838,5.872325e-06,260.6999999998838,8.619349e-06
260.7149999998838,3.097353e-05,260.7149999998838,1.094758e-05,260.7149999998838,5.807196e-06,260.7149999998838,8.053266e-06
260.7299999998838,3.076544e-05,260.7299999998838,1.110218e-05,260.7299999998838,5.726587e-06,260.7299999998838,8.442667e-06
260.74499999988376,2.764065e-05,260.74499999988376,1.180089e-05,260.74499999988376,5.792623e-06,260.74499999988376,8.454338e-06
260.75999999988375,2.988282e-05,260.75999999988375,1.177938e-05,260.75999999988375,5.546649e-06,260.75999999988375,8.424293e-06
260.77499999988373,3.168085e-05,260.77499999988373,1.171463e-05,260.77499999988373,5.449287e-06,260.77499999988373,8.970124e-06
260.7899999998837,3.075903e-05,260.7899999998837,1.040259e-05,260.7899999998837,5.536481e-06,260.7899999998837,9.147398e-06
260.8049999998837,3.096853e-05,260.8049999998837,1.023605e-05,260.8049999998837,5.677176e-06,260.8049999998837,9.360511e-06
260.8199999998837,3.168352e-05,260.8199999998837,1.136303e-05,260.8199999998837,5.609782e-06,260.8199999998837,9.451865e-06
260.8349999998837,2.948132e-05,260.8349999998837,1.141868e-05,260.8349999998837,5.589657e-06,260.8349999998837,9.321302e-06
260.84999999988366,2.895095e-05,260.84999999988366,1.156456e-05,260.84999999988366,5.634837e-06,260.84999999988366,9.378553e-06
260.86499999988365,2.870467e-05,260.86499999988365,1.155725e-05,260.86499999988365,5.597212e-06,260.86499999988365,9.668466e-06
260.87999999988364,2.786095e-05,260.87999999988364,1.055183e-05,260.87999999988364,5.513535e-06,260.87999999988364,9.847473e-06
260.8949999998836,2.826354e-05,260.8949999998836,1.064355e-05,260.8949999998836,5.467352e-06,260.8949999998836,9.759823e-06
260.9099999998836,2.831682e-05,260.9099999998836,1.053312e-05,260.9099999998836,5.773135e-06,260.9099999998836,9.662636e-06
260.9249999998836,2.816568e-05,260.9249999998836,1.093857e-05,260.9249999998836,6.005157e-06,260.9249999998836,9.612942e-06
260.9399999998836,2.663255e-05,260.9399999998836,1.096558e-05,260.9399999998836,6.309435e-06,260.9399999998836,9.071627e-06
260.95499999988357,2.653027e-05,260.95499999988357,1.130088e-05,260.95499999988357,6.176305e-06,260.95499999988357,9.172005e-06
260.96999999988356,2.670069e-05,260.96999999988356,1.156699e-05,260.96999999988356,6.107498e-06,260.96999999988356,9.191949e-06
260.98499999988354,2.856841e-05,260.98499999988354,1.093599e-05,260.98499999988354,6.03324e-06,260.98499999988354,8.737838e-06
260.9999999998835,2.855411e-05,260.9999999998835,1.099765e-05,260.9999999998835,6.146583e-06,260.9999999998835,8.837226e-06
261.0149999998835,2.59092e-05,261.0149999998835,1.088046e-05,261.0149999998835,6.128222e-06,261.0149999998835,8.857925e-06
261.0299999998835,2.479117e-05,261.0299999998835,1.105896e-05,261.0299999998835,6.203613e-06,261.0299999998835,8.739451e-06
261.0449999998835,2.60399e-05,261.0449999998835,1.126092e-05,261.0449999998835,5.972226e-06,261.0449999998835,8.664989e-06
261.0599999998835,2.862457e-05,261.0599999998835,1.064355e-05,261.0599999998835,6.077441e-06,261.0599999998835,8.963841e-06
261.07499999988346,2.924963e-05,261.07499999988346,1.004434e-05,261.07499999988346,6.25337e-06,261.07499999988346,9.520175e-06
261.08999999988345,3.120236e-05,261.08999999988345,9.959841e-06,261.08999999988345,6.53104e-06,261.08999999988345,9.790087e-06
261.10499999988343,3.148102e-05,261.10499999988343,9.965496e-06,261.10499999988343,6.640129e-06,261.10499999988343,1.001485e-05
261.1199999998834,3.138063e-05,261.1199999998834,1.042964e-05,261.1199999998834,6.667651e-06,261.1199999998834,1.03809e-05
261.1349999998834,3.033617e-05,261.1349999998834,1.020021e-05,261.1349999998834,6.951067e-06,261.1349999998834,1.048218e-05
261.1499999998834,3.048994e-05,261.1499999998834,1.004154e-05,261.1499999998834,6.944984e-06,261.1499999998834,1.05184e-05
261.1649999998834,3.183078e-05,261.1649999998834,1.012953e-05,261.1649999998834,6.669763e-06,261.1649999998834,1.087787e-05
261.17999999988336,3.223929e-05,261.17999999988336,1.011979e-05,261.17999999988336,6.316129e-06,261.17999999988336,1.075284e-05
261.19499999988335,3.247872e-05,261.19499999988335,9.807338e-06,261.19499999988335,6.437625e-06,261.19499999988335,1.076331e-05
261.20999999988334,3.327355e-05,261.20999999988334,9.688843e-06,261.20999999988334,6.734918e-06,261.20999999988334,1.065545e-05
261.2249999998833,3.298355e-05,261.2249999998833,9.330365e-06,261.2249999998833,6.764137e-06,261.2249999998833,1.053312e-05
261.2399999998833,3.180776e-05,261.2399999998833,9.303149e-06,261.2399999998833,6.784931e-06,261.2399999998833,1.087399e-05
261.2549999998833,3.153824e-05,261.2549999998833,9.624658e-06,261.2549999998833,6.780777e-06,261.2549999998833,1.06581e-05
261.2699999998833,3.211189e-05,261.2699999998833,1.004715e-05,261.2699999998833,6.985433e-06,261.2699999998833,1.049964e-05
261.28499999988327,3.214565e-05,261.28499999988327,1.050634e-05,261.28499999988327,7.041671e-06,261.28499999988327,1.026079e-05
261.29999999988325,2.999574e-05,261.29999999988325,1.036596e-05,261.29999999988325,7.279705e-06,261.29999999988325,1.012258e-05
261.31499999988324,2.915894e-05,261.31499999988324,1.035101e-05,261.31499999988324,7.270023e-06,261.31499999988324,9.515735e-06
261.3299999998832,2.641907e-05,261.3299999998832,1.007375e-05,261.3299999998832,7.30096e-06,261.3299999998832,8.924467e-06
261.3449999998832,2.589506e-05,261.3449999998832,1.001344e-05,261.3449999998832,7.56626e-06,261.3449999998832,8.770023e-06
261.3599999998832,2.59266e-05,261.3599999998832,9.947104e-06,261.3599999998832,7.818965e-06,261.3599999998832,8.016449e-06
261.3749999998832,2.635447e-05,261.3749999998832,1.04983e-05,261.3749999998832,7.724713e-06,261.3749999998832,7.534543e-06
261.3899999998832,2.732336e-05,261.3899999998832,1.067131e-05,261.3899999998832,7.59228e-06,261.3899999998832,7.381551e-06
261.40499999988316,2.730067e-05,261.40499999988316,1.101684e-05,261.40499999988316,7.525189e-06,261.40499999988316,7.444261e-06
261.41999999988315,2.638545e-05,261.41999999988315,1.073054e-05,261.41999999988315,7.547619e-06,261.41999999988315,6.890002e-06
261.43499999988313,2.667325e-05,261.43499999988313,1.070162e-05,261.43499999988313,7.523317e-06,261.43499999988313,6.826328e-06
261.4499999998831,2.599659e-05,261.4499999998831,1.061837e-05,261.4499999998831,7.176414e-06,261.4499999998831,6.766219e-06
261.4649999998831,2.457028e-05,261.4649999998831,1.024293e-05,261.4649999998831,7.15282e-06,261.4649999998831,6.709772e-06
261.4799999998831,2.476672e-05,261.4799999998831,1.03019e-05,261.4799999998831,7.238955e-06,261.4799999998831,6.635885e-06
261.4949999998831,2.460409e-05,261.4949999998831,1.005275e-05,261.4949999998831,7.168558e-06,261.4949999998831,7.34712e-06
261.50999999988306,2.444383e-05,261.50999999988306,1.019468e-05,261.50999999988306,6.944984e-06,261.50999999988306,7.926324e-06
261.52499999988305,2.313642e-05,261.52499999988305,9.365025e-06,261.52499999988305,6.799448e-06,261.52499999988305,8.21433e-06
261.53999999988304,2.224683e-05,261.53999999988304,9.108818e-06,261.53999999988304,6.663425e-06,261.53999999988304,8.607901e-06
261.554999999883,2.344548e-05,261.554999999883,8.916571e-06,261.554999999883,6.526725e-06,261.554999999883,8.819675e-06
261.569999999883,2.356594e-05,261.569999999883,8.962269e-06,261.569999999883,6.629514e-06,261.569999999883,8.876988e-06
261.584999999883,2.393132e-05,261.584999999883,9.295575e-06,261.584999999883,6.644371e-06,261.584999999883,8.990517e-06
261.599999999883,2.491812e-05,261.599999999883,9.35449e-06,261.599999999883,5.782887e-06,261.599999999883,8.976404e-06
261.61499999988297,2.448931e-05,261.61499999988297,9.003043e-06,261.61499999988297,5.536481e-06,261.61499999988297,8.864284e-06
261.62999999988295,2.412187e-05,261.62999999988295,8.46433e-06,261.62999999988295,5.95096e-06,261.62999999988295,9.136613e-06
261.64499999988294,2.277931e-05,261.64499999988294,8.570179e-06,261.64499999988294,5.915346e-06,261.64499999988294,8.98895e-06
261.6599999998829,2.266089e-05,261.6599999998829,8.385746e-06,261.6599999998829,5.862722e-06,261.6599999998829,8.932356e-06
261.6749999998829,2.312058e-05,261.6749999998829,8.308113e-06,261.6749999998829,5.927241e-06,261.6749999998829,8.957552e-06
261.6899999998829,2.271243e-05,261.6899999998829,8.50749e-06,261.6899999998829,5.934367e-06,261.6899999998829,8.944963e-06
261.7049999998829,2.532856e-05,261.7049999998829,8.859515e-06,261.7049999998829,5.8867e-06,261.7049999998829,8.981111e-06
261.7199999998829,2.547219e-05,261.7199999998829,8.977973e-06,261.7199999998829,5.773135e-06,261.7199999998829,8.982679e-06
261.73499999988286,2.910527e-05,261.73499999988286,8.862694e-06,261.73499999988286,5.694519e-06,261.73499999988286,8.829253e-06
261.74999999988285,2.961196e-05,261.74999999988285,8.824465e-06,261.74999999988285,5.706874e-06,261.74999999988285,7.851327e-06
261.76499999988283,2.964428e-05,261.76499999988283,8.367247e-06,261.76499999988283,5.780451e-06,261.76499999988283,7.879981e-06
261.7799999998828,2.946651e-05,261.7799999998828,8.492574e-06,261.7799999998828,5.931993e-06,261.7799999998828,7.603404e-06
261.7949999998828,3.170218e-05,261.7949999998828,8.424293e-06,261.7949999998828,5.838645e-06,261.7949999998828,7.412022e-06
261.8099999998828,3.092346e-05,261.8099999998828,8.524032e-06,261.8099999998828,6.284828e-06,261.8099999998828,7.325999e-06
261.8249999998828,3.126505e-05,261.8249999998828,8.397496e-06,261.8249999998828,5.998116e-06,261.8249999998828,7.131124e-06
261.83999999988276,3.090569e-05,261.83999999988276,8.545489e-06,261.83999999988276,6.06584e-06,261.83999999988276,7.15085e-06
261.85499999988275,3.314417e-05,261.85499999988275,8.840414e-06,261.85499999988275,6.054217e-06,261.85499999988275,7.233115e-06
261.86999999988274,3.390097e-05,261.86999999988274,8.932356e-06,261.86999999988274,5.682137e-06,261.86999999988274,7.043671e-06
261.8849999998827,3.468393e-05,261.8849999998827,8.627516e-06,261.8849999998827,5.853103e-06,261.8849999998827,6.912455e-06
261.8999999998827,3.45529e-05,261.8999999998827,8.537242e-06,261.8999999998827,5.865124e-06,261.8999999998827,6.965238e-06
261.9149999998827,3.499646e-05,261.9149999998827,8.630781e-06,261.9149999998827,5.664756e-06,261.9149999998827,7.063642e-06
261.9299999998827,3.539431e-05,261.9299999998827,8.768416e-06,261.9299999998827,5.736418e-06,261.9299999998827,7.302889e-06
261.94499999988267,3.353206e-05,261.94499999988267,8.612809e-06,261.94499999988267,5.809621e-06,261.94499999988267,7.406318e-06
261.95999999988265,3.411595e-05,261.95999999988265,8.502521e-06,261.95999999988265,5.81689e-06,261.95999999988265,7.534543e-06
261.97499999988264,3.309696e-05,261.97499999988264,8.720087e-06,261.97499999988264,6.11902e-06,261.97499999988264,8.000618e-06
261.9899999998826,3.204646e-05,261.9899999998826,8.741063e-06,261.9899999998826,6.093644e-06,261.9899999998826,7.770169e-06
262.0049999998826,3.292755e-05,262.0049999998826,9.275854e-06,262.0049999998826,6.072803e-06,262.0049999998826,8.236593e-06
262.0199999998826,3.260382e-05,262.0199999998826,9.669923e-06,262.0199999998826,5.969867e-06,262.0199999998826,8.390783e-06
262.0349999998826,3.200556e-05,262.0349999998826,9.910215e-06,262.0349999998826,5.785323e-06,262.0349999998826,8.558665e-06
262.0499999998826,3.081714e-05,262.0499999998826,1.110218e-05,262.0499999998826,5.699464e-06,262.0499999998826,8.818078e-06
262.06499999988256,3.070082e-05,262.06499999988256,1.132205e-05,262.06499999988256,5.254512e-06,262.06499999988256,8.856334e-06
262.07999999988255,3.007828e-05,262.07999999988255,1.100917e-05,262.07999999988255,5.379038e-06,262.07999999988255,8.840414e-06
262.09499999988253,3.021939e-05,262.09499999988253,1.081293e-05,262.09499999988253,5.286585e-06,262.09499999988253,8.800488e-06
262.1099999998825,2.798052e-05,262.1099999998825,1.067922e-05,262.1099999998825,5.310512e-06,262.1099999998825,8.710389e-06
262.1249999998825,2.815618e-05,262.1249999998825,1.074891e-05,262.1249999998825,5.490492e-06,262.1249999998825,8.771629e-06
262.1399999998825,2.793165e-05,262.1399999998825,1.114145e-05,262.1399999998825,5.546649e-06,262.1399999998825,9.08249e-06
262.1549999998825,2.770428e-05,262.1549999998825,1.101684e-05,262.1549999998825,5.908198e-06,262.1549999998825,9.049861e-06
262.16999999988246,2.762688e-05,262.16999999988246,1.09102e-05,262.16999999988246,5.905813e-06,262.16999999988246,9.118093e-06
262.18499999988245,2.763504e-05,262.18499999988245,1.079337e-05,262.18499999988245,6.007502e-06,262.18499999988245,9.23476e-06
262.19999999988244,2.747913e-05,262.19999999988244,1.089599e-05,262.19999999988244,5.95096e-06,262.19999999988244,9.618801e-06
262.2149999998824,2.602583e-05,262.2149999998824,1.086362e-05,262.2149999998824,5.802342e-06,262.2149999998824,9.962669e-06
262.2299999998824,2.608098e-05,262.2299999998824,1.102835e-05,262.2299999998824,5.423375e-06,262.2299999998824,9.969736e-06
262.2449999998824,2.351687e-05,262.2449999998824,1.090504e-05,262.2449999998824,5.664756e-06,262.2449999998824,9.891719e-06
262.2599999998824,2.374518e-05,262.2599999998824,1.115787e-05,262.2599999998824,5.622323e-06,262.2599999998824,9.505367e-06
262.27499999988237,2.437053e-05,262.27499999988237,1.074891e-05,262.27499999988237,5.736418e-06,262.27499999988237,9.732362e-06
262.28999999988235,2.398718e-05,262.28999999988235,1.044314e-05,262.28999999988235,6.424483e-06,262.28999999988235,9.629048e-06
262.30499999988234,2.362385e-05,262.30499999988234,9.207261e-06,262.30499999988234,6.498606e-06,262.30499999988234,9.368033e-06
262.3199999998823,2.363696e-05,262.3199999998823,9.328855e-06,262.3199999998823,6.728641e-06,262.3199999998823,9.502402e-06
262.3349999998823,2.34803e-05,262.3349999998823,9.393561e-06,262.3349999998823,6.616753e-06,262.3349999998823,9.414533e-06
262.3499999998823,2.369411e-05,262.3499999998823,9.351477e-06,262.3499999998823,6.768301e-06,262.3499999998823,9.520175e-06
262.3649999998823,2.175316e-05,262.3649999998823,9.150478e-06,262.3649999998823,6.912455e-06,262.3649999998823,9.573294e-06
262.3799999998823,2.190674e-05,262.3799999998823,8.522379e-06,262.3799999998823,6.621009e-06,262.3799999998823,9.593873e-06
262.39499999988226,2.186748e-05,262.39499999988226,8.425965e-06,262.39499999988226,6.356147e-06,262.39499999988226,9.316767e-06
262.40999999988225,2.238885e-05,262.40999999988225,8.870637e-06,262.40999999988225,6.316129e-06,262.40999999988225,9.502402e-06
262.42499999988223,2.27558e-05,262.42499999988223,9.028043e-06,262.42499999988223,6.799448e-06,262.42499999988223,9.771364e-06
262.4399999998822,2.198889e-05,262.4399999998822,9.214908e-06,262.4399999998822,7.113323e-06,262.4399999998822,9.505367e-06
262.4549999998822,2.316198e-05,262.4549999998822,8.782863e-06,262.4549999998822,7.331766e-06,262.4549999998822,9.334893e-06
262.4699999998822,2.293278e-05,262.4699999998822,8.548785e-06,262.4699999998822,7.523317e-06,262.4699999998822,8.525684e-06
262.4849999998822,2.356295e-05,262.4849999998822,8.883333e-06,262.4849999998822,7.69548e-06,262.4849999998822,8.497549e-06
262.49999999988216,2.357132e-05,262.49999999988216,9.254569e-06,262.49999999988216,7.935205e-06,262.49999999988216,8.500864e-06
262.51499999988215,2.44225e-05,262.51499999988215,9.111911e-06,262.51499999988215,7.93698e-06,262.51499999988215,8.442667e-06
262.52999999988214,2.389303e-05,262.52999999988214,9.330365e-06,262.52999999988214,7.733825e-06,262.52999999988214,8.197163e-06
262.5449999998821,2.511857e-05,262.5449999998821,9.484596e-06,262.5449999998821,7.59599e-06,262.5449999998821,8.207468e-06
262.5599999998821,2.524276e-05,262.5599999998821,9.587998e-06,262.5599999998821,7.547619e-06,262.5599999998821,8.282642e-06
262.5749999998821,2.673444e-05,262.5749999998821,9.173541e-06,262.5749999998821,7.455606e-06,262.5749999998821,8.806888e-06
262.5899999998821,2.672653e-05,262.5899999998821,9.284961e-06,262.5899999998821,7.47636e-06,262.5899999998821,9.133529e-06
262.60499999988207,2.628328e-05,262.60499999988207,9.387561e-06,262.60499999988207,7.556945e-06,262.60499999988207,9.216436e-06
262.61999999988205,2.598413e-05,262.61999999988205,1.065281e-05,262.61999999988205,7.453716e-06,262.61999999988205,9.113456e-06
262.63499999988204,2.705238e-05,262.63499999988204,1.087399e-05,262.63499999988204,7.553216e-06,262.63499999988204,9.21338e-06
262.649999999882,2.667589e-05,262.649999999882,1.066338e-05,262.649999999882,7.582997e-06,262.649999999882,8.842007e-06
262.664999999882,2.603341e-05,262.664999999882,1.045662e-05,262.664999999882,7.664298e-06,262.664999999882,8.827657e-06
262.679999999882,2.556438e-05,262.679999999882,1.013231e-05,262.679999999882,6.928738e-06,262.679999999882,8.461e-06
262.694999999882,2.864867e-05,262.694999999882,1.022504e-05,262.694999999882,6.871577e-06,262.694999999882,8.407555e-06
262.709999999882,3.266555e-05,262.709999999882,1.060111e-05,262.709999999882,6.789081e-06,262.709999999882,8.617714e-06
262.72499999988196,3.334797e-05,262.72499999988196,1.071478e-05,262.72499999988196,6.789081e-06,262.72499999988196,8.664989e-06
262.73999999988195,3.382027e-05,262.73999999988195,1.004995e-05,262.73999999988195,6.500773e-06,262.73999999988195,8.765202e-06
262.75499999988193,3.419308e-05,262.75499999988193,9.378553e-06,262.75499999988193,6.176305e-06,262.75499999988193,8.862694e-06
262.7699999998819,3.364153e-05,262.7699999998819,9.34545e-06,262.7699999998819,6.559019e-06,262.7699999998819,9.051417e-06
262.7849999998819,3.350222e-05,262.7849999998819,8.891258e-06,262.7849999998819,6.518086e-06,262.7849999998819,9.21338e-06
262.7999999998819,3.304329e-05,262.7999999998819,9.626121e-06,262.7999999998819,6.442001e-06,262.7999999998819,9.263696e-06
262.8149999998819,3.305522e-05,262.8149999998819,9.728018e-06,262.8149999998819,6.398117e-06,262.8149999998819,8.787673e-06
262.82999999988186,3.172306e-05,262.82999999988186,9.922999e-06,262.82999999988186,6.448557e-06,262.82999999988186,8.538892e-06
262.84499999988185,3.180599e-05,262.84499999988185,9.73815e-06,262.84499999988185,6.766219e-06,262.84499999988185,8.209184e-06
262.85999999988184,3.177763e-05,262.85999999988184,9.540868e-06,262.85999999988184,6.705572e-06,262.85999999988184,8.427637e-06
262.8749999998818,3.134155e-05,262.8749999998818,8.340267e-06,262.8749999998818,6.701369e-06,262.8749999998818,8.454338e-06
262.8899999998818,3.086464e-05,262.8899999998818,8.557019e-06,262.8899999998818,6.676097e-06,262.8899999998818,8.430979e-06
262.9049999998818,3.073796e-05,262.9049999998818,8.922889e-06,262.9049999998818,6.589018e-06,262.9049999998818,8.365563e-06
262.9199999998818,3.125108e-05,262.9199999998818,8.891258e-06,262.9199999998818,6.439814e-06,262.9199999998818,8.11252e-06
262.93499999988177,3.040435e-05,262.93499999988177,8.805288e-06,262.93499999988177,6.766219e-06,262.93499999988177,8.077717e-06
262.94999999988175,2.411544e-05,262.94999999988175,9.710626e-06,262.94999999988175,6.772462e-06,262.94999999988175,8.147174e-06
262.96499999988174,2.365841e-05,262.96499999988174,9.552672e-06,262.96499999988174,6.865424e-06,262.96499999988174,7.706456e-06
262.9799999998817,2.353424e-05,262.9799999998817,9.730914e-06,262.9799999998817,6.699267e-06,262.9799999998817,7.800928e-06
262.9949999998817,2.133865e-05,262.9949999998817,1.065149e-05,262.9949999998817,6.635885e-06,262.9949999998817,8.178238e-06
263.0099999998817,2.27366e-05,263.0099999998817,1.090245e-05,263.0099999998817,6.398117e-06,263.0099999998817,7.818965e-06
263.0249999998817,2.431672e-05,263.0249999998817,1.087269e-05,263.0249999998817,6.160319e-06,263.0249999998817,7.213613e-06
263.0399999998817,2.432424e-05,263.0399999998817,1.120323e-05,263.0399999998817,6.068162e-06,263.0399999998817,7.329844e-06
263.05499999988166,2.421222e-05,263.05499999988166,1.05785e-05,263.05499999988166,6.093644e-06,263.05499999988166,7.358615e-06
263.06999999988165,2.505175e-05,263.06999999988165,1.05785e-05,263.06999999988165,6.125922e-06,263.06999999988165,7.523317e-06
263.08499999988163,2.56513e-05,263.08499999988163,1.125717e-05,263.08499999988163,5.782887e-06,263.08499999988163,7.66246e-06
263.0999999998816,2.550646e-05,263.0999999998816,1.149737e-05,263.0999999998816,5.729046e-06,263.0999999998816,7.761099e-06
263.1149999998816,2.738156e-05,263.1149999998816,1.150472e-05,263.1149999998816,5.637336e-06,263.1149999998816,7.680822e-06
263.1299999998816,2.80263e-05,263.1299999998816,1.136427e-05,263.1299999998816,5.541568e-06,263.1299999998816,7.645896e-06
263.1449999998816,2.785893e-05,263.1449999998816,1.125466e-05,263.1449999998816,5.56946e-06,263.1449999998816,7.542018e-06
263.15999999988156,2.746785e-05,263.15999999988156,1.116292e-05,263.15999999988156,5.787757e-06,263.15999999988156,7.813558e-06
263.17499999988155,2.746016e-05,263.17499999988155,1.121956e-05,263.17499999988155,6.219488e-06,263.17499999988155,8.002378e-06
263.18999999988154,2.769868e-05,263.18999999988154,1.117805e-05,263.18999999988154,5.958057e-06,263.18999999988154,8.000618e-06
263.2049999998815,2.685535e-05,263.2049999998815,1.022779e-05,263.2049999998815,5.701935e-06,263.2049999998815,7.744747e-06
263.2199999998815,2.742063e-05,263.2199999998815,1.000641e-05,263.2199999998815,6.030905e-06,263.2199999998815,7.730182e-06
263.2349999998815,2.696215e-05,263.2349999998815,1.017532e-05,263.2349999998815,6.316129e-06,263.2349999998815,7.489538e-06
263.2499999998815,2.710388e-05,263.2499999998815,9.583589e-06,263.2499999998815,6.428867e-06,263.2499999998815,7.358615e-06
263.26499999988147,2.566118e-05,263.26499999988147,9.489051e-06,263.26499999988147,6.65708e-06,263.26499999988147,7.34712e-06
263.27999999988145,2.53369e-05,263.27999999988145,9.37104e-06,263.27999999988145,6.591156e-06,263.27999999988145,7.329844e-06
263.29499999988144,2.513427e-05,263.29499999988144,9.453355e-06,263.29499999988144,6.682424e-06,263.29499999988144,7.099447e-06
263.3099999998814,2.570725e-05,263.3099999998814,9.605612e-06,263.3099999998814,6.652846e-06,263.3099999998814,7.033664e-06
263.3249999998814,2.51869e-05,263.3249999998814,8.60299e-06,263.3249999998814,6.618881e-06,263.3249999998814,6.971302e-06
263.3399999998814,2.591681e-05,263.3399999998814,8.840414e-06,263.3399999998814,6.692956e-06,263.3399999998814,6.511599e-06
263.3549999998814,2.592931e-05,263.3549999998814,8.77805e-06,263.3549999998814,6.58688e-06,263.3549999998814,6.507271e-06
263.3699999998814,2.316441e-05,263.3699999998814,8.990517e-06,263.3699999998814,6.867475e-06,263.3699999998814,6.230803e-06
263.38499999988136,2.394486e-05,263.38499999988136,9.976799e-06,263.38499999988136,7.135074e-06,263.38499999988136,6.782854e-06
263.39999999988135,2.372381e-05,263.39999999988135,1.03809e-05,263.39999999988135,7.101431e-06,263.39999999988135,7.174451e-06
263.41499999988133,2.361789e-05,263.41499999988133,1.029643e-05,263.41499999988133,7.049668e-06,263.41499999988133,6.916529e-06
263.4299999998813,2.428889e-05,263.4299999998813,1.027314e-05,263.4299999998813,6.871577e-06,263.4299999998813,6.780777e-06
263.4449999998813,2.542348e-05,263.4449999998813,1.020297e-05,263.4449999998813,6.832516e-06,263.4449999998813,6.828391e-06
263.4599999998813,2.461267e-05,263.4599999998813,1.02553e-05,263.4599999998813,7.349037e-06,263.4599999998813,6.840758e-06
263.4749999998813,2.409558e-05,263.4749999998813,9.595341e-06,263.4749999998813,7.229218e-06,263.4749999998813,6.928738e-06
263.48999999988126,2.481673e-05,263.48999999988126,9.536437e-06,263.48999999988126,7.031661e-06,263.48999999988126,6.985433e-06
263.50499999988125,2.401652e-05,263.50499999988125,9.585059e-06,263.50499999988125,6.65708e-06,263.50499999988125,7.065636e-06
263.51999999988124,2.397778e-05,263.51999999988124,9.990908e-06,263.51999999988124,6.699267e-06,263.51999999988124,7.304818e-06
263.5349999998812,2.379674e-05,263.5349999998812,1.03714e-05,263.5349999998812,6.65708e-06,263.5349999998812,7.434793e-06
263.5499999998812,2.309864e-05,263.5499999998812,9.993728e-06,263.5499999998812,6.688745e-06,263.5499999998812,7.610811e-06
263.5649999998812,2.244415e-05,263.5649999998812,1.006816e-05,263.5649999998812,6.828391e-06,263.5649999998812,7.638524e-06
263.5799999998812,2.145649e-05,263.5799999998812,9.982445e-06,263.5799999998812,6.776621e-06,263.5799999998812,8.193725e-06
263.59499999988117,2.10716e-05,263.59499999988117,9.478654e-06,263.59499999988117,6.669763e-06,263.59499999988117,8.248557e-06
263.60999999988115,2.144336e-05,263.60999999988115,9.130444e-06,263.60999999988115,6.435437e-06,263.60999999988115,8.103833e-06
263.62499999988114,2.143284e-05,263.62499999988114,9.50833e-06,263.62499999988114,6.205884e-06,263.62499999988114,8.226325e-06
263.6399999998811,2.033056e-05,263.6399999998811,8.601352e-06,263.6399999998811,5.891484e-06,263.6399999998811,7.93343e-06
263.6549999998811,2.129107e-05,263.6549999998811,8.429308e-06,263.6549999998811,6.056544e-06,263.6549999998811,7.586711e-06
263.6699999998811,2.183073e-05,263.6699999998811,8.70068e-06,263.6699999998811,5.912964e-06,263.6699999998811,7.682656e-06
263.6849999998811,2.207776e-05,263.6849999998811,8.694202e-06,263.6849999998811,5.924864e-06,263.6849999998811,8.2229e-06
263.6999999998811,2.298554e-05,263.6999999998811,8.957552e-06,263.6999999998811,6.226279e-06,263.6999999998811,9.004607e-06
263.71499999988106,2.326332e-05,263.71499999988106,9.056085e-06,263.71499999988106,5.642331e-06,263.71499999988106,9.007736e-06
263.72999999988104,2.462869e-05,263.72999999988104,9.712076e-06,263.72999999988104,5.554263e-06,263.72999999988104,9.145859e-06
263.74499999988103,2.961386e-05,263.74499999988103,9.848904e-06,263.74499999988103,5.612292e-06,263.74499999988103,8.867461e-06
263.759999999881,3.218069e-05,263.759999999881,9.723673e-06,263.759999999881,5.792623e-06,263.759999999881,8.891258e-06
263.774999999881,3.2503e-05,263.774999999881,9.466757e-06,263.774999999881,5.908198e-06,263.774999999881,8.708772e-06
263.789999999881,3.282258e-05,263.789999999881,9.108818e-06,263.789999999881,5.8867e-06,263.789999999881,8.733001e-06
263.804999999881,3.294851e-05,263.804999999881,9.051417e-06,263.804999999881,5.664756e-06,263.804999999881,8.872225e-06
263.81999999988096,3.312929e-05,263.81999999988096,8.954407e-06,263.81999999988096,5.797484e-06,263.81999999988096,8.58824e-06
263.83499999988095,3.435665e-05,263.83499999988095,1.015315e-05,263.83499999988095,6.03324e-06,263.83499999988095,8.770023e-06
263.84999999988094,3.445819e-05,263.84999999988094,1.026079e-05,263.84999999988094,6.463831e-06,263.84999999988094,8.827657e-06
263.8649999998809,3.469489e-05,263.8649999998809,1.036732e-05,263.8649999998809,6.734918e-06,263.8649999998809,8.900759e-06
263.8799999998809,3.581212e-05,263.8799999998809,9.755493e-06,263.8799999998809,6.747456e-06,263.8799999998809,8.992083e-06
263.8949999998809,3.605439e-05,263.8949999998809,9.274335e-06,263.8949999998809,6.616753e-06,263.8949999998809,8.952834e-06
263.9099999998809,3.634508e-05,263.9099999998809,8.935509e-06,263.9099999998809,6.358363e-06,263.9099999998809,9.257612e-06
263.92499999988087,3.582156e-05,263.92499999988087,9.08404e-06,263.92499999988087,6.109804e-06,263.92499999988087,9.09334e-06
263.93999999988085,3.441196e-05,263.93999999988085,9.369536e-06,263.93999999988085,5.826569e-06,263.93999999988085,8.568535e-06
263.95499999988084,3.501779e-05,263.95499999988084,9.435456e-06,263.95499999988084,5.753582e-06,263.95499999988084,7.867457e-06
263.9699999998808,3.393462e-05,263.9699999998808,8.971695e-06,263.9699999998808,5.960421e-06,263.9699999998808,7.808148e-06
263.9849999998808,3.277103e-05,263.9849999998808,8.974835e-06,263.9849999998808,6.610363e-06,263.9849999998808,7.666136e-06
263.9999999998808,2.68102e-05,263.9999999998808,8.845193e-06,263.9999999998808,6.908378e-06,263.9999999998808,7.706456e-06
264.0149999998808,2.540907e-05,264.0149999998808,8.655229e-06,264.0149999998808,6.942956e-06,264.0149999998808,7.926324e-06
264.0299999998808,2.550811e-05,264.0299999998808,8.651973e-06,264.0299999998808,6.932803e-06,264.0299999998808,7.990047e-06
264.04499999988076,2.563591e-05,264.04499999988076,9.059196e-06,264.04499999988076,6.977362e-06,264.04499999988076,8.037508e-06
264.05999999988074,2.585205e-05,264.05999999988074,9.105725e-06,264.05999999988074,7.174451e-06,264.05999999988074,7.444261e-06
264.07499999988073,2.509669e-05,264.07499999988073,9.071627e-06,264.07499999988073,7.075597e-06,264.07499999988073,7.465047e-06
264.0899999998807,2.454849e-05,264.0899999998807,7.856707e-06,264.0899999998807,6.869526e-06,264.0899999998807,7.233115e-06
264.1049999998807,2.39954e-05,264.1049999998807,7.974164e-06,264.1049999998807,6.42229e-06,264.1049999998807,7.127172e-06
264.1199999998807,2.41767e-05,264.1199999998807,8.306418e-06,264.1199999998807,6.474718e-06,264.1199999998807,7.352869e-06
264.1349999998807,2.407101e-05,264.1349999998807,8.54384e-06,264.1349999998807,6.476893e-06,264.1349999998807,7.023643e-06
264.14999999988066,2.278735e-05,264.14999999988066,8.907087e-06,264.14999999988066,6.559019e-06,264.14999999988066,7.101431e-06
264.16499999988065,2.27657e-05,264.16499999988065,8.91973e-06,264.16499999988065,6.608231e-06,264.16499999988065,6.853102e-06
264.17999999988064,2.275023e-05,264.17999999988064,8.872225e-06,264.17999999988064,6.618881e-06,264.17999999988064,7.40822e-06
264.1949999998806,2.180555e-05,264.1949999998806,9.427989e-06,264.1949999998806,6.669763e-06,264.1949999998806,7.339447e-06
264.2099999998806,2.132016e-05,264.2099999998806,8.987383e-06,264.2099999998806,6.716067e-06,264.2099999998806,7.358615e-06
264.2249999998806,2.141904e-05,264.2249999998806,8.792481e-06,264.2249999998806,6.221753e-06,264.2249999998806,7.761099e-06
264.2399999998806,2.230627e-05,264.2399999998806,8.77805e-06,264.2399999998806,6.028569e-06,264.2399999998806,7.961788e-06
264.25499999988057,2.286388e-05,264.25499999988057,9.509811e-06,264.25499999988057,6.214957e-06,264.25499999988057,7.680822e-06
264.26999999988055,2.409324e-05,264.26999999988055,9.333384e-06,264.26999999988055,6.75163e-06,264.26999999988055,7.92099e-06
264.28499999988054,2.384168e-05,264.28499999988054,9.30012e-06,264.28499999988054,6.684531e-06,264.28499999988054,7.813558e-06
264.2999999998805,2.580842e-05,264.2999999998805,9.33791e-06,264.2999999998805,7.035667e-06,264.2999999998805,8.048017e-06
264.3149999998805,2.78564e-05,264.3149999998805,9.693203e-06,264.3149999998805,6.875675e-06,264.3149999998805,8.345331e-06
264.3299999998805,2.818668e-05,264.3299999998805,9.784329e-06,264.3299999998805,6.969281e-06,264.3299999998805,8.331817e-06
264.3449999998805,2.888812e-05,264.3449999998805,9.807338e-06,264.3449999998805,7.649581e-06,264.3449999998805,9.021799e-06
264.3599999998805,3.037005e-05,264.3599999998805,9.602679e-06,264.3599999998805,7.691819e-06,264.3599999998805,9.097987e-06
264.37499999988046,2.951952e-05,264.37499999988046,9.236285e-06,264.37499999988046,7.984756e-06,264.37499999988046,8.977973e-06
264.38999999988044,2.976048e-05,264.38999999988044,9.216436e-06,264.38999999988044,7.949394e-06,264.38999999988044,9.010862e-06
264.40499999988043,2.971074e-05,264.40499999988043,9.529049e-06,264.40499999988043,7.90675e-06,264.40499999988043,8.922889e-06
264.4199999998804,3.031294e-05,264.4199999998804,1.072792e-05,264.4199999998804,7.997096e-06,264.4199999998804,8.891258e-06
264.4349999998804,3.062547e-05,264.4349999998804,1.076855e-05,264.4349999998804,7.979462e-06,264.4349999998804,8.8754e-06
264.4499999998804,3.055824e-05,264.4499999998804,1.04889e-05,264.4499999998804,7.851327e-06,264.4499999998804,8.811686e-06
264.4649999998804,3.108702e-05,264.4649999998804,1.068845e-05,264.4649999998804,8.385746e-06,264.4649999998804,8.954407e-06
264.47999999988036,3.079702e-05,264.47999999988036,1.076855e-05,264.47999999988036,8.699061e-06,264.47999999988036,8.627516e-06
264.49499999988035,3.190151e-05,264.49499999988035,1.111233e-05,264.49499999988035,8.891258e-06,264.49499999988035,8.560311e-06
264.50999999988034,3.145326e-05,264.50999999988034,1.078293e-05,264.50999999988034,8.400851e-06,264.50999999988034,8.485937e-06
264.5249999998803,3.090569e-05,264.5249999998803,1.089599e-05,264.5249999998803,8.467658e-06,264.5249999998803,8.429308e-06
264.5399999998803,3.094623e-05,264.5399999998803,1.08714e-05,264.5399999998803,8.731387e-06,264.5399999998803,8.604628e-06
264.5549999998803,2.853931e-05,264.5549999998803,1.044449e-05,264.5549999998803,8.545489e-06,264.5549999998803,8.459336e-06
264.5699999998803,2.791349e-05,264.5699999998803,1.10309e-05,264.5699999998803,9.156633e-06,264.5699999998803,8.262207e-06
264.58499999988027,2.727331e-05,264.58499999988027,1.090633e-05,264.58499999988027,8.784466e-06,264.58499999988027,8.004139e-06
264.59999999988025,2.518466e-05,264.59999999988025,1.106023e-05,264.59999999988025,8.781259e-06,264.59999999988025,7.42721e-06
264.61499999988024,2.41767e-05,264.61499999988024,1.110853e-05,264.61499999988024,8.835633e-06,264.61499999988024,7.466933e-06
264.6299999998802,2.478889e-05,264.6299999998802,1.119946e-05,264.6299999998802,8.918151e-06,264.6299999998802,7.621908e-06
264.6449999998802,2.537357e-05,264.6449999998802,1.095658e-05,264.6449999998802,9.23781e-06,264.6449999998802,7.59228e-06
264.6599999998802,2.517067e-05,264.6599999998802,1.015315e-05,264.6599999998802,9.289512e-06,264.6599999998802,7.72289e-06
264.6749999998802,2.470978e-05,264.6749999998802,9.035841e-06,264.6749999998802,9.416029e-06,264.6749999998802,7.543885e-06
264.6899999998802,2.458232e-05,264.6899999998802,8.880161e-06,264.6899999998802,9.304663e-06,264.6899999998802,7.584854e-06
264.70499999988016,2.477866e-05,264.70499999988016,8.492574e-06,264.70499999988016,9.277373e-06,264.70499999988016,7.551351e-06
264.71999999988014,2.44075e-05,264.71999999988014,8.66011e-06,264.71999999988014,8.519072e-06,264.71999999988014,7.732004e-06
264.73499999988013,2.386058e-05,264.73499999988013,8.726546e-06,264.73499999988013,8.630781e-06,264.73499999988013,8.074229e-06
264.7499999998801,2.227974e-05,264.7499999998801,7.990047e-06,264.7499999998801,8.284342e-06,264.7499999998801,8.122932e-06
264.7649999998801,2.264659e-05,264.7649999998801,8.236593e-06,264.7649999998801,8.049767e-06,264.7649999998801,8.439329e-06
264.7799999998801,2.276137e-05,264.7799999998801,8.198881e-06,264.7799999998801,7.922768e-06,264.7799999998801,8.509145e-06
264.7949999998801,2.396309e-05,264.7949999998801,8.821272e-06,264.7949999998801,7.835162e-06,264.7949999998801,8.075974e-06
264.80999999988006,2.399364e-05,264.80999999988006,8.930779e-06,264.80999999988006,7.673483e-06,264.80999999988006,8.442667e-06
264.82499999988005,2.315772e-05,264.82499999988005,8.2229e-06,264.82499999988005,7.025649e-06,264.82499999988005,8.792481e-06
264.83999999988004,2.321544e-05,264.83999999988004,8.075974e-06,264.83999999988004,6.934835e-06,264.83999999988004,8.792481e-06
264.85499999988,2.318265e-05,264.85499999988,8.065501e-06,264.85499999988,6.780777e-06,264.85499999988,9.131986e-06
264.86999999988,2.246422e-05,264.86999999988,8.192006e-06,264.86999999988,6.633762e-06,264.86999999988,9.073179e-06
264.88499999988,2.222973e-05,264.88499999988,8.176516e-06,264.88499999988,6.404719e-06,264.88499999988,8.99365e-06
264.89999999988,2.073668e-05,264.89999999988,8.34702e-06,264.89999999988,5.943854e-06,264.89999999988,8.832443e-06
264.91499999987997,1.997759e-05,264.91499999987997,8.477633e-06,264.91499999987997,5.924864e-06,264.91499999987997,8.884918e-06
264.92999999987995,2.190674e-05,264.92999999987995,8.867461e-06,264.92999999987995,5.612292e-06,264.92999999987995,8.977973e-06
264.94499999987994,2.216691e-05,264.94499999987994,9.384559e-06,264.94499999987994,5.746233e-06,264.94499999987994,8.716856e-06
264.9599999998799,2.201706e-05,264.9599999998799,9.533483e-06,264.9599999998799,5.782887e-06,264.9599999998799,8.598076e-06
264.9749999998799,2.258991e-05,264.9749999998799,9.450374e-06,264.9749999998799,6.169459e-06,264.9749999998799,8.162721e-06
264.9899999998799,2.474282e-05,264.9899999998799,9.752604e-06,264.9899999998799,7.686323e-06,264.9899999998799,7.988284e-06
265.0049999998799,2.691247e-05,265.0049999998799,9.633435e-06,265.0049999998799,7.697311e-06,265.0049999998799,8.240013e-06
265.0199999998799,2.737384e-05,265.0199999998799,9.94427e-06,265.0199999998799,8.014691e-06,265.0199999998799,7.840554e-06
265.03499999987986,2.839184e-05,265.03499999987986,9.979622e-06,265.03499999987986,8.014691e-06,265.03499999987986,8.065501e-06
265.04999999987984,2.845725e-05,265.04999999987984,9.456335e-06,265.04999999987984,7.876405e-06,265.04999999987984,7.915653e-06
265.06499999987983,2.871498e-05,265.06499999987983,9.489051e-06,265.06499999987983,7.892485e-06,265.06499999987983,7.849532e-06
265.0799999998798,3.19831e-05,265.0799999998798,9.156633e-06,265.0799999998798,8.105571e-06,265.0799999998798,7.329844e-06
265.0949999998798,3.40018e-05,265.0949999998798,9.295575e-06,265.0949999998798,8.068993e-06,265.0949999998798,7.197973e-06
265.1099999998798,3.489811e-05,265.1099999998798,9.242383e-06,265.1099999998798,8.209184e-06,265.1099999998798,7.144938e-06
265.1249999998798,3.576449e-05,265.1249999998798,8.979542e-06,265.1249999998798,8.284342e-06,265.1249999998798,7.037669e-06
265.13999999987976,3.593346e-05,265.13999999987976,9.20267e-06,265.13999999987976,8.282642e-06,265.13999999987976,7.03967e-06
265.15499999987975,3.644068e-05,265.15499999987975,9.09334e-06,265.15499999987975,8.380704e-06,265.15499999987975,7.142966e-06
265.16999999987974,3.928892e-05,265.16999999987974,8.449338e-06,265.16999999987974,8.362194e-06,265.16999999987974,6.953093e-06
265.1849999998797,3.888672e-05,265.1849999998797,8.325052e-06,265.1849999998797,8.405879e-06,265.1849999998797,6.987449e-06
265.1999999998797,3.935877e-05,265.1999999998797,7.97063e-06,265.1999999998797,8.370614e-06,265.1999999998797,7.019631e-06
265.2149999998797,3.983583e-05,265.2149999998797,8.147174e-06,265.2149999998797,8.31828e-06,265.2149999998797,7.22727e-06
265.2299999998797,4.086224e-05,265.2299999998797,8.795684e-06,265.2299999998797,7.170523e-06,265.2299999998797,7.3106e-06
265.24499999987967,4.027857e-05,265.24499999987967,8.676361e-06,265.24499999987967,6.320588e-06,265.24499999987967,6.908378e-06
265.25999999987965,3.934517e-05,265.25999999987965,8.420948e-06,265.25999999987965,6.116717e-06,265.25999999987965,6.830453e-06
265.27499999987964,3.936378e-05,265.27499999987964,7.867457e-06,265.27499999987964,5.642331e-06,265.27499999987964,6.74119e-06
265.2899999998796,3.817676e-05,265.2899999998796,7.831566e-06,265.2899999998796,5.804769e-06,265.2899999998796,6.64861e-06
265.3049999998796,3.899127e-05,265.3049999998796,7.808148e-06,265.3049999998796,5.838645e-06,265.3049999998796,6.805661e-06
265.3199999998796,3.859146e-05,265.3199999998796,8.012934e-06,265.3199999998796,5.768253e-06,265.3199999998796,6.391509e-06
265.3349999998796,3.731731e-05,265.3349999998796,8.345331e-06,265.3349999998796,5.291911e-06,265.3349999998796,6.384893e-06
265.34999999987957,3.663038e-05,265.34999999987957,8.26732e-06,265.34999999987957,5.368553e-06,265.34999999987957,6.345057e-06
265.36499999987956,3.80148e-05,265.36499999987956,8.338578e-06,265.36499999987956,4.942298e-06,265.36499999987956,5.998116e-06
265.37999999987954,3.771719e-05,265.37999999987954,8.205751e-06,265.37999999987954,4.774123e-06,265.37999999987954,6.028569e-06
265.39499999987953,3.920924e-05,265.39499999987953,8.336888e-06,265.39499999987953,4.732634e-06,265.39499999987953,5.972226e-06
265.4099999998795,3.763792e-05,265.4099999998795,8.470984e-06,265.4099999998795,4.708762e-06,265.4099999998795,6.028569e-06
265.4249999998795,4.114977e-05,265.4249999998795,8.933933e-06,265.4249999998795,4.768218e-06,265.4249999998795,5.905813e-06
265.4399999998795,4.079013e-05,265.4399999998795,8.92131e-06,265.4399999998795,4.699779e-06,265.4399999998795,5.929618e-06
265.4549999998795,4.044192e-05,265.4549999998795,8.95598e-06,265.4549999998795,4.771172e-06,265.4549999998795,6.009847e-06
265.46999999987946,3.940706e-05,265.46999999987946,8.219473e-06,265.46999999987946,4.696781e-06,265.46999999987946,5.821732e-06
265.48499999987945,4.132365e-05,265.48499999987945,7.974164e-06,265.48499999987945,4.663672e-06,265.48499999987945,5.763367e-06
265.49999999987944,4.109771e-05,265.49999999987944,7.93698e-06,265.49999999987944,4.785911e-06,265.49999999987944,5.780451e-06
265.5149999998794,4.1527e-05,265.5149999998794,8.079462e-06,265.5149999998794,4.747494e-06,265.5149999998794,5.503306e-06
265.5299999998794,4.123254e-05,265.5299999998794,8.499207e-06,265.5299999998794,4.624239e-06,265.5299999998794,5.56693e-06
265.5449999998794,4.128409e-05,265.5449999998794,8.533942e-06,265.5449999998794,4.714741e-06,265.5449999998794,5.384273e-06
265.5599999998794,4.074175e-05,265.5599999998794,8.358825e-06,265.5599999998794,5.02147e-06,265.5599999998794,5.381656e-06
265.57499999987937,4.020611e-05,265.57499999987937,8.591521e-06,265.57499999987937,7.015617e-06,265.57499999987937,5.459618e-06
265.58999999987935,4.115765e-05,265.58999999987935,8.272431e-06,265.58999999987935,7.266147e-06,265.58999999987935,5.371176e-06
265.60499999987934,4.014896e-05,265.60499999987934,8.2229e-06,265.60499999987934,7.697311e-06,265.60499999987934,5.315815e-06
265.6199999998793,4.00977e-05,265.6199999998793,8.248557e-06,265.6199999998793,7.761099e-06,265.6199999998793,5.787757e-06
265.6349999998793,3.97186e-05,265.6349999998793,8.870637e-06,265.6349999998793,7.762914e-06,265.6349999998793,5.714275e-06
265.6499999998793,3.794544e-05,265.6499999998793,9.959841e-06,265.6499999998793,8.129866e-06,265.6499999998793,5.726587e-06
265.6649999998793,3.870772e-05,265.6649999998793,1.004995e-05,265.6649999998793,8.140256e-06,265.6649999998793,5.687093e-06
265.67999999987927,3.435091e-05,265.67999999987927,9.971149e-06,265.67999999987927,8.260502e-06,265.67999999987927,5.721665e-06
265.69499999987926,3.410769e-05,265.69499999987926,9.917319e-06,265.69499999987926,8.29284e-06,265.69499999987926,5.748683e-06
265.70999999987924,3.383484e-05,265.70999999987924,1.038768e-05,265.70999999987924,8.253678e-06,265.70999999987924,5.556798e-06
265.72499999987923,3.246701e-05,265.72499999987923,1.020711e-05,265.72499999987923,8.275836e-06,265.72499999987923,5.684616e-06
265.7399999998792,3.094623e-05,265.7399999998792,1.017809e-05,265.7399999998792,8.260502e-06,265.7399999998792,5.662269e-06
265.7549999998792,3.080479e-05,265.7549999998792,1.017117e-05,265.7549999998792,8.246849e-06,265.7549999998792,5.689569e-06
265.7699999998792,2.952143e-05,265.7699999998792,9.643665e-06,265.7699999998792,8.299631e-06,265.7699999998792,5.948592e-06
265.7849999998792,2.889397e-05,265.7849999998792,9.601211e-06,265.7849999998792,8.28094e-06,265.7849999998792,6.601833e-06
265.79999999987916,2.897479e-05,265.79999999987916,9.883171e-06,265.79999999987916,8.251971e-06,265.79999999987916,6.971302e-06
265.81499999987915,2.809257e-05,265.81499999987915,9.841749e-06,265.81499999987915,7.525189e-06,265.81499999987915,7.512074e-06
265.82999999987913,2.661615e-05,265.82999999987913,9.716427e-06,265.82999999987913,6.255622e-06,265.82999999987913,7.515824e-06
265.8449999998791,2.546998e-05,265.8449999998791,9.67866e-06,265.8449999998791,6.185421e-06,265.8449999998791,7.651422e-06
265.8599999998791,2.629828e-05,265.8599999998791,9.798716e-06,265.8599999998791,5.741327e-06,265.8599999998791,7.577422e-06
265.8749999998791,2.677866e-05,265.8749999998791,1.020297e-05,265.8749999998791,5.821732e-06,265.8749999998791,7.396802e-06
265.8899999998791,2.834765e-05,265.8899999998791,9.243908e-06,265.8899999998791,5.81689e-06,265.8899999998791,7.398706e-06
265.90499999987907,3.08441e-05,265.90499999987907,8.937085e-06,265.90499999987907,5.227635e-06,265.90499999987907,7.354785e-06
265.91999999987905,3.495821e-05,265.91999999987905,8.755555e-06,265.91999999987905,5.299891e-06,265.91999999987905,7.3567e-06
265.93499999987904,3.652563e-05,265.93499999987904,8.599714e-06,265.93499999987904,6.089019e-06,265.93499999987904,7.434793e-06
265.949999999879,3.873319e-05,265.949999999879,9.08249e-06,265.949999999879,6.496438e-06,265.949999999879,7.463159e-06
265.964999999879,3.974095e-05,265.964999999879,8.705536e-06,265.964999999879,1.041071e-05,265.964999999879,7.425313e-06
265.979999999879,3.925879e-05,265.979999999879,9.024921e-06,265.979999999879,1.256293e-05,265.979999999879,7.287441e-06
265.994999999879,4.177929e-05,265.994999999879,9.139696e-06,265.994999999879,1.473636e-05,265.994999999879,7.366268e-06
266.00999999987897,4.401396e-05,266.00999999987897,9.438442e-06,266.00999999987897,1.622938e-05,266.00999999987897,7.523317e-06
266.02499999987896,4.459075e-05,266.02499999987896,9.774246e-06,266.02499999987896,1.720844e-05,266.02499999987896,7.105398e-06
266.03999999987894,4.484308e-05,266.03999999987894,1.23092e-05,266.03999999987894,1.8629e-05,266.03999999987894,7.053663e-06
266.05499999987893,4.547321e-05,266.05499999987893,1.253037e-05,266.05499999987893,2.002899e-05,266.05499999987893,6.266871e-06
266.0699999998789,4.639111e-05,266.0699999998789,1.252812e-05,266.0699999998789,2.055588e-05,266.0699999998789,5.960421e-06
266.0849999998789,4.666571e-05,266.0849999998789,1.413127e-05,266.0849999998789,2.07652e-05,266.0849999998789,5.901041e-06
266.0999999998789,4.601458e-05,266.0999999998789,1.565324e-05,266.0999999998789,2.083495e-05,266.0999999998789,5.855509e-06
266.1149999998789,4.615152e-05,266.1149999998789,1.59041e-05,266.1149999998789,2.098384e-05,266.1149999998789,6.102884e-06
266.12999999987886,4.668714e-05,266.12999999987886,1.556751e-05,266.12999999987886,2.176805e-05,266.12999999987886,6.194524e-06
266.14499999987885,4.836709e-05,266.14499999987885,1.575639e-05,266.14499999987885,2.367567e-05,266.14499999987885,6.287069e-06
266.15999999987883,4.623112e-05,266.15999999987883,1.598274e-05,266.15999999987883,2.390305e-05,266.15999999987883,6.248863e-06
266.1749999998788,4.32768e-05,266.1749999998788,1.601092e-05,266.1749999998788,2.427671e-05,266.1749999998788,6.580461e-06
266.1899999998788,4.151546e-05,266.1899999998788,1.577068e-05,266.1899999998788,2.486663e-05,266.1899999998788,6.832516e-06
266.2049999998788,4.032436e-05,266.2049999998788,1.549495e-05,266.2049999998788,2.562602e-05,266.2049999998788,6.795303e-06
266.2199999998788,3.893958e-05,266.2199999998788,1.532216e-05,266.2199999998788,2.463098e-05,266.2199999998788,6.926705e-06
266.23499999987877,3.934051e-05,266.23499999987877,1.534329e-05,266.23499999987877,2.342384e-05,266.23499999987877,6.942956e-06
266.24999999987875,3.740779e-05,266.24999999987875,1.520218e-05,266.24999999987875,2.264286e-05,266.24999999987875,7.001547e-06
266.26499999987874,3.471396e-05,266.26499999987874,1.52355e-05,266.26499999987874,2.172465e-05,266.26499999987874,6.743279e-06
266.2799999998787,3.417124e-05,266.2799999998787,1.435283e-05,266.2799999998787,2.113035e-05,266.2799999998787,6.676097e-06
266.2949999998787,3.3849e-05,266.2949999998787,1.328556e-05,266.2949999998787,2.083157e-05,266.2949999998787,6.629514e-06
266.3099999998787,3.266555e-05,266.3099999998787,1.358024e-05,266.3099999998787,2.155474e-05,266.3099999998787,6.711871e-06
266.3249999998787,3.159224e-05,266.3249999998787,1.440671e-05,266.3249999998787,2.155148e-05,266.3249999998787,6.644371e-06
266.33999999987867,3.077094e-05,266.33999999987867,1.233892e-05,266.33999999987867,2.158283e-05,266.33999999987867,6.885912e-06
266.35499999987866,3.071228e-05,266.35499999987866,1.084675e-05,266.35499999987866,2.193437e-05,266.35499999987866,6.904299e-06
266.36999999987864,2.773985e-05,266.36999999987864,1.084285e-05,266.36999999987864,2.242657e-05,266.36999999987864,7.04567e-06
266.38499999987863,2.631328e-05,266.38499999987863,1.080902e-05,266.38499999987863,2.087345e-05,266.38499999987863,6.977362e-06
266.3999999998786,2.160044e-05,266.3999999998786,1.060643e-05,266.3999999998786,1.979554e-05,266.3999999998786,7.093493e-06
266.4149999998786,2.045007e-05,266.4149999998786,1.040936e-05,266.4149999998786,1.953047e-05,266.4149999998786,7.013608e-06
266.4299999998786,2.00107e-05,266.4299999998786,1.037411e-05,266.4299999998786,1.906697e-05,266.4299999998786,6.629514e-06
266.4449999998786,2.005851e-05,266.4449999998786,1.044583e-05,266.4449999998786,1.810984e-05,266.4449999998786,6.601833e-06
266.45999999987856,2.016707e-05,266.45999999987856,1.060643e-05,266.45999999987856,1.65406e-05,266.45999999987856,6.589018e-06
266.47499999987855,1.936241e-05,266.47499999987855,1.099509e-05,266.47499999987855,1.699593e-05,266.47499999987855,6.53104e-06
266.48999999987853,1.863278e-05,266.48999999987853,1.085194e-05,266.48999999987853,1.720107e-05,266.48999999987853,6.688745e-06
266.5049999998785,1.914512e-05,266.5049999998785,1.090245e-05,266.5049999998785,1.730964e-05,266.5049999998785,6.633762e-06
266.5199999998785,1.977845e-05,266.5199999998785,1.068713e-05,266.5199999998785,1.729662e-05,266.5199999998785,6.682424e-06
266.5349999998785,2.027922e-05,266.5349999998785,1.036461e-05,266.5349999998785,1.728684e-05,266.5349999998785,7.027653e-06
266.5499999998785,2.110767e-05,266.5499999998785,1.032239e-05,266.5499999998785,1.553399e-05,266.5499999998785,7.174451e-06
266.56499999987847,2.119624e-05,266.56499999987847,7.968863e-06,266.56499999987847,1.431745e-05,266.56499999987847,7.05566e-06
266.57999999987845,2.092737e-05,266.57999999987845,7.582997e-06,266.57999999987845,1.410633e-05,266.57999999987845,7.077588e-06
266.59499999987844,2.097243e-05,266.59499999987844,7.370092e-06,266.59499999987844,1.471149e-05,266.59499999987844,6.885912e-06
266.6099999998784,2.150567e-05,266.6099999998784,7.373913e-06,266.6099999998784,1.443796e-05,266.6099999998784,6.541815e-06
266.6249999998784,2.287127e-05,266.6249999998784,7.708283e-06,266.6249999998784,1.414124e-05,266.6249999998784,6.995509e-06
266.6399999998784,2.357669e-05,266.6399999998784,7.72289e-06,266.6399999998784,1.421476e-05,266.6399999998784,7.027653e-06
266.6549999998784,2.406281e-05,266.6549999998784,7.429107e-06,266.6549999998784,1.416115e-05,266.6549999998784,6.902258e-06
266.66999999987837,2.638065e-05,266.66999999987837,7.726537e-06,266.66999999987837,1.428199e-05,266.66999999987837,7.041671e-06
266.68499999987836,2.691037e-05,266.68499999987836,7.791894e-06,266.68499999987836,1.437146e-05,266.68499999987836,6.932803e-06
266.69999999987834,2.699661e-05,266.69999999987834,7.678988e-06,266.69999999987834,1.451192e-05,266.69999999987834,6.922637e-06
266.71499999987833,2.733779e-05,266.71499999987833,7.144938e-06,266.71499999987833,1.465392e-05,266.71499999987833,7.041671e-06
266.7299999998783,2.7688e-05,266.7299999998783,6.589018e-06,266.7299999998783,1.422863e-05,266.7299999998783,6.983416e-06
266.7449999998783,2.754876e-05,266.7449999998783,6.703471e-06,266.7449999998783,1.440964e-05,266.7449999998783,6.971302e-06
266.7599999998783,2.893879e-05,266.7599999998783,7.412022e-06,266.7599999998783,1.437146e-05,266.7599999998783,6.908378e-06
266.7749999998783,3.170308e-05,266.7749999998783,8.150632e-06,266.7749999998783,1.43744e-05,266.7749999998783,6.805661e-06
266.78999999987826,3.141562e-05,266.78999999987826,8.306418e-06,266.78999999987826,1.430367e-05,266.78999999987826,6.778699e-06
266.80499999987825,3.450149e-05,266.80499999987825,8.319974e-06,266.80499999987825,1.32569e-05,266.80499999987825,6.659195e-06
266.81999999987823,3.501216e-05,266.81999999987823,8.664989e-06,266.81999999987823,1.312663e-05,266.81999999987823,6.680315e-06
266.8349999998782,3.531621e-05,266.8349999998782,9.1289e-06,266.8349999998782,1.38849e-05,266.8349999998782,6.64861e-06
266.8499999998782,3.592444e-05,266.8499999998782,1.038768e-05,266.8499999998782,1.259764e-05,266.8499999998782,6.640129e-06
266.8649999998782,3.581566e-05,266.8649999998782,1.067394e-05,266.8649999998782,1.301021e-05,266.8649999998782,6.358363e-06
266.8799999998782,3.568129e-05,266.8799999998782,1.034284e-05,266.8799999998782,1.332579e-05,266.8799999998782,5.905813e-06
266.89499999987817,3.502061e-05,266.89499999987817,1.017809e-05,266.89499999987817,1.304697e-05,266.89499999987817,6.114414e-06
266.90999999987815,3.489246e-05,266.90999999987815,1.038362e-05,266.90999999987815,1.290148e-05,266.90999999987815,5.855509e-06
266.92499999987814,3.416917e-05,266.92499999987814,1.045123e-05,266.92499999987814,1.272559e-05,266.92499999987814,5.853103e-06
266.9399999998781,3.384816e-05,266.9399999998781,1.073711e-05,266.9399999998781,1.257414e-05,266.9399999998781,5.908198e-06
266.9549999998781,3.449047e-05,266.9549999998781,1.091278e-05,266.9549999998781,1.202438e-05,266.9549999998781,5.814468e-06
266.9699999998781,3.419679e-05,266.9699999998781,1.091407e-05,266.9699999998781,1.266567e-05,266.9699999998781,5.908198e-06
266.9849999998781,3.367585e-05,266.9849999998781,1.120071e-05,266.9849999998781,1.188652e-05,266.9849999998781,5.826569e-06
266.99999999987807,3.301898e-05,266.99999999987807,1.132205e-05,266.99999999987807,1.172304e-05,266.99999999987807,5.821732e-06
267.01499999987806,2.843249e-05,267.01499999987806,1.118183e-05,267.01499999987806,1.167729e-05,267.01499999987806,5.931993e-06
267.02999999987804,2.794375e-05,267.02999999987804,1.060111e-05,267.02999999987804,1.196802e-05,267.02999999987804,6.135114e-06
267.04499999987803,2.520758e-05,267.04499999987803,1.04983e-05,267.04499999987803,1.266011e-05,267.04499999987803,5.927241e-06
267.059999999878,2.216754e-05,267.059999999878,1.053714e-05,267.059999999878,1.293311e-05,267.059999999878,6.724452e-06
267.074999999878,2.172594e-05,267.074999999878,1.021263e-05,267.074999999878,1.301238e-05,267.074999999878,6.678206e-06
267.089999999878,2.098183e-05,267.089999999878,8.648716e-06,267.089999999878,1.184259e-05,267.089999999878,6.890002e-06
267.104999999878,1.841376e-05,267.104999999878,9.094889e-06,267.104999999878,1.180327e-05,267.104999999878,7.1921e-06
267.11999999987796,1.814092e-05,267.11999999987796,9.330365e-06,267.11999999987796,1.108568e-05,267.11999999987796,7.264208e-06
267.13499999987795,1.798965e-05,267.13499999987795,9.503884e-06,267.13499999987795,1.013231e-05,267.13499999987795,7.156758e-06
267.14999999987793,1.997406e-05,267.14999999987793,9.399558e-06,267.14999999987793,1.022228e-05,267.14999999987793,7.184261e-06
267.1649999998779,1.860176e-05,267.1649999998779,8.744285e-06,267.1649999998779,1.036732e-05,267.1649999998779,7.156758e-06
267.1799999998779,2.14473e-05,267.1799999998779,8.91025e-06,267.1799999998779,1.042559e-05,267.1799999998779,7.350954e-06
267.1949999998779,2.084239e-05,267.1949999998779,8.747506e-06,267.1949999998779,1.047546e-05,267.1949999998779,7.237009e-06
267.2099999998779,2.138086e-05,267.2099999998779,9.481625e-06,267.2099999998779,9.457824e-06,267.2099999998779,7.275834e-06
267.22499999987787,2.197031e-05,267.22499999987787,9.669923e-06,267.22499999987787,8.742674e-06,267.22499999987787,7.329844e-06
267.23999999987785,2.272669e-05,267.23999999987785,8.899176e-06,267.23999999987785,8.723317e-06,267.23999999987785,7.40061e-06
267.25499999987784,2.326877e-05,267.25499999987784,8.943388e-06,267.25499999987784,8.987383e-06,267.25499999987784,7.555081e-06
267.2699999998778,2.630311e-05,267.2699999998778,8.944963e-06,267.2699999998778,9.042074e-06,267.2699999998778,7.564397e-06
267.2849999998778,2.85324e-05,267.2849999998778,8.981111e-06,267.2849999998778,7.761099e-06,267.2849999998778,7.614512e-06
267.2999999998778,2.884273e-05,267.2999999998778,9.013988e-06,267.2999999998778,7.137048e-06,267.2999999998778,7.449935e-06
267.3149999998778,2.887105e-05,267.3149999998778,9.130444e-06,267.3149999998778,6.644371e-06,267.3149999998778,6.816002e-06
267.32999999987777,2.987009e-05,267.32999999987777,9.167396e-06,267.32999999987777,6.669763e-06,267.32999999987777,6.743279e-06
267.34499999987776,3.184052e-05,267.34499999987776,9.251524e-06,267.34499999987776,6.776621e-06,267.34499999987776,6.511599e-06
267.35999999987774,3.252076e-05,267.35999999987774,9.076284e-06,267.35999999987774,6.753716e-06,267.35999999987774,6.367219e-06
267.37499999987773,3.495619e-05,267.37499999987773,8.968555e-06,267.37499999987773,7.049668e-06,267.37499999987773,6.389304e-06
267.3899999998777,3.596285e-05,267.3899999998777,8.899176e-06,267.3899999998777,6.985433e-06,267.3899999998777,6.57832e-06
267.4049999998777,3.570615e-05,267.4049999998777,8.98895e-06,267.4049999998777,6.520246e-06,267.4049999998777,6.963215e-06
267.4199999998777,3.613323e-05,267.4199999998777,9.051417e-06,267.4199999998777,6.745368e-06,267.4199999998777,7.197973e-06
267.4349999998777,3.481689e-05,267.4349999998777,8.99365e-06,267.4349999998777,6.524566e-06,267.4349999998777,7.087532e-06
267.44999999987766,3.446105e-05,267.44999999987766,8.614445e-06,267.44999999987766,6.459471e-06,267.44999999987766,7.312527e-06
267.46499999987765,3.551906e-05,267.46499999987765,8.548785e-06,267.46499999987765,6.479067e-06,267.46499999987765,7.771981e-06
267.47999999987763,3.613362e-05,267.47999999987763,8.517419e-06,267.47999999987763,6.743279e-06,267.47999999987763,7.697311e-06
267.4949999998776,3.556068e-05,267.4949999998776,8.39414e-06,267.4949999998776,6.973323e-06,267.4949999998776,8.082948e-06
267.5099999998776,3.482457e-05,267.5099999998776,8.42262e-06,267.5099999998776,6.466009e-06,267.5099999998776,7.881768e-06
267.5249999998776,3.141159e-05,267.5249999998776,8.630781e-06,267.5249999998776,6.58688e-06,267.5249999998776,7.551351e-06
267.5399999998776,3.083039e-05,267.5399999998776,1.006816e-05,267.5399999998776,6.625263e-06,267.5399999998776,7.59228e-06
267.55499999987757,3.073796e-05,267.55499999987757,1.011701e-05,267.55499999987757,6.813935e-06,267.55499999987757,7.770169e-06
267.56999999987755,3.038164e-05,267.56999999987755,1.008354e-05,267.56999999987755,7.001547e-06,267.56999999987755,7.865667e-06
267.58499999987754,2.819967e-05,267.58499999987754,1.008074e-05,267.58499999987754,7.021637e-06,267.58499999987754,8.044515e-06
267.5999999998775,2.772055e-05,267.5999999998775,1.044583e-05,267.5999999998775,6.80773e-06,267.5999999998775,8.323359e-06
267.6149999998775,2.695483e-05,267.6149999998775,1.049158e-05,267.6149999998775,6.799448e-06,267.6149999998775,8.517419e-06
267.6299999998775,2.176028e-05,267.6299999998775,1.056651e-05,267.6299999998775,6.618881e-06,267.6299999998775,8.703918e-06
267.6449999998775,2.149781e-05,267.6449999998775,1.051305e-05,267.6449999998775,6.65708e-06,267.6449999998775,8.686096e-06
267.65999999987747,1.960749e-05,267.65999999987747,1.046739e-05,267.65999999987747,6.673986e-06,267.65999999987747,8.357139e-06
267.67499999987746,1.886643e-05,267.67499999987746,1.074497e-05,267.67499999987746,6.442001e-06,267.67499999987746,8.193725e-06
267.68999999987744,1.817971e-05,267.68999999987744,1.084025e-05,267.68999999987744,6.50294e-06,267.68999999987744,8.279239e-06
267.70499999987743,1.749823e-05,267.70499999987743,1.05358e-05,267.70499999987743,6.749543e-06,267.70499999987743,7.897837e-06
267.7199999998774,1.541565e-05,267.7199999998774,1.029506e-05,267.7199999998774,6.840758e-06,267.7199999998774,7.667973e-06
267.7349999998774,1.477169e-05,267.7349999998774,1.035237e-05,267.7349999998774,7.111343e-06,267.7349999998774,7.547619e-06
267.7499999998774,1.82817e-05,267.7499999998774,1.014621e-05,267.7499999998774,6.951067e-06,267.7499999998774,7.140994e-06
267.7649999998774,1.958377e-05,267.7649999998774,1.030463e-05,267.7649999998774,6.881819e-06,267.7649999998774,7.194059e-06
267.77999999987736,1.998886e-05,267.77999999987736,9.707725e-06,267.77999999987736,7.011599e-06,267.77999999987736,7.410121e-06
267.79499999987735,2.007115e-05,267.79499999987735,8.573465e-06,267.79499999987735,7.025649e-06,267.79499999987735,7.275834e-06
267.80999999987733,2.03624e-05,267.80999999987733,8.984247e-06,267.80999999987733,7.069622e-06,267.80999999987733,7.358615e-06
267.8249999998773,2.067137e-05,267.8249999998773,8.998348e-06,267.8249999998773,6.997522e-06,267.8249999998773,7.318304e-06
267.8399999998773,2.311937e-05,267.8399999998773,8.352081e-06,267.8399999998773,6.910417e-06,267.8399999998773,8.611173e-06
267.8549999998773,2.669964e-05,267.8549999998773,8.141986e-06,267.8549999998773,7.142966e-06,267.8549999998773,8.419275e-06
267.8699999998773,2.720453e-05,267.8699999998773,7.457495e-06,267.8699999998773,6.963215e-06,267.8699999998773,8.306418e-06
267.88499999987727,2.848991e-05,267.88499999987727,7.47636e-06,267.88499999987727,7.031661e-06,267.88499999987727,8.141986e-06
267.89999999987725,2.877476e-05,267.89999999987725,7.463159e-06,267.89999999987725,7.140994e-06,267.89999999987725,8.248557e-06
267.91499999987724,3.218725e-05,267.91499999987724,7.558809e-06,267.91499999987724,7.113323e-06,267.91499999987724,8.157542e-06
267.9299999998772,3.284746e-05,267.9299999998772,7.139021e-06,267.9299999998772,7.335607e-06,267.9299999998772,8.345331e-06
267.9449999998772,3.45427e-05,267.9449999998772,7.063642e-06,267.9449999998772,7.364355e-06,267.9449999998772,8.568535e-06
267.9599999998772,3.613089e-05,267.9599999998772,7.451826e-06,267.9599999998772,7.00758e-06,267.9599999998772,8.724932e-06
267.9749999998772,3.59699e-05,267.9749999998772,8.048017e-06,267.9749999998772,6.638008e-06,267.9749999998772,8.889673e-06
267.98999999987717,3.66546e-05,267.98999999987717,8.291141e-06,267.98999999987717,6.703471e-06,267.98999999987717,8.872225e-06
268.00499999987716,3.669877e-05,268.00499999987716,8.43766e-06,268.00499999987716,7.067629e-06,268.00499999987716,9.021799e-06
268.01999999987714,3.631251e-05,268.01999999987714,8.212614e-06,268.01999999987714,7.14888e-06,268.01999999987714,9.012426e-06
268.03499999987713,3.738406e-05,268.03499999987713,8.217759e-06,268.03499999987713,7.10738e-06,268.03499999987713,8.854743e-06
268.0499999998771,3.731014e-05,268.0499999998771,8.270727e-06,268.0499999998771,7.00758e-06,268.0499999998771,8.872225e-06
268.0649999998771,3.730862e-05,268.0649999998771,7.872827e-06,268.0649999998771,6.855157e-06,268.0649999998771,8.532291e-06
268.0799999998771,3.706011e-05,268.0799999998771,8.171345e-06,268.0799999998771,6.799448e-06,268.0799999998771,8.377342e-06
268.0949999998771,3.518514e-05,268.0949999998771,8.121197e-06,268.0949999998771,7.035667e-06,268.0949999998771,7.135074e-06
268.10999999987706,3.324814e-05,268.10999999987706,8.336888e-06,268.10999999987706,6.910417e-06,268.10999999987706,7.205797e-06
268.12499999987705,3.362938e-05,268.12499999987705,8.212614e-06,268.12499999987705,6.898175e-06,268.12499999987705,7.2971e-06
268.13999999987703,3.240403e-05,268.13999999987703,8.611173e-06,268.13999999987703,6.851046e-06,268.13999999987703,7.1921e-06
268.154999999877,3.255929e-05,268.154999999877,9.263696e-06,268.154999999877,7.264208e-06,268.154999999877,7.057657e-06
268.169999999877,2.91575e-05,268.169999999877,9.655344e-06,268.169999999877,7.519571e-06,268.169999999877,7.188182e-06
268.184999999877,2.771495e-05,268.184999999877,9.637821e-06,268.184999999877,7.59599e-06,268.184999999877,6.965238e-06
268.199999999877,2.625594e-05,268.199999999877,9.586528e-06,268.199999999877,7.607108e-06,268.199999999877,6.365006e-06
268.21499999987697,2.261858e-05,268.21499999987697,8.741063e-06,268.21499999987697,7.463159e-06,268.21499999987697,6.539662e-06
268.22999999987695,2.212556e-05,268.22999999987695,9.172005e-06,268.22999999987695,7.461272e-06,268.22999999987695,6.347276e-06
268.24499999987694,1.747165e-05,268.24499999987694,9.079387e-06,268.24499999987694,7.542018e-06,268.24499999987694,6.300498e-06
268.2599999998769,1.776587e-05,268.2599999998769,9.118093e-06,268.2599999998769,7.312527e-06,268.2599999998769,6.105191e-06
268.2749999998769,1.738759e-05,268.2749999998769,9.442919e-06,268.2749999998769,7.172487e-06,268.2749999998769,6.313899e-06
268.2899999998769,1.501102e-05,268.2899999998769,9.558568e-06,268.2899999998769,6.934835e-06,268.2899999998769,6.420096e-06
268.3049999998769,1.483544e-05,268.3049999998769,9.438442e-06,268.3049999998769,6.871577e-06,268.3049999998769,6.759971e-06
268.31999999987687,1.467505e-05,268.31999999987687,9.281926e-06,268.31999999987687,6.908378e-06,268.31999999987687,6.768301e-06
268.33499999987686,1.449638e-05,268.33499999987686,9.091791e-06,268.33499999987686,6.869526e-06,268.33499999987686,6.522406e-06
268.34999999987684,1.457682e-05,268.34999999987684,9.219493e-06,268.34999999987684,6.58688e-06,268.34999999987684,6.520246e-06
268.36499999987683,1.187467e-05,268.36499999987683,9.006171e-06,268.36499999987683,6.784931e-06,268.36499999987683,6.690851e-06
268.3799999998768,1.157308e-05,268.3799999998768,9.263696e-06,268.3799999998768,6.822199e-06,268.3799999998768,6.561167e-06
268.3949999998768,1.137914e-05,268.3949999998768,9.045189e-06,268.3949999998768,7.385367e-06,268.3949999998768,6.959168e-06
268.4099999998768,1.042964e-05,268.4099999998768,8.432649e-06,268.4099999998768,6.928738e-06,268.4099999998768,7.131124e-06
268.4249999998768,1.068977e-05,268.4249999998768,8.176516e-06,268.4249999998768,6.947012e-06,268.4249999998768,7.065636e-06
268.43999999987676,1.376978e-05,268.43999999987676,8.25709e-06,268.43999999987676,6.900217e-06,268.43999999987676,7.262268e-06
268.45499999987675,1.383815e-05,268.45499999987675,8.25709e-06,268.45499999987675,6.865424e-06,268.45499999987675,7.242846e-06
268.46999999987673,1.439301e-05,268.46999999987673,7.904969e-06,268.46999999987673,7.19993e-06,268.46999999987673,7.047669e-06
268.4849999998767,1.589702e-05,268.4849999998767,7.562535e-06,268.4849999998767,7.05566e-06,268.4849999998767,7.254505e-06
268.4999999998767,1.639862e-05,268.4999999998767,7.590424e-06,268.4999999998767,7.011599e-06,268.4999999998767,7.197973e-06
268.5149999998767,1.82686e-05,268.5149999998767,7.29903e-06,268.5149999998767,7.125195e-06,268.5149999998767,7.16266e-06
268.5299999998767,1.908174e-05,268.5299999998767,7.40822e-06,268.5299999998767,7.15282e-06,268.5299999998767,7.135074e-06
268.54499999987667,2.056136e-05,268.54499999987667,7.293238e-06,268.54499999987667,7.164627e-06,268.54499999987667,7.40061e-06
268.55999999987665,2.112901e-05,268.55999999987665,7.375824e-06,268.55999999987665,7.139021e-06,268.55999999987665,7.489538e-06
268.57499999987664,2.182879e-05,268.57499999987664,7.773794e-06,268.57499999987664,7.270023e-06,268.57499999987664,7.569982e-06
268.5899999998766,2.251809e-05,268.5899999998766,7.93698e-06,268.5899999998766,7.470705e-06,268.5899999998766,7.711938e-06
268.6049999998766,2.333467e-05,268.6049999998766,8.236593e-06,268.6049999998766,7.431003e-06,268.6049999998766,7.786468e-06
268.6199999998766,2.698878e-05,268.6199999998766,7.945849e-06,268.6199999998766,7.483893e-06,268.6199999998766,7.528932e-06
268.6349999998766,3.020214e-05,268.6349999998766,7.947621e-06,268.6349999998766,7.36818e-06,268.6349999998766,7.573703e-06
268.64999999987657,3.168663e-05,268.64999999987657,8.117728e-06,268.64999999987657,7.260328e-06,268.64999999987657,7.417721e-06
268.66499999987656,3.552659e-05,268.66499999987656,8.178238e-06,268.66499999987656,6.961192e-06,268.66499999987656,7.242846e-06
268.67999999987654,3.561372e-05,268.67999999987654,8.528988e-06,268.67999999987654,7.156758e-06,268.67999999987654,7.266147e-06
268.69499999987653,3.56655e-05,268.69499999987653,8.336888e-06,268.69499999987653,7.27196e-06,268.69499999987653,6.959168e-06
268.7099999998765,3.57952e-05,268.7099999998765,8.462665e-06,268.7099999998765,7.581139e-06,268.7099999998765,7.05566e-06
268.7249999998765,3.623795e-05,268.7249999998765,8.684475e-06,268.7249999998765,7.324076e-06,268.7249999998765,7.021637e-06
268.7399999998765,3.57704e-05,268.7399999998765,8.545489e-06,268.7399999998765,7.268085e-06,268.7399999998765,7.111343e-06
268.7549999998765,3.512784e-05,268.7549999998765,8.699061e-06,268.7549999998765,7.067629e-06,268.7549999998765,7.19993e-06
268.76999999987646,3.400677e-05,268.76999999987646,9.0374e-06,268.76999999987646,7.097463e-06,268.76999999987646,7.291306e-06
268.78499999987645,3.353878e-05,268.78499999987645,9.113456e-06,268.78499999987645,6.942956e-06,268.78499999987645,6.999535e-06
268.79999999987643,3.326338e-05,268.79999999987643,9.706273e-06,268.79999999987643,7.16266e-06,268.79999999987643,6.688745e-06
268.8149999998764,3.329682e-05,268.8149999998764,9.811646e-06,268.8149999998764,7.442368e-06,268.8149999998764,6.768301e-06
268.8299999998764,3.31093e-05,268.8299999998764,9.709175e-06,268.8299999998764,7.322153e-06,268.8299999998764,6.924671e-06
268.8449999998764,3.326804e-05,268.8449999998764,9.447393e-06,268.8449999998764,7.487657e-06,268.8449999998764,6.942956e-06
268.8599999998764,3.219557e-05,268.8599999998764,9.097987e-06,268.8599999998764,7.833364e-06,268.8599999998764,7.115304e-06
268.87499999987637,2.742165e-05,268.87499999987637,9.017113e-06,268.87499999987637,8.02523e-06,268.87499999987637,7.188182e-06
268.88999999987635,2.760495e-05,268.88999999987635,8.771629e-06,268.88999999987635,7.885342e-06,268.88999999987635,6.959168e-06
268.90499999987634,2.43526e-05,268.90499999987634,8.724932e-06,268.90499999987634,7.781039e-06,268.90499999987634,6.791156e-06
268.9199999998763,2.58575e-05,268.9199999998763,8.629149e-06,268.9199999998763,7.616361e-06,268.9199999998763,6.7391e-06
268.9349999998763,2.827799e-05,268.9349999998763,8.834038e-06,268.9349999998763,7.519571e-06,268.9349999998763,6.787006e-06
268.9499999998763,2.888031e-05,268.9499999998763,8.781259e-06,268.9499999998763,7.562535e-06,268.9499999998763,6.813935e-06
268.9649999998763,3.919666e-05,268.9649999998763,8.905506e-06,268.9649999998763,7.50457e-06,268.9649999998763,6.799448e-06
268.97999999987627,4.781553e-05,268.97999999987627,8.929201e-06,268.97999999987627,7.489538e-06,268.97999999987627,6.867475e-06
268.99499999987626,4.979128e-05,268.99499999987626,9.034282e-06,268.99499999987626,7.584854e-06,268.99499999987626,6.772462e-06
269.00999999987624,5.156879e-05,269.00999999987624,8.547137e-06,269.00999999987624,8.140256e-06,269.00999999987624,6.762054e-06
269.02499999987623,5.421141e-05,269.02499999987623,8.757163e-06,269.02499999987623,8.143716e-06,269.02499999987623,6.599699e-06
269.0399999998762,5.555176e-05,269.0399999998762,8.157542e-06,269.0399999998762,8.282642e-06,269.0399999998762,6.4921e-06
269.0549999998762,5.672609e-05,269.0549999998762,7.93698e-06,269.0549999998762,9.76848e-06,269.0549999998762,6.65708e-06
269.0699999998762,6.179292e-05,269.0699999998762,7.68449e-06,269.0699999998762,1.151695e-05,269.0699999998762,6.483414e-06
269.0849999998762,6.324554e-05,269.0849999998762,7.938755e-06,269.0849999998762,1.145563e-05,269.0849999998762,6.452925e-06
269.09999999987616,6.445214e-05,269.09999999987616,8.255384e-06,269.09999999987616,1.16483e-05,269.09999999987616,6.393712e-06
269.11499999987615,7.036748e-05,269.11499999987615,8.389105e-06,269.11499999987615,1.22966e-05,269.11499999987615,6.347276e-06
269.12999999987613,7.201007e-05,269.12999999987613,8.234882e-06,269.12999999987613,1.244916e-05,269.12999999987613,6.424483e-06
269.1449999998761,7.252389e-05,269.1449999998761,8.238303e-06,269.1449999998761,1.379635e-05,269.1449999998761,6.797376e-06
269.1599999998761,7.216287e-05,269.1599999998761,7.795508e-06,269.1599999998761,1.385748e-05,269.1599999998761,7.075597e-06
269.1749999998761,7.214647e-05,269.1749999998761,7.558809e-06,269.1749999998761,1.474496e-05,269.1749999998761,7.075597e-06
269.1899999998761,7.177022e-05,269.1899999998761,7.410121e-06,269.1899999998761,1.481549e-05,269.1899999998761,7.262268e-06
269.20499999987607,6.907848e-05,269.20499999987607,7.612662e-06,269.20499999987607,1.473445e-05,269.20499999987607,7.254505e-06
269.21999999987605,6.391222e-05,269.21999999987605,7.584854e-06,269.21999999987605,1.47354e-05,269.21999999987605,7.268085e-06
269.23499999987604,6.222862e-05,269.23499999987604,7.759284e-06,269.23499999987604,1.488947e-05,269.23499999987604,7.073606e-06
269.249999999876,6.197979e-05,269.249999999876,7.523317e-06,269.249999999876,1.47354e-05,269.249999999876,6.995509e-06
269.264999999876,6.157734e-05,269.264999999876,7.474476e-06,269.264999999876,1.521977e-05,269.264999999876,7.023643e-06
269.279999999876,5.941507e-05,269.279999999876,7.238955e-06,269.279999999876,1.539188e-05,269.279999999876,7.097463e-06
269.294999999876,5.860872e-05,269.294999999876,7.678988e-06,269.294999999876,1.483449e-05,269.294999999876,7.119262e-06
269.30999999987597,5.648021e-05,269.30999999987597,7.827967e-06,269.30999999987597,1.396582e-05,269.30999999987597,6.879772e-06
269.32499999987596,5.146516e-05,269.32499999987596,7.931653e-06,269.32499999987596,1.339222e-05,269.32499999987596,6.892046e-06
269.33999999987594,5.033519e-05,269.33999999987594,7.493299e-06,269.33999999987594,1.39628e-05,269.33999999987594,7.031661e-06
269.35499999987593,4.773563e-05,269.35499999987593,7.312527e-06,269.35499999987593,1.43489e-05,269.35499999987593,7.04567e-06
269.3699999998759,3.804258e-05,269.3699999998759,7.358615e-06,269.3699999998759,1.438126e-05,269.3699999998759,7.209706e-06
269.3849999998759,3.729918e-05,269.3849999998759,7.42721e-06,269.3849999998759,1.425434e-05,269.3849999998759,6.957143e-06
269.3999999998759,3.936092e-05,269.3999999998759,7.644054e-06,269.3999999998759,1.312555e-05,269.3999999998759,6.559019e-06
269.4149999998759,3.998724e-05,269.4149999998759,7.588568e-06,269.4149999998759,1.320047e-05,269.4149999998759,6.550423e-06
269.42999999987586,4.207797e-05,269.42999999987586,7.680822e-06,269.42999999987586,1.228858e-05,269.42999999987586,6.934835e-06
269.44499999987585,4.265749e-05,269.44499999987585,7.717415e-06,269.44499999987585,1.223459e-05,269.44499999987585,6.709772e-06
269.45999999987583,4.422692e-05,269.45999999987583,7.896054e-06,269.45999999987583,1.241744e-05,269.45999999987583,6.836638e-06
269.4749999998758,4.159852e-05,269.4749999998758,7.352869e-06,269.4749999998758,1.239928e-05,269.4749999998758,7.049668e-06
269.4899999998758,4.073795e-05,269.4899999998758,7.237009e-06,269.4899999998758,1.23412e-05,269.4899999998758,7.119262e-06
269.5049999998758,3.957506e-05,269.5049999998758,7.412022e-06,269.5049999998758,1.197508e-05,269.5049999998758,7.375824e-06
269.5199999998758,4.021557e-05,269.5199999998758,7.575563e-06,269.5199999998758,1.239814e-05,269.5199999998758,7.498936e-06
269.53499999987577,4.314183e-05,269.53499999987577,7.824367e-06,269.53499999987577,1.308363e-05,269.53499999987577,7.273898e-06
269.54999999987575,4.344994e-05,269.54999999987575,7.235062e-06,269.54999999987575,1.355116e-05,269.54999999987575,7.487657e-06
269.56499999987574,4.609472e-05,269.56499999987574,7.174451e-06,269.56499999987574,1.359061e-05,269.56499999987574,7.56626e-06
269.5799999998757,4.628502e-05,269.5799999998757,7.387274e-06,269.5799999998757,1.303185e-05,269.5799999998757,7.755652e-06
269.5949999998757,4.79767e-05,269.5949999998757,7.746566e-06,269.5949999998757,1.22817e-05,269.5949999998757,7.562535e-06
269.6099999998757,4.992267e-05,269.6099999998757,7.762914e-06,269.6099999998757,1.202555e-05,269.6099999998757,7.442368e-06
269.6249999998757,5.079568e-05,269.6249999998757,8.032248e-06,269.6249999998757,1.190074e-05,269.6249999998757,7.489538e-06
269.63999999987567,5.216305e-05,269.63999999987567,8.048017e-06,269.63999999987567,1.214561e-05,269.63999999987567,7.510198e-06
269.65499999987566,4.960137e-05,269.65499999987566,7.829767e-06,269.65499999987566,1.225759e-05,269.65499999987566,7.517698e-06
269.66999999987564,4.940958e-05,269.66999999987564,7.879981e-06,269.66999999987564,1.302212e-05,269.66999999987564,7.651422e-06
269.68499999987563,4.645362e-05,269.68499999987563,8.943388e-06,269.68499999987563,1.542844e-05,269.68499999987563,7.38918e-06
269.6999999998756,4.414212e-05,269.6999999998756,9.245431e-06,269.6999999998756,1.546492e-05,269.6999999998756,7.523317e-06
269.7149999998756,4.27739e-05,269.7149999998756,9.071627e-06,269.7149999998756,1.535706e-05,269.7149999998756,7.640368e-06
269.7299999998756,4.249404e-05,269.7299999998756,9.113456e-06,269.7299999998756,1.534513e-05,269.7299999998756,7.523317e-06
269.7449999998756,4.230001e-05,269.7449999998756,9.54382e-06,269.7449999998756,1.530929e-05,269.7449999998756,7.50457e-06
269.75999999987556,4.21432e-05,269.75999999987556,1.054649e-05,269.75999999987556,1.532676e-05,269.75999999987556,7.678988e-06
269.77499999987555,4.074867e-05,269.77499999987555,1.107042e-05,269.77499999987555,1.411132e-05,269.77499999987555,7.790086e-06
269.78999999987553,3.777764e-05,269.78999999987553,1.125091e-05,269.78999999987553,1.392744e-05,269.78999999987553,7.757469e-06
269.8049999998755,3.773959e-05,269.8049999998755,1.111613e-05,269.8049999998755,1.393149e-05,269.8049999998755,7.601551e-06
269.8199999998755,3.504916e-05,269.8199999998755,1.104239e-05,269.8199999998755,1.391935e-05,269.8199999998755,7.573703e-06
269.8349999998755,3.473019e-05,269.8349999998755,1.121203e-05,269.8349999998755,1.402219e-05,269.8349999998755,7.352869e-06
269.8499999998755,3.213206e-05,269.8499999998755,1.183545e-05,269.8499999998755,1.396078e-05,269.8499999998755,7.860292e-06
269.86499999987547,3.035427e-05,269.86499999987547,1.245708e-05,269.86499999987547,1.35366e-05,269.86499999987547,7.791894e-06
269.87999999987545,3.054072e-05,269.87999999987545,1.256966e-05,269.87999999987545,1.3497e-05,269.87999999987545,7.784659e-06
269.89499999987544,2.975243e-05,269.89499999987544,1.272116e-05,269.89499999987544,1.336379e-05,269.89499999987544,8.007658e-06
269.9099999998754,2.909898e-05,269.9099999998754,1.305129e-05,269.9099999998754,1.275544e-05,269.9099999998754,7.899621e-06
269.9249999998754,2.844537e-05,269.9249999998754,1.258869e-05,269.9249999998754,1.009471e-05,269.9249999998754,8.105571e-06
269.9399999998754,2.922891e-05,269.9399999998754,1.216183e-05,269.9399999998754,9.346957e-06,269.9399999998754,8.279239e-06
269.9549999998754,2.940381e-05,269.9549999998754,1.197155e-05,269.9549999998754,9.246955e-06,269.9549999998754,8.026986e-06
269.96999999987537,2.999621e-05,269.96999999987537,1.215024e-05,269.96999999987537,9.506848e-06,269.96999999987537,7.97593e-06
269.98499999987536,3.015126e-05,269.98499999987536,1.230577e-05,269.98499999987536,9.571822e-06,269.98499999987536,7.949394e-06
269.99999999987534,3.050149e-05,269.99999999987534,1.209097e-05,269.99999999987534,9.870335e-06,269.99999999987534,8.075974e-06
270.01499999987533,3.077826e-05,270.01499999987533,1.042694e-05,270.01499999987533,9.921579e-06,270.01499999987533,7.762914e-06
270.0299999998753,3.16457e-05,270.0299999998753,1.03714e-05,270.0299999998753,9.945687e-06,270.0299999998753,7.972397e-06
270.0449999998753,3.361346e-05,270.0449999998753,1.027314e-05,270.0449999998753,9.854623e-06,270.0449999998753,7.979462e-06
270.0599999998753,3.488237e-05,270.0599999998753,1.033057e-05,270.0599999998753,9.830293e-06,270.0599999998753,8.009417e-06
270.0749999998753,3.43304e-05,270.0749999998753,1.048756e-05,270.0749999998753,1.018639e-05,270.0749999998753,8.048017e-06
270.08999999987526,3.360843e-05,270.08999999987526,9.407047e-06,270.08999999987526,1.013092e-05,270.08999999987526,7.847737e-06
270.10499999987525,3.412916e-05,270.10499999987525,8.900759e-06,270.10499999987525,1.001344e-05,270.10499999987525,7.47636e-06
270.11999999987523,3.338766e-05,270.11999999987523,8.338578e-06,270.11999999987523,1.027314e-05,270.11999999987523,7.188182e-06
270.1349999998752,3.166039e-05,270.1349999998752,8.207468e-06,270.1349999998752,1.186161e-05,270.1349999998752,7.033664e-06
270.1499999998752,3.226986e-05,270.1499999998752,7.947621e-06,270.1499999998752,1.181282e-05,270.1499999998752,6.965238e-06
270.1649999998752,3.145147e-05,270.1649999998752,7.993573e-06,270.1649999998752,1.169296e-05,270.1649999998752,7.059652e-06
270.1799999998752,3.239708e-05,270.1799999998752,8.096878e-06,270.1799999998752,1.19586e-05,270.1799999998752,6.745368e-06
270.19499999987517,3.265433e-05,270.19499999987517,8.093397e-06,270.19499999987517,1.205363e-05,270.19499999987517,6.784931e-06
270.20999999987515,3.230084e-05,270.20999999987515,8.263912e-06,270.20999999987515,1.193855e-05,270.20999999987515,6.904299e-06
270.22499999987514,3.201215e-05,270.22499999987514,7.762914e-06,270.22499999987514,1.16362e-05,270.22499999987514,6.881819e-06
270.2399999998751,3.189445e-05,270.2399999998751,8.186846e-06,270.2399999998751,1.152673e-05,270.2399999998751,6.65708e-06
270.2549999998751,3.335642e-05,270.2549999998751,8.035755e-06,270.2549999998751,1.139398e-05,270.2549999998751,6.511599e-06
270.2699999998751,3.379319e-05,270.2699999998751,8.128133e-06,270.2699999998751,1.114777e-05,270.2699999998751,6.171741e-06
270.2849999998751,3.054856e-05,270.2849999998751,8.154087e-06,270.2849999998751,1.095015e-05,270.2849999998751,6.146583e-06
270.29999999987507,3.071137e-05,270.29999999987507,8.246849e-06,270.29999999987507,1.070294e-05,270.29999999987507,6.123622e-06
270.31499999987506,3.069393e-05,270.31499999987506,8.079462e-06,270.31499999987506,9.801591e-06,270.31499999987506,6.535352e-06
270.32999999987504,3.081805e-05,270.32999999987504,8.021719e-06,270.32999999987504,9.850334e-06,270.32999999987504,6.476893e-06
270.34499999987503,3.087377e-05,270.34499999987503,8.021719e-06,270.34499999987503,9.945687e-06,270.34499999987503,6.718165e-06
270.359999999875,3.02683e-05,270.359999999875,7.69548e-06,270.359999999875,1.00961e-05,270.359999999875,6.603967e-06
