X[s],a: EMG RMS 1-1,X[s].1,a: EMG RMS 1-2,X[s].2,a: EMG RMS 1-3,X[s].3,a: EMG RMS 1-4
594.0149999995807,1.873005e-05,594.0149999995807,0.0001525569,594.0149999995807,1.345309e-05,594.0149999995807,2.991062e-05
594.0299999995807,1.804438e-05,594.0299999995807,0.0001536045,594.0299999995807,1.293746e-05,594.0299999995807,3.023943e-05
594.0449999995807,1.828093e-05,594.0449999995807,0.000155431,594.0449999995807,1.326221e-05,594.0449999995807,3.070036e-05
594.0599999995807,1.771823e-05,594.0599999995807,0.0001825007,594.0599999995807,1.301562e-05,594.0599999995807,3.038118e-05
594.0749999995807,1.839692e-05,594.0749999995807,0.0001849337,594.0749999995807,1.199975e-05,594.0749999995807,2.972164e-05
594.0899999995806,1.733729e-05,594.0899999995806,0.0001847611,594.0899999995806,1.214445e-05,594.0899999995806,2.993792e-05
594.1049999995806,1.628484e-05,594.1049999995806,0.00018275,594.1049999995806,1.21572e-05,594.1049999995806,3.013069e-05
594.1199999995806,1.66052e-05,594.1199999995806,0.0001789808,594.1199999995806,1.155237e-05,594.1199999995806,2.710648e-05
594.1349999995806,1.623285e-05,594.1349999995806,0.0001747352,594.1349999995806,1.124339e-05,594.1349999995806,2.721798e-05
594.1499999995806,1.522995e-05,594.1499999995806,0.0001744726,594.1499999995806,1.139893e-05,594.1499999995806,2.678708e-05
594.1649999995806,1.501571e-05,594.1649999995806,0.0001736889,594.1649999995806,1.237312e-05,594.1649999995806,2.777385e-05
594.1799999995806,1.536806e-05,594.1799999995806,0.0001708859,594.1799999995806,1.298203e-05,594.1799999995806,2.548159e-05
594.1949999995805,1.518363e-05,594.1949999995805,0.0001685032,594.1949999995805,1.283471e-05,594.1949999995805,2.356355e-05
594.2099999995805,1.50859e-05,594.2099999995805,0.0001562383,594.2099999995805,1.257414e-05,594.2099999995805,2.196838e-05
594.2249999995805,1.465104e-05,594.2249999995805,0.0001482961,594.2249999995805,1.225644e-05,594.2249999995805,2.227594e-05
594.2399999995805,1.485158e-05,594.2399999995805,0.0001171556,594.2399999995805,1.210378e-05,594.2399999995805,2.212492e-05
594.2549999995805,1.512973e-05,594.2549999995805,0.0001092972,594.2549999995805,1.187467e-05,594.2549999995805,2.282503e-05
594.2699999995805,1.519291e-05,594.2699999995805,0.0001085355,594.2699999995805,1.158281e-05,594.2699999995805,2.249556e-05
594.2849999995805,1.515484e-05,594.2849999995805,0.0001080725,594.2849999995805,1.133697e-05,594.2849999995805,2.278302e-05
594.2999999995805,1.517528e-05,594.2999999995805,7.230524e-05,594.2999999995805,1.11212e-05,594.2999999995805,2.199209e-05
594.3149999995804,1.511575e-05,594.3149999995804,4.435954e-05,594.3149999995804,1.089599e-05,594.3149999995804,2.251308e-05
594.3299999995804,1.437048e-05,594.3299999995804,3.185511e-05,594.3299999995804,1.085713e-05,594.3299999995804,2.280342e-05
594.3449999995804,1.52281e-05,594.3449999995804,3.1434e-05,594.3449999995804,1.053714e-05,594.3449999995804,2.294444e-05
594.3599999995804,1.457778e-05,594.3599999995804,3.168085e-05,594.3599999995804,1.039175e-05,594.3599999995804,2.284415e-05
594.3749999995804,1.474878e-05,594.3749999995804,3.290402e-05,594.3749999995804,1.152796e-05,594.3749999995804,2.275023e-05
594.3899999995804,1.492632e-05,594.3899999995804,3.380319e-05,594.3899999995804,1.184616e-05,594.3899999995804,2.278611e-05
594.4049999995804,1.548676e-05,594.4049999995804,3.617142e-05,594.4049999995804,1.143717e-05,594.4049999995804,2.204903e-05
594.4199999995803,1.48819e-05,594.4199999995803,3.808292e-05,594.4199999995803,1.098611e-05,594.4199999995803,2.078554e-05
594.4349999995803,1.535522e-05,594.4349999995803,3.844114e-05,594.4349999995803,1.056251e-05,594.4349999995803,2.135976e-05
594.4499999995803,1.593596e-05,594.4499999995803,4.021487e-05,594.4499999995803,1.028547e-05,594.4499999995803,2.152859e-05
594.4649999995803,1.62068e-05,594.4649999995803,4.939276e-05,594.4649999995803,1.047546e-05,594.4649999995803,2.111434e-05
594.4799999995803,1.668729e-05,594.4799999995803,5.460237e-05,594.4799999995803,1.029643e-05,594.4799999995803,2.030213e-05
594.4949999995803,1.658313e-05,594.4949999995803,5.655573e-05,594.4949999995803,1.148143e-05,594.4949999995803,2.080789e-05
594.5099999995803,1.728195e-05,594.5099999995803,5.823062e-05,594.5099999995803,1.223343e-05,594.5099999995803,1.991261e-05
594.5249999995802,1.699427e-05,594.5249999995802,6.048631e-05,594.5249999995802,1.243671e-05,594.5249999995802,2.176611e-05
594.5399999995802,1.71198e-05,594.5399999995802,6.334947e-05,594.5399999995802,1.287087e-05,594.5399999995802,2.149585e-05
594.5549999995802,1.775239e-05,594.5549999995802,6.466772e-05,594.5549999995802,1.277861e-05,594.5549999995802,2.168376e-05
594.5699999995802,1.733323e-05,594.5699999995802,6.583286e-05,594.5699999995802,1.343843e-05,594.5699999995802,2.099391e-05
594.5849999995802,1.752076e-05,594.5849999995802,6.941007e-05,594.5849999995802,1.49367e-05,594.5849999995802,2.097041e-05
594.5999999995802,1.684022e-05,594.5999999995802,6.952181e-05,594.5999999995802,1.577872e-05,594.5999999995802,2.071494e-05
594.6149999995802,1.688283e-05,594.6149999995802,7.131894e-05,594.6149999995802,1.559373e-05,594.6149999995802,2.068159e-05
594.6299999995801,1.725095e-05,594.6299999995801,7.124029e-05,594.6299999995801,1.490271e-05,594.6299999995801,2.04087e-05
594.6449999995801,1.725911e-05,594.6449999995801,7.55219e-05,594.6449999995801,1.453617e-05,594.6449999995801,2.056342e-05
594.6599999995801,1.730476e-05,594.6599999995801,7.891003e-05,594.6599999995801,1.435381e-05,594.6599999995801,2.066319e-05
594.6749999995801,1.722971e-05,594.6749999995801,8.245841e-05,594.6749999995801,1.474018e-05,594.6749999995801,2.05209e-05
594.6899999995801,1.670416e-05,594.6899999995801,8.402158e-05,594.6899999995801,1.584643e-05,594.6899999995801,1.958089e-05
594.7049999995801,1.658908e-05,594.7049999995801,8.621571e-05,594.7049999995801,1.615195e-05,594.7049999995801,1.990907e-05
594.7199999995801,1.711651e-05,594.7199999995801,7.893288e-05,594.7199999995801,1.629262e-05,594.7199999995801,2.110366e-05
594.73499999958,1.770869e-05,594.73499999958,7.650851e-05,594.73499999958,1.641665e-05,594.73499999958,2.246485e-05
594.74999999958,1.795752e-05,594.74999999958,7.56192e-05,594.74999999958,1.524844e-05,594.74999999958,2.422501e-05
594.76499999958,1.725258e-05,594.76499999958,7.492152e-05,594.76499999958,1.531021e-05,594.76499999958,2.422734e-05
594.77999999958,1.629781e-05,594.77999999958,7.385614e-05,594.77999999958,1.504195e-05,594.77999999958,2.428135e-05
594.79499999958,1.595451e-05,594.79499999958,7.182614e-05,594.79499999958,1.472393e-05,594.79499999958,2.372085e-05
594.80999999958,1.579211e-05,594.80999999958,7.242904e-05,594.80999999958,1.443113e-05,594.80999999958,2.494863e-05
594.82499999958,1.616677e-05,594.82499999958,7.193647e-05,594.82499999958,1.399102e-05,594.82499999958,2.501123e-05
594.83999999958,1.626147e-05,594.83999999958,7.137284e-05,594.83999999958,1.176383e-05,594.83999999958,2.555832e-05
594.85499999958,1.689951e-05,594.85499999958,7.127805e-05,594.85499999958,1.192439e-05,594.85499999958,2.585478e-05
594.8699999995799,1.68419e-05,594.8699999995799,7.007459e-05,594.8699999995799,1.19527e-05,594.8699999995799,2.605559e-05
594.8849999995799,1.688617e-05,594.8849999995799,0.0001081083,594.8849999995799,1.193501e-05,594.8849999995799,2.555722e-05
594.8999999995799,1.708026e-05,594.8999999995799,0.0001207698,594.8999999995799,1.193973e-05,594.8999999995799,2.530407e-05
594.9149999995799,1.735272e-05,594.9149999995799,0.0001281985,594.9149999995799,1.188297e-05,594.9149999995799,2.522713e-05
594.9299999995799,1.714118e-05,594.9299999995799,0.0001389284,594.9299999995799,1.122207e-05,594.9299999995799,2.582534e-05
594.9449999995799,1.697519e-05,594.9449999995799,0.0001571745,594.9449999995799,1.03101e-05,594.9449999995799,2.642226e-05
594.9599999995798,1.692866e-05,594.9599999995798,0.0001701958,594.9599999995798,9.714977e-06,594.9599999995798,2.626076e-05
594.9749999995798,1.508497e-05,594.9749999995798,0.0001747504,594.9749999995798,9.890295e-06,594.9749999995798,2.448529e-05
594.9899999995798,1.455167e-05,594.9899999995798,0.000175895,594.9899999995798,9.877468e-06,594.9899999995798,2.357908e-05
595.0049999995798,1.457392e-05,595.0049999995798,0.0001758229,595.0049999995798,1.051439e-05,595.0049999995798,2.189387e-05
595.0199999995798,1.476883e-05,595.0199999995798,0.0001758195,595.0199999995798,1.036596e-05,595.0199999995798,1.965414e-05
595.0349999995798,1.47526e-05,595.0349999995798,0.0001758966,595.0349999995798,1.079207e-05,595.0349999995798,2.147159e-05
595.0499999995798,1.484304e-05,595.0499999995798,0.0001757598,595.0499999995798,1.119065e-05,595.0499999995798,2.192666e-05
595.0649999995798,1.447888e-05,595.0649999995798,0.0001747213,595.0649999995798,1.108822e-05,595.0649999995798,2.094756e-05
595.0799999995797,1.435283e-05,595.0799999995797,0.0001756654,595.0799999995797,1.152551e-05,595.0799999995797,2.013352e-05
595.0949999995797,1.45942e-05,595.0949999995797,0.0001744616,595.0949999995797,1.178775e-05,595.0949999995797,2.02375e-05
595.1099999995797,1.338381e-05,595.1099999995797,0.0001744445,595.1099999995797,1.176981e-05,595.1099999995797,2.000225e-05
595.1249999995797,1.322286e-05,595.1249999995797,0.0001730445,595.1249999995797,1.205714e-05,595.1249999995797,1.983322e-05
595.1399999995797,1.311804e-05,595.1399999995797,0.0001441264,595.1399999995797,1.218613e-05,595.1399999995797,2.03707e-05
595.1549999995797,1.279183e-05,595.1549999995797,0.0001407108,595.1549999995797,1.206064e-05,595.1549999995797,2.066455e-05
595.1699999995797,1.236856e-05,595.1699999995797,0.0001355746,595.1699999995797,1.282043e-05,595.1699999995797,1.98609e-05
595.1849999995796,1.287197e-05,595.1849999995796,0.0001218848,595.1849999995796,1.296466e-05,595.1849999995796,1.93755e-05
595.1999999995796,1.328556e-05,595.1999999995796,9.45915e-05,595.1999999995796,1.307501e-05,595.1999999995796,1.861689e-05
595.2149999995796,1.319299e-05,595.2149999995796,7.063103e-05,595.2149999995796,1.335219e-05,595.2149999995796,1.847943e-05
595.2299999995796,1.332368e-05,595.2299999995796,6.259719e-05,595.2299999995796,1.326859e-05,595.2299999995796,1.900925e-05
595.2449999995796,1.381778e-05,595.2449999995796,6.454998e-05,595.2449999995796,1.324946e-05,595.2449999995796,1.914364e-05
595.2599999995796,1.451192e-05,595.2599999995796,6.736758e-05,595.2599999995796,1.298311e-05,595.2599999995796,1.896251e-05
595.2749999995796,1.5324e-05,595.2749999995796,7.196016e-05,595.2749999995796,1.263226e-05,595.2749999995796,1.89781e-05
595.2899999995795,1.653123e-05,595.2899999995795,7.123396e-05,595.2899999995795,1.236401e-05,595.2899999995795,1.740945e-05
595.3049999995795,1.658313e-05,595.3049999995795,7.110808e-05,595.3049999995795,1.236287e-05,595.3049999995795,1.722644e-05
595.3199999995795,1.70588e-05,595.3199999995795,7.218922e-05,595.3199999995795,1.259541e-05,595.3199999995795,1.70588e-05
595.3349999995795,1.699841e-05,595.3349999995795,7.18777e-05,595.3349999995795,1.245369e-05,595.3349999995795,1.715925e-05
595.3499999995795,1.726401e-05,595.3499999995795,7.429903e-05,595.3499999995795,1.24966e-05,595.3499999995795,1.691451e-05
595.3649999995795,1.80748e-05,595.3649999995795,7.448101e-05,595.3649999995795,1.257638e-05,595.3649999995795,1.689951e-05
595.3799999995795,1.828324e-05,595.3799999995795,9.113008e-05,595.3799999995795,1.231835e-05,595.3799999995795,1.689618e-05
595.3949999995795,1.83816e-05,595.3949999995795,9.300832e-05,595.3949999995795,1.330146e-05,595.3949999995795,1.6258e-05
595.4099999995794,1.839539e-05,595.4099999995794,0.0001180511,595.4099999995794,1.420088e-05,595.4099999995794,1.628138e-05
595.4249999995794,1.846418e-05,595.4249999995794,0.000122488,595.4249999995794,1.398095e-05,595.4249999995794,1.625627e-05
595.4399999995794,1.835015e-05,595.4399999995794,0.0001462105,595.4399999995794,1.441453e-05,595.4399999995794,1.641922e-05
595.4549999995794,1.828479e-05,595.4549999995794,0.0002474364,595.4549999995794,1.589524e-05,595.4549999995794,1.662724e-05
595.4699999995794,1.956794e-05,595.4699999995794,0.0008575909,595.4699999995794,1.608728e-05,595.4699999995794,1.808571e-05
595.4849999995794,1.973639e-05,595.4849999995794,0.0008730949,595.4849999995794,1.606187e-05,595.4849999995794,1.837087e-05
595.4999999995794,1.897216e-05,595.4999999995794,0.0008727949,595.4999999995794,1.586952e-05,595.4999999995794,2.063044e-05
595.5149999995793,1.839692e-05,595.5149999995793,0.000875567,595.5149999995793,1.595539e-05,595.5149999995793,5.676482e-05
595.5299999995793,1.765452e-05,595.5299999995793,0.0008787505,595.5299999995793,1.609253e-05,595.5299999995793,6.048631e-05
595.5449999995793,1.784262e-05,595.5449999995793,0.0008800984,595.5449999995793,1.602675e-05,595.5449999995793,6.295152e-05
595.5599999995793,1.784972e-05,595.5599999995793,0.0008806589,595.5599999995793,1.602587e-05,595.5599999995793,6.503308e-05
595.5749999995793,1.743775e-05,595.5749999995793,0.0008807936,595.5749999995793,1.622504e-05,595.5749999995793,6.81501e-05
595.5899999995793,1.702077e-05,595.5899999995793,0.0008816021,595.5899999995793,1.61807e-05,595.5899999995793,7.094564e-05
595.6049999995793,1.686948e-05,595.6049999995793,0.000881892,595.6049999995793,1.564333e-05,595.6049999995793,7.170522e-05
595.6199999995792,1.627965e-05,595.6199999995792,0.0008818096,595.6199999995792,1.553218e-05,595.6199999995792,7.40744e-05
595.6349999995792,1.60566e-05,595.6349999995792,0.0008798686,595.6349999995792,1.560005e-05,595.6349999995792,8.410101e-05
595.6499999995792,1.581172e-05,595.6499999995792,0.0008797173,595.6499999995792,1.457875e-05,595.6499999995792,8.519965e-05
595.6649999995792,1.566043e-05,595.6649999995792,0.0008766264,595.6649999995792,1.356778e-05,595.6649999995792,8.598142e-05
595.6799999995792,1.525952e-05,595.6799999995792,0.0008762849,595.6799999995792,1.35418e-05,595.6799999995792,8.603482e-05
595.6949999995792,1.54476e-05,595.6949999995792,0.0008615351,595.6949999995792,1.369592e-05,595.6949999995792,8.6015e-05
595.7099999995792,1.549949e-05,595.7099999995792,0.0005182384,595.7099999995792,1.20968e-05,595.7099999995792,8.604497e-05
595.7249999995792,1.482594e-05,595.7249999995792,0.0002732681,595.7249999995792,1.215256e-05,595.7249999995792,8.598126e-05
595.7399999995791,1.606011e-05,595.7399999995791,0.0003778138,595.7399999995791,1.217688e-05,595.7399999995791,8.583417e-05
595.7549999995791,1.613711e-05,595.7549999995791,0.0003838774,595.7549999995791,1.221384e-05,595.7549999995791,8.116496e-05
595.7699999995791,1.578586e-05,595.7699999995791,0.0003780172,595.7699999995791,1.281274e-05,595.7699999995791,6.411226e-05
595.7849999995791,1.579567e-05,595.7849999995791,0.0004305428,595.7849999995791,1.285116e-05,595.7849999995791,6.238304e-05
595.7999999995791,1.604607e-05,595.7999999995791,0.0004734824,595.7999999995791,1.268789e-05,595.7999999995791,5.986244e-05
595.8149999995791,1.676477e-05,595.8149999995791,0.0005145479,595.8149999995791,1.272116e-05,595.8149999995791,5.814081e-05
595.8299999995791,1.737625e-05,595.8299999995791,0.0005216956,595.8299999995791,1.217225e-05,595.8299999995791,6.067326e-05
595.844999999579,1.761538e-05,595.844999999579,0.000583477,595.844999999579,1.218844e-05,595.844999999579,5.753974e-05
595.859999999579,1.791432e-05,595.859999999579,0.0006070049,595.859999999579,1.209097e-05,595.859999999579,5.475848e-05
595.874999999579,1.816963e-05,595.874999999579,0.0006313296,595.874999999579,1.2134e-05,595.874999999579,5.306054e-05
595.889999999579,1.960606e-05,595.889999999579,0.0006332765,595.889999999579,1.206882e-05,595.889999999579,3.584043e-05
595.904999999579,2.008167e-05,595.904999999579,0.0006553799,595.904999999579,1.197037e-05,595.904999999579,3.373227e-05
595.919999999579,2.083901e-05,595.919999999579,0.0007312758,595.919999999579,1.171944e-05,595.919999999579,3.32727e-05
595.934999999579,2.130892e-05,595.934999999579,0.0007744934,595.934999999579,1.067526e-05,595.934999999579,3.34572e-05
595.949999999579,2.139732e-05,595.949999999579,0.0008462067,595.949999999579,1.03142e-05,595.949999999579,3.355054e-05
595.9649999995789,2.08505e-05,595.9649999995789,0.000885657,595.9649999995789,9.886021e-06,595.9649999995789,3.337626e-05
595.9799999995789,2.042595e-05,595.9799999995789,0.0008905176,595.9799999995789,9.873189e-06,595.9799999995789,3.288989e-05
595.9949999995789,2.00107e-05,595.9949999995789,0.0008604811,595.9949999995789,9.573294e-06,595.9949999995789,3.367836e-05
596.0099999995789,1.979696e-05,596.0099999995789,0.0008603276,596.0099999995789,9.39656e-06,596.0099999995789,3.35329e-05
596.0249999995789,1.972854e-05,596.0249999995789,0.0008548703,596.0249999995789,8.794083e-06,596.0249999995789,3.313609e-05
596.0399999995789,1.992817e-05,596.0399999995789,0.000810528,596.0399999995789,8.849969e-06,596.0399999995789,3.31998e-05
596.0549999995789,1.954993e-05,596.0549999995789,0.0008083192,596.0549999995789,9.021799e-06,596.0549999995789,3.131142e-05
596.0699999995788,1.951893e-05,596.0699999995788,0.0007795903,596.0699999995788,9.032722e-06,596.0699999995788,2.70378e-05
596.0849999995788,1.89149e-05,596.0849999995788,0.0007768247,596.0849999995788,8.957552e-06,596.0849999995788,2.102676e-05
596.0999999995788,1.866299e-05,596.0999999995788,0.0007182769,596.0999999995788,8.589881e-06,596.0999999995788,2.11743e-05
596.1149999995788,1.910313e-05,596.1149999995788,0.0007038278,596.1149999995788,8.962269e-06,596.1149999995788,2.155867e-05
596.1299999995788,1.852055e-05,596.1299999995788,0.0006914221,596.1299999995788,1.013231e-05,596.1299999995788,2.148733e-05
596.1449999995788,1.704889e-05,596.1449999995788,0.0006873613,596.1449999995788,9.995137e-06,596.1449999995788,2.215928e-05
596.1599999995788,1.659841e-05,596.1599999995788,0.0006514207,596.1599999995788,1.052376e-05,596.1599999995788,1.995501e-05
596.1749999995787,1.584287e-05,596.1749999995787,0.0005484961,596.1749999995787,1.059314e-05,596.1749999995787,1.958161e-05
596.1899999995787,1.542935e-05,596.1899999995787,0.0004933855,596.1899999995787,1.033466e-05,596.1899999995787,1.956506e-05
596.2049999995787,1.521422e-05,596.2049999995787,0.0002966704,596.2049999995787,1.060244e-05,596.2049999995787,1.9979e-05
596.2199999995787,1.595009e-05,596.2199999995787,0.0001864746,596.2199999995787,1.076593e-05,596.2199999995787,1.971496e-05
596.2349999995787,1.563523e-05,596.2349999995787,0.0001046904,596.2349999995787,1.066338e-05,596.2349999995787,1.910018e-05
596.2499999995787,1.574386e-05,596.2499999995787,0.0001030117,596.2499999995787,1.063031e-05,596.2499999995787,1.800687e-05
596.2649999995787,1.559373e-05,596.2649999995787,9.971714e-05,596.2649999995787,1.07476e-05,596.2649999995787,1.850533e-05
596.2799999995786,1.513159e-05,596.2799999995786,0.0001025976,596.2799999995786,1.065545e-05,596.2799999995786,1.828787e-05
596.2949999995786,1.440866e-05,596.2949999995786,9.317054e-05,596.2949999995786,1.035917e-05,596.2949999995786,1.874433e-05
596.3099999995786,1.523827e-05,596.3099999995786,8.47509e-05,596.3099999995786,1.043774e-05,596.3099999995786,2.08721e-05
596.3249999995786,1.598186e-05,596.3249999995786,8.10512e-05,596.3249999995786,1.085194e-05,596.3249999995786,2.145452e-05
596.3399999995786,1.604519e-05,596.3399999995786,8.016959e-05,596.3399999995786,1.102324e-05,596.3399999995786,2.297819e-05
596.3549999995786,1.599331e-05,596.3549999995786,7.805694e-05,596.3549999995786,1.130088e-05,596.3549999995786,2.247676e-05
596.3699999995786,1.470861e-05,596.3699999995786,7.689877e-05,596.3699999995786,1.081554e-05,596.3699999995786,2.232584e-05
596.3849999995786,1.483354e-05,596.3849999995786,7.477905e-05,596.3849999995786,1.065545e-05,596.3849999995786,2.200362e-05
596.3999999995785,1.46318e-05,596.3999999995785,7.407326e-05,596.3999999995785,1.086232e-05,596.3999999995785,2.07394e-05
596.4149999995785,1.425039e-05,596.4149999995785,7.162149e-05,596.4149999995785,1.094629e-05,596.4149999995785,2.096705e-05
596.4299999995785,1.443211e-05,596.4299999995785,7.203529e-05,596.4299999995785,1.16362e-05,596.4299999995785,2.115633e-05
596.4449999995785,1.427706e-05,596.4449999995785,6.958804e-05,596.4449999995785,1.119191e-05,596.4449999995785,2.133799e-05
596.4599999995785,1.379941e-05,596.4599999995785,6.542612e-05,596.4599999995785,1.120826e-05,596.4599999995785,2.129305e-05
596.4749999995785,1.301562e-05,596.4749999995785,5.040566e-05,596.4749999995785,1.109711e-05,596.4749999995785,2.126392e-05
596.4899999995785,1.309869e-05,596.4899999995785,4.086914e-05,596.4899999995785,1.105386e-05,596.4899999995785,2.13591e-05
596.5049999995784,1.491405e-05,596.5049999995784,4.187292e-05,596.5049999995784,1.0972e-05,596.5049999995784,2.056684e-05
596.5199999995784,1.50204e-05,596.5199999995784,3.825785e-05,596.5199999995784,1.082335e-05,596.5199999995784,2.017405e-05
596.5349999995784,1.523272e-05,596.5349999995784,3.590052e-05,596.5349999995784,1.092439e-05,596.5349999995784,2.046522e-05
596.5499999995784,1.59103e-05,596.5499999995784,3.786814e-05,596.5499999995784,1.119191e-05,596.5499999995784,1.919509e-05
596.5649999995784,1.445454e-05,596.5649999995784,4.289656e-05,596.5649999995784,1.11212e-05,596.5649999995784,1.591384e-05
596.5799999995784,1.397087e-05,596.5799999995784,4.323576e-05,596.5799999995784,1.104749e-05,596.5799999995784,1.598803e-05
596.5949999995784,1.378307e-05,596.5949999995784,4.588029e-05,596.5949999995784,1.084285e-05,596.5949999995784,1.433024e-05
596.6099999995783,1.379737e-05,596.6099999995783,4.592817e-05,596.6099999995783,1.124089e-05,596.6099999995783,1.459516e-05
596.6249999995783,1.378205e-05,596.6249999995783,4.598242e-05,596.6249999995783,1.116544e-05,596.6249999995783,1.397792e-05
596.6399999995783,1.40513e-05,596.6399999995783,5.096623e-05,596.6399999995783,1.055317e-05,596.6399999995783,1.458068e-05
596.6549999995783,1.5717e-05,596.6549999995783,6.01144e-05,596.6549999995783,1.020711e-05,596.6549999995783,1.427706e-05
596.6699999995783,1.564693e-05,596.6699999995783,6.364342e-05,596.6699999995783,9.78145e-06,596.6699999995783,1.58562e-05
596.6849999995783,1.558379e-05,596.6849999995783,6.461716e-05,596.6849999995783,1.000922e-05,596.6849999995783,1.690284e-05
596.6999999995783,1.591915e-05,596.6999999995783,6.330787e-05,596.6999999995783,9.778569e-06,596.6999999995783,1.661368e-05
596.7149999995783,1.695942e-05,596.7149999995783,6.442788e-05,596.7149999995783,9.935768e-06,596.7149999995783,1.764893e-05
596.7299999995782,1.717484e-05,596.7299999995782,6.465182e-05,596.7299999995782,1.037276e-05,596.7299999995782,1.77936e-05
596.7449999995782,1.682934e-05,596.7449999995782,6.545281e-05,596.7449999995782,1.051439e-05,596.7449999995782,1.768879e-05
596.7599999995782,1.562261e-05,596.7599999995782,6.445542e-05,596.7599999995782,1.057184e-05,596.7599999995782,1.786708e-05
596.7749999995782,1.550404e-05,596.7749999995782,6.582002e-05,596.7749999995782,1.058116e-05,596.7749999995782,1.84344e-05
596.7899999995782,1.515113e-05,596.7899999995782,6.712732e-05,596.7899999995782,1.015869e-05,596.7899999995782,1.840993e-05
596.8049999995782,1.452066e-05,596.8049999995782,6.566403e-05,596.8049999995782,1.00975e-05,596.8049999995782,1.846494e-05
596.8199999995782,1.403525e-05,596.8199999995782,6.424132e-05,596.8199999995782,1.03904e-05,596.8199999995782,1.81417e-05
596.8349999995781,1.418301e-05,596.8349999995781,6.436444e-05,596.8349999995781,1.084935e-05,596.8349999995781,1.795124e-05
596.8499999995781,1.417407e-05,596.8499999995781,6.243157e-05,596.8499999995781,1.067131e-05,596.8499999995781,1.801e-05
596.8649999995781,1.417109e-05,596.8649999995781,6.288861e-05,596.8649999995781,1.014759e-05,596.8649999995781,1.79151e-05
596.8799999995781,1.406933e-05,596.8799999995781,6.437888e-05,596.8799999995781,1.051305e-05,596.8799999995781,1.78915e-05
596.8949999995781,1.298203e-05,596.8949999995781,6.068209e-05,596.8949999995781,1.057717e-05,596.8949999995781,1.700587e-05
596.9099999995781,1.226563e-05,596.9099999995781,6.059404e-05,596.9099999995781,9.91874e-06,596.9099999995781,1.710498e-05
596.9249999995781,1.239473e-05,596.9249999995781,5.788901e-05,596.9249999995781,9.442919e-06,596.9249999995781,1.535247e-05
596.939999999578,1.231034e-05,596.939999999578,5.422959e-05,596.939999999578,9.564462e-06,596.939999999578,1.404227e-05
596.954999999578,1.208281e-05,596.954999999578,5.672112e-05,596.954999999578,1.009052e-05,596.954999999578,1.358128e-05
596.969999999578,1.1332e-05,596.969999999578,5.704726e-05,596.969999999578,1.0306e-05,596.969999999578,1.304049e-05
596.984999999578,1.089857e-05,596.984999999578,5.78929e-05,596.984999999578,9.811646e-06,596.984999999578,1.314379e-05
596.999999999578,1.064884e-05,596.999999999578,5.931565e-05,596.999999999578,9.70337e-06,596.999999999578,1.423358e-05
597.014999999578,1.077901e-05,597.014999999578,5.893708e-05,597.014999999578,9.884596e-06,597.014999999578,1.423556e-05
597.029999999578,1.121328e-05,597.029999999578,5.85688e-05,597.029999999578,9.964083e-06,597.029999999578,1.462794e-05
597.044999999578,1.116923e-05,597.044999999578,6.066932e-05,597.044999999578,9.876042e-06,597.044999999578,1.494141e-05
597.0599999995779,1.191257e-05,597.0599999995779,6.132243e-05,597.0599999995779,1.005976e-05,597.0599999995779,1.645608e-05
597.0749999995779,1.213632e-05,597.0749999995779,6.430729e-05,597.0749999995779,9.304663e-06,597.0749999995779,1.733404e-05
597.0899999995779,1.218844e-05,597.0899999995779,6.576542e-05,597.0899999995779,9.68157e-06,597.0899999995779,1.884402e-05
597.1049999995779,1.256517e-05,597.1049999995779,6.664947e-05,597.1049999995779,9.985267e-06,597.1049999995779,1.946328e-05
597.1199999995779,1.309116e-05,597.1199999995779,6.735315e-05,597.1199999995779,9.524612e-06,597.1199999995779,2.007255e-05
597.1349999995779,1.295052e-05,597.1349999995779,7.36992e-05,597.1349999995779,9.68157e-06,597.1349999995779,1.996489e-05
597.1499999995779,1.283032e-05,597.1499999995779,7.20783e-05,597.1499999995779,9.650967e-06,597.1499999995779,1.971425e-05
597.1649999995778,1.309116e-05,597.1649999995778,8.596716e-05,597.1649999995778,9.696108e-06,597.1649999995778,1.941545e-05
597.1799999995778,1.316841e-05,597.1799999995778,0.0001096152,597.1799999995778,1.005976e-05,597.1799999995778,1.963191e-05
597.1949999995778,1.340799e-05,597.1949999995778,0.0001120749,597.1949999995778,9.954182e-06,597.1949999995778,1.987366e-05
597.2099999995778,1.381981e-05,597.2099999995778,0.0001330021,597.2099999995778,9.015552e-06,597.2099999995778,2.010761e-05
597.2249999995778,1.409934e-05,597.2249999995778,0.0001514002,597.2249999995778,8.802089e-06,597.2249999995778,1.977988e-05
597.2399999995778,1.401013e-05,597.2399999995778,0.0001525876,597.2399999995778,8.723317e-06,597.2399999995778,1.983109e-05
597.2549999995778,1.410733e-05,597.2549999995778,0.0001522642,597.2549999995778,8.870637e-06,597.2549999995778,1.941255e-05
597.2699999995777,1.426422e-05,597.2699999995777,0.0001520919,597.2699999995777,8.580036e-06,597.2699999995777,1.887912e-05
597.2849999995777,1.450221e-05,597.2849999995777,0.0001554126,597.2849999995777,8.712006e-06,597.2849999995777,1.81448e-05
597.2999999995777,1.420485e-05,597.2999999995777,0.0001841933,597.2999999995777,8.475971e-06,597.2999999995777,1.777776e-05
597.3149999995777,1.38137e-05,597.3149999995777,0.0001856189,597.3149999995777,8.145445e-06,597.3149999995777,1.62207e-05
597.3299999995777,1.400712e-05,597.3299999995777,0.0001888613,597.3299999995777,7.656943e-06,597.3299999995777,1.555031e-05
597.3449999995777,1.385951e-05,597.3449999995777,0.0002858689,597.3449999995777,6.873626e-06,597.3449999995777,1.482024e-05
597.3599999995777,1.361029e-05,597.3599999995777,0.0003074783,597.3599999995777,6.684531e-06,597.3599999995777,1.367225e-05
597.3749999995777,1.345519e-05,597.3749999995777,0.0003213081,597.3749999995777,6.730734e-06,597.3749999995777,1.421674e-05
597.3899999995776,1.322179e-05,597.3899999995776,0.0003208916,597.3899999995776,6.528882e-06,597.3899999995776,1.438812e-05
597.4049999995776,1.29342e-05,597.4049999995776,0.0003960793,597.4049999995776,6.74119e-06,597.4049999995776,1.699261e-05
597.4199999995776,1.345519e-05,597.4199999995776,0.0004095623,597.4199999995776,6.520246e-06,597.4199999995776,1.767047e-05
597.4349999995776,1.376978e-05,597.4349999995776,0.0004333105,597.4349999995776,6.151165e-06,597.4349999995776,1.693199e-05
597.4499999995776,1.305776e-05,597.4499999995776,0.0004376047,597.4499999995776,6.776621e-06,597.4499999995776,1.731941e-05
597.4649999995776,1.20548e-05,597.4649999995776,0.000429736,597.4649999995776,8.060259e-06,597.4649999995776,1.746197e-05
597.4799999995776,1.218035e-05,597.4799999995776,0.0004264161,597.4799999995776,8.308113e-06,597.4799999995776,1.741107e-05
597.4949999995775,1.364027e-05,597.4949999995775,0.0004264346,597.4949999995775,8.517419e-06,597.4949999995775,1.749179e-05
597.5099999995775,1.351681e-05,597.5099999995775,0.0004263235,597.5099999995775,8.949686e-06,597.5099999995775,1.739002e-05
597.5249999995775,1.312555e-05,597.5249999995775,0.0004258881,597.5249999995775,8.924467e-06,597.5249999995775,1.761298e-05
597.5399999995775,1.263114e-05,597.5399999995775,0.0004235959,597.5399999995775,8.949686e-06,597.5399999995775,1.793946e-05
597.5549999995775,1.269566e-05,597.5549999995775,0.0004122684,597.5549999995775,9.836022e-06,597.5549999995775,1.841605e-05
597.5699999995775,1.248532e-05,597.5699999995775,0.0004117147,597.5699999995775,9.921579e-06,597.5699999995775,1.917893e-05
597.5849999995775,1.264118e-05,597.5849999995775,0.000410686,597.5849999995775,1.007795e-05,597.5849999995775,1.917453e-05
597.5999999995774,1.290694e-05,597.5999999995774,0.0003456537,597.5999999995774,1.020159e-05,597.5999999995774,1.878637e-05
597.6149999995774,1.367225e-05,597.6149999995774,0.0003233553,597.6149999995774,1.031693e-05,597.6149999995774,1.886195e-05
597.6299999995774,1.369592e-05,597.6299999995774,0.0003153193,597.6299999995774,1.013926e-05,597.6299999995774,1.809661e-05
597.6449999995774,1.394362e-05,597.6449999995774,0.0003150132,597.6449999995774,1.032921e-05,597.6449999995774,1.77508e-05
597.6599999995774,1.416214e-05,597.6599999995774,0.0001973292,597.6599999995774,1.044044e-05,597.6599999995774,1.513996e-05
597.6749999995774,1.369489e-05,597.6749999995774,0.000137184,597.6749999995774,1.054783e-05,597.6749999995774,1.484873e-05
597.6899999995774,1.324734e-05,597.6899999995774,7.712467e-05,597.6899999995774,1.026079e-05,597.6899999995774,1.460288e-05
597.7049999995774,1.325265e-05,597.7049999995774,7.254001e-05,597.7049999995774,1.019883e-05,597.7049999995774,1.400309e-05
597.7199999995773,1.320473e-05,597.7199999995773,7.427001e-05,597.7199999995773,9.560042e-06,597.7199999995773,1.39072e-05
597.7349999995773,1.232521e-05,597.7349999995773,7.178808e-05,597.7349999995773,9.521654e-06,597.7349999995773,1.37452e-05
597.7499999995773,1.255732e-05,597.7499999995773,7.287518e-05,597.7499999995773,8.962269e-06,597.7499999995773,1.464431e-05
597.7649999995773,1.308363e-05,597.7649999995773,7.494145e-05,597.7649999995773,8.943388e-06,597.7649999995773,1.444284e-05
597.7799999995773,1.376875e-05,597.7799999995773,7.613791e-05,597.7799999995773,8.888089e-06,597.7799999995773,1.487906e-05
597.7949999995773,1.445356e-05,597.7949999995773,7.84623e-05,597.7949999995773,8.451005e-06,597.7949999995773,1.514089e-05
597.8099999995773,1.455457e-05,597.8099999995773,7.854214e-05,597.8099999995773,7.735647e-06,597.8099999995773,1.344262e-05
597.8249999995772,1.460867e-05,597.8249999995772,7.830774e-05,597.8249999995772,7.845942e-06,597.8249999995772,1.26356e-05
597.8399999995772,1.431352e-05,597.8399999995772,8.212821e-05,597.8399999995772,8.174792e-06,597.8399999995772,1.266344e-05
597.8549999995772,1.402621e-05,597.8549999995772,8.643861e-05,597.8549999995772,8.330127e-06,597.8549999995772,1.244237e-05
597.8699999995772,1.378818e-05,597.8699999995772,8.810678e-05,597.8699999995772,8.449338e-06,597.8699999995772,1.205013e-05
597.8849999995772,1.419294e-05,597.8849999995772,8.741739e-05,597.8849999995772,8.606265e-06,597.8849999995772,1.218035e-05
597.8999999995772,1.384324e-05,597.8999999995772,8.740192e-05,597.8999999995772,8.210899e-06,597.8999999995772,1.25461e-05
597.9149999995772,1.394058e-05,597.9149999995772,8.649221e-05,597.9149999995772,8.553727e-06,597.9149999995772,1.394463e-05
597.9299999995771,1.396381e-05,597.9299999995771,7.763204e-05,597.9299999995771,8.40923e-06,597.9299999995771,1.459903e-05
597.9449999995771,1.420485e-05,597.9449999995771,6.423036e-05,597.9449999995771,8.345331e-06,597.9449999995771,1.642437e-05
597.9599999995771,1.447596e-05,597.9599999995771,6.210717e-05,597.9599999995771,8.92131e-06,597.9599999995771,1.671344e-05
597.9749999995771,1.434301e-05,597.9749999995771,6.048701e-05,597.9749999995771,9.010862e-06,597.9749999995771,1.655593e-05
597.9899999995771,1.32951e-05,597.9899999995771,5.961909e-05,597.9899999995771,1.00275e-05,597.9899999995771,1.6521e-05
598.0049999995771,1.313092e-05,598.0049999995771,5.606567e-05,598.0049999995771,1.012397e-05,598.0049999995771,1.620767e-05
598.0199999995771,1.188652e-05,598.0199999995771,5.216737e-05,598.0199999995771,1.03442e-05,598.0199999995771,1.580994e-05
598.034999999577,1.130586e-05,598.034999999577,5.17308e-05,598.034999999577,1.074366e-05,598.034999999577,1.542388e-05
598.049999999577,1.118939e-05,598.049999999577,4.850117e-05,598.049999999577,1.07476e-05,598.049999999577,1.60408e-05
598.064999999577,1.290039e-05,598.064999999577,4.924538e-05,598.064999999577,1.067394e-05,598.064999999577,1.668222e-05
598.079999999577,1.281823e-05,598.079999999577,4.907919e-05,598.079999999577,1.024293e-05,598.079999999577,1.69561e-05
598.094999999577,1.261552e-05,598.094999999577,3.846129e-05,598.094999999577,1.033194e-05,598.094999999577,1.719615e-05
598.109999999577,1.278742e-05,598.109999999577,3.533575e-05,598.109999999577,1.00961e-05,598.109999999577,1.721253e-05
598.124999999577,1.228629e-05,598.124999999577,3.430208e-05,598.124999999577,9.913058e-06,598.124999999577,1.752558e-05
598.139999999577,1.207232e-05,598.139999999577,3.461969e-05,598.139999999577,9.887446e-06,598.139999999577,1.741269e-05
598.154999999577,1.210494e-05,598.154999999577,3.492192e-05,598.154999999577,9.921579e-06,598.154999999577,1.750709e-05
598.1699999995769,1.180805e-05,598.1699999995769,3.513947e-05,598.1699999995769,9.887446e-06,598.1699999995769,1.654571e-05
598.1849999995769,1.177819e-05,598.1849999995769,3.539391e-05,598.1849999995769,1.035645e-05,598.1849999995769,1.515206e-05
598.1999999995769,1.146424e-05,598.1999999995769,3.498519e-05,598.1999999995769,1.021539e-05,598.1999999995769,1.392542e-05
598.2149999995769,1.113639e-05,598.2149999995769,3.52791e-05,598.2149999995769,9.76848e-06,598.2149999995769,1.504476e-05
598.2299999995769,1.11212e-05,598.2299999995769,3.437305e-05,598.2299999995769,9.633435e-06,598.2299999995769,1.494047e-05
598.2449999995769,1.133076e-05,598.2449999995769,3.446391e-05,598.2449999995769,8.601352e-06,598.2449999995769,1.576175e-05
598.2599999995768,1.147406e-05,598.2599999995768,3.439968e-05,598.2599999995768,9.250001e-06,598.2599999995768,1.560095e-05
598.2749999995768,1.156212e-05,598.2749999995768,3.448393e-05,598.2749999995768,1.054115e-05,598.2749999995768,1.559373e-05
598.2899999995768,1.143594e-05,598.2899999995768,3.280884e-05,598.2899999995768,1.036461e-05,598.2899999995768,1.512041e-05
598.3049999995768,1.022366e-05,598.3049999995768,3.313141e-05,598.3049999995768,1.045392e-05,598.3049999995768,1.492915e-05
598.3199999995768,9.478654e-06,598.3199999995768,3.134919e-05,598.3199999995768,1.048487e-05,598.3199999995768,1.482404e-05
598.3349999995768,9.222548e-06,598.3349999995768,2.731614e-05,598.3349999995768,1.042288e-05,598.3349999995768,1.481454e-05
598.3499999995768,9.08404e-06,598.3499999995768,2.502136e-05,598.3499999995768,1.018362e-05,598.3499999995768,1.484209e-05
598.3649999995768,9.001478e-06,598.3649999995768,2.473371e-05,598.3649999995768,1.011004e-05,598.3649999995768,1.484873e-05
598.3799999995767,8.995216e-06,598.3799999995767,2.48938e-05,598.3799999995767,1.045796e-05,598.3799999995767,1.425039e-05
598.3949999995767,9.870335e-06,598.3949999995767,3.093895e-05,598.3949999995767,1.055584e-05,598.3949999995767,1.467121e-05
598.4099999995767,1.058116e-05,598.4099999995767,3.154003e-05,598.4099999995767,1.042288e-05,598.4099999995767,1.435381e-05
598.4249999995767,1.058782e-05,598.4249999995767,3.405603e-05,598.4249999995767,1.034964e-05,598.4249999995767,1.426817e-05
598.4399999995767,1.032512e-05,598.4399999995767,3.614804e-05,598.4399999995767,9.785769e-06,598.4399999995767,1.445844e-05
598.4549999995767,1.023055e-05,598.4549999995767,3.737539e-05,598.4549999995767,1.036461e-05,598.4549999995767,1.453229e-05
598.4699999995767,1.059447e-05,598.4699999995767,3.821695e-05,598.4699999995767,1.050232e-05,598.4699999995767,1.381981e-05
598.4849999995766,1.072792e-05,598.4849999995766,3.843051e-05,598.4849999995766,1.026491e-05,598.4849999995766,1.393452e-05
598.4999999995766,1.041207e-05,598.4999999995766,3.852131e-05,598.4999999995766,1.024431e-05,598.4999999995766,1.500538e-05
598.5149999995766,1.061306e-05,598.5149999995766,3.837476e-05,598.5149999995766,9.477167e-06,598.5149999995766,1.591738e-05
598.5299999995766,1.101557e-05,598.5299999995766,3.834318e-05,598.5299999995766,8.31828e-06,598.5299999995766,1.572058e-05
598.5449999995766,1.081684e-05,598.5449999995766,3.898007e-05,598.5449999995766,8.241723e-06,598.5449999995766,1.581261e-05
598.5599999995766,1.077639e-05,598.5599999995766,3.853337e-05,598.5599999995766,8.274134e-06,598.5599999995766,1.599772e-05
598.5749999995766,1.126842e-05,598.5749999995766,3.896489e-05,598.5749999995766,8.284342e-06,598.5749999995766,1.800921e-05
598.5899999995765,1.204077e-05,598.5899999995765,4.131001e-05,598.5899999995765,8.440998e-06,598.5899999995765,1.802094e-05
598.6049999995765,1.291785e-05,598.6049999995765,4.184835e-05,598.6049999995765,8.558665e-06,598.6049999995765,1.802485e-05
598.6199999995765,1.271451e-05,598.6199999995765,4.326931e-05,598.6199999995765,8.687718e-06,598.6199999995765,1.836627e-05
598.6349999995765,1.238791e-05,598.6349999995765,4.213818e-05,598.6349999995765,8.253678e-06,598.6349999995765,1.83816e-05
598.6499999995765,1.168091e-05,598.6499999995765,4.252089e-05,598.6499999995765,8.167896e-06,598.6499999995765,1.81145e-05
598.6649999995765,1.127467e-05,598.6649999995765,4.219765e-05,598.6649999995765,8.447671e-06,598.6649999995765,1.844051e-05
598.6799999995765,1.132827e-05,598.6799999995765,3.879824e-05,598.6799999995765,8.638938e-06,598.6799999995765,1.830481e-05
598.6949999995765,1.562351e-05,598.6949999995765,4.010754e-05,598.6949999995765,8.303025e-06,598.6949999995765,1.888733e-05
598.7099999995764,1.730639e-05,598.7099999995764,3.856371e-05,598.7099999995764,8.115992e-06,598.7099999995764,1.954777e-05
598.7249999995764,1.840917e-05,598.7249999995764,4.013387e-05,598.7249999995764,8.041013e-06,598.7249999995764,1.980336e-05
598.7399999995764,1.84596e-05,598.7399999995764,4.025793e-05,598.7399999995764,8.007658e-06,598.7399999995764,1.934422e-05
598.7549999995764,1.828401e-05,598.7549999995764,4.07338e-05,598.7549999995764,7.791894e-06,598.7549999995764,1.90544e-05
598.7699999995764,1.88358e-05,598.7699999995764,4.176142e-05,598.7699999995764,7.268085e-06,598.7699999995764,1.972711e-05
598.7849999995764,1.865016e-05,598.7849999995764,4.173307e-05,598.7849999995764,7.806343e-06,598.7849999995764,1.977917e-05
598.7999999995764,1.871575e-05,598.7999999995764,4.528913e-05,598.7999999995764,7.872827e-06,598.7999999995764,1.963334e-05
598.8149999995763,1.849619e-05,598.8149999995763,4.609869e-05,598.8149999995763,7.972397e-06,598.8149999995763,1.982825e-05
598.8299999995763,1.81921e-05,598.8299999995763,4.96553e-05,598.8299999995763,8.24514e-06,598.8299999995763,1.791746e-05
598.8449999995763,1.80311e-05,598.8449999995763,5.434584e-05,598.8449999995763,8.830848e-06,598.8449999995763,1.843364e-05
598.8599999995763,1.736327e-05,598.8599999995763,5.441656e-05,598.8599999995763,8.883333e-06,598.8599999995763,1.846342e-05
598.8749999995763,1.741593e-05,598.8749999995763,5.300689e-05,598.8749999995763,9.079387e-06,598.8749999995763,1.863958e-05
598.8899999995763,1.747245e-05,598.8899999995763,5.21382e-05,598.8899999995763,9.417524e-06,598.8899999995763,1.93085e-05
598.9049999995763,1.753201e-05,598.9049999995763,5.13144e-05,598.9049999995763,9.457824e-06,598.9049999995763,1.98609e-05
598.9199999995762,1.77079e-05,598.9199999995762,5.156961e-05,598.9199999995762,9.289512e-06,598.9199999995762,1.984742e-05
598.9349999995762,1.659502e-05,598.9349999995762,5.210036e-05,598.9349999995762,9.153557e-06,598.9349999995762,2.131157e-05
598.9499999995762,1.411831e-05,598.9499999995762,5.090206e-05,598.9499999995762,9.13507e-06,598.9499999995762,2.04487e-05
598.9649999995762,1.163741e-05,598.9649999995762,5.015997e-05,598.9649999995762,9.054529e-06,598.9649999995762,2.197864e-05
598.9799999995762,1.088305e-05,598.9799999995762,5.012064e-05,598.9799999995762,9.090241e-06,598.9799999995762,2.198505e-05
598.9949999995762,1.109457e-05,598.9949999995762,5.143997e-05,598.9949999995762,9.165859e-06,598.9949999995762,2.16545e-05
599.0099999995762,1.173505e-05,599.0099999995762,5.090649e-05,599.0099999995762,9.269777e-06,599.0099999995762,2.067341e-05
599.0249999995762,1.287634e-05,599.0249999995762,5.142217e-05,599.0249999995762,1.00289e-05,599.0249999995762,2.078554e-05
599.0399999995761,1.321753e-05,599.0399999995761,5.483021e-05,599.0399999995761,1.044449e-05,599.0399999995761,2.1978e-05
599.0549999995761,1.322818e-05,599.0549999995761,5.11001e-05,599.0549999995761,1.054649e-05,599.0549999995761,2.367329e-05
599.0699999995761,1.334269e-05,599.0699999995761,0.0002278358,599.0699999995761,1.083115e-05,599.0699999995761,2.662832e-05
599.0849999995761,1.328344e-05,599.0849999995761,0.000301559,599.0849999995761,1.045123e-05,599.0849999995761,2.75155e-05
599.0999999995761,1.301562e-05,599.0999999995761,0.0003537245,599.0999999995761,1.051305e-05,599.0999999995761,2.710388e-05
599.1149999995761,1.333002e-05,599.1149999995761,0.0003653498,599.1149999995761,1.051037e-05,599.1149999995761,2.798908e-05
599.1299999995761,1.357194e-05,599.1299999995761,0.0003659549,599.1299999995761,1.045123e-05,599.1299999995761,2.848595e-05
599.144999999576,1.354284e-05,599.144999999576,0.0003685218,599.144999999576,1.05785e-05,599.144999999576,2.859306e-05
599.159999999576,1.3497e-05,599.159999999576,0.000370966,599.159999999576,1.113765e-05,599.159999999576,2.984745e-05
599.174999999576,1.338802e-05,599.174999999576,0.0003715199,599.174999999576,1.136055e-05,599.174999999576,2.996473e-05
599.189999999576,1.284348e-05,599.189999999576,0.0003718179,599.189999999576,1.185092e-05,599.189999999576,2.999809e-05
599.204999999576,1.287853e-05,599.204999999576,0.0003720039,599.204999999576,1.236059e-05,599.204999999576,2.996003e-05
599.219999999576,1.270897e-05,599.219999999576,0.0003720093,599.219999999576,1.246161e-05,599.219999999576,2.880363e-05
599.234999999576,1.308363e-05,599.234999999576,0.0003720046,599.234999999576,1.248306e-05,599.234999999576,2.889592e-05
599.249999999576,1.313628e-05,599.249999999576,0.0003717702,599.249999999576,1.230577e-05,599.249999999576,2.914251e-05
599.2649999995759,1.153895e-05,599.2649999995759,0.0003717365,599.2649999995759,1.226104e-05,599.2649999995759,2.943637e-05
599.2799999995759,1.059845e-05,599.2799999995759,0.0005255638,599.2799999995759,1.154139e-05,599.2799999995759,2.83839e-05
599.2949999995759,1.028547e-05,599.2949999995759,0.0005523338,599.2949999995759,1.141251e-05,599.2949999995759,2.819817e-05
599.3099999995759,1.030873e-05,599.3099999995759,0.0006001973,599.3099999995759,1.139769e-05,599.3099999995759,2.7977e-05
599.3249999995759,1.027588e-05,599.3249999995759,0.0005363324,599.3249999995759,1.137047e-05,599.3249999995759,2.480083e-05
599.3399999995759,1.056117e-05,599.3399999995759,0.0005199895,599.3399999995759,1.153895e-05,599.3399999995759,2.533523e-05
599.3549999995759,1.056517e-05,599.3549999995759,0.0004931249,599.3549999995759,1.131085e-05,599.3549999995759,2.578822e-05
599.3699999995758,9.850334e-06,599.3699999995758,0.0004916282,599.3699999995758,1.262557e-05,599.3699999995758,2.445593e-05
599.3849999995758,1.001063e-05,599.3849999995758,0.0004933225,599.3849999995758,1.295813e-05,599.3849999995758,2.398894e-05
599.3999999995758,9.821691e-06,599.3999999995758,0.0004914748,599.3999999995758,1.361339e-05,599.3999999995758,2.321665e-05
599.4149999995758,9.988088e-06,599.4149999995758,0.0004909146,599.4149999995758,1.322179e-05,599.4149999995758,2.162782e-05
599.4299999995758,1.01933e-05,599.4299999995758,0.0004908221,599.4299999995758,1.357816e-05,599.4299999995758,2.092064e-05
599.4449999995758,1.002469e-05,599.4449999995758,0.0004906086,599.4449999995758,1.306639e-05,599.4449999995758,1.989633e-05
599.4599999995758,9.891719e-06,599.4599999995758,0.000491404,599.4599999995758,1.295813e-05,599.4599999995758,1.998957e-05
599.4749999995757,9.821691e-06,599.4749999995757,0.0004917525,599.4749999995757,1.310944e-05,599.4749999995757,1.980052e-05
599.4899999995757,9.67866e-06,599.4899999995757,0.0004919061,599.4899999995757,1.308686e-05,599.4899999995757,1.946183e-05
599.5049999995757,1.041612e-05,599.5049999995757,0.0004920913,599.5049999995757,1.313628e-05,599.5049999995757,2.212238e-05
599.5199999995757,1.095273e-05,599.5199999995757,0.0004922237,599.5199999995757,1.32154e-05,599.5199999995757,2.273165e-05
599.5349999995757,1.126467e-05,599.5349999995757,0.000279905,599.5349999995757,1.335747e-05,599.5349999995757,2.420756e-05
599.5499999995757,1.466833e-05,599.5499999995757,0.0002281854,599.5499999995757,1.335325e-05,599.5499999995757,2.17674e-05
599.5649999995757,1.691701e-05,599.5649999995757,0.0001083434,599.5649999995757,1.316841e-05,599.5649999995757,2.259927e-05
599.5799999995756,1.682432e-05,599.5799999995756,8.600321e-05,599.5799999995756,1.339853e-05,599.5799999995756,2.251371e-05
599.5949999995756,1.662724e-05,599.5949999995756,8.34356e-05,599.5949999995756,1.334797e-05,599.5949999995756,2.24008e-05
599.6099999995756,1.68653e-05,599.6099999995756,7.444715e-05,599.6099999995756,1.351994e-05,599.6099999995756,2.228858e-05
599.6249999995756,1.73251e-05,599.6249999995756,6.357123e-05,599.6249999995756,1.287853e-05,599.6249999995756,2.33401e-05
599.6399999995756,1.767366e-05,599.6399999995756,5.845734e-05,599.6399999995756,1.227941e-05,599.6399999995756,2.259365e-05
599.6549999995756,1.766489e-05,599.6549999995756,6.089852e-05,599.6549999995756,1.16059e-05,599.6549999995756,2.335639e-05
599.6699999995756,1.78789e-05,599.6699999995756,6.257176e-05,599.6699999995756,1.190074e-05,599.6699999995756,2.333587e-05
599.6849999995756,1.790331e-05,599.6849999995756,6.356613e-05,599.6849999995756,1.156456e-05,599.6849999995756,2.333406e-05
599.6999999995755,1.792297e-05,599.6999999995755,8.093345e-05,599.6999999995755,1.161439e-05,599.6999999995755,2.342745e-05
599.7149999995755,1.788599e-05,599.7149999995755,8.482766e-05,599.7149999995755,1.153651e-05,599.7149999995755,2.333165e-05
599.7299999995755,1.805999e-05,599.7299999995755,8.853662e-05,599.7299999995755,1.177819e-05,599.7299999995755,2.337026e-05
599.7449999995755,1.798025e-05,599.7449999995755,9.319972e-05,599.7449999995755,1.262891e-05,599.7449999995755,2.245921e-05
599.7599999995755,1.77238e-05,599.7599999995755,0.0001094777,599.7599999995755,1.298854e-05,599.7599999995755,2.035548e-05
599.7749999995755,1.716007e-05,599.7749999995755,0.0001109264,599.7749999995755,1.383917e-05,599.7749999995755,1.844204e-05
599.7899999995755,1.725177e-05,599.7899999995755,0.0001157947,599.7899999995755,1.378716e-05,599.7899999995755,1.798182e-05
599.8049999995754,1.638659e-05,599.8049999995754,0.0001187739,599.8049999995754,1.367946e-05,599.8049999995754,1.793711e-05
599.8199999995754,1.743129e-05,599.8199999995754,0.0001225464,599.8199999995754,1.378818e-05,599.8199999995754,1.702657e-05
599.8349999995754,1.757855e-05,599.8349999995754,0.0001224001,599.8349999995754,1.344052e-05,599.8349999995754,1.632026e-05
599.8499999995754,1.78363e-05,599.8499999995754,0.0001231459,599.8499999995754,1.508404e-05,599.8499999995754,1.595539e-05
599.8649999995754,1.725911e-05,599.8649999995754,0.0001212978,599.8649999995754,1.511669e-05,599.8649999995754,1.772221e-05
599.8799999995754,1.707613e-05,599.8799999995754,0.0001214871,599.8799999995754,1.500538e-05,599.8799999995754,1.648515e-05
599.8949999995754,1.672439e-05,599.8949999995754,0.0001197112,599.8949999995754,1.524104e-05,599.8949999995754,1.60329e-05
599.9099999995753,1.680589e-05,599.9099999995753,0.0001191089,599.9099999995753,1.592888e-05,599.9099999995753,1.794575e-05
599.9249999995753,1.635992e-05,599.9249999995753,0.000117405,599.9249999995753,1.586686e-05,599.9249999995753,1.895211e-05
599.9399999995753,1.645779e-05,599.9399999995753,0.0001145073,599.9399999995753,1.5768e-05,599.9399999995753,1.913113e-05
599.9549999995753,1.657548e-05,599.9549999995753,9.948519e-05,599.9549999995753,1.588372e-05,599.9549999995753,1.981403e-05
599.9699999995753,1.639003e-05,599.9699999995753,9.420231e-05,599.9699999995753,1.634097e-05,599.9699999995753,2.102073e-05
599.9849999995753,1.652186e-05,599.9849999995753,8.971664e-05,599.9849999995753,1.600916e-05,599.9849999995753,2.126326e-05
599.9999999995753,1.668307e-05,599.9999999995753,8.309334e-05,599.9999999995753,1.608027e-05,599.9999999995753,2.109899e-05
600.0149999995753,1.661029e-05,600.0149999995753,5.852622e-05,600.0149999995753,1.566133e-05,600.0149999995753,2.128577e-05
600.0299999995752,1.962329e-05,600.0299999995752,5.793936e-05,600.0299999995752,1.520773e-05,600.0299999995752,2.116765e-05
600.0449999995752,2.051266e-05,600.0449999995752,5.08658e-05,600.0449999995752,1.503727e-05,600.0449999995752,2.162912e-05
600.0599999995752,1.896176e-05,600.0599999995752,3.510939e-05,600.0599999995752,1.507843e-05,600.0599999995752,2.142693e-05
600.0749999995752,1.881859e-05,600.0749999995752,3.123665e-05,600.0749999995752,1.49433e-05,600.0749999995752,2.160957e-05
600.0899999995752,1.873231e-05,600.0899999995752,3.04201e-05,600.0899999995752,1.485632e-05,600.0899999995752,2.191959e-05
600.1049999995752,1.867733e-05,600.1049999995752,2.838588e-05,600.1049999995752,1.464046e-05,600.1049999995752,2.185137e-05
600.1199999995752,1.881335e-05,600.1199999995752,2.787359e-05,600.1199999995752,1.403725e-05,600.1199999995752,2.073737e-05
600.1349999995751,1.93755e-05,600.1349999995751,2.66008e-05,600.1349999995751,1.385138e-05,600.1349999995751,2.050648e-05
600.1499999995751,1.945386e-05,600.1499999995751,2.682649e-05,600.1499999995751,1.32898e-05,600.1499999995751,2.133931e-05
600.1649999995751,1.951026e-05,600.1649999995751,2.630311e-05,600.1649999995751,1.324734e-05,600.1649999995751,1.987933e-05
600.1799999995751,1.95888e-05,600.1799999995751,2.436244e-05,600.1799999995751,1.308794e-05,600.1799999995751,1.9176e-05
600.1949999995751,2.100866e-05,600.1949999995751,2.492773e-05,600.1949999995751,1.324202e-05,600.1949999995751,1.911419e-05
600.2099999995751,2.123542e-05,600.2099999995751,2.600363e-05,600.2099999995751,1.317483e-05,600.2099999995751,2.09038e-05
600.2249999995751,2.194528e-05,600.2249999995751,2.793366e-05,600.2249999995751,1.234462e-05,600.2249999995751,2.179521e-05
600.239999999575,2.190223e-05,600.239999999575,3.026271e-05,600.239999999575,1.2397e-05,600.239999999575,2.187843e-05
600.254999999575,2.233657e-05,600.254999999575,3.342603e-05,600.254999999575,1.191138e-05,600.254999999575,2.443288e-05
600.269999999575,2.245858e-05,600.269999999575,3.444878e-05,600.269999999575,1.153162e-05,600.269999999575,2.569848e-05
600.284999999575,1.919509e-05,600.284999999575,3.59213e-05,600.284999999575,1.169778e-05,600.284999999575,2.60058e-05
600.299999999575,1.966417e-05,600.299999999575,3.658613e-05,600.299999999575,1.194681e-05,600.299999999575,2.633094e-05
600.314999999575,1.779123e-05,600.314999999575,3.801739e-05,600.314999999575,1.328874e-05,600.314999999575,2.718484e-05
600.329999999575,1.785998e-05,600.329999999575,3.813023e-05,600.329999999575,1.759617e-05,600.329999999575,2.819268e-05
600.344999999575,1.815955e-05,600.344999999575,4.274854e-05,600.344999999575,1.744502e-05,600.344999999575,2.859601e-05
600.3599999995749,1.805765e-05,600.3599999995749,4.295137e-05,600.3599999995749,1.81417e-05,600.3599999995749,2.906798e-05
600.3749999995749,1.758336e-05,600.3749999995749,4.329079e-05,600.3749999995749,1.803969e-05,600.3749999995749,2.969556e-05
600.3899999995749,1.694363e-05,600.3899999995749,4.429916e-05,600.3899999995749,1.793711e-05,600.3899999995749,3.001734e-05
600.4049999995749,1.681427e-05,600.4049999995749,4.585542e-05,600.4049999995749,1.82632e-05,600.4049999995749,2.955624e-05
600.4199999995749,1.697768e-05,600.4199999995749,4.624483e-05,600.4199999995749,1.79481e-05,600.4199999995749,2.923903e-05
600.4349999995749,1.662216e-05,600.4349999995749,4.745564e-05,600.4349999995749,1.801938e-05,600.4349999995749,2.945025e-05
600.4499999995749,1.587573e-05,600.4499999995749,4.781907e-05,600.4499999995749,1.788756e-05,600.4499999995749,2.951571e-05
600.4649999995748,1.575907e-05,600.4649999995748,4.786647e-05,600.4649999995748,1.8158e-05,600.4649999995748,2.684749e-05
600.4799999995748,1.436852e-05,600.4799999995748,4.639324e-05,600.4799999995748,1.879087e-05,600.4799999995748,2.658278e-05
600.4949999995748,1.384324e-05,600.4949999995748,4.638261e-05,600.4949999995748,1.894913e-05,600.4949999995748,2.528291e-05
600.5099999995748,1.351473e-05,600.5099999995748,4.497389e-05,600.5099999995748,1.918775e-05,600.5099999995748,2.734088e-05
600.5249999995748,1.306963e-05,600.5249999995748,4.381347e-05,600.5249999995748,1.97421e-05,600.5249999995748,2.725781e-05
600.5399999995748,1.212936e-05,600.5399999995748,4.270502e-05,600.5399999995748,1.947558e-05,600.5399999995748,3.145953e-05
600.5549999995748,1.128591e-05,600.5549999995748,4.102704e-05,600.5549999995748,1.946617e-05,600.5549999995748,3.092801e-05
600.5699999995747,1.292548e-05,600.5699999995747,4.047534e-05,600.5699999995747,1.552038e-05,600.5699999995747,3.086464e-05
600.5849999995747,1.442625e-05,600.5849999995747,4.012475e-05,600.5849999995747,1.475069e-05,600.5849999995747,2.974201e-05
600.5999999995747,1.584643e-05,600.5999999995747,3.508451e-05,600.5999999995747,1.381879e-05,600.5999999995747,2.912463e-05
600.6149999995747,1.619289e-05,600.6149999995747,3.449496e-05,600.6149999995747,1.32154e-05,600.6149999995747,2.910672e-05
600.6299999995747,1.63582e-05,600.6299999995747,3.488277e-05,600.6299999995747,1.333319e-05,600.6299999995747,2.865359e-05
600.6449999995747,1.650821e-05,600.6449999995747,3.319131e-05,600.6449999995747,1.323989e-05,600.6449999995747,2.846814e-05
600.6599999995747,1.689034e-05,600.6599999995747,3.109427e-05,600.6599999995747,1.262557e-05,600.6599999995747,2.845973e-05
600.6749999995747,1.699261e-05,600.6749999995747,2.993087e-05,600.6749999995747,1.275654e-05,600.6749999995747,2.819717e-05
600.6899999995746,1.760498e-05,600.6899999995746,2.83009e-05,600.6899999995746,1.263003e-05,600.6899999995746,2.875077e-05
600.7049999995746,1.736571e-05,600.7049999995746,2.624735e-05,600.7049999995746,1.287087e-05,600.7049999995746,2.815167e-05
600.7199999995746,1.719124e-05,600.7199999995746,2.186426e-05,600.7199999995746,1.171944e-05,600.7199999995746,2.828048e-05
600.7349999995746,1.790567e-05,600.7349999995746,2.06591e-05,600.7349999995746,1.115787e-05,600.7349999995746,2.814317e-05
600.7499999995746,1.769835e-05,600.7499999995746,1.98389e-05,600.7499999995746,1.081814e-05,600.7499999995746,2.789531e-05
600.7649999995746,1.778489e-05,600.7649999995746,1.898404e-05,600.7649999995746,1.080642e-05,600.7649999995746,2.47599e-05
600.7799999995746,1.770392e-05,600.7799999995746,2.012512e-05,600.7799999995746,1.005556e-05,600.7799999995746,2.299167e-05
600.7949999995745,1.788126e-05,600.7949999995745,1.971996e-05,600.7949999995745,1.000359e-05,600.7949999995745,1.838007e-05
600.8099999995745,1.805062e-05,600.8099999995745,1.995924e-05,600.8099999995745,9.435456e-06,600.8099999995745,1.817583e-05
600.8249999995745,1.615979e-05,600.8249999995745,1.985948e-05,600.8249999995745,9.331874e-06,600.8249999995745,1.820913e-05
600.8399999995745,1.478789e-05,600.8399999995745,1.929828e-05,600.8399999995745,9.113456e-06,600.8399999995745,1.812927e-05
600.8549999995745,1.329298e-05,600.8549999995745,1.902407e-05,600.8549999995745,8.880161e-06,600.8549999995745,1.782208e-05
600.8699999995745,1.329722e-05,600.8699999995745,1.95384e-05,600.8699999995745,9.127357e-06,600.8699999995745,1.809349e-05
600.8849999995745,1.365781e-05,600.8849999995745,1.859115e-05,600.8849999995745,9.38606e-06,600.8849999995745,1.738516e-05
600.8999999995744,1.395371e-05,600.8999999995744,2.251496e-05,600.8999999995744,9.615872e-06,600.8999999995744,1.759057e-05
600.9149999995744,1.356363e-05,600.9149999995744,2.893781e-05,600.9149999995744,1.042559e-05,600.9149999995744,1.736003e-05
600.9299999995744,1.331204e-05,600.9299999995744,2.939902e-05,600.9299999995744,1.081293e-05,600.9299999995744,1.721335e-05
600.9449999995744,1.27764e-05,600.9449999995744,3.0279e-05,600.9449999995744,1.054382e-05,600.9449999995744,1.664757e-05
600.9599999995744,1.259876e-05,600.9599999995744,3.052088e-05,600.9599999995744,1.052644e-05,600.9599999995744,1.737382e-05
600.9749999995744,1.245595e-05,600.9749999995744,3.076132e-05,600.9749999995744,1.032512e-05,600.9749999995744,2.069657e-05
600.9899999995744,1.214909e-05,600.9899999995744,3.129927e-05,600.9899999995744,1.036461e-05,600.9899999995744,2.17428e-05
601.0049999995744,1.253149e-05,601.0049999995744,3.145819e-05,601.0049999995744,1.060111e-05,601.0049999995744,2.131751e-05
601.0199999995743,1.332791e-05,601.0199999995743,3.168752e-05,601.0199999995743,1.082855e-05,601.0199999995743,2.086603e-05
601.0349999995743,1.375545e-05,601.0349999995743,3.103578e-05,601.0349999995743,1.080511e-05,601.0349999995743,2.051472e-05
601.0499999995743,1.3989e-05,601.0499999995743,3.112823e-05,601.0499999995743,1.145809e-05,601.0499999995743,2.092805e-05
601.0649999995743,1.376671e-05,601.0649999995743,3.142907e-05,601.0649999995743,1.235033e-05,601.0649999995743,2.105622e-05
601.0799999995743,1.403023e-05,601.0799999995743,3.145147e-05,601.0799999995743,1.230004e-05,601.0799999995743,2.098317e-05
601.0949999995743,1.51502e-05,601.0949999995743,3.190328e-05,601.0949999995743,1.256293e-05,601.0949999995743,2.100196e-05
601.1099999995743,1.576264e-05,601.1099999995743,3.453332e-05,601.1099999995743,1.261217e-05,601.1099999995743,2.043767e-05
601.1249999995742,1.541748e-05,601.1249999995742,3.457572e-05,601.1249999995742,1.252925e-05,601.1249999995742,2.003321e-05
601.1399999995742,1.488284e-05,601.1399999995742,3.293825e-05,601.1399999995742,1.222076e-05,601.1399999995742,1.978486e-05
601.1549999995742,1.468753e-05,601.1549999995742,2.94904e-05,601.1549999995742,1.172184e-05,601.1549999995742,1.976705e-05
601.1699999995742,1.50999e-05,601.1699999995742,2.700339e-05,601.1699999995742,1.142362e-05,601.1699999995742,1.995148e-05
601.1849999995742,1.535981e-05,601.1849999995742,2.644092e-05,601.1849999995742,1.105259e-05,601.1849999995742,2.073329e-05
601.1999999995742,1.520588e-05,601.1999999995742,2.608423e-05,601.1999999995742,1.116544e-05,601.1999999995742,2.061815e-05
601.2149999995742,1.522625e-05,601.2149999995742,2.591355e-05,601.2149999995742,1.137171e-05,601.2149999995742,2.208159e-05
601.2299999995741,1.502509e-05,601.2299999995741,2.545006e-05,601.2299999995741,1.175784e-05,601.2299999995741,1.890745e-05
601.2449999995741,1.538822e-05,601.2449999995741,2.502305e-05,601.2449999995741,1.168935e-05,601.2449999995741,1.806544e-05
601.2599999995741,1.479265e-05,601.2599999995741,2.587874e-05,601.2599999995741,1.204779e-05,601.2599999995741,1.787575e-05
601.2749999995741,1.458841e-05,601.2749999995741,2.58417e-05,601.2749999995741,1.178177e-05,601.2749999995741,1.801938e-05
601.2899999995741,1.500257e-05,601.2899999995741,2.578877e-05,601.2899999995741,1.166522e-05,601.2899999995741,1.787496e-05
601.3049999995741,1.527705e-05,601.3049999995741,2.549375e-05,601.3049999995741,1.143841e-05,601.3049999995741,1.780864e-05
601.3199999995741,1.519012e-05,601.3199999995741,2.513763e-05,601.3199999995741,1.087658e-05,601.3199999995741,1.863807e-05
601.334999999574,1.598538e-05,601.334999999574,2.496331e-05,601.334999999574,1.135435e-05,601.334999999574,1.92376e-05
601.349999999574,1.492349e-05,601.349999999574,2.174474e-05,601.349999999574,1.136923e-05,601.349999999574,1.903073e-05
601.364999999574,1.519012e-05,601.364999999574,2.231322e-05,601.364999999574,1.136179e-05,601.364999999574,1.940311e-05
601.379999999574,1.522255e-05,601.379999999574,2.326635e-05,601.379999999574,1.162894e-05,601.379999999574,1.934349e-05
601.394999999574,1.544213e-05,601.394999999574,2.404525e-05,601.394999999574,1.153162e-05,601.394999999574,1.914732e-05
601.409999999574,1.553852e-05,601.409999999574,2.352406e-05,601.409999999574,1.160833e-05,601.409999999574,1.923614e-05
601.424999999574,1.613711e-05,601.424999999574,2.309681e-05,601.424999999574,1.331839e-05,601.424999999574,1.901296e-05
601.439999999574,1.603378e-05,601.439999999574,2.513931e-05,601.439999999574,1.398497e-05,601.439999999574,1.917526e-05
601.4549999995739,1.627359e-05,601.4549999995739,2.501066e-05,601.4549999995739,1.482309e-05,601.4549999995739,1.884402e-05
601.4699999995739,1.604256e-05,601.4699999995739,2.559687e-05,601.4699999995739,1.475738e-05,601.4699999995739,1.6678e-05
601.4849999995739,1.602938e-05,601.4849999995739,2.540907e-05,601.4849999995739,1.479741e-05,601.4849999995739,1.672018e-05
601.4999999995739,1.553218e-05,601.4999999995739,2.539853e-05,601.4999999995739,1.479646e-05,601.4999999995739,1.682767e-05
601.5149999995739,1.597833e-05,601.5149999995739,2.466185e-05,601.5149999995739,1.430466e-05,601.5149999995739,1.65193e-05
601.5299999995739,1.564964e-05,601.5299999995739,2.513203e-05,601.5299999995739,1.51892e-05,601.5299999995739,1.680757e-05
601.5449999995739,1.549495e-05,601.5449999995739,2.749041e-05,601.5449999995739,1.505412e-05,601.5449999995739,1.73129e-05
601.5599999995738,1.510084e-05,601.5599999995738,2.904228e-05,601.5599999995738,1.50887e-05,601.5599999995738,1.723216e-05
601.5749999995738,1.495178e-05,601.5749999995738,2.91855e-05,601.5749999995738,1.434792e-05,601.5749999995738,1.716664e-05
601.5899999995738,1.400209e-05,601.5899999995738,2.91884e-05,601.5899999995738,1.444089e-05,601.5899999995738,1.858281e-05
601.6049999995738,1.36774e-05,601.6049999995738,2.830338e-05,601.6049999995738,1.427015e-05,601.6049999995738,1.884327e-05
601.6199999995738,1.348134e-05,601.6199999995738,2.892808e-05,601.6199999995738,1.459323e-05,601.6199999995738,1.866224e-05
601.6349999995738,1.406533e-05,601.6349999995738,2.805544e-05,601.6349999995738,1.452454e-05,601.6349999995738,1.940239e-05
601.6499999995738,1.450707e-05,601.6499999995738,2.871645e-05,601.6499999995738,1.478503e-05,601.6499999995738,1.929171e-05
601.6649999995738,1.443796e-05,601.6649999995738,2.912366e-05,601.6649999995738,1.479265e-05,601.6649999995738,2.035133e-05
601.6799999995737,1.428692e-05,601.6799999995737,3.222137e-05,601.6799999995737,1.337644e-05,601.6799999995737,1.981545e-05
601.6949999995737,1.473349e-05,601.6949999995737,3.639465e-05,601.6949999995737,1.350117e-05,601.6949999995737,2.045971e-05
601.7099999995737,1.435185e-05,601.7099999995737,3.909987e-05,601.7099999995737,1.261217e-05,601.7099999995737,2.005219e-05
601.7249999995737,1.472201e-05,601.7249999995737,3.871464e-05,601.7249999995737,1.222883e-05,601.7249999995737,2.034025e-05
601.7399999995737,1.533687e-05,601.7399999995737,3.905048e-05,601.7399999995737,1.21282e-05,601.7399999995737,2.07197e-05
601.7549999995737,1.632803e-05,601.7549999995737,3.894681e-05,601.7549999995737,1.252362e-05,601.7549999995737,2.084509e-05
601.7699999995737,1.599419e-05,601.7699999995737,3.883307e-05,601.7699999995737,1.26144e-05,601.7699999995737,2.087413e-05
601.7849999995736,1.628397e-05,601.7849999995736,3.760235e-05,601.7849999995736,1.229546e-05,601.7849999995736,2.1149e-05
601.7999999995736,1.593861e-05,601.7999999995736,3.636871e-05,601.7999999995736,1.234348e-05,601.7999999995736,2.07197e-05
601.8149999995736,1.58135e-05,601.8149999995736,3.59793e-05,601.8149999995736,1.236059e-05,601.8149999995736,2.247927e-05
601.8299999995736,1.579567e-05,601.8299999995736,3.604736e-05,601.8299999995736,1.204779e-05,601.8299999995736,2.367448e-05
601.8449999995736,1.579567e-05,601.8449999995736,3.625543e-05,601.8449999995736,1.203141e-05,601.8449999995736,2.342264e-05
601.8599999995736,1.583398e-05,601.8599999995736,3.62566e-05,601.8599999995736,1.238109e-05,601.8599999995736,2.355697e-05
601.8749999995736,1.569458e-05,601.8749999995736,3.571601e-05,601.8749999995736,1.187111e-05,601.8749999995736,2.400831e-05
601.8899999995735,1.548313e-05,601.8899999995735,3.518914e-05,601.8899999995735,1.153162e-05,601.8899999995735,2.343466e-05
601.9049999995735,1.490743e-05,601.9049999995735,3.494894e-05,601.9049999995735,1.127217e-05,601.9049999995735,2.370837e-05
601.9199999995735,1.450901e-05,601.9199999995735,3.37001e-05,601.9199999995735,1.046066e-05,601.9199999995735,2.40909e-05
601.9349999995735,1.353036e-05,601.9349999995735,2.86226e-05,601.9349999995735,1.006816e-05,601.9349999995735,2.425581e-05
601.9499999995735,1.345414e-05,601.9499999995735,2.083698e-05,601.9499999995735,9.761266e-06,601.9499999995735,2.405813e-05
601.9649999995735,1.348134e-05,601.9649999995735,1.993382e-05,601.9649999995735,9.951351e-06,601.9649999995735,2.580242e-05
601.9799999995735,1.386358e-05,601.9799999995735,1.950665e-05,601.9799999995735,1.040936e-05,601.9799999995735,2.595049e-05
601.9949999995735,1.347715e-05,601.9949999995735,1.874358e-05,601.9949999995735,1.034284e-05,601.9949999995735,2.579423e-05
602.0099999995734,1.257414e-05,602.0099999995734,1.883879e-05,602.0099999995734,9.637821e-06,602.0099999995734,2.634966e-05
602.0249999995734,1.249547e-05,602.0249999995734,2.197415e-05,602.0249999995734,9.486082e-06,602.0249999995734,2.628168e-05
602.0399999995734,1.215372e-05,602.0399999995734,2.142101e-05,602.0399999995734,9.181215e-06,602.0399999995734,2.589996e-05
602.0549999995734,1.205597e-05,602.0549999995734,2.147487e-05,602.0549999995734,9.284961e-06,602.0549999995734,2.578494e-05
602.0699999995734,1.220923e-05,602.0699999995734,2.196004e-05,602.0699999995734,9.454845e-06,602.0699999995734,2.455996e-05
602.0849999995734,1.242765e-05,602.0849999995734,2.199658e-05,602.0849999995734,9.729466e-06,602.0849999995734,2.370302e-05
602.0999999995734,1.2518e-05,602.0999999995734,2.335096e-05,602.0999999995734,9.536437e-06,602.0999999995734,2.46367e-05
602.1149999995733,1.290803e-05,602.1149999995733,2.308034e-05,602.1149999995733,9.775687e-06,602.1149999995733,2.5036e-05
602.1299999995733,1.288509e-05,602.1299999995733,2.26963e-05,602.1299999995733,9.903105e-06,602.1299999995733,2.522881e-05
602.1449999995733,1.250674e-05,602.1449999995733,2.23271e-05,602.1449999995733,1.000077e-05,602.1449999995733,2.509444e-05
602.1599999995733,1.3602e-05,602.1599999995733,2.303696e-05,602.1599999995733,9.90595e-06,602.1599999995733,2.583734e-05
602.1749999995733,1.388794e-05,602.1749999995733,2.336363e-05,602.1749999995733,1.011701e-05,602.1749999995733,2.485643e-05
602.1899999995733,1.3892e-05,602.1899999995733,2.373331e-05,602.1899999995733,1.02209e-05,602.1899999995733,2.504837e-05
602.2049999995733,1.365059e-05,602.2049999995733,2.391366e-05,602.2049999995733,9.965496e-06,602.2049999995733,2.506524e-05
602.2199999995732,1.320793e-05,602.2199999995732,2.646701e-05,602.2199999995732,9.788648e-06,602.2199999995732,2.325363e-05
602.2349999995732,1.24503e-05,602.2349999995732,2.957006e-05,602.2349999995732,9.785769e-06,602.2349999995732,2.338713e-05
602.2499999995732,1.228629e-05,602.2499999995732,3.059832e-05,602.2499999995732,9.838886e-06,602.2499999995732,2.319419e-05
602.2649999995732,1.223343e-05,602.2649999995732,3.086829e-05,602.2649999995732,9.79584e-06,602.2649999995732,2.28133e-05
602.2799999995732,1.217457e-05,602.2799999995732,2.878994e-05,602.2799999995732,9.562988e-06,602.2799999995732,2.304797e-05
602.2949999995732,1.270786e-05,602.2949999995732,2.876057e-05,602.2949999995732,9.477167e-06,602.2949999995732,2.333165e-05
602.3099999995732,1.261217e-05,602.3099999995732,2.962765e-05,602.3099999995732,9.617337e-06,602.3099999995732,2.356654e-05
602.3249999995732,1.310837e-05,602.3249999995732,2.980778e-05,602.3249999995732,9.517214e-06,602.3249999995732,2.243976e-05
602.3399999995731,1.371853e-05,602.3399999995731,3.022545e-05,602.3399999995731,9.50833e-06,602.3399999995731,2.164019e-05
602.3549999995731,1.403725e-05,602.3549999995731,3.085551e-05,602.3549999995731,9.257612e-06,602.3549999995731,2.022009e-05
602.3699999995731,1.442039e-05,602.3699999995731,3.192094e-05,602.3699999995731,9.904527e-06,602.3699999995731,1.896548e-05
602.3849999995731,1.444186e-05,602.3849999995731,3.260685e-05,602.3849999995731,1.021263e-05,602.3849999995731,1.850838e-05
602.3999999995731,1.484114e-05,602.3999999995731,3.284831e-05,602.3999999995731,1.111993e-05,602.3999999995731,1.85099e-05
602.4149999995731,1.347297e-05,602.4149999995731,3.337373e-05,602.4149999995731,1.152551e-05,602.4149999995731,1.673197e-05
602.429999999573,1.336379e-05,602.429999999573,3.424659e-05,602.429999999573,1.175304e-05,602.429999999573,1.649455e-05
602.444999999573,1.327389e-05,602.444999999573,3.472208e-05,602.444999999573,1.186517e-05,602.444999999573,1.722235e-05
602.459999999573,1.346251e-05,602.459999999573,3.353206e-05,602.459999999573,1.188297e-05,602.459999999573,1.733648e-05
602.474999999573,1.404628e-05,602.474999999573,3.263967e-05,602.474999999573,1.182116e-05,602.474999999573,1.735272e-05
602.489999999573,1.422368e-05,602.489999999573,3.047608e-05,602.489999999573,1.251012e-05,602.489999999573,1.788914e-05
602.504999999573,1.397591e-05,602.504999999573,2.994028e-05,602.504999999573,1.24469e-05,602.504999999573,1.827245e-05
602.519999999573,1.402722e-05,602.519999999573,3.038164e-05,602.519999999573,1.31277e-05,602.519999999573,1.82524e-05
602.534999999573,1.386459e-05,602.534999999573,3.2217e-05,602.534999999573,1.337012e-05,602.534999999573,1.77627e-05
602.549999999573,1.37708e-05,602.549999999573,3.205042e-05,602.549999999573,1.300696e-05,602.549999999573,1.69195e-05
602.5649999995729,1.346565e-05,602.5649999995729,3.230607e-05,602.5649999995729,1.286759e-05,602.5649999995729,1.6521e-05
602.5799999995729,1.391226e-05,602.5799999995729,3.115537e-05,602.5799999995729,1.294726e-05,602.5799999995729,1.614671e-05
602.5949999995729,1.299396e-05,602.5949999995729,3.050334e-05,602.5949999995729,1.289056e-05,602.5949999995729,1.60864e-05
602.6099999995729,1.286431e-05,602.6099999995729,2.911205e-05,602.6099999995729,1.274218e-05,602.6099999995729,1.610478e-05
602.6249999995729,1.211076e-05,602.6249999995729,3.39989e-05,602.6249999995729,1.273997e-05,602.6249999995729,1.69561e-05
602.6399999995729,1.237084e-05,602.6399999995729,3.481243e-05,602.6399999995729,1.244124e-05,602.6399999995729,1.715679e-05
602.6549999995729,1.288072e-05,602.6549999995729,3.531781e-05,602.6549999995729,1.147038e-05,602.6549999995729,1.848096e-05
602.6699999995728,1.303077e-05,602.6699999995728,3.812802e-05,602.6699999995728,1.118309e-05,602.6699999995728,1.831942e-05
602.6849999995728,1.320793e-05,602.6849999995728,3.781081e-05,602.6849999995728,1.072398e-05,602.6849999995728,1.800843e-05
602.6999999995728,1.31277e-05,602.6999999995728,3.820921e-05,602.6999999995728,1.075808e-05,602.6999999995728,1.679919e-05
602.7149999995728,1.336063e-05,602.7149999995728,3.839457e-05,602.7149999995728,1.078293e-05,602.7149999995728,1.667124e-05
602.7299999995728,1.270564e-05,602.7299999995728,3.898007e-05,602.7299999995728,1.057317e-05,602.7299999995728,1.648772e-05
602.7449999995728,1.333213e-05,602.7449999995728,3.94849e-05,602.7449999995728,9.850334e-06,602.7449999995728,1.455554e-05
602.7599999995728,1.314057e-05,602.7599999995728,3.949668e-05,602.7599999995728,1.079859e-05,602.7599999995728,1.446915e-05
602.7749999995727,1.300805e-05,602.7749999995727,3.920636e-05,602.7749999995727,9.955596e-06,602.7749999995727,1.481169e-05
602.7899999995727,1.311052e-05,602.7899999995727,3.805443e-05,602.7899999995727,9.846043e-06,602.7899999995727,1.506441e-05
602.8049999995727,1.293311e-05,602.8049999995727,3.791759e-05,602.8049999995727,1.021952e-05,602.8049999995727,1.412529e-05
602.8199999995727,1.272891e-05,602.8199999995727,3.78648e-05,602.8199999995727,1.005556e-05,602.8199999995727,1.404628e-05
602.8349999995727,1.214561e-05,602.8349999995727,3.81487e-05,602.8349999995727,1.051974e-05,602.8349999995727,1.461927e-05
602.8499999995727,1.214909e-05,602.8499999995727,3.841291e-05,602.8499999995727,1.066866e-05,602.8499999995727,1.606187e-05
602.8649999995727,1.213632e-05,602.8649999995727,3.885918e-05,602.8649999995727,1.021539e-05,602.8649999995727,1.673365e-05
602.8799999995726,1.227023e-05,602.8799999995726,3.189401e-05,602.8799999995726,9.649507e-06,602.8799999995726,1.635992e-05
602.8949999995726,1.198683e-05,602.8949999995726,3.121545e-05,602.8949999995726,9.580649e-06,602.8949999995726,1.535798e-05
602.9099999995726,1.13878e-05,602.9099999995726,2.976095e-05,602.9099999995726,9.481625e-06,602.9099999995726,1.529548e-05
602.9249999995726,1.153529e-05,602.9249999995726,2.678497e-05,602.9249999995726,9.815953e-06,602.9249999995726,1.570893e-05
602.9399999995726,1.183545e-05,602.9399999995726,2.499827e-05,602.9399999995726,1.012118e-05,602.9399999995726,1.650309e-05
602.9549999995726,1.273223e-05,602.9549999995726,3.477478e-05,602.9549999995726,1.121077e-05,602.9549999995726,1.642351e-05
602.9699999995726,1.27455e-05,602.9699999995726,4.247979e-05,602.9699999995726,1.132827e-05,602.9699999995726,1.628224e-05
602.9849999995726,1.37575e-05,602.9849999995726,4.759051e-05,602.9849999995726,1.19739e-05,602.9849999995726,1.635303e-05
602.9999999995725,1.369798e-05,602.9999999995725,4.726409e-05,602.9999999995725,1.185329e-05,602.9999999995725,1.641236e-05
603.0149999995725,1.40513e-05,603.0149999995725,4.789089e-05,603.0149999995725,1.104239e-05,603.0149999995725,1.605134e-05
603.0299999995725,1.39527e-05,603.0299999995725,4.846892e-05,603.0299999995725,1.119568e-05,603.0299999995725,1.617112e-05
603.0449999995725,1.386764e-05,603.0449999995725,4.91096e-05,603.0449999995725,1.135807e-05,603.0449999995725,1.759697e-05
603.0599999995725,1.385239e-05,603.0599999995725,4.868525e-05,603.0599999995725,1.120197e-05,603.0599999995725,1.791117e-05
603.0749999995725,1.383713e-05,603.0749999995725,4.891272e-05,603.0749999995725,1.133821e-05,603.0749999995725,1.86237e-05
603.0899999995725,1.361546e-05,603.0899999995725,4.867454e-05,603.0899999995725,1.099893e-05,603.0899999995725,1.809427e-05
603.1049999995724,1.368357e-05,603.1049999995724,4.845671e-05,603.1049999995724,1.088046e-05,603.1049999995724,1.645608e-05
603.1199999995724,1.346461e-05,603.1199999995724,4.825162e-05,603.1199999995724,1.118057e-05,603.1199999995724,1.794496e-05
603.1349999995724,1.317162e-05,603.1349999995724,4.847822e-05,603.1349999995724,1.159011e-05,603.1349999995724,1.868562e-05
603.1499999995724,1.300913e-05,603.1499999995724,4.958006e-05,603.1499999995724,1.167126e-05,603.1499999995724,1.914953e-05
603.1649999995724,1.302752e-05,603.1649999995724,4.927026e-05,603.1649999995724,1.142978e-05,603.1649999995724,1.964553e-05
603.1799999995724,1.3061e-05,603.1799999995724,4.95289e-05,603.1799999995724,1.127467e-05,603.1799999995724,1.930777e-05
603.1949999995724,1.332051e-05,603.1949999995724,4.92714e-05,603.1949999995724,1.08947e-05,603.1949999995724,1.905736e-05
603.2099999995723,1.281933e-05,603.2099999995723,4.085293e-05,603.2099999995723,1.010865e-05,603.2099999995723,1.925517e-05
603.2249999995723,1.161682e-05,603.2249999995723,2.896603e-05,603.2249999995723,9.250001e-06,603.2249999995723,1.92537e-05
603.2399999995723,1.06581e-05,603.2399999995723,2.683279e-05,603.2399999995723,9.384559e-06,603.2399999995723,1.948931e-05
603.2549999995723,1.078031e-05,603.2549999995723,2.645743e-05,603.2549999995723,9.592404e-06,603.2549999995723,1.967634e-05
603.2699999995723,1.043774e-05,603.2699999995723,2.49994e-05,603.2699999995723,1.000641e-05,603.2699999995723,1.94169e-05
603.2849999995723,1.061041e-05,603.2849999995723,2.335217e-05,603.2849999995723,1.002469e-05,603.2849999995723,1.940819e-05
603.2999999995723,1.065149e-05,603.2999999995723,2.248428e-05,603.2999999995723,1.098611e-05,603.2999999995723,1.814092e-05
603.3149999995723,1.047412e-05,603.3149999995723,2.146568e-05,603.3149999995723,1.056917e-05,603.3149999995723,1.775953e-05
603.3299999995722,1.098868e-05,603.3299999995722,2.179392e-05,603.3299999995722,2.93261e-05,603.3299999995722,1.725258e-05
603.3449999995722,1.157308e-05,603.3449999995722,2.207329e-05,603.3449999995722,3.364572e-05,603.3449999995722,1.780152e-05
603.3599999995722,1.154383e-05,603.3599999995722,2.21402e-05,603.3599999995722,3.658266e-05,603.3599999995722,1.711404e-05
603.3749999995722,1.156212e-05,603.3749999995722,2.217199e-05,603.3749999995722,3.65021e-05,603.3749999995722,1.635561e-05
603.3899999995722,1.163257e-05,603.3899999995722,2.200682e-05,603.3899999995722,3.639195e-05,603.3899999995722,1.586597e-05
603.4049999995722,1.142855e-05,603.4049999995722,1.96699e-05,603.4049999995722,3.664153e-05,603.4049999995722,1.369387e-05
603.4199999995722,1.200914e-05,603.4199999995722,1.885e-05,603.4199999995722,3.689172e-05,603.4199999995722,1.442723e-05
603.4349999995721,1.229431e-05,603.4349999995721,1.864865e-05,603.4349999995721,3.692454e-05,603.4349999995721,1.421476e-05
603.4499999995721,1.163983e-05,603.4499999995721,1.820681e-05,603.4499999995721,3.691233e-05,603.4499999995721,1.424446e-05
603.4649999995721,1.169417e-05,603.4649999995721,1.740945e-05,603.4649999995721,3.701485e-05,603.4649999995721,1.426225e-05
603.4799999995721,1.156577e-05,603.4799999995721,1.747729e-05,603.4799999995721,3.715084e-05,603.4799999995721,1.460385e-05
603.4949999995721,1.214213e-05,603.4949999995721,1.73803e-05,603.4949999995721,3.711746e-05,603.4949999995721,1.525767e-05
603.5099999995721,1.270121e-05,603.5099999995721,1.703318e-05,603.5099999995721,3.726366e-05,603.5099999995721,1.572686e-05
603.5249999995721,1.308148e-05,603.5249999995721,1.699261e-05,603.5249999995721,3.725346e-05,603.5249999995721,1.651503e-05
603.539999999572,1.32569e-05,603.539999999572,1.650906e-05,603.539999999572,3.722698e-05,603.539999999572,1.628138e-05
603.554999999572,1.336168e-05,603.554999999572,1.647062e-05,603.554999999572,3.698439e-05,603.554999999572,1.637713e-05
603.569999999572,1.430958e-05,603.569999999572,1.633838e-05,603.569999999572,3.699048e-05,603.569999999572,1.606888e-05
603.584999999572,1.442332e-05,603.584999999572,1.555302e-05,603.584999999572,2.349829e-05,603.584999999572,1.573133e-05
603.599999999572,1.38086e-05,603.599999999572,1.548767e-05,603.599999999572,1.500538e-05,603.599999999572,1.544304e-05
603.614999999572,1.386865e-05,603.614999999572,1.458551e-05,603.614999999572,1.464815e-05,603.614999999572,1.595539e-05
603.629999999572,1.426324e-05,603.629999999572,1.479551e-05,603.629999999572,1.613537e-05,603.629999999572,1.523457e-05
603.644999999572,1.434006e-05,603.644999999572,1.43695e-05,603.644999999572,1.71814e-05,603.644999999572,1.523827e-05
603.6599999995719,1.462794e-05,603.6599999995719,1.447986e-05,603.6599999995719,1.664926e-05,603.6599999995719,1.495555e-05
603.6749999995719,1.404227e-05,603.6749999995719,1.682516e-05,603.6749999995719,1.703897e-05,603.6749999995719,1.450221e-05
603.6899999995719,1.359164e-05,603.6899999995719,1.678408e-05,603.6899999995719,1.686029e-05,603.6899999995719,1.496402e-05
603.7049999995719,1.34667e-05,603.7049999995719,1.745471e-05,603.7049999995719,1.686948e-05,603.7049999995719,1.478313e-05
603.7199999995719,1.351994e-05,603.7199999995719,1.823619e-05,603.7199999995719,1.717156e-05,603.7199999995719,1.383815e-05
603.7349999995719,1.37062e-05,603.7349999995719,1.813316e-05,603.7349999995719,1.685945e-05,603.7349999995719,1.46318e-05
603.7499999995719,1.361649e-05,603.7499999995719,1.849543e-05,603.7499999995719,1.718222e-05,603.7499999995719,1.352203e-05
603.7649999995718,1.310085e-05,603.7649999995718,1.869994e-05,603.7649999995718,1.662979e-05,603.7649999995718,1.284019e-05
603.7799999995718,1.233321e-05,603.7799999995718,1.897513e-05,603.7799999995718,1.662216e-05,603.7799999995718,1.254834e-05
603.7949999995718,1.242538e-05,603.7949999995718,1.911787e-05,603.7949999995718,1.661708e-05,603.7949999995718,1.225529e-05
603.8099999995718,1.279073e-05,603.8099999995718,1.928149e-05,603.8099999995718,1.668138e-05,603.8099999995718,1.206765e-05
603.8249999995718,1.265343e-05,603.8249999995718,1.915983e-05,603.8249999995718,1.669151e-05,603.8249999995718,1.263672e-05
603.8399999995718,1.199741e-05,603.8399999995718,1.926029e-05,603.8399999995718,1.672439e-05,603.8399999995718,1.334481e-05
603.8549999995718,1.266011e-05,603.8549999995718,1.968493e-05,603.8549999995718,1.550767e-05,603.8549999995718,1.325584e-05
603.8699999995717,1.265231e-05,603.8699999995717,1.962688e-05,603.8699999995717,1.392744e-05,603.8699999995717,1.231378e-05
603.8849999995717,1.214561e-05,603.8849999995717,1.927783e-05,603.8849999995717,1.115282e-05,603.8849999995717,1.243558e-05
603.8999999995717,1.224379e-05,603.8999999995717,1.935514e-05,603.8999999995717,1.032512e-05,603.8999999995717,1.213632e-05
603.9149999995717,1.225874e-05,603.9149999995717,1.852511e-05,603.9149999995717,1.011422e-05,603.9149999995717,1.35366e-05
603.9299999995717,1.234576e-05,603.9299999995717,1.724932e-05,603.9299999995717,9.532005e-06,603.9299999995717,1.32484e-05
603.9449999995717,1.336063e-05,603.9449999995717,1.696357e-05,603.9449999995717,9.511293e-06,603.9449999995717,1.31073e-05
603.9599999995717,1.359475e-05,603.9599999995717,1.650736e-05,603.9599999995717,8.829253e-06,603.9599999995717,1.36475e-05
603.9749999995717,1.357298e-05,603.9749999995717,1.601883e-05,603.9749999995717,8.444335e-06,603.9749999995717,1.352723e-05
603.9899999995716,1.336696e-05,603.9899999995716,1.572865e-05,603.9899999995716,8.313199e-06,603.9899999995716,1.290803e-05
604.0049999995716,1.28358e-05,604.0049999995716,1.563432e-05,604.0049999995716,7.586711e-06,604.0049999995716,1.281384e-05
604.0199999995716,1.295596e-05,604.0199999995716,1.531481e-05,604.0199999995716,7.27777e-06,604.0199999995716,1.257862e-05
604.0349999995716,1.315771e-05,604.0349999995716,1.585176e-05,604.0349999995716,6.985433e-06,604.0349999995716,1.359579e-05
604.0499999995716,1.316948e-05,604.0499999995716,1.582152e-05,604.0499999995716,6.64861e-06,604.0499999995716,1.417606e-05
604.0649999995716,1.223804e-05,604.0649999995716,1.605046e-05,604.0649999995716,6.848989e-06,604.0649999995716,1.472201e-05
604.0799999995716,1.225184e-05,604.0799999995716,1.60864e-05,604.0799999995716,7.2409e-06,604.0799999995716,1.422467e-05
604.0949999995715,1.235945e-05,604.0949999995715,1.596687e-05,604.0949999995715,7.333686e-06,604.0949999995715,1.43489e-05
604.1099999995715,1.179492e-05,604.1099999995715,1.566493e-05,604.1099999995715,6.768301e-06,604.1099999995715,1.487527e-05
604.1249999995715,1.191257e-05,604.1249999995715,1.562621e-05,604.1249999995715,6.871577e-06,604.1249999995715,1.467793e-05
604.1399999995715,1.224034e-05,604.1399999995715,1.57367e-05,604.1399999995715,6.803591e-06,604.1399999995715,1.47917e-05
604.1549999995715,1.148879e-05,604.1549999995715,1.570265e-05,604.1549999995715,7.003558e-06,604.1549999995715,1.511762e-05
604.1699999995715,1.14667e-05,604.1699999995715,1.564873e-05,604.1699999995715,7.457495e-06,604.1699999995715,1.429382e-05
604.1849999995715,1.137666e-05,604.1849999995715,1.592623e-05,604.1849999995715,7.913874e-06,604.1849999995715,1.439888e-05
604.1999999995714,1.045796e-05,604.1999999995714,1.582597e-05,604.1999999995714,7.844146e-06,604.1999999995714,1.39517e-05
604.2149999995714,1.002188e-05,604.2149999995714,1.569996e-05,604.2149999995714,7.847737e-06,604.2149999995714,1.397691e-05
604.2299999995714,1.005976e-05,604.2299999995714,1.67908e-05,604.2299999995714,7.8585e-06,604.2299999995714,1.409834e-05
604.2449999995714,1.066206e-05,604.2449999995714,1.686781e-05,604.2449999995714,8.221186e-06,604.2449999995714,1.513159e-05
604.2599999995714,1.141622e-05,604.2599999995714,1.798338e-05,604.2599999995714,8.314893e-06,604.2599999995714,1.591207e-05
604.2749999995714,1.149492e-05,604.2749999995714,1.796301e-05,604.2749999995714,8.575109e-06,604.2749999995714,1.58979e-05
604.2899999995714,1.137047e-05,604.2899999995714,1.899072e-05,604.2899999995714,9.147398e-06,604.2899999995714,1.655508e-05
604.3049999995714,1.148756e-05,604.3049999995714,1.963621e-05,604.3049999995714,9.509811e-06,604.3049999995714,1.662131e-05
604.3199999995713,1.107551e-05,604.3199999995713,2.040594e-05,604.3199999995713,9.195013e-06,604.3199999995713,1.608728e-05
604.3349999995713,1.159254e-05,604.3349999995713,2.116765e-05,604.3349999995713,9.271297e-06,604.3349999995713,1.645436e-05
604.3499999995713,1.228514e-05,604.3499999995713,2.105822e-05,604.3499999995713,9.459313e-06,604.3499999995713,1.565953e-05
604.3649999995713,1.245595e-05,604.3649999995713,2.163758e-05,604.3649999995713,9.466757e-06,604.3649999995713,1.55865e-05
604.3799999995713,1.192439e-05,604.3799999995713,2.190931e-05,604.3799999995713,9.499437e-06,604.3799999995713,1.561088e-05
604.3949999995713,1.20021e-05,604.3949999995713,2.242908e-05,604.3949999995713,9.730914e-06,604.3949999995713,1.55865e-05
604.4099999995713,1.24129e-05,604.4099999995713,2.296102e-05,604.4099999995713,9.800154e-06,604.4099999995713,1.734704e-05
604.4249999995712,1.241517e-05,604.4249999995712,2.333044e-05,604.4249999995712,9.851764e-06,604.4249999995712,1.812383e-05
604.4399999995712,1.243898e-05,604.4399999995712,2.325545e-05,604.4399999995712,9.791525e-06,604.4399999995712,1.799748e-05
604.4549999995712,1.252925e-05,604.4549999995712,2.741857e-05,604.4549999995712,9.866052e-06,604.4549999995712,1.8067e-05
604.4699999995712,1.397994e-05,604.4699999995712,2.889494e-05,604.4699999995712,1.006116e-05,604.4699999995712,1.826551e-05
604.4849999995712,1.735759e-05,604.4849999995712,2.956101e-05,604.4849999995712,1.004715e-05,604.4849999995712,1.748293e-05
604.4999999995712,1.984671e-05,604.4999999995712,2.958816e-05,604.4999999995712,9.580649e-06,604.4999999995712,1.739164e-05
