X[s],a: EMG RMS 1-1,X[s].1,a: EMG RMS 1-2,X[s].2,a: EMG RMS 1-3,X[s].3,a: EMG RMS 1-4
419.0099999997398,2.061746e-05,419.0099999997398,1.820681e-05,419.0099999997398,1.39517e-05,419.0099999997398,1.594479e-05
419.0249999997398,2.033125e-05,419.0249999997398,1.431942e-05,419.0249999997398,1.199388e-05,419.0249999997398,1.524936e-05
419.0399999997398,2.050442e-05,419.0399999997398,1.500914e-05,419.0399999997398,1.180566e-05,419.0399999997398,1.465008e-05
419.0549999997398,2.075909e-05,419.0549999997398,1.577604e-05,419.0549999997398,1.162894e-05,419.0549999997398,1.442332e-05
419.06999999973976,2.013701e-05,419.06999999973976,1.553218e-05,419.06999999973976,1.139275e-05,419.06999999973976,1.451484e-05
419.08499999973975,1.671175e-05,419.08499999973975,1.523087e-05,419.08499999973975,1.118813e-05,419.08499999973975,1.481073e-05
419.09999999973974,1.596069e-05,419.09999999973974,1.702822e-05,419.09999999973974,1.09231e-05,419.09999999973974,1.524382e-05
419.1149999997397,1.758416e-05,419.1149999997397,1.74934e-05,419.1149999997397,1.153284e-05,419.1149999997397,1.51892e-05
419.1299999997397,1.941763e-05,419.1299999997397,1.774445e-05,419.1299999997397,1.278412e-05,419.1299999997397,1.448375e-05
419.1449999997397,2.051815e-05,419.1449999997397,1.846799e-05,419.1449999997397,1.311374e-05,419.1449999997397,1.452939e-05
419.1599999997397,2.036794e-05,419.1599999997397,1.978771e-05,419.1599999997397,1.312341e-05,419.1599999997397,1.444089e-05
419.17499999973967,2.122945e-05,419.17499999973967,1.964912e-05,419.17499999973967,1.27455e-05,419.17499999973967,1.451289e-05
419.18999999973965,2.099458e-05,419.18999999973965,2.32403e-05,419.18999999973965,1.322286e-05,419.18999999973965,1.444479e-05
419.20499999973964,2.200618e-05,419.20499999973964,2.626237e-05,419.20499999973964,1.40242e-05,419.20499999973964,1.479075e-05
419.2199999997396,2.232837e-05,419.2199999997396,2.701017e-05,419.2199999997396,1.395977e-05,419.2199999997396,1.502133e-05
419.2349999997396,2.164409e-05,419.2349999997396,2.920914e-05,419.2349999997396,1.768879e-05,419.2349999997396,1.475928e-05
419.2499999997396,2.183073e-05,419.2499999997396,3.025852e-05,419.2499999997396,0.0001184257,419.2499999997396,1.470478e-05
419.2649999997396,2.131355e-05,419.2649999997396,3.293012e-05,419.2649999997396,0.0003169718,419.2649999997396,1.612052e-05
419.2799999997396,2.158217e-05,419.2799999997396,3.29733e-05,419.2799999997396,0.0006626818,419.2799999997396,1.791196e-05
419.29499999973956,2.112034e-05,419.29499999973956,3.563032e-05,419.29499999973956,0.0007171758,419.29499999973956,1.872855e-05
419.30999999973955,2.088762e-05,419.30999999973955,3.56493e-05,419.30999999973955,0.0007235342,419.30999999973955,1.868562e-05
419.32499999973953,2.10147e-05,419.32499999973953,3.899597e-05,419.32499999973953,0.0007240493,419.32499999973953,1.832096e-05
419.3399999997395,2.099122e-05,419.3399999997395,3.911139e-05,419.3399999997395,0.0007250819,419.3399999997395,1.754567e-05
419.3549999997395,2.085117e-05,419.3549999997395,3.845433e-05,419.3549999997395,0.0007255312,419.3549999997395,1.66247e-05
419.3699999997395,1.847562e-05,419.3699999997395,3.953625e-05,419.3699999997395,0.0007255453,419.3699999997395,1.658738e-05
419.3849999997395,1.735678e-05,419.3849999997395,4.04823e-05,419.3849999997395,0.0007255337,419.3849999997395,1.658908e-05
419.39999999973946,1.729743e-05,419.39999999973946,4.197573e-05,419.39999999973946,0.000725539,419.39999999973946,1.631077e-05
419.41499999973945,1.733892e-05,419.41499999973945,4.212749e-05,419.41499999973945,0.0007255563,419.41499999973945,1.638573e-05
419.42999999973944,1.677149e-05,419.42999999973944,4.480757e-05,419.42999999973944,0.0007255641,419.42999999973944,1.585531e-05
419.4449999997394,1.660096e-05,419.4449999997394,4.369242e-05,419.4449999997394,0.0007255471,419.4449999997394,1.571879e-05
419.4599999997394,1.597304e-05,419.4599999997394,4.299956e-05,419.4599999997394,0.0007255501,419.4599999997394,1.557565e-05
419.4749999997394,1.62207e-05,419.4749999997394,4.3049e-05,419.4749999997394,0.0007255509,419.4749999997394,1.595716e-05
419.4899999997394,1.608027e-05,419.4899999997394,4.144415e-05,419.4899999997394,0.0007252375,419.4899999997394,1.59165e-05
419.50499999973937,1.632544e-05,419.50499999973937,4.152836e-05,419.50499999973937,0.0006660688,419.50499999973937,1.411232e-05
419.51999999973935,1.690534e-05,419.51999999973935,4.204347e-05,419.51999999973935,0.0005100425,419.51999999973935,1.307286e-05
419.53499999973934,1.718632e-05,419.53499999973934,4.13659e-05,419.53499999973934,0.0002371993,419.53499999973934,1.00961e-05
419.5499999997393,1.694862e-05,419.5499999997393,3.996187e-05,419.5499999997393,7.221615e-05,419.5499999997393,1.0005e-05
419.5649999997393,1.779677e-05,419.5649999997393,3.962131e-05,419.5649999997393,4.962181e-05,419.5649999997393,1.019606e-05
419.5799999997393,1.766329e-05,419.5799999997393,4.216358e-05,419.5799999997393,4.018789e-05,419.5799999997393,1.028958e-05
419.5949999997393,1.763935e-05,419.5949999997393,4.844683e-05,419.5949999997393,2.293646e-05,419.5949999997393,1.056117e-05
419.6099999997393,1.764893e-05,419.6099999997393,4.92325e-05,419.6099999997393,1.417308e-05,419.6099999997393,1.068713e-05
419.62499999973926,1.773572e-05,419.62499999973926,5.504252e-05,419.62499999973926,1.448083e-05,419.62499999973926,1.051974e-05
419.63999999973925,1.728521e-05,419.63999999973925,5.628308e-05,419.63999999973925,1.439105e-05,419.63999999973925,1.035645e-05
419.65499999973923,1.701746e-05,419.65499999973923,5.495211e-05,419.65499999973923,1.428692e-05,419.65499999973923,1.005556e-05
419.6699999997392,1.68895e-05,419.6699999997392,5.49398e-05,419.6699999997392,1.330993e-05,419.6699999997392,1.028137e-05
419.6849999997392,1.568021e-05,419.6849999997392,5.259952e-05,419.6849999997392,1.293529e-05,419.6849999997392,1.051974e-05
419.6999999997392,1.565953e-05,419.6999999997392,5.258425e-05,419.6999999997392,1.302212e-05,419.6999999997392,1.080511e-05
419.7149999997392,1.537173e-05,419.7149999997392,5.187899e-05,419.7149999997392,1.371648e-05,419.7149999997392,1.044449e-05
419.72999999973916,1.494424e-05,419.72999999973916,5.455333e-05,419.72999999973916,1.412928e-05,419.72999999973916,1.022779e-05
419.74499999973915,1.468657e-05,419.74499999973915,5.495928e-05,419.74499999973915,1.448666e-05,419.74499999973915,1.030463e-05
419.75999999973914,1.43793e-05,419.75999999973914,5.507681e-05,419.75999999973914,1.481073e-05,419.75999999973914,1.123838e-05
419.7749999997391,1.393856e-05,419.7749999997391,5.308045e-05,419.7749999997391,1.433613e-05,419.7749999997391,1.226793e-05
419.7899999997391,1.319726e-05,419.7899999997391,5.227123e-05,419.7899999997391,1.453229e-05,419.7899999997391,1.231263e-05
419.8049999997391,1.324521e-05,419.8049999997391,5.273619e-05,419.8049999997391,1.402219e-05,419.8049999997391,1.215604e-05
419.8199999997391,1.214213e-05,419.8199999997391,5.248772e-05,419.8199999997391,1.465296e-05,419.8199999997391,1.216415e-05
419.83499999973907,1.299938e-05,419.83499999973907,4.76875e-05,419.83499999973907,1.511575e-05,419.83499999973907,1.171463e-05
419.84999999973905,1.32654e-05,419.84999999973905,4.225703e-05,419.84999999973905,1.570445e-05,419.84999999973905,1.174945e-05
419.86499999973904,1.28654e-05,419.86499999973904,3.804628e-05,419.86499999973904,1.56172e-05,419.86499999973904,1.139151e-05
419.879999999739,1.271894e-05,419.879999999739,4.212581e-05,419.879999999739,1.517621e-05,419.879999999739,1.203492e-05
419.894999999739,1.214677e-05,419.894999999739,4.371756e-05,419.894999999739,1.582775e-05,419.894999999739,1.27764e-05
419.909999999739,1.298962e-05,419.909999999739,4.468669e-05,419.909999999739,1.568201e-05,419.909999999739,1.277971e-05
419.924999999739,1.293855e-05,419.924999999739,4.506088e-05,419.924999999739,1.588727e-05,419.924999999739,1.265454e-05
419.939999999739,1.321646e-05,419.939999999739,4.414052e-05,419.939999999739,1.631854e-05,419.939999999739,1.225529e-05
419.95499999973896,1.453811e-05,419.95499999973896,4.415456e-05,419.95499999973896,1.64937e-05,419.95499999973896,1.227023e-05
419.96999999973895,1.478884e-05,419.96999999973895,4.35943e-05,419.96999999973895,1.699593e-05,419.96999999973895,1.19031e-05
419.98499999973893,1.541474e-05,419.98499999973893,4.042868e-05,419.98499999973893,1.714447e-05,419.98499999973893,1.224724e-05
419.9999999997389,1.570445e-05,419.9999999997389,4.060252e-05,419.9999999997389,1.677737e-05,419.9999999997389,1.233778e-05
420.0149999997389,1.654145e-05,420.0149999997389,4.090428e-05,420.0149999997389,1.690868e-05,420.0149999997389,1.186042e-05
420.0299999997389,1.649882e-05,420.0299999997389,4.119767e-05,420.0299999997389,1.687114e-05,420.0299999997389,1.230577e-05
420.0449999997389,1.679751e-05,420.0449999997389,4.16212e-05,420.0449999997389,1.686864e-05,420.0449999997389,1.237198e-05
420.05999999973886,1.671344e-05,420.05999999973886,4.229901e-05,420.05999999973886,1.671006e-05,420.05999999973886,1.26077e-05
420.07499999973885,1.72158e-05,420.07499999973885,4.176176e-05,420.07499999973885,1.606274e-05,420.07499999973885,1.285116e-05
420.08999999973884,1.798103e-05,420.08999999973884,4.167836e-05,420.08999999973884,1.561269e-05,420.08999999973884,1.282482e-05
420.1049999997388,1.869693e-05,420.1049999997388,4.18571e-05,420.1049999997388,1.559915e-05,420.1049999997388,1.511855e-05
420.1199999997388,2.175122e-05,420.1199999997388,4.495634e-05,420.1199999997388,1.575817e-05,420.1199999997388,1.800296e-05
420.1349999997388,2.234539e-05,420.1349999997388,3.246136e-05,420.1349999997388,1.565324e-05,420.1349999997388,1.805999e-05
420.1499999997388,2.24636e-05,420.1499999997388,3.187899e-05,420.1499999997388,1.509897e-05,420.1499999997388,1.752799e-05
420.16499999973877,2.201066e-05,420.16499999973877,3.20614e-05,420.16499999973877,1.522625e-05,420.16499999973877,1.825394e-05
420.17999999973875,2.257245e-05,420.17999999973875,3.195843e-05,420.17999999973875,1.503071e-05,420.17999999973875,1.865242e-05
420.19499999973874,2.32306e-05,420.19499999973874,3.260685e-05,420.19499999973874,1.418599e-05,420.19499999973874,1.892905e-05
420.2099999997387,2.238067e-05,420.2099999997387,3.27164e-05,420.2099999997387,1.335747e-05,420.2099999997387,1.907287e-05
420.2249999997387,2.189516e-05,420.2249999997387,3.276415e-05,420.2249999997387,1.203141e-05,420.2249999997387,1.90011e-05
420.2399999997387,2.178228e-05,420.2399999997387,3.239099e-05,420.2399999997387,1.189363e-05,420.2399999997387,1.884776e-05
420.2549999997387,2.31151e-05,420.2549999997387,3.239012e-05,420.2549999997387,1.226334e-05,420.2549999997387,1.878187e-05
420.2699999997387,2.39272e-05,420.2699999997387,3.124161e-05,420.2699999997387,1.346147e-05,420.2699999997387,1.865695e-05
420.28499999973866,2.355099e-05,420.28499999973866,3.050611e-05,420.28499999973866,1.343843e-05,420.28499999973866,1.918481e-05
420.29999999973865,2.34881e-05,420.29999999973865,2.958673e-05,420.29999999973865,1.328768e-05,420.29999999973865,2.049823e-05
420.31499999973863,2.35743e-05,420.31499999973863,2.855411e-05,420.31499999973863,1.469616e-05,420.31499999973863,2.099928e-05
420.3299999997386,2.335398e-05,420.3299999997386,2.785438e-05,420.3299999997386,1.483449e-05,420.3299999997386,2.219929e-05
420.3449999997386,2.351807e-05,420.3449999997386,2.850424e-05,420.3449999997386,1.480217e-05,420.3449999997386,2.292602e-05
420.3599999997386,2.630953e-05,420.3599999997386,2.767223e-05,420.3599999997386,1.538822e-05,420.3599999997386,2.406574e-05
420.3749999997386,2.50163e-05,420.3749999997386,2.239703e-05,420.3749999997386,1.543483e-05,420.3749999997386,2.389716e-05
420.38999999973856,2.536357e-05,420.38999999973856,2.235044e-05,420.38999999973856,1.564873e-05,420.38999999973856,2.451289e-05
420.40499999973855,2.529962e-05,420.40499999973855,2.180038e-05,420.40499999973855,1.556208e-05,420.40499999973855,2.512194e-05
420.41999999973854,2.532133e-05,420.41999999973854,1.989775e-05,420.41999999973854,1.652271e-05,420.41999999973854,2.458862e-05
420.4349999997385,2.779363e-05,420.4349999997385,2.087076e-05,420.4349999997385,1.711322e-05,420.4349999997385,2.500954e-05
420.4499999997385,2.775457e-05,420.4499999997385,2.417146e-05,420.4499999997385,1.720434e-05,420.4499999997385,2.564196e-05
420.4649999997385,2.770987e-05,420.4649999997385,2.657218e-05,420.4649999997385,1.743694e-05,420.4649999997385,2.5693e-05
420.4799999997385,2.780072e-05,420.4799999997385,2.752881e-05,420.4799999997385,1.712885e-05,420.4799999997385,2.573956e-05
420.49499999973847,2.790188e-05,420.49499999973847,3.382735e-05,420.49499999973847,1.779677e-05,420.49499999973847,2.745144e-05
420.50999999973845,2.700809e-05,420.50999999973845,3.398025e-05,420.50999999973845,1.843517e-05,420.50999999973845,2.723558e-05
420.52499999973844,2.672548e-05,420.52499999973844,3.361681e-05,420.52499999973844,1.796222e-05,420.52499999973844,2.827749e-05
420.5399999997384,2.726246e-05,420.5399999997384,3.400429e-05,420.5399999997384,1.934494e-05,420.5399999997384,2.803434e-05
420.5549999997384,2.786348e-05,420.5549999997384,3.570102e-05,420.5549999997384,1.913334e-05,420.5549999997384,2.677708e-05
420.5699999997384,2.826105e-05,420.5699999997384,3.735994e-05,420.5699999997384,1.853803e-05,420.5699999997384,2.648936e-05
420.5849999997384,2.849683e-05,420.5849999997384,3.818893e-05,420.5849999997384,1.826397e-05,420.5849999997384,2.530129e-05
420.5999999997384,2.908494e-05,420.5999999997384,3.960566e-05,420.5999999997384,1.827785e-05,420.5999999997384,2.543235e-05
420.61499999973836,2.62613e-05,420.61499999973836,3.975229e-05,420.61499999973836,1.821764e-05,420.61499999973836,2.446169e-05
420.62999999973835,2.645104e-05,420.62999999973835,3.991849e-05,420.62999999973835,1.847257e-05,420.62999999973835,2.31023e-05
420.64499999973833,2.639346e-05,420.64499999973833,4.236855e-05,420.64499999973833,1.7992e-05,420.64499999973833,2.281453e-05
420.6599999997383,2.666796e-05,420.6599999997383,4.274623e-05,420.6599999997383,1.793475e-05,420.6599999997383,2.439191e-05
420.6749999997383,2.639773e-05,420.6749999997383,4.279629e-05,420.6749999997383,1.715843e-05,420.6749999997383,2.529127e-05
420.6899999997383,2.714906e-05,420.6899999997383,4.283774e-05,420.6899999997383,1.773095e-05,420.6899999997383,2.534357e-05
420.7049999997383,2.718691e-05,420.7049999997383,3.996116e-05,420.7049999997383,1.759777e-05,420.7049999997383,2.510511e-05
420.71999999973826,2.700443e-05,420.71999999973826,3.862065e-05,420.71999999973826,1.810672e-05,420.71999999973826,2.555722e-05
420.73499999973825,2.673918e-05,420.73499999973825,3.68604e-05,420.73499999973825,1.783393e-05,420.73499999973825,2.635607e-05
420.74999999973824,2.698721e-05,420.74999999973824,3.189224e-05,420.74999999973824,1.70555e-05,420.74999999973824,2.501404e-05
420.7649999997382,2.694699e-05,420.7649999997382,3.180511e-05,420.7649999997382,1.602147e-05,420.7649999997382,2.476615e-05
420.7799999997382,2.635607e-05,420.7799999997382,3.195798e-05,420.7799999997382,1.624326e-05,420.7799999997382,2.344969e-05
420.7949999997382,2.644891e-05,420.7949999997382,3.07187e-05,420.7949999997382,1.44155e-05,420.7949999997382,2.624091e-05
420.8099999997382,2.649308e-05,420.8099999997382,2.893343e-05,420.8099999997382,1.422467e-05,420.8099999997382,2.628275e-05
420.82499999973817,2.616295e-05,420.82499999973817,2.706904e-05,420.82499999973817,1.362477e-05,420.82499999973817,2.751346e-05
420.83999999973815,2.502868e-05,420.83999999973815,2.547938e-05,420.83999999973815,1.324095e-05,420.83999999973815,2.772715e-05
420.85499999973814,2.442999e-05,420.85499999973814,2.229174e-05,420.85499999973814,1.321113e-05,420.85499999973814,2.69496e-05
420.8699999997381,2.636569e-05,420.8699999997381,2.23706e-05,420.8699999997381,1.326434e-05,420.8699999997381,2.795131e-05
420.8849999997381,2.948658e-05,420.8849999997381,2.207393e-05,420.8849999997381,1.317162e-05,420.8849999997381,2.932898e-05
420.8999999997381,2.955767e-05,420.8999999997381,1.680254e-05,420.8999999997381,1.377182e-05,420.8999999997381,2.917971e-05
420.9149999997381,3.019607e-05,420.9149999997381,1.942778e-05,420.9149999997381,1.387576e-05,420.9149999997381,2.790288e-05
420.9299999997381,2.78387e-05,420.9299999997381,2.118361e-05,420.9299999997381,1.301129e-05,420.9299999997381,2.819667e-05
420.94499999973806,2.728415e-05,420.94499999973806,2.14906e-05,420.94499999973806,1.287963e-05,420.94499999973806,2.755745e-05
420.95999999973805,2.721488e-05,420.95999999973805,2.158217e-05,420.95999999973805,1.301346e-05,420.95999999973805,2.846567e-05
420.97499999973803,2.938608e-05,420.97499999973803,2.158544e-05,420.97499999973803,1.379941e-05,420.97499999973803,2.814817e-05
420.989999999738,3.002438e-05,420.989999999738,2.233152e-05,420.989999999738,1.381981e-05,420.989999999738,2.780933e-05
421.004999999738,3.29468e-05,421.004999999738,6.021882e-05,421.004999999738,1.425336e-05,421.004999999738,2.776573e-05
421.019999999738,3.338766e-05,421.019999999738,6.86487e-05,421.019999999738,1.528442e-05,421.019999999738,2.892467e-05
421.034999999738,3.417701e-05,421.034999999738,7.431477e-05,421.034999999738,1.485063e-05,421.034999999738,2.929486e-05
421.04999999973796,3.38111e-05,421.04999999973796,7.439263e-05,421.04999999973796,1.554215e-05,421.04999999973796,2.941723e-05
421.06499999973795,3.368505e-05,421.06499999973795,7.482594e-05,421.06499999973795,1.574029e-05,421.06499999973795,2.966471e-05
421.07999999973794,3.377025e-05,421.07999999973794,7.543287e-05,421.07999999973794,1.586775e-05,421.07999999973794,2.924481e-05
421.0949999997379,3.307908e-05,421.0949999997379,7.547843e-05,421.0949999997379,1.582775e-05,421.0949999997379,2.995204e-05
421.1099999997379,3.300532e-05,421.1099999997379,7.546984e-05,421.1099999997379,1.560818e-05,421.1099999997379,2.958149e-05
421.1249999997379,3.019234e-05,421.1249999997379,7.559349e-05,421.1249999997379,1.508684e-05,421.1249999997379,2.697207e-05
421.1399999997379,2.748323e-05,421.1399999997379,7.896696e-05,421.1399999997379,1.49046e-05,421.1399999997379,2.644997e-05
421.15499999973787,2.842555e-05,421.15499999973787,7.987049e-05,421.15499999973787,1.397893e-05,421.15499999973787,2.628489e-05
421.16999999973785,2.882466e-05,421.16999999973785,7.935649e-05,421.16999999973785,1.533227e-05,421.16999999973785,2.593257e-05
421.18499999973784,2.891541e-05,421.18499999973784,7.998012e-05,421.18499999973784,1.570176e-05,421.18499999973784,2.513371e-05
421.1999999997378,2.866539e-05,421.1999999997378,8.047964e-05,421.1999999997378,1.570983e-05,421.1999999997378,2.510679e-05
421.2149999997378,3.032549e-05,421.2149999997378,8.06482e-05,421.2149999997378,1.469807e-05,421.2149999997378,2.472859e-05
421.2299999997378,2.874146e-05,421.2299999997378,8.092283e-05,421.2299999997378,1.431745e-05,421.2299999997378,2.477184e-05
421.2449999997378,3.030132e-05,421.2449999997378,7.601718e-05,421.2449999997378,1.423852e-05,421.2449999997378,2.433293e-05
421.2599999997378,2.627256e-05,421.2599999997378,5.98775e-05,421.2599999997378,1.435381e-05,421.2599999997378,2.515948e-05
421.27499999973776,2.482183e-05,421.27499999973776,5.020208e-05,421.27499999973776,1.375237e-05,421.27499999973776,2.439941e-05
421.28999999973774,2.461554e-05,421.28999999973774,4.702895e-05,421.28999999973774,1.403424e-05,421.28999999973774,2.52154e-05
421.30499999973773,2.498587e-05,421.30499999973773,4.714532e-05,421.30499999973773,1.408434e-05,421.30499999973773,2.332501e-05
421.3199999997377,2.501742e-05,421.3199999997377,4.642754e-05,421.3199999997377,1.435283e-05,421.3199999997377,2.351208e-05
421.3349999997377,2.542016e-05,421.3349999997377,4.624209e-05,421.3349999997377,1.465392e-05,421.3349999997377,2.328027e-05
421.3499999997377,2.545062e-05,421.3499999997377,4.60669e-05,421.3499999997377,1.540194e-05,421.3499999997377,2.187392e-05
421.3649999997377,2.665845e-05,421.3649999997377,4.609258e-05,421.3649999997377,1.640549e-05,421.3649999997377,2.204647e-05
421.37999999973766,2.807903e-05,421.37999999973766,4.445502e-05,421.37999999973766,1.644751e-05,421.37999999973766,2.219231e-05
421.39499999973765,2.836851e-05,421.39499999973765,3.740177e-05,421.39499999973765,1.716664e-05,421.39499999973765,2.269319e-05
421.40999999973764,2.75068e-05,421.40999999973764,3.689745e-05,421.40999999973764,1.674712e-05,421.40999999973764,2.536524e-05
421.4249999997376,2.614518e-05,421.4249999997376,3.418031e-05,421.4249999997376,1.690951e-05,421.4249999997376,2.729293e-05
421.4399999997376,2.7362e-05,421.4399999997376,3.229125e-05,421.4399999997376,1.70555e-05,421.4399999997376,2.984886e-05
421.4549999997376,2.595429e-05,421.4549999997376,3.170485e-05,421.4549999997376,1.72534e-05,421.4549999997376,3.098399e-05
421.4699999997376,2.661085e-05,421.4699999997376,3.05255e-05,421.4699999997376,1.737057e-05,421.4699999997376,3.594992e-05
421.48499999973757,2.567216e-05,421.48499999973757,2.797549e-05,421.48499999973757,1.742886e-05,421.48499999973757,3.901475e-05
421.49999999973755,2.622587e-05,421.49999999973755,2.924818e-05,421.49999999973755,1.772062e-05,421.49999999973755,3.872737e-05
421.51499999973754,2.623124e-05,421.51499999973754,3.212285e-05,421.51499999973754,1.742805e-05,421.51499999973754,3.896453e-05
421.5299999997375,2.6309e-05,421.5299999997375,2.940669e-05,421.5299999997375,1.846571e-05,421.5299999997375,3.915459e-05
421.5449999997375,2.627632e-05,421.5449999997375,2.92077e-05,421.5449999997375,1.796065e-05,421.5449999997375,3.917437e-05
421.5599999997375,2.758862e-05,421.5599999997375,2.939759e-05,421.5599999997375,1.795046e-05,421.5599999997375,3.9053e-05
421.5749999997375,2.827351e-05,421.5749999997375,2.993887e-05,421.5749999997375,1.765851e-05,421.5749999997375,3.938668e-05
421.5899999997375,2.785943e-05,421.5899999997375,3.016433e-05,421.5899999997375,1.754727e-05,421.5899999997375,4.001048e-05
421.60499999973746,2.759934e-05,421.60499999973746,3.034174e-05,421.60499999973746,1.70918e-05,421.60499999973746,4.010754e-05
421.61999999973744,2.666162e-05,421.61999999973744,3.189401e-05,421.61999999973744,1.660096e-05,421.61999999973744,4.081533e-05
421.63499999973743,2.612578e-05,421.63499999973743,3.243098e-05,421.63499999973743,1.681762e-05,421.63499999973743,4.108502e-05
421.6499999997374,2.64276e-05,421.6499999997374,3.270822e-05,421.6499999997374,1.603729e-05,421.6499999997374,4.062853e-05
421.6649999997374,2.647499e-05,421.6649999997374,3.455616e-05,421.6649999997374,1.526413e-05,421.6649999997374,3.920529e-05
421.6799999997374,2.591953e-05,421.6799999997374,3.480191e-05,421.6799999997374,1.449347e-05,421.6799999997374,3.884758e-05
421.6949999997374,2.596189e-05,421.6949999997374,7.760809e-05,421.6949999997374,1.458841e-05,421.6949999997374,3.556582e-05
421.70999999973736,2.519249e-05,421.70999999973736,8.617796e-05,421.70999999973736,1.467409e-05,421.70999999973736,3.595071e-05
421.72499999973735,2.488248e-05,421.72499999973735,9.456648e-05,421.72499999973735,1.520403e-05,421.72499999973735,2.891882e-05
421.73999999973734,2.830289e-05,421.73999999973734,9.467054e-05,421.73999999973734,1.724278e-05,421.73999999973734,2.878309e-05
421.7549999997373,2.874048e-05,421.7549999997373,9.364558e-05,421.7549999997373,1.738111e-05,421.7549999997373,2.916136e-05
421.7699999997373,3.050242e-05,421.7699999997373,9.34429e-05,421.7699999997373,1.718058e-05,421.7699999997373,2.876007e-05
421.7849999997373,3.141517e-05,421.7849999997373,9.388476e-05,421.7849999997373,1.619028e-05,421.7849999997373,2.745964e-05
421.7999999997373,3.032409e-05,421.7999999997373,9.399813e-05,421.7999999997373,1.594303e-05,421.7999999997373,2.743758e-05
421.81499999973727,3.141562e-05,421.81499999973727,9.406419e-05,421.81499999973727,2.090515e-05,421.81499999973727,2.839829e-05
421.82999999973725,3.181485e-05,421.82999999973725,9.391506e-05,421.82999999973725,2.085387e-05,421.82999999973725,2.760291e-05
421.84499999973724,3.315564e-05,421.84499999973724,9.418197e-05,421.84499999973724,2.111167e-05,421.84499999973724,2.670017e-05
421.8599999997372,3.279166e-05,421.8599999997372,9.428691e-05,421.8599999997372,2.091728e-05,421.8599999997372,2.631917e-05
421.8749999997372,3.460708e-05,421.8749999997372,9.409922e-05,421.8749999997372,2.131421e-05,421.8749999997372,2.483942e-05
421.8899999997372,3.500894e-05,421.8899999997372,9.426555e-05,421.8899999997372,2.128313e-05,421.8899999997372,2.568806e-05
421.9049999997372,3.444142e-05,421.9049999997372,9.409383e-05,421.9049999997372,2.185717e-05,421.9049999997372,2.622158e-05
421.9199999997372,3.438616e-05,421.9199999997372,9.44787e-05,421.9199999997372,2.179585e-05,421.9199999997372,2.498981e-05
421.93499999973716,3.383401e-05,421.93499999973716,8.05456e-05,421.93499999973716,2.157042e-05,421.93499999973716,2.528347e-05
421.94999999973714,3.449455e-05,421.94999999973714,6.142617e-05,421.94999999973714,2.143613e-05,421.94999999973714,2.514996e-05
421.96499999973713,3.520715e-05,421.96499999973713,4.579824e-05,421.96499999973713,2.147421e-05,421.96499999973713,2.42622e-05
421.9799999997371,3.212022e-05,421.9799999997371,3.475655e-05,421.9799999997371,2.094621e-05,421.9799999997371,2.629293e-05
421.9949999997371,3.281828e-05,421.9949999997371,3.476141e-05,421.9949999997371,2.22031e-05,421.9949999997371,2.556548e-05
422.0099999997371,3.409323e-05,422.0099999997371,3.054995e-05,422.0099999997371,2.228479e-05,422.0099999997371,2.598196e-05
422.0249999997371,3.296646e-05,422.0249999997371,3.036958e-05,422.0249999997371,2.208669e-05,422.0249999997371,2.547275e-05
422.03999999973706,3.269055e-05,422.03999999973706,2.84424e-05,422.03999999973706,2.268078e-05,422.03999999973706,2.766459e-05
422.05499999973705,3.282772e-05,422.05499999973705,2.987103e-05,422.05499999973705,2.283243e-05,422.05499999973705,2.7688e-05
422.06999999973704,3.261765e-05,422.06999999973704,2.925059e-05,422.06999999973704,1.870521e-05,422.06999999973704,2.836652e-05
422.084999999737,3.25082e-05,422.084999999737,2.974864e-05,422.084999999737,1.887241e-05,422.084999999737,3.171906e-05
422.099999999737,3.192667e-05,422.099999999737,2.865064e-05,422.099999999737,1.904849e-05,422.099999999737,3.168796e-05
422.114999999737,3.156458e-05,422.114999999737,2.961243e-05,422.114999999737,1.905662e-05,422.114999999737,3.288517e-05
422.129999999737,3.002438e-05,422.129999999737,2.793871e-05,422.129999999737,1.943503e-05,422.129999999737,3.320743e-05
422.14499999973697,2.927995e-05,422.14499999973697,2.832478e-05,422.14499999973697,1.936532e-05,422.14499999973697,3.217324e-05
422.15999999973695,2.930977e-05,422.15999999973695,2.708205e-05,422.15999999973695,1.934858e-05,422.15999999973695,3.174836e-05
422.17499999973694,2.961291e-05,422.17499999973694,2.663308e-05,422.17499999973694,1.976135e-05,422.17499999973694,3.214346e-05
422.1899999997369,2.971785e-05,422.1899999997369,2.662462e-05,422.1899999997369,1.98183e-05,422.1899999997369,3.178384e-05
422.2049999997369,2.9499e-05,422.2049999997369,2.604261e-05,422.2049999997369,2.006623e-05,422.2049999997369,3.168708e-05
422.2199999997369,2.906507e-05,422.2199999997369,2.506243e-05,422.2199999997369,2.028547e-05,422.2199999997369,3.282687e-05
422.2349999997369,3.059694e-05,422.2349999997369,2.321665e-05,422.2349999997369,1.845655e-05,422.2349999997369,3.339651e-05
422.2499999997369,2.835907e-05,422.2499999997369,2.269878e-05,422.2499999997369,1.756974e-05,422.2499999997369,3.336613e-05
422.26499999973686,2.709245e-05,422.26499999973686,2.269381e-05,422.26499999973686,1.815722e-05,422.26499999973686,3.305011e-05
422.27999999973684,2.685221e-05,422.27999999973684,2.260238e-05,422.27999999973684,1.767525e-05,422.27999999973684,3.296176e-05
422.29499999973683,2.616188e-05,422.29499999973683,2.205158e-05,422.29499999973683,1.764254e-05,422.29499999973683,3.030783e-05
422.3099999997368,2.8787e-05,422.3099999997368,2.108096e-05,422.3099999997368,1.854183e-05,422.3099999997368,3.081897e-05
422.3249999997368,2.786449e-05,422.3249999997368,2.181394e-05,422.3249999997368,1.831019e-05,422.3249999997368,2.748528e-05
422.3399999997368,2.831135e-05,422.3399999997368,2.436012e-05,422.3399999997368,1.831327e-05,422.3399999997368,2.641107e-05
422.3549999997368,2.736715e-05,422.3549999997368,2.501573e-05,422.3549999997368,1.792454e-05,422.3549999997368,2.65515e-05
422.36999999973676,2.719779e-05,422.36999999973676,2.389775e-05,422.36999999973676,1.808259e-05,422.36999999973676,2.605937e-05
422.38499999973675,2.759066e-05,422.38499999973675,2.639186e-05,422.38499999973675,1.762097e-05,422.38499999973675,2.710285e-05
422.39999999973674,2.82411e-05,422.39999999973674,2.526006e-05,422.39999999973674,1.737706e-05,422.39999999973674,2.685221e-05
422.4149999997367,2.826902e-05,422.4149999997367,2.430455e-05,422.4149999997367,1.753523e-05,422.4149999997367,2.698095e-05
422.4299999997367,2.912414e-05,422.4299999997367,2.74232e-05,422.4299999997367,1.708521e-05,422.4299999997367,2.775254e-05
422.4449999997367,2.99012e-05,422.4449999997367,2.768139e-05,422.4449999997367,1.69893e-05,422.4449999997367,2.836751e-05
422.4599999997367,2.985877e-05,422.4599999997367,4.761744e-05,422.4599999997367,1.731941e-05,422.4599999997367,2.989272e-05
422.47499999973667,2.914155e-05,422.47499999973667,5.49621e-05,422.47499999973667,1.671344e-05,422.47499999973667,2.858616e-05
422.48999999973665,2.691351e-05,422.48999999973665,5.95335e-05,422.48999999973665,1.687949e-05,422.48999999973665,2.88315e-05
422.50499999973664,2.630257e-05,422.50499999973664,5.963516e-05,422.50499999973664,1.578497e-05,422.50499999973664,2.890956e-05
422.5199999997366,2.595918e-05,422.5199999997366,5.959192e-05,422.5199999997366,1.562531e-05,422.5199999997366,2.848051e-05
422.5349999997366,2.721074e-05,422.5349999997366,5.970174e-05,422.5349999997366,1.656613e-05,422.5349999997366,2.872184e-05
422.5499999997366,2.691037e-05,422.5499999997366,5.975032e-05,422.5499999997366,1.654656e-05,422.5499999997366,2.889933e-05
422.5649999997366,2.368697e-05,422.5649999997366,5.941271e-05,422.5649999997366,1.516692e-05,422.5649999997366,2.951523e-05
422.5799999997366,2.337628e-05,422.5799999997366,5.950463e-05,422.5799999997366,1.47755e-05,422.5799999997366,3.034824e-05
422.59499999973656,2.392014e-05,422.59499999973656,5.86791e-05,422.59499999973656,1.493009e-05,422.59499999973656,2.989272e-05
422.60999999973654,2.391955e-05,422.60999999973654,5.85202e-05,422.60999999973654,1.483069e-05,422.60999999973654,2.923614e-05
422.62499999973653,2.381271e-05,422.62499999973653,5.86116e-05,422.62499999973653,1.481739e-05,422.62499999973653,2.87963e-05
422.6399999997365,2.412771e-05,422.6399999997365,5.86827e-05,422.6399999997365,1.540285e-05,422.6399999997365,2.868405e-05
422.6549999997365,2.37155e-05,422.6549999997365,5.935625e-05,422.6549999997365,1.56208e-05,422.6549999997365,2.890956e-05
422.6699999997365,2.280836e-05,422.6699999997365,5.93071e-05,422.6699999997365,1.521884e-05,422.6699999997365,2.908397e-05
422.6849999997365,2.067546e-05,422.6849999997365,5.788414e-05,422.6849999997365,1.592711e-05,422.6849999997365,3.033942e-05
422.69999999973646,2.024724e-05,422.69999999973646,4.773238e-05,422.69999999973646,1.554215e-05,422.69999999973646,2.985924e-05
422.71499999973645,2.242845e-05,422.71499999973645,4.293595e-05,422.71499999973645,1.501289e-05,422.71499999973645,2.864031e-05
422.72999999973644,2.308461e-05,422.72999999973644,2.963478e-05,422.72999999973644,1.481549e-05,422.72999999973644,2.687318e-05
422.7449999997364,2.459951e-05,422.7449999997364,2.701643e-05,422.7449999997364,1.500257e-05,422.7449999997364,2.576472e-05
422.7599999997364,2.630418e-05,422.7599999997364,2.692974e-05,422.7599999997364,1.513345e-05,422.7599999997364,2.743604e-05
422.7749999997364,2.694072e-05,422.7749999997364,2.995627e-05,422.7749999997364,1.511296e-05,422.7749999997364,2.76126e-05
422.7899999997364,2.572861e-05,422.7899999997364,3.029295e-05,422.7899999997364,1.522162e-05,422.7899999997364,2.64851e-05
422.80499999973637,2.607882e-05,422.80499999973637,3.039647e-05,422.80499999973637,1.503258e-05,422.80499999973637,2.684014e-05
422.81999999973635,2.599496e-05,422.81999999973635,3.03227e-05,422.81999999973635,1.519847e-05,422.81999999973635,2.665634e-05
422.83499999973634,2.47906e-05,422.83499999973634,2.898791e-05,422.83499999973634,1.534054e-05,422.83499999973634,2.565349e-05
422.8499999997363,2.497572e-05,422.8499999997363,2.929631e-05,422.8499999997363,1.503352e-05,422.8499999997363,2.612362e-05
422.8649999997363,2.529572e-05,422.8649999997363,2.894949e-05,422.8649999997363,1.708191e-05,422.8649999997363,2.619847e-05
422.8799999997363,2.604748e-05,422.8799999997363,2.890323e-05,422.8799999997363,1.800217e-05,422.8799999997363,2.580679e-05
422.8949999997363,2.572587e-05,422.8949999997363,2.775051e-05,422.8949999997363,1.721907e-05,422.8949999997363,2.550811e-05
422.90999999973627,2.985783e-05,422.90999999973627,2.629828e-05,422.90999999973627,1.731127e-05,422.90999999973627,2.485586e-05
422.92499999973626,5.046487e-05,422.92499999973626,3.000561e-05,422.92499999973626,1.832941e-05,422.92499999973626,2.424419e-05
422.93999999973624,7.301114e-05,422.93999999973624,3.096216e-05,422.93999999973624,1.794025e-05,422.93999999973624,2.199978e-05
422.95499999973623,9.902764e-05,422.95499999973623,2.8873e-05,422.95499999973623,1.911787e-05,422.95499999973623,2.189001e-05
422.9699999997362,0.0001052686,422.9699999997362,2.893246e-05,422.9699999997362,1.910387e-05,422.9699999997362,2.13802e-05
422.9849999997362,0.0001053791,422.9849999997362,3.1928e-05,422.9849999997362,1.912966e-05,422.9849999997362,2.271491e-05
422.9999999997362,0.0001094345,422.9999999997362,3.260123e-05,422.9999999997362,1.914144e-05,422.9999999997362,2.140917e-05
423.0149999997362,0.0001125265,423.0149999997362,3.318962e-05,423.0149999997362,1.97321e-05,423.0149999997362,1.982043e-05
423.02999999973616,0.0001130537,423.02999999973616,3.086099e-05,423.02999999973616,2.205031e-05,423.02999999973616,1.967992e-05
423.04499999973615,0.0001146722,423.04499999973615,3.301898e-05,423.04499999973615,2.27855e-05,423.04499999973615,2.038107e-05
423.05999999973614,0.0001161707,423.05999999973614,3.477114e-05,423.05999999973614,2.390894e-05,423.05999999973614,1.926029e-05
423.0749999997361,0.000116683,423.0749999997361,4.039975e-05,423.0749999997361,2.466984e-05,423.0749999997361,1.892607e-05
423.0899999997361,0.0001180076,423.0899999997361,5.880907e-05,423.0899999997361,3.029853e-05,423.0899999997361,1.811684e-05
423.1049999997361,0.0001192299,423.1049999997361,6.528709e-05,423.1049999997361,4.274326e-05,423.1049999997361,1.859797e-05
423.1199999997361,0.0001205279,423.1199999997361,7.172899e-05,423.1199999997361,0.0001398403,423.1199999997361,2.067478e-05
423.13499999973607,0.0001216132,423.13499999973607,7.635997e-05,423.13499999973607,0.0002381579,423.13499999973607,2.160957e-05
423.14999999973605,0.0001220517,423.14999999973605,7.944342e-05,423.14999999973605,0.0004052004,423.14999999973605,2.222846e-05
423.16499999973604,0.0001186508,423.16499999973604,7.93018e-05,423.16499999973604,0.0004862025,423.16499999973604,2.39625e-05
423.179999999736,0.0001087986,423.179999999736,7.797604e-05,423.179999999736,0.0005028539,423.179999999736,2.37766e-05
423.194999999736,9.704328e-05,423.194999999736,7.781654e-05,423.194999999736,0.000510927,423.194999999736,2.436937e-05
423.209999999736,7.318112e-05,423.209999999736,7.803528e-05,423.209999999736,0.0005122168,423.209999999736,2.555942e-05
423.224999999736,6.890002e-05,423.224999999736,7.709069e-05,423.224999999736,0.0005122299,423.224999999736,2.552137e-05
423.23999999973597,6.898543e-05,423.23999999973597,7.680034e-05,423.23999999973597,0.0005122719,423.23999999973597,2.681073e-05
423.25499999973596,6.161782e-05,423.25499999973596,7.707498e-05,423.25499999973596,0.0005133684,423.25499999973596,2.710544e-05
423.26999999973594,6.396906e-05,423.26999999973594,7.713326e-05,423.26999999973594,0.0005144775,423.26999999973594,2.809207e-05
423.28499999973593,6.59498e-05,423.28499999973593,7.689419e-05,423.28499999973593,0.0005145261,423.28499999973593,2.854424e-05
423.2999999997359,6.480524e-05,423.2999999997359,7.629242e-05,423.2999999997359,0.0005164433,423.2999999997359,2.798103e-05
423.3149999997359,6.471846e-05,423.3149999997359,7.644865e-05,423.3149999997359,0.0005236121,423.3149999997359,2.794677e-05
423.3299999997359,6.513827e-05,423.3299999997359,7.292775e-05,423.3299999997359,0.0005357579,423.3299999997359,2.822214e-05
423.3449999997359,6.429656e-05,423.3449999997359,5.418542e-05,423.3449999997359,0.0005551286,423.3449999997359,2.836056e-05
423.35999999973586,6.59987e-05,423.35999999973586,5.241467e-05,423.35999999973586,0.0005593594,423.35999999973586,2.897624e-05
423.37499999973585,6.512053e-05,423.37499999973585,3.84979e-05,423.37499999973585,0.0005776284,423.37499999973585,2.802379e-05
423.38999999973583,6.541923e-05,423.38999999973583,3.161364e-05,423.38999999973583,0.0005392519,423.38999999973583,2.794728e-05
423.4049999997358,6.679366e-05,423.4049999997358,2.653399e-05,423.4049999997358,0.0004289483,423.4049999997358,2.887934e-05
423.4199999997358,6.5756e-05,423.4199999997358,2.593529e-05,423.4199999997358,0.0004168246,423.4199999997358,2.736663e-05
423.4349999997358,6.54371e-05,423.4349999997358,2.571985e-05,423.4349999997358,0.0004129998,423.4349999997358,2.787915e-05
423.4499999997358,6.541664e-05,423.4499999997358,2.605559e-05,423.4499999997358,0.0004092955,423.4499999997358,2.680916e-05
423.46499999973577,6.415092e-05,423.46499999973577,2.538134e-05,423.46499999973577,0.0004104628,423.46499999973577,2.665106e-05
423.47999999973575,6.384761e-05,423.47999999973575,2.544287e-05,423.47999999973575,0.0004108465,423.47999999973575,2.611391e-05
423.49499999973574,6.358762e-05,423.49499999973574,2.496331e-05,423.49499999973574,0.000410647,423.49499999973574,2.593746e-05
423.5099999997357,6.02962e-05,423.5099999997357,2.281021e-05,423.5099999997357,0.0004091636,423.5099999997357,2.556383e-05
423.5249999997357,5.500156e-05,423.5249999997357,2.293216e-05,423.5249999997357,0.0004081228,423.5249999997357,2.441327e-05
423.5399999997357,5.106701e-05,423.5399999997357,2.285587e-05,423.5399999997357,0.0004077704,423.5399999997357,2.452438e-05
423.5549999997357,4.738673e-05,423.5549999997357,1.465488e-05,423.5549999997357,0.0004024178,423.5549999997357,2.488531e-05
423.56999999973567,4.648181e-05,423.56999999973567,2.918406e-05,423.56999999973567,0.0003940964,423.56999999973567,2.478605e-05
423.58499999973566,4.425144e-05,423.58499999973566,3.338555e-05,423.58499999973566,0.00037018,423.58499999973566,2.467212e-05
423.59999999973564,3.744468e-05,423.59999999973564,3.93226e-05,423.59999999973564,0.0003447405,423.59999999973564,2.483545e-05
423.61499999973563,3.107705e-05,423.61499999973563,4.001682e-05,423.61499999973563,0.0003060326,423.61499999973563,2.285525e-05
423.6299999997356,2.85319e-05,423.6299999997356,4.187595e-05,423.6299999997356,0.0002450435,423.6299999997356,2.27025e-05
423.6449999997356,2.730995e-05,423.6449999997356,4.190789e-05,423.6449999997356,0.0002074428,423.6449999997356,2.204328e-05
423.6599999997356,2.211664e-05,423.6599999997356,4.232398e-05,423.6599999997356,0.0001566449,423.6599999997356,2.179262e-05
423.6749999997356,2.495541e-05,423.6749999997356,4.276501e-05,423.6749999997356,9.791799e-05,423.6749999997356,2.308034e-05
423.68999999973556,2.520982e-05,423.68999999973556,4.283709e-05,423.68999999973556,5.402504e-05,423.68999999973556,2.322514e-05
423.70499999973555,2.547164e-05,423.70499999973555,4.396177e-05,423.70499999973555,4.117886e-05,423.70499999973555,2.410259e-05
423.71999999973553,2.447896e-05,423.71999999973553,4.471411e-05,423.71999999973553,2.089504e-05,423.71999999973553,2.273041e-05
423.7349999997355,2.407979e-05,423.7349999997355,4.501866e-05,423.7349999997355,1.613711e-05,423.7349999997355,2.301923e-05
423.7499999997355,2.378489e-05,423.7499999997355,4.505775e-05,423.7499999997355,1.559824e-05,423.7499999997355,2.34905e-05
423.7649999997355,2.427961e-05,423.7649999997355,4.533577e-05,423.7649999997355,1.511482e-05,423.7649999997355,2.447666e-05
423.7799999997355,2.405754e-05,423.7799999997355,4.533079e-05,423.7799999997355,1.383611e-05,423.7799999997355,2.469495e-05
423.79499999973547,2.322757e-05,423.79499999973547,4.530562e-05,423.79499999973547,1.514183e-05,423.79499999973547,2.49932e-05
423.80999999973545,2.197031e-05,423.80999999973545,4.538049e-05,423.80999999973545,1.695693e-05,423.80999999973545,2.510791e-05
423.82499999973544,2.212238e-05,423.82499999973544,3.742549e-05,423.82499999973544,1.714036e-05,423.82499999973544,2.680232e-05
423.8399999997354,2.232332e-05,423.8399999997354,2.963335e-05,423.8399999997354,1.705054e-05,423.8399999997354,2.652284e-05
423.8549999997354,2.24228e-05,423.8549999997354,2.681231e-05,423.8549999997354,1.695028e-05,423.8549999997354,2.592116e-05
423.8699999997354,2.288112e-05,423.8699999997354,2.639079e-05,423.8699999997354,1.66856e-05,423.8699999997354,2.605018e-05
423.8849999997354,2.282132e-05,423.8849999997354,2.459951e-05,423.8849999997354,1.616415e-05,423.8849999997354,2.998212e-05
423.89999999973537,2.203433e-05,423.89999999973537,2.427671e-05,423.89999999973537,1.618157e-05,423.89999999973537,3.179536e-05
423.91499999973536,2.197095e-05,423.91499999973536,2.34725e-05,423.91499999973536,1.622938e-05,423.91499999973536,3.408084e-05
423.92999999973534,1.810984e-05,423.92999999973534,2.277622e-05,423.92999999973534,1.577515e-05,423.92999999973534,3.391219e-05
423.94499999973533,1.844662e-05,423.94499999973533,2.237122e-05,423.94499999973533,1.59103e-05,423.94499999973533,3.358286e-05
423.9599999997353,1.710334e-05,423.9599999997353,2.041077e-05,423.9599999997353,1.62554e-05,423.9599999997353,3.385649e-05
423.9749999997353,1.756492e-05,423.9749999997353,1.795281e-05,423.9749999997353,1.618157e-05,423.9749999997353,3.406595e-05
423.9899999997353,2.013211e-05,423.9899999997353,1.747084e-05,423.9899999997353,1.773731e-05,423.9899999997353,3.399103e-05
424.0049999997353,2.248929e-05,424.0049999997353,1.704228e-05,424.0049999997353,1.813393e-05,424.0049999997353,3.40986e-05
424.01999999973526,2.16187e-05,424.01999999973526,1.64012e-05,424.01999999973526,1.854487e-05,424.01999999973526,3.413824e-05
424.03499999973525,2.267581e-05,424.03499999973525,1.652186e-05,424.03499999973525,1.876536e-05,424.03499999973525,3.506724e-05
424.04999999973523,2.331172e-05,424.04999999973523,1.653209e-05,424.04999999973523,1.734054e-05,424.04999999973523,3.523515e-05
424.0649999997352,2.421105e-05,424.0649999997352,1.446233e-05,424.0649999997352,1.546036e-05,424.0649999997352,3.492152e-05
424.0799999997352,2.61371e-05,424.0799999997352,1.40523e-05,424.0799999997352,1.54631e-05,424.0799999997352,3.492999e-05
424.0949999997352,2.660238e-05,424.0949999997352,1.372982e-05,424.0949999997352,1.595892e-05,424.0949999997352,3.521435e-05
424.1099999997352,2.747298e-05,424.1099999997352,1.392441e-05,424.1099999997352,1.602059e-05,424.1099999997352,3.521355e-05
424.12499999973517,2.804941e-05,424.12499999973517,1.340694e-05,424.12499999973517,1.612663e-05,424.12499999973517,3.34412e-05
424.13999999973515,2.861374e-05,424.13999999973515,1.378e-05,424.13999999973515,1.627272e-05,424.13999999973515,3.201875e-05
424.15499999973514,2.809558e-05,424.15499999973514,1.624933e-05,424.15499999973514,1.662809e-05,424.15499999973514,3.196636e-05
424.1699999997351,2.857778e-05,424.1699999997351,1.722316e-05,424.1699999997351,1.662555e-05,424.1699999997351,3.035845e-05
424.1849999997351,2.860143e-05,424.1849999997351,1.758096e-05,424.1849999997351,1.640549e-05,424.1849999997351,3.094942e-05
424.1999999997351,2.840821e-05,424.1999999997351,1.797241e-05,424.1999999997351,1.69561e-05,424.1999999997351,3.084547e-05
424.2149999997351,2.911882e-05,424.2149999997351,1.904035e-05,424.2149999997351,1.732266e-05,424.2149999997351,3.003329e-05
424.22999999973507,2.899374e-05,424.22999999973507,2.062908e-05,424.22999999973507,1.728847e-05,424.22999999973507,2.953908e-05
424.24499999973506,2.858074e-05,424.24499999973506,2.155082e-05,424.24499999973506,1.638573e-05,424.24499999973506,2.866686e-05
424.25999999973504,2.99351e-05,424.25999999973504,2.173437e-05,424.25999999973504,1.600212e-05,424.25999999973504,2.806447e-05
424.27499999973503,3.074575e-05,424.27499999973503,2.136702e-05,424.27499999973503,1.61179e-05,424.27499999973503,2.708621e-05
424.289999999735,3.095306e-05,424.289999999735,2.150174e-05,424.289999999735,1.657124e-05,424.289999999735,2.587874e-05
424.304999999735,3.174126e-05,424.304999999735,2.86762e-05,424.304999999735,1.658058e-05,424.304999999735,2.527511e-05
424.319999999735,3.121274e-05,424.319999999735,2.961481e-05,424.319999999735,1.663741e-05,424.319999999735,2.499432e-05
424.334999999735,2.991251e-05,424.334999999735,3.232307e-05,424.334999999735,1.675805e-05,424.334999999735,2.442134e-05
424.34999999973496,3.013583e-05,424.34999999973496,3.558246e-05,424.34999999973496,1.667547e-05,424.34999999973496,2.499207e-05
424.36499999973495,3.024874e-05,424.36499999973495,3.625388e-05,424.36499999973495,1.643723e-05,424.36499999973495,2.496726e-05
424.37999999973493,2.934963e-05,424.37999999973493,3.723114e-05,424.37999999973493,1.712803e-05,424.37999999973493,2.489324e-05
424.3949999997349,3.005298e-05,424.3949999997349,4.496668e-05,424.3949999997349,1.759137e-05,424.3949999997349,2.623608e-05
424.4099999997349,2.984509e-05,424.4099999997349,7.590535e-05,424.4099999997349,1.672523e-05,424.4099999997349,2.201194e-05
424.4249999997349,2.933331e-05,424.4249999997349,9.112575e-05,424.4249999997349,1.71896e-05,424.4249999997349,2.212365e-05
424.4399999997349,2.970837e-05,424.4399999997349,9.29362e-05,424.4399999997349,1.784183e-05,424.4399999997349,2.16909e-05
424.45499999973487,2.990167e-05,424.45499999973487,9.366905e-05,424.45499999973487,1.709592e-05,424.45499999973487,2.188679e-05
424.46999999973485,2.943972e-05,424.46999999973485,9.422011e-05,424.46999999973485,1.753442e-05,424.46999999973485,2.261297e-05
424.48499999973484,2.831732e-05,424.48499999973484,9.49098e-05,424.48499999973484,1.735434e-05,424.48499999973484,2.256371e-05
424.4999999997348,2.664048e-05,424.4999999997348,9.574383e-05,424.4999999997348,1.713954e-05,424.4999999997348,2.353124e-05
424.5149999997348,2.472859e-05,424.5149999997348,9.603793e-05,424.5149999997348,1.812461e-05,424.5149999997348,2.379792e-05
424.5299999997348,2.334794e-05,424.5299999997348,9.60039e-05,424.5299999997348,1.811295e-05,424.5299999997348,2.422327e-05
424.5449999997348,2.301923e-05,424.5449999997348,9.483749e-05,424.5449999997348,1.847486e-05,424.5449999997348,2.541849e-05
424.55999999973477,2.162847e-05,424.55999999973477,9.395315e-05,424.55999999973477,1.874208e-05,424.55999999973477,2.574558e-05
424.57499999973476,2.124868e-05,424.57499999973476,9.380415e-05,424.57499999973476,1.869618e-05,424.57499999973476,2.715218e-05
424.58999999973474,2.053394e-05,424.58999999973474,9.444485e-05,424.58999999973474,1.869618e-05,424.58999999973474,2.694699e-05
424.60499999973473,1.948064e-05,424.60499999973473,9.574383e-05,424.60499999973473,2.124205e-05,424.60499999973473,2.707112e-05
424.6199999997347,1.961468e-05,424.6199999997347,9.83724e-05,424.6199999997347,3.00736e-05,424.6199999997347,2.712622e-05
424.6349999997347,2.138086e-05,424.6349999997347,0.0001024859,424.6349999997347,3.600513e-05,424.6349999997347,2.701434e-05
424.6499999997347,2.070201e-05,424.6499999997347,8.550053e-05,424.6499999997347,3.994776e-05,424.6499999997347,2.423315e-05
424.6649999997347,2.056479e-05,424.6649999997347,7.502467e-05,424.6649999997347,4.460907e-05,424.6649999997347,2.455537e-05
424.67999999973466,2.07163e-05,424.67999999973466,6.509608e-05,424.67999999973466,4.483209e-05,424.67999999973466,2.421629e-05
424.69499999973465,2.029311e-05,424.69499999973465,6.344768e-05,424.69499999973465,4.467944e-05,424.69499999973465,2.455365e-05
424.70999999973463,2.070813e-05,424.70999999973463,6.351004e-05,424.70999999973463,4.597292e-05,424.70999999973463,2.370896e-05
424.7249999997346,2.071222e-05,424.7249999997346,6.550057e-05,424.7249999997346,4.675468e-05,424.7249999997346,2.413705e-05
424.7399999997346,2.028686e-05,424.7399999997346,6.570692e-05,424.7399999997346,4.800195e-05,424.7399999997346,2.41207e-05
424.7549999997346,2.068499e-05,424.7549999997346,6.833753e-05,424.7549999997346,4.851569e-05,424.7549999997346,2.313338e-05
424.7699999997346,2.073872e-05,424.7699999997346,8.281978e-05,424.7699999997346,4.918355e-05,424.7699999997346,2.266773e-05
424.78499999973457,2.12321e-05,424.78499999973457,8.50888e-05,424.78499999973457,4.977912e-05,424.78499999973457,2.297022e-05
424.79999999973455,2.127915e-05,424.79999999973455,8.619871e-05,424.79999999973455,5.331612e-05,424.79999999973455,2.171362e-05
424.81499999973454,2.117164e-05,424.81499999973454,8.652282e-05,424.81499999973454,5.682112e-05,424.81499999973454,2.12447e-05
424.8299999997345,2.125928e-05,424.8299999997345,8.518923e-05,424.8299999997345,5.802172e-05,424.8299999997345,1.978201e-05
424.8449999997345,2.155148e-05,424.8449999997345,8.582301e-05,424.8449999997345,5.83046e-05,424.8449999997345,1.960246e-05
424.8599999997345,2.163107e-05,424.8599999997345,8.404019e-05,424.8599999997345,5.828116e-05,424.8599999997345,1.893277e-05
424.8749999997345,2.315042e-05,424.8749999997345,8.636998e-05,424.8749999997345,6.8819e-05,424.8749999997345,1.923907e-05
424.88999999973447,2.16935e-05,424.88999999973447,8.070844e-05,424.88999999973447,6.974151e-05,424.88999999973447,2.073533e-05
424.90499999973446,2.155605e-05,424.90499999973446,7.771909e-05,424.90499999973446,6.975161e-05,424.90499999973446,2.159392e-05
424.91999999973444,2.189452e-05,424.91999999973444,7.790845e-05,424.91999999973444,6.968635e-05,424.91999999973444,2.217008e-05
424.93499999973443,2.237752e-05,424.93499999973443,7.949288e-05,424.93499999973443,6.977544e-05,424.93499999973443,2.219802e-05
424.9499999997344,2.227657e-05,424.9499999997344,7.882895e-05,424.9499999997344,7.065416e-05,424.9499999997344,2.19953e-05
424.9649999997344,2.209817e-05,424.9649999997344,8.002167e-05,424.9649999997344,7.013789e-05,424.9649999997344,2.406281e-05
424.9799999997344,2.273784e-05,424.9799999997344,7.741181e-05,424.9799999997344,6.916773e-05,424.9799999997344,2.360058e-05
424.9949999997344,2.287065e-05,424.9949999997344,7.613938e-05,424.9949999997344,6.854274e-05,424.9949999997344,2.376771e-05
425.00999999973436,2.282811e-05,425.00999999973436,7.164489e-05,425.00999999973436,6.75749e-05,425.00999999973436,2.438844e-05
425.02499999973435,2.252934e-05,425.02499999973435,5.602369e-05,425.02499999973435,6.722378e-05,425.02499999973435,2.614195e-05
425.03999999973433,2.218723e-05,425.03999999973433,5.419218e-05,425.03999999973433,6.508937e-05,425.03999999973433,2.593746e-05
425.0549999997343,2.221134e-05,425.0549999997343,5.434662e-05,425.0549999997343,6.202569e-05,425.0549999997343,2.59608e-05
425.0699999997343,2.389362e-05,425.0699999997343,5.55548e-05,425.0699999997343,6.060264e-05,425.0699999997343,2.598521e-05
425.0849999997343,2.593637e-05,425.0849999997343,5.690931e-05,425.0849999997343,5.938187e-05,425.0849999997343,2.605667e-05
425.0999999997343,2.519864e-05,425.0999999997343,5.476774e-05,425.0999999997343,5.933061e-05,425.0999999997343,2.607072e-05
425.11499999973427,2.394662e-05,425.11499999973427,4.878873e-05,425.11499999973427,5.337157e-05,425.11499999973427,2.743141e-05
425.12999999973425,2.411019e-05,425.12999999973425,4.482266e-05,425.12999999973425,3.718495e-05,425.12999999973425,2.810811e-05
425.14499999973424,2.417554e-05,425.14499999973424,4.686752e-05,425.14499999973424,3.106662e-05,425.14499999973424,2.673918e-05
425.1599999997342,2.408505e-05,425.1599999997342,4.649121e-05,425.1599999997342,2.388242e-05,425.1599999997342,2.834019e-05
425.1749999997342,2.432888e-05,425.1749999997342,4.426481e-05,425.1749999997342,2.231196e-05,425.1749999997342,2.861226e-05
425.1899999997342,2.550204e-05,425.1899999997342,4.15002e-05,425.1899999997342,2.221705e-05,425.1899999997342,2.813766e-05
425.2049999997342,2.55721e-05,425.2049999997342,4.134751e-05,425.2049999997342,1.870446e-05,425.2049999997342,2.809808e-05
425.21999999973417,2.561778e-05,425.21999999973417,3.937523e-05,425.21999999973417,2.446744e-05,425.21999999973417,2.680495e-05
425.23499999973416,2.554399e-05,425.23499999973416,3.988e-05,425.23499999973416,2.615703e-05,425.23499999973416,2.670755e-05
425.24999999973414,2.572533e-05,425.24999999973414,3.911067e-05,425.24999999973414,2.914928e-05,425.24999999973414,2.581334e-05
425.26499999973413,2.512418e-05,425.26499999973413,3.7899e-05,425.26499999973413,3.134514e-05,425.26499999973413,2.582861e-05
425.2799999997341,2.626559e-05,425.2799999997341,3.798922e-05,425.2799999997341,3.517433e-05,425.2799999997341,2.444441e-05
425.2949999997341,2.674445e-05,425.2949999997341,3.802924e-05,425.2949999997341,3.582864e-05,425.2949999997341,2.410376e-05
425.3099999997341,2.69334e-05,425.3099999997341,3.494329e-05,425.3099999997341,3.59217e-05,425.3099999997341,2.365305e-05
425.3249999997341,2.547496e-05,425.3249999997341,3.300575e-05,425.3249999997341,3.844261e-05,425.3249999997341,2.366853e-05
425.33999999973406,2.380206e-05,425.33999999973406,2.978461e-05,425.33999999973406,3.906058e-05,425.33999999973406,2.336242e-05
425.35499999973405,3.149399e-05,425.35499999973405,2.930111e-05,425.35499999973405,4.191529e-05,425.35499999973405,2.352585e-05
425.36999999973403,3.232613e-05,425.36999999973403,2.995815e-05,425.36999999973403,4.194989e-05,425.36999999973403,2.114034e-05
425.384999999734,3.259172e-05,425.384999999734,4.322696e-05,425.384999999734,4.186585e-05,425.384999999734,2.018662e-05
425.399999999734,3.269701e-05,425.399999999734,4.628197e-05,425.399999999734,4.166213e-05,425.399999999734,1.941617e-05
425.414999999734,3.34117e-05,425.414999999734,5.701911e-05,425.414999999734,4.189444e-05,425.414999999734,1.879162e-05
425.429999999734,3.367459e-05,425.429999999734,5.933299e-05,425.429999999734,4.151716e-05,425.429999999734,2.034718e-05
425.44499999973397,4.315946e-05,425.44499999973397,5.944707e-05,425.44499999973397,4.130524e-05,425.44499999973397,1.997618e-05
425.45999999973395,4.53137e-05,425.45999999973395,6.080291e-05,425.45999999973395,4.151886e-05,425.45999999973395,2.024863e-05
425.47499999973394,4.522595e-05,425.47499999973394,6.09413e-05,425.47499999973394,3.745596e-05,425.47499999973394,2.104685e-05
425.4899999997339,4.515987e-05,425.4899999997339,6.13176e-05,425.4899999997339,3.713036e-05,425.4899999997339,2.192345e-05
425.5049999997339,4.518357e-05,425.5049999997339,6.163702e-05,425.5049999997339,3.48965e-05,425.5049999997339,2.268015e-05
425.5199999997339,4.567659e-05,425.5199999997339,6.253257e-05,425.5199999997339,3.235357e-05,425.5199999997339,2.344127e-05
425.5349999997339,4.532271e-05,425.5349999997339,6.229898e-05,425.5349999997339,2.985924e-05,425.5349999997339,2.371906e-05
425.54999999973387,4.716295e-05,425.54999999973387,6.194478e-05,425.54999999973387,2.946937e-05,425.54999999973387,2.446111e-05
425.56499999973386,4.733795e-05,425.56499999973386,6.348741e-05,425.56499999973386,2.933042e-05,425.56499999973386,2.503375e-05
425.57999999973384,4.742654e-05,425.57999999973384,6.487954e-05,425.57999999973384,2.582643e-05,425.57999999973384,2.473656e-05
425.59499999973383,4.654541e-05,425.59499999973383,6.515103e-05,425.59499999973383,2.489889e-05,425.59499999973383,2.461153e-05
425.6099999997338,4.291758e-05,425.6099999997338,6.551477e-05,425.6099999997338,1.797398e-05,425.6099999997338,2.447263e-05
425.6249999997338,4.216158e-05,425.6249999997338,6.579969e-05,425.6249999997338,1.808181e-05,425.6249999997338,2.443576e-05
425.6399999997338,4.202001e-05,425.6399999997338,5.49885e-05,425.6399999997338,1.810361e-05,425.6399999997338,2.391425e-05
425.6549999997338,4.208834e-05,425.6549999997338,4.824228e-05,425.6549999997338,1.769676e-05,425.6549999997338,2.330628e-05
425.66999999973376,4.0758e-05,425.66999999973376,3.837145e-05,425.66999999973376,1.732185e-05,425.66999999973376,2.227341e-05
425.68499999973375,3.179492e-05,425.68499999973375,3.599535e-05,425.68499999973375,1.725993e-05,425.68499999973375,2.000859e-05
425.69999999973373,2.86231e-05,425.69999999973373,3.66023e-05,425.69999999973373,1.762737e-05,425.69999999973373,1.989067e-05
425.7149999997337,2.797549e-05,425.7149999997337,3.283202e-05,425.7149999997337,1.66069e-05,425.7149999997337,1.909649e-05
425.7299999997337,2.912753e-05,425.7299999997337,3.230215e-05,425.7299999997337,1.418599e-05,425.7299999997337,1.901592e-05
425.7449999997337,2.955386e-05,425.7449999997337,3.130197e-05,425.7449999997337,1.479265e-05,425.7449999997337,1.803345e-05
425.7599999997337,2.993134e-05,425.7599999997337,2.987622e-05,425.7599999997337,1.442625e-05,425.7599999997337,1.822769e-05
425.77499999973367,2.869388e-05,425.77499999973367,2.819518e-05,425.77499999973367,1.485632e-05,425.77499999973367,1.826397e-05
425.78999999973365,2.705863e-05,425.78999999973365,2.814717e-05,425.78999999973365,1.538364e-05,425.78999999973365,1.799591e-05
425.80499999973364,2.502361e-05,425.80499999973364,2.766255e-05,425.80499999973364,1.503727e-05,425.80499999973364,1.940093e-05
425.8199999997336,2.480764e-05,425.8199999997336,2.270188e-05,425.8199999997336,1.493764e-05,425.8199999997336,1.852131e-05
425.8349999997336,2.469838e-05,425.8349999997336,1.80053e-05,425.8349999997336,1.393452e-05,425.8349999997336,1.873757e-05
425.8499999997336,2.478605e-05,425.8499999997336,1.750387e-05,425.8499999997336,1.397087e-05,425.8499999997336,1.891565e-05
425.8649999997336,2.451116e-05,425.8649999997336,1.326646e-05,425.8649999997336,1.375135e-05,425.8649999997336,1.974852e-05
425.87999999973357,2.417612e-05,425.87999999973357,1.229317e-05,425.87999999973357,1.3989e-05,425.87999999973357,2.044938e-05
425.89499999973356,2.839233e-05,425.89499999973356,1.232178e-05,425.89499999973356,1.393755e-05,425.89499999973356,2.091256e-05
425.90999999973354,3.014098e-05,425.90999999973354,1.248871e-05,425.90999999973354,1.42207e-05,425.90999999973354,2.150502e-05
425.92499999973353,3.116893e-05,425.92499999973353,1.21896e-05,425.92499999973353,1.426916e-05,425.92499999973353,2.171622e-05
425.9399999997335,3.121229e-05,425.9399999997335,1.166884e-05,425.9399999997335,1.470861e-05,425.9399999997335,2.389539e-05
425.9549999997335,3.17164e-05,425.9549999997335,1.43744e-05,425.9549999997335,1.366709e-05,425.9549999997335,2.498023e-05
425.9699999997335,3.07746e-05,425.9699999997335,1.77627e-05,425.9699999997335,1.373905e-05,425.9699999997335,2.426917e-05
425.9849999997335,2.902142e-05,425.9849999997335,1.813859e-05,425.9849999997335,1.347402e-05,425.9849999997335,2.458175e-05
425.99999999973346,2.907331e-05,425.99999999973346,1.845731e-05,425.99999999973346,1.295596e-05,425.99999999973346,2.423606e-05
426.01499999973345,3.050796e-05,426.01499999973345,1.869844e-05,426.01499999973345,1.39416e-05,426.01499999973345,2.289281e-05
426.02999999973343,3.121951e-05,426.02999999973343,2.091391e-05,426.02999999973343,1.311267e-05,426.02999999973343,2.321968e-05
426.0449999997334,3.193549e-05,426.0449999997334,2.996473e-05,426.0449999997334,1.304697e-05,426.0449999997334,2.310718e-05
426.0599999997334,3.219207e-05,426.0599999997334,3.721903e-05,426.0599999997334,1.307501e-05,426.0599999997334,2.21561e-05
426.0749999997334,3.244227e-05,426.0749999997334,5.397443e-05,426.0749999997334,1.303725e-05,426.0749999997334,2.22367e-05
426.0899999997334,3.219338e-05,426.0899999997334,5.792209e-05,426.0899999997334,1.300805e-05,426.0899999997334,2.169869e-05
426.10499999973337,3.260037e-05,426.10499999973337,5.819239e-05,426.10499999973337,1.341954e-05,426.10499999973337,2.189709e-05
426.11999999973335,3.342476e-05,426.11999999973335,5.996589e-05,426.11999999973335,1.30048e-05,426.11999999973335,2.114234e-05
426.13499999973334,3.293355e-05,426.13499999973334,6.0722e-05,426.13499999973334,1.341324e-05,426.13499999973334,2.087818e-05
426.1499999997333,3.00572e-05,426.1499999997333,6.131049e-05,426.1499999997333,1.318659e-05,426.1499999997333,2.073465e-05
426.1649999997333,2.783667e-05,426.1649999997333,6.298911e-05,426.1649999997333,1.402018e-05,426.1649999997333,2.004657e-05
426.1799999997333,2.818768e-05,426.1799999997333,6.35792e-05,426.1799999997333,1.404729e-05,426.1799999997333,1.859645e-05
426.1949999997333,2.747041e-05,426.1949999997333,6.361242e-05,426.1949999997333,1.442918e-05,426.1949999997333,1.75553e-05
426.20999999973327,2.712311e-05,426.20999999973327,6.320521e-05,426.20999999973327,1.476215e-05,426.20999999973327,1.690868e-05
426.22499999973326,2.714284e-05,426.22499999973326,6.242977e-05,426.22499999973326,1.613449e-05,426.22499999973326,1.700421e-05
426.23999999973324,2.712518e-05,426.23999999973324,6.283102e-05,426.23999999973324,1.618505e-05,426.23999999973324,1.672018e-05
426.25499999973323,2.624574e-05,426.25499999973323,6.28003e-05,426.25499999973323,1.755289e-05,426.25499999973323,1.650821e-05
426.2699999997332,2.54733e-05,426.2699999997332,6.216067e-05,426.2699999997332,1.706623e-05,426.2699999997332,1.644922e-05
426.2849999997332,2.400479e-05,426.2849999997332,6.191612e-05,426.2849999997332,1.695527e-05,426.2849999997332,1.48942e-05
426.2999999997332,2.339797e-05,426.2999999997332,5.624853e-05,426.2999999997332,1.719697e-05,426.2999999997332,1.475833e-05
426.3149999997332,2.260799e-05,426.3149999997332,4.892769e-05,426.3149999997332,1.807168e-05,426.3149999997332,1.456812e-05
426.32999999973316,2.297512e-05,426.32999999973316,3.445328e-05,426.32999999973316,1.795595e-05,426.32999999973316,1.559824e-05
426.34499999973315,2.331051e-05,426.34499999973315,2.985405e-05,426.34499999973315,1.820603e-05,426.34499999973315,1.620419e-05
426.35999999973313,2.277684e-05,426.35999999973313,2.942345e-05,426.35999999973313,1.758015e-05,426.35999999973313,1.677989e-05
426.3749999997331,2.113368e-05,426.3749999997331,2.646009e-05,426.3749999997331,1.775239e-05,426.3749999997331,1.6258e-05
426.3899999997331,1.993947e-05,426.3899999997331,2.593529e-05,426.3899999997331,1.715268e-05,426.3899999997331,1.667969e-05
426.4049999997331,1.920242e-05,426.4049999997331,2.179715e-05,426.4049999997331,1.699593e-05,426.4049999997331,1.815257e-05
426.4199999997331,1.966059e-05,426.4199999997331,2.077266e-05,426.4199999997331,1.701001e-05,426.4199999997331,1.88126e-05
426.43499999973307,1.918995e-05,426.43499999973307,2.054628e-05,426.43499999973307,1.683186e-05,426.43499999973307,1.929536e-05
426.44999999973305,2.601176e-05,426.44999999973305,2.017964e-05,426.44999999973305,1.62233e-05,426.44999999973305,1.915615e-05
426.46499999973304,2.633468e-05,426.46499999973304,1.956074e-05,426.46499999973304,1.628916e-05,426.46499999973304,1.951243e-05
426.479999999733,2.740727e-05,426.479999999733,1.706376e-05,426.479999999733,1.603729e-05,426.479999999733,1.94611e-05
426.494999999733,2.759627e-05,426.494999999733,1.691118e-05,426.494999999733,2.007115e-05,426.494999999733,1.953768e-05
426.509999999733,2.72423e-05,426.509999999733,1.733323e-05,426.509999999733,1.91488e-05,426.509999999733,1.952903e-05
426.524999999733,2.757432e-05,426.524999999733,2.278488e-05,426.524999999733,1.88358e-05,426.524999999733,1.956146e-05
426.53999999973297,3.224847e-05,426.53999999973297,2.519864e-05,426.53999999973297,1.909576e-05,426.53999999973297,1.961252e-05
426.55499999973296,3.324305e-05,426.55499999973296,2.61247e-05,426.55499999973296,1.960606e-05,426.55499999973296,1.954849e-05
426.56999999973294,3.314332e-05,426.56999999973294,2.595321e-05,426.56999999973294,2.113568e-05,426.56999999973294,1.98531e-05
426.58499999973293,3.269701e-05,426.58499999973293,2.516284e-05,426.58499999973293,2.133667e-05,426.58499999973293,1.888211e-05
426.5999999997329,3.203063e-05,426.5999999997329,2.732749e-05,426.5999999997329,2.101269e-05,426.5999999997329,1.805062e-05
426.6149999997329,3.181219e-05,426.6149999997329,2.951045e-05,426.6149999997329,2.119225e-05,426.6149999997329,1.790881e-05
426.6299999997329,3.211628e-05,426.6299999997329,2.970979e-05,426.6299999997329,2.110366e-05,426.6299999997329,1.858736e-05
426.6449999997329,3.22943e-05,426.6449999997329,3.021333e-05,426.6449999997329,2.116365e-05,426.6449999997329,1.844433e-05
426.65999999973286,3.302111e-05,426.65999999973286,3.08952e-05,426.65999999973286,2.082346e-05,426.65999999973286,1.825934e-05
426.67499999973285,3.286246e-05,426.67499999973285,2.893197e-05,426.67499999973285,2.071222e-05,426.67499999973285,1.821764e-05
426.68999999973283,2.968465e-05,426.68999999973283,2.906216e-05,426.68999999973283,2.080112e-05,426.68999999973283,1.805765e-05
426.7049999997328,2.674603e-05,426.7049999997328,3.002579e-05,426.7049999997328,2.082075e-05,426.7049999997328,1.704558e-05
426.7199999997328,2.713765e-05,426.7199999997328,3.032595e-05,426.7199999997328,2.018801e-05,426.7199999997328,1.714529e-05
426.7349999997328,2.627203e-05,426.7349999997328,3.112008e-05,426.7349999997328,1.643466e-05,426.7349999997328,1.706871e-05
426.7499999997328,2.771699e-05,426.7499999997328,3.139903e-05,426.7499999997328,1.570534e-05,426.7499999997328,1.770312e-05
426.76499999973277,2.835361e-05,426.76499999973277,3.087012e-05,426.76499999973277,1.640635e-05,426.76499999973277,1.795595e-05
426.77999999973275,2.726969e-05,426.77999999973275,2.585369e-05,426.77999999973275,1.624239e-05,426.77999999973275,1.779994e-05
426.79499999973274,2.34905e-05,426.79499999973274,2.601771e-05,426.79499999973274,1.61109e-05,426.79499999973274,1.759377e-05
426.8099999997327,2.236619e-05,426.8099999997327,2.55506e-05,426.8099999997327,1.296248e-05,426.8099999997327,1.729336e-05
426.8249999997327,2.427787e-05,426.8249999997327,2.606207e-05,426.8249999997327,1.168091e-05,426.8249999997327,1.765611e-05
426.8399999997327,2.507648e-05,426.8399999997327,2.602692e-05,426.8399999997327,1.168694e-05,426.8399999997327,1.74135e-05
426.8549999997327,2.602313e-05,426.8549999997327,2.371253e-05,426.8549999997327,1.168573e-05,426.8549999997327,1.768879e-05
426.86999999973267,2.575543e-05,426.86999999973267,2.195876e-05,426.86999999973267,1.173625e-05,426.86999999973267,1.778806e-05
426.88499999973266,2.547164e-05,426.88499999973266,2.201514e-05,426.88499999973266,1.225759e-05,426.88499999973266,1.737057e-05
426.89999999973264,2.584442e-05,426.89999999973264,2.040318e-05,426.89999999973264,1.326646e-05,426.89999999973264,1.601444e-05
426.91499999973263,2.679549e-05,426.91499999973263,2.045971e-05,426.91499999973263,1.291785e-05,426.91499999973263,1.619202e-05
426.9299999997326,2.887153e-05,426.9299999997326,2.102475e-05,426.9299999997326,1.326965e-05,426.9299999997326,1.537539e-05
426.9449999997326,2.956196e-05,426.9449999997326,2.050167e-05,426.9449999997326,1.290803e-05,426.9449999997326,1.535339e-05
426.9599999997326,3.016574e-05,426.9599999997326,1.962616e-05,426.9599999997326,1.284677e-05,426.9599999997326,1.545216e-05
426.9749999997326,3.005064e-05,426.9749999997326,1.912156e-05,426.9749999997326,1.332156e-05,426.9749999997326,1.517249e-05
426.98999999973256,2.942201e-05,426.98999999973256,1.887315e-05,426.98999999973256,1.38351e-05,426.98999999973256,1.539645e-05
427.00499999973255,2.845478e-05,427.00499999973255,1.855702e-05,427.00499999973255,1.378818e-05,427.00499999973255,1.436656e-05
427.01999999973253,2.753239e-05,427.01999999973253,1.808571e-05,427.01999999973253,1.333636e-05,427.01999999973253,1.499975e-05
427.0349999997325,2.74386e-05,427.0349999997325,1.826937e-05,427.0349999997325,1.353868e-05,427.0349999997325,1.513066e-05
427.0499999997325,2.691456e-05,427.0499999997325,1.723052e-05,427.0499999997325,1.353556e-05,427.0499999997325,1.526044e-05
427.0649999997325,2.632131e-05,427.0649999997325,1.642694e-05,427.0649999997325,1.362373e-05,427.0649999997325,1.515206e-05
427.0799999997325,2.640893e-05,427.0799999997325,1.689201e-05,427.0799999997325,1.457875e-05,427.0799999997325,1.537539e-05
427.09499999973247,2.609395e-05,427.09499999973247,1.775318e-05,427.09499999973247,1.516135e-05,427.09499999973247,1.822846e-05
427.10999999973245,2.533189e-05,427.10999999973245,1.750226e-05,427.10999999973245,1.530837e-05,427.10999999973245,1.856992e-05
427.12499999973244,2.523997e-05,427.12499999973244,1.758656e-05,427.12499999973244,1.532492e-05,427.12499999973244,1.864034e-05
427.1399999997324,2.505737e-05,427.1399999997324,1.736003e-05,427.1399999997324,1.435773e-05,427.1399999997324,1.838696e-05
427.1549999997324,2.441269e-05,427.1549999997324,1.72844e-05,427.1549999997324,1.457971e-05,427.1549999997324,1.852055e-05
427.1699999997324,2.24454e-05,427.1699999997324,1.70009e-05,427.1699999997324,1.560456e-05,427.1699999997324,1.824854e-05
427.1849999997324,2.013002e-05,427.1849999997324,1.629867e-05,427.1849999997324,1.55004e-05,427.1849999997324,1.850533e-05
427.19999999973237,2.027922e-05,427.19999999973237,1.559824e-05,427.19999999973237,1.609078e-05,427.19999999973237,1.928733e-05
427.21499999973236,1.997547e-05,427.21499999973236,1.513252e-05,427.21499999973236,1.632544e-05,427.21499999973236,2.006413e-05
427.22999999973234,2.005359e-05,427.22999999973234,1.470574e-05,427.22999999973234,1.676981e-05,427.22999999973234,2.059354e-05
427.24499999973233,2.12765e-05,427.24499999973233,1.459516e-05,427.24499999973233,1.644922e-05,427.24499999973233,2.018453e-05
427.2599999997323,2.066864e-05,427.2599999997323,1.443308e-05,427.2599999997323,1.698681e-05,427.2599999997323,2.018801e-05
427.2749999997323,2.046178e-05,427.2749999997323,1.396784e-05,427.2749999997323,1.685611e-05,427.2749999997323,1.955642e-05
427.2899999997323,2.0282e-05,427.2899999997323,1.341009e-05,427.2899999997323,1.833787e-05,427.2899999997323,1.93464e-05
427.3049999997323,1.992887e-05,427.3049999997323,1.339853e-05,427.3049999997323,1.826629e-05,427.3049999997323,1.953407e-05
427.31999999973226,1.973924e-05,427.31999999973226,1.330675e-05,427.31999999973226,1.833863e-05,427.31999999973226,1.989916e-05
427.33499999973225,1.779598e-05,427.33499999973225,1.209097e-05,427.33499999973225,1.786944e-05,427.33499999973225,1.93311e-05
427.34999999973223,1.712391e-05,427.34999999973223,1.080511e-05,427.34999999973223,1.823541e-05,427.34999999973223,1.63969e-05
427.3649999997322,2.113235e-05,427.3649999997322,9.595341e-06,427.3649999997322,1.800843e-05,427.3649999997322,1.589524e-05
427.3799999997322,2.255809e-05,427.3799999997322,9.693203e-06,427.3799999997322,1.790724e-05,427.3799999997322,1.620071e-05
427.3949999997322,2.267581e-05,427.3949999997322,9.792964e-06,427.3949999997322,1.763216e-05,427.3949999997322,1.578497e-05
427.4099999997322,2.334191e-05,427.4099999997322,1.041477e-05,427.4099999997322,1.667209e-05,427.4099999997322,1.566763e-05
427.42499999973217,2.306691e-05,427.42499999973217,1.066602e-05,427.42499999973217,1.673365e-05,427.42499999973217,1.548495e-05
427.43999999973215,2.259116e-05,427.43999999973215,1.119946e-05,427.43999999973215,1.69951e-05,427.43999999973215,1.43979e-05
427.45499999973214,2.244227e-05,427.45499999973214,1.092955e-05,427.45499999973214,1.666955e-05,427.45499999973214,1.330569e-05
427.4699999997321,2.407452e-05,427.4699999997321,1.117553e-05,427.4699999997321,1.611527e-05,427.4699999997321,1.304697e-05
427.4849999997321,2.352705e-05,427.4849999997321,1.134939e-05,427.4849999997321,1.579657e-05,427.4849999997321,1.173625e-05
427.4999999997321,2.339917e-05,427.4999999997321,1.116797e-05,427.4999999997321,1.528442e-05,427.4999999997321,1.181163e-05
427.5149999997321,2.351867e-05,427.5149999997321,1.114903e-05,427.5149999997321,1.43204e-05,427.5149999997321,1.308794e-05
427.52999999973207,2.38889e-05,427.52999999973207,1.14014e-05,427.52999999973207,1.417009e-05,427.52999999973207,1.363717e-05
427.54499999973206,2.445823e-05,427.54499999973206,1.333953e-05,427.54499999973206,1.218151e-05,427.54499999973206,1.387069e-05
427.55999999973204,2.455308e-05,427.55999999973204,1.381778e-05,427.55999999973204,1.211658e-05,427.55999999973204,1.361029e-05
427.57499999973203,2.503543e-05,427.57499999973203,1.402219e-05,427.57499999973203,1.195506e-05,427.57499999973203,1.27764e-05
427.589999999732,2.53941e-05,427.589999999732,1.418202e-05,427.589999999732,1.298962e-05,427.589999999732,1.304481e-05
427.604999999732,2.622641e-05,427.604999999732,1.39749e-05,427.604999999732,1.343843e-05,427.604999999732,1.374008e-05
427.619999999732,2.465271e-05,427.619999999732,1.387576e-05,427.619999999732,1.575996e-05,427.619999999732,1.334375e-05
427.634999999732,2.496669e-05,427.634999999732,1.393351e-05,427.634999999732,1.59333e-05,427.634999999732,1.313199e-05
427.64999999973196,2.484225e-05,427.64999999973196,1.357609e-05,427.64999999973196,1.649541e-05,427.64999999973196,1.340694e-05
427.66499999973195,2.40675e-05,427.66499999973195,1.376159e-05,427.66499999973195,1.672186e-05,427.66499999973195,1.400108e-05
427.67999999973193,2.426452e-05,427.67999999973193,1.342479e-05,427.67999999973193,1.728114e-05,427.67999999973193,1.419195e-05
427.6949999997319,2.476217e-05,427.6949999997319,1.448764e-05,427.6949999997319,1.737544e-05,427.6949999997319,1.420385e-05
427.7099999997319,2.55495e-05,427.7099999997319,1.461927e-05,427.7099999997319,1.796144e-05,427.7099999997319,1.400913e-05
427.7249999997319,2.433061e-05,427.7249999997319,1.443406e-05,427.7249999997319,1.835936e-05,427.7249999997319,1.430072e-05
427.7399999997319,2.400303e-05,427.7399999997319,1.47354e-05,427.7399999997319,1.842982e-05,427.7399999997319,1.481929e-05
427.75499999973187,2.313338e-05,427.75499999973187,1.502884e-05,427.75499999973187,1.863429e-05,427.75499999973187,1.52281e-05
427.76999999973185,2.321847e-05,427.76999999973185,1.51381e-05,427.76999999973185,1.862748e-05,427.76999999973185,1.451192e-05
427.78499999973184,2.335217e-05,427.78499999973184,1.530192e-05,427.78499999973184,1.875335e-05,427.78499999973184,1.440866e-05
427.7999999997318,2.308461e-05,427.7999999997318,1.425533e-05,427.7999999997318,1.854715e-05,427.7999999997318,1.439399e-05
427.8149999997318,2.342023e-05,427.8149999997318,1.540743e-05,427.8149999997318,1.870371e-05,427.8149999997318,1.452454e-05
427.8299999997318,2.335941e-05,427.8299999997318,1.591473e-05,427.8299999997318,1.827708e-05,427.8299999997318,1.495931e-05
427.8449999997318,2.311023e-05,427.8449999997318,1.632976e-05,427.8449999997318,1.782129e-05,427.8449999997318,1.546128e-05
427.85999999973177,2.007185e-05,427.85999999973177,1.801938e-05,427.85999999973177,1.721498e-05,427.85999999973177,1.575996e-05
427.87499999973176,2.035341e-05,427.87499999973176,1.866149e-05,427.87499999973176,1.557384e-05,427.87499999973176,1.627532e-05
427.88999999973174,2.107628e-05,427.88999999973174,2.037139e-05,427.88999999973174,1.555121e-05,427.88999999973174,1.639604e-05
427.90499999973173,2.120289e-05,427.90499999973173,2.117364e-05,427.90499999973173,1.535798e-05,427.90499999973173,1.618679e-05
427.9199999997317,2.182234e-05,427.9199999997317,2.236934e-05,427.9199999997317,1.570803e-05,427.9199999997317,1.765372e-05
427.9349999997317,2.140193e-05,427.9349999997317,2.264846e-05,427.9349999997317,1.556389e-05,427.9349999997317,1.758736e-05
427.9499999997317,2.040111e-05,427.9499999997317,2.286757e-05,427.9499999997317,1.450998e-05,427.9499999997317,1.776508e-05
427.9649999997317,1.958809e-05,427.9649999997317,2.807652e-05,427.9649999997317,1.462024e-05,427.9649999997317,2.013211e-05
427.97999999973166,1.977845e-05,427.97999999973166,2.846567e-05,427.97999999973166,1.422566e-05,427.97999999973166,2.021033e-05
427.99499999973165,1.998605e-05,427.99499999973165,3.022964e-05,427.99499999973165,1.43489e-05,427.99499999973165,2.024724e-05
428.00999999973163,1.993241e-05,428.00999999973163,4.365274e-05,428.00999999973163,1.408734e-05,428.00999999973163,2.11723e-05
428.0249999997316,1.96197e-05,428.0249999997316,4.615763e-05,428.0249999997316,1.414223e-05,428.0249999997316,2.065501e-05
428.0399999997316,1.958737e-05,428.0399999997316,4.618173e-05,428.0399999997316,1.422863e-05,428.0399999997316,2.125995e-05
428.0549999997316,1.850533e-05,428.0549999997316,4.596833e-05,428.0549999997316,1.50457e-05,428.0549999997316,2.175834e-05
428.0699999997316,1.888807e-05,428.0699999997316,4.604059e-05,428.0699999997316,1.53873e-05,428.0699999997316,2.142758e-05
428.08499999973156,2.117297e-05,428.08499999973156,4.585972e-05,428.08499999973156,1.54549e-05,428.08499999973156,2.162521e-05
428.09999999973155,2.128246e-05,428.09999999973155,4.539601e-05,428.09999999973155,1.473827e-05,428.09999999973155,2.066864e-05
428.11499999973154,2.156977e-05,428.11499999973154,4.520352e-05,428.11499999973154,1.493104e-05,428.11499999973154,2.032432e-05
428.1299999997315,2.053737e-05,428.1299999997315,4.433254e-05,428.1299999997315,1.495084e-05,428.1299999997315,2.014121e-05
428.1449999997315,1.969209e-05,428.1449999997315,4.420143e-05,428.1449999997315,1.553218e-05,428.1449999997315,1.959384e-05
428.1599999997315,1.956722e-05,428.1599999997315,4.40066e-05,428.1599999997315,1.496873e-05,428.1599999997315,1.951532e-05
428.1749999997315,2.013491e-05,428.1749999997315,4.350761e-05,428.1749999997315,1.473636e-05,428.1749999997315,1.910387e-05
428.18999999973147,2.005078e-05,428.18999999973147,4.418932e-05,428.18999999973147,1.477073e-05,428.18999999973147,1.879237e-05
428.20499999973146,2.139666e-05,428.20499999973146,4.354095e-05,428.20499999973146,1.485537e-05,428.20499999973146,2.134195e-05
428.21999999973144,2.186554e-05,428.21999999973144,4.08519e-05,428.21999999973144,1.443113e-05,428.21999999973144,2.00999e-05
428.23499999973143,2.146568e-05,428.23499999973143,4.013423e-05,428.23499999973143,1.441257e-05,428.23499999973143,2.172724e-05
428.2499999997314,2.207712e-05,428.2499999997314,3.221263e-05,428.2499999997314,1.523827e-05,428.2499999997314,2.165385e-05
428.2649999997314,2.472972e-05,428.2649999997314,2.125928e-05,428.2649999997314,1.598274e-05,428.2649999997314,2.118295e-05
428.2799999997314,2.555226e-05,428.2799999997314,2.054697e-05,428.2799999997314,1.618331e-05,428.2799999997314,2.119092e-05
428.2949999997314,2.554674e-05,428.2949999997314,2.063044e-05,428.2949999997314,1.619637e-05,428.2949999997314,2.023053e-05
428.30999999973136,2.54827e-05,428.30999999973136,1.969995e-05,428.30999999973136,1.600564e-05,428.30999999973136,2.169025e-05
428.32499999973135,2.475705e-05,428.32499999973135,2.007817e-05,428.32499999973135,1.60408e-05,428.32499999973135,2.153055e-05
428.33999999973133,2.353543e-05,428.33999999973133,2.006483e-05,428.33999999973133,1.544487e-05,428.33999999973133,2.158217e-05
428.3549999997313,2.338351e-05,428.3549999997313,2.316745e-05,428.3549999997313,1.542113e-05,428.3549999997313,2.196197e-05
428.3699999997313,2.326998e-05,428.3699999997313,2.890128e-05,428.3699999997313,1.515298e-05,428.3699999997313,2.199274e-05
428.3849999997313,2.43144e-05,428.3849999997313,3.523435e-05,428.3849999997313,1.601619e-05,428.3849999997313,2.194657e-05
428.3999999997313,2.549762e-05,428.3999999997313,3.90959e-05,428.3999999997313,1.559734e-05,428.3999999997313,2.337026e-05
428.41499999973126,2.479969e-05,428.41499999973126,4.09504e-05,428.41499999973126,1.518641e-05,428.41499999973126,2.378786e-05
428.42999999973125,2.429643e-05,428.42999999973125,5.002696e-05,428.42999999973125,1.494424e-05,428.42999999973125,2.355099e-05
428.44499999973124,2.515332e-05,428.44499999973124,6.077186e-05,428.44499999973124,1.523457e-05,428.44499999973124,2.321847e-05
428.4599999997312,2.439364e-05,428.4599999997312,6.426391e-05,428.4599999997312,1.516785e-05,428.4599999997312,2.122546e-05
428.4749999997312,2.563262e-05,428.4749999997312,6.67405e-05,428.4749999997312,1.512693e-05,428.4749999997312,2.00943e-05
428.4899999997312,2.566283e-05,428.4899999997312,6.663192e-05,428.4899999997312,1.498002e-05,428.4899999997312,1.906253e-05
428.5049999997312,2.545283e-05,428.5049999997312,6.997824e-05,428.5049999997312,1.389098e-05,428.5049999997312,1.904405e-05
428.51999999973117,2.257993e-05,428.51999999973117,7.605608e-05,428.51999999973117,1.318552e-05,428.51999999973117,1.86909e-05
428.53499999973116,2.204711e-05,428.53499999973116,7.866706e-05,428.53499999973116,1.297009e-05,428.53499999973116,1.994512e-05
428.54999999973114,2.218025e-05,428.54999999973114,7.944519e-05,428.54999999973114,1.181997e-05,428.54999999973114,2.073397e-05
428.5649999997311,2.270933e-05,428.5649999997311,7.969322e-05,428.5649999997311,1.253711e-05,428.5649999997311,1.920902e-05
428.5799999997311,2.239199e-05,428.5799999997311,7.961789e-05,428.5799999997311,1.249547e-05,428.5799999997311,1.95081e-05
428.5949999997311,2.224303e-05,428.5949999997311,7.920457e-05,428.5949999997311,1.270232e-05,428.5949999997311,1.939222e-05
428.6099999997311,2.223606e-05,428.6099999997311,7.84745e-05,428.6099999997311,1.342794e-05,428.6099999997311,2.015799e-05
428.6249999997311,2.13802e-05,428.6249999997311,7.596434e-05,428.6249999997311,1.321966e-05,428.6249999997311,2.044525e-05
428.63999999973106,1.992675e-05,428.63999999973106,7.347733e-05,428.63999999973106,1.222191e-05,428.63999999973106,2.292356e-05
428.65499999973105,1.963621e-05,428.65499999973105,7.15347e-05,428.65499999973105,1.235831e-05,428.65499999973105,2.316988e-05
428.66999999973103,2.035133e-05,428.66999999973103,6.969585e-05,428.66999999973103,1.285664e-05,428.66999999973103,2.561832e-05
428.684999999731,2.010271e-05,428.684999999731,6.383326e-05,428.684999999731,1.355116e-05,428.684999999731,2.607126e-05
428.699999999731,1.834631e-05,428.699999999731,5.544033e-05,428.699999999731,1.392036e-05,428.699999999731,2.644571e-05
428.714999999731,1.806311e-05,428.714999999731,5.099717e-05,428.714999999731,1.433908e-05,428.714999999731,2.670017e-05
428.729999999731,1.673618e-05,428.729999999731,4.850175e-05,428.729999999731,1.478027e-05,428.729999999731,2.723609e-05
428.74499999973096,1.755048e-05,428.74499999973096,4.847008e-05,428.74499999973096,1.497155e-05,428.74499999973096,2.777334e-05
428.75999999973095,1.831327e-05,428.75999999973095,3.562242e-05,428.75999999973095,1.516878e-05,428.75999999973095,2.748272e-05
428.77499999973094,1.827245e-05,428.77499999973094,3.212461e-05,428.77499999973094,1.56856e-05,428.77499999973094,2.746682e-05
428.7899999997309,1.956434e-05,428.7899999997309,2.522936e-05,428.7899999997309,1.694779e-05,428.7899999997309,2.701956e-05
428.8049999997309,2.034925e-05,428.8049999997309,2.459607e-05,428.8049999997309,1.691284e-05,428.8049999997309,2.680863e-05
428.8199999997309,1.95924e-05,428.8199999997309,2.357908e-05,428.8199999997309,1.658143e-05,428.8199999997309,2.67834e-05
428.8349999997309,1.956722e-05,428.8349999997309,2.308034e-05,428.8349999997309,1.731208e-05,428.8349999997309,2.717344e-05
428.84999999973087,2.054423e-05,428.84999999973087,2.373331e-05,428.84999999973087,1.750467e-05,428.84999999973087,2.866391e-05
428.86499999973086,2.093545e-05,428.86499999973086,2.41388e-05,428.86499999973086,1.761937e-05,428.86499999973086,2.8787e-05
428.87999999973084,2.112168e-05,428.87999999973084,2.271119e-05,428.87999999973084,1.798103e-05,428.87999999973084,2.92761e-05
428.8949999997308,2.117297e-05,428.8949999997308,2.251684e-05,428.8949999997308,1.81952e-05,428.8949999997308,2.568477e-05
428.9099999997308,2.095227e-05,428.9099999997308,2.16213e-05,428.9099999997308,1.766967e-05,428.9099999997308,2.525392e-05
428.9249999997308,2.032986e-05,428.9249999997308,2.111501e-05,428.9249999997308,1.882607e-05,428.9249999997308,2.281762e-05
428.9399999997308,2.252622e-05,428.9399999997308,2.08106e-05,428.9399999997308,1.910313e-05,428.9399999997308,2.262107e-05
428.9549999997308,2.369232e-05,428.9549999997308,2.072513e-05,428.9549999997308,1.90714e-05,428.9549999997308,2.244917e-05
428.96999999973076,2.34851e-05,428.96999999973076,2.083428e-05,428.96999999973076,1.902036e-05,428.96999999973076,2.319176e-05
428.98499999973075,2.314494e-05,428.98499999973075,2.114301e-05,428.98499999973075,1.88358e-05,428.98499999973075,2.547662e-05
428.99999999973073,2.212874e-05,428.99999999973073,2.084374e-05,428.99999999973073,1.915909e-05,428.99999999973073,2.613817e-05
429.0149999997307,2.121484e-05,429.0149999997307,2.287004e-05,429.0149999997307,1.897662e-05,429.0149999997307,2.60853e-05
429.0299999997307,2.090178e-05,429.0299999997307,2.112435e-05,429.0299999997307,1.868185e-05,429.0299999997307,2.615057e-05
429.0449999997307,1.925736e-05,429.0449999997307,2.221452e-05,429.0449999997307,1.807012e-05,429.0449999997307,2.672653e-05
429.0599999997307,1.893128e-05,429.0599999997307,2.274775e-05,429.0599999997307,1.947268e-05,429.0599999997307,2.669911e-05
429.07499999973066,2.391484e-05,429.07499999973066,2.283552e-05,429.07499999973066,1.921855e-05,429.07499999973066,2.622158e-05
429.08999999973065,2.581715e-05,429.08999999973065,2.233215e-05,429.08999999973065,1.894988e-05,429.08999999973065,2.580515e-05
429.10499999973064,2.496726e-05,429.10499999973064,2.28497e-05,429.10499999973064,1.900999e-05,429.10499999973064,2.386058e-05
429.1199999997306,2.491643e-05,429.1199999997306,2.285032e-05,429.1199999997306,1.88126e-05,429.1199999997306,2.315346e-05
429.1349999997306,2.45284e-05,429.1349999997306,2.275023e-05,429.1349999997306,1.904257e-05,429.1349999997306,2.384582e-05
429.1499999997306,2.469781e-05,429.1499999997306,2.237311e-05,429.1499999997306,1.888807e-05,429.1499999997306,2.413296e-05
429.1649999997306,2.467555e-05,429.1649999997306,2.22405e-05,429.1649999997306,1.831404e-05,429.1649999997306,2.469838e-05
429.17999999973057,2.294444e-05,429.17999999973057,2.226835e-05,429.17999999973057,1.79967e-05,429.17999999973057,2.639666e-05
429.19499999973056,2.246924e-05,429.19499999973056,2.226519e-05,429.19499999973056,1.693365e-05,429.19499999973056,2.696162e-05
429.20999999973054,2.215356e-05,429.20999999973054,2.308522e-05,429.20999999973054,1.675468e-05,429.20999999973054,2.656794e-05
429.2249999997305,2.256059e-05,429.2249999997305,2.301984e-05,429.2249999997305,1.689784e-05,429.2249999997305,2.417146e-05
429.2399999997305,2.319905e-05,429.2399999997305,2.252684e-05,429.2399999997305,1.701332e-05,429.2399999997305,2.243034e-05
429.2549999997305,2.325484e-05,429.2549999997305,2.353483e-05,429.2549999997305,1.628397e-05,429.2549999997305,2.250182e-05
429.2699999997305,2.345329e-05,429.2699999997305,2.05257e-05,429.2699999997305,1.629003e-05,429.2699999997305,2.256745e-05
429.2849999997305,2.40429e-05,429.2849999997305,2.046178e-05,429.2849999997305,1.624846e-05,429.2849999997305,2.298677e-05
429.29999999973046,2.508995e-05,429.29999999973046,2.074348e-05,429.29999999973046,1.601707e-05,429.29999999973046,2.380621e-05
429.31499999973045,2.394603e-05,429.31499999973045,2.054148e-05,429.31499999973045,1.516599e-05,429.31499999973045,2.508097e-05
429.32999999973043,2.013561e-05,429.32999999973043,2.366793e-05,429.32999999973043,1.515949e-05,429.32999999973043,2.541351e-05
429.3449999997304,1.757054e-05,429.3449999997304,2.592986e-05,429.3449999997304,1.495837e-05,429.3449999997304,2.575378e-05
429.3599999997304,1.935004e-05,429.3599999997304,2.545394e-05,429.3599999997304,1.490271e-05,429.3599999997304,2.555281e-05
429.3749999997304,2.165255e-05,429.3749999997304,2.450369e-05,429.3749999997304,1.474878e-05,429.3749999997304,2.592497e-05
429.3899999997304,2.229301e-05,429.3899999997304,2.454332e-05,429.3899999997304,1.508497e-05,429.3899999997304,2.551805e-05
429.40499999973036,2.35964e-05,429.40499999973036,2.480707e-05,429.40499999973036,1.533962e-05,429.40499999973036,2.55484e-05
429.41999999973035,2.519584e-05,429.41999999973035,2.509893e-05,429.41999999973035,1.61502e-05,429.41999999973035,2.35755e-05
429.43499999973034,2.530574e-05,429.43499999973034,2.517347e-05,429.43499999973034,1.645265e-05,429.43499999973034,2.34641e-05
429.4499999997303,2.520758e-05,429.4499999997303,2.559852e-05,429.4499999997303,1.613362e-05,429.4499999997303,2.352645e-05
429.4649999997303,2.479514e-05,429.4649999997303,2.503093e-05,429.4649999997303,1.591473e-05,429.4649999997303,2.388065e-05
429.4799999997303,2.482297e-05,429.4799999997303,2.492943e-05,429.4799999997303,1.541748e-05,429.4799999997303,2.359521e-05
429.4949999997303,2.451001e-05,429.4949999997303,2.471947e-05,429.4949999997303,1.565504e-05,429.4949999997303,2.368281e-05
429.50999999973027,2.453758e-05,429.50999999973027,2.388478e-05,429.50999999973027,1.52244e-05,429.50999999973027,2.282132e-05
429.52499999973026,2.423548e-05,429.52499999973026,2.414172e-05,429.52499999973026,1.649541e-05,429.52499999973026,2.397073e-05
429.53999999973024,2.383045e-05,429.53999999973024,2.334794e-05,429.53999999973024,1.721744e-05,429.53999999973024,2.382573e-05
429.5549999997302,2.495258e-05,429.5549999997302,2.161479e-05,429.5549999997302,1.706458e-05,429.5549999997302,2.267767e-05
429.5699999997302,2.533078e-05,429.5699999997302,1.986728e-05,429.5699999997302,1.7466e-05,429.5699999997302,2.290819e-05
429.5849999997302,2.57762e-05,429.5849999997302,1.721826e-05,429.5849999997302,1.710169e-05,429.5849999997302,2.302718e-05
429.5999999997302,2.681283e-05,429.5999999997302,1.35989e-05,429.5999999997302,1.705385e-05,429.5999999997302,2.407569e-05
429.6149999997302,2.806899e-05,429.6149999997302,1.351056e-05,429.6149999997302,1.667547e-05,429.6149999997302,2.470066e-05
429.62999999973016,2.679917e-05,429.62999999973016,1.306316e-05,429.62999999973016,1.692117e-05,429.62999999973016,2.390128e-05
429.64499999973015,2.63737e-05,429.64499999973015,1.307609e-05,429.64499999973015,1.571162e-05,429.64499999973015,2.420523e-05
429.65999999973013,2.449161e-05,429.65999999973013,1.261217e-05,429.65999999973013,1.539279e-05,429.65999999973013,2.464871e-05
429.6749999997301,2.364113e-05,429.6749999997301,1.186873e-05,429.6749999997301,1.45061e-05,429.6749999997301,2.386826e-05
429.6899999997301,2.359163e-05,429.6899999997301,1.166764e-05,429.6899999997301,1.514555e-05,429.6899999997301,2.378667e-05
429.7049999997301,2.355039e-05,429.7049999997301,9.652426e-06,429.7049999997301,1.582241e-05,429.7049999997301,2.329298e-05
429.7199999997301,2.39907e-05,429.7199999997301,1.034556e-05,429.7199999997301,1.625453e-05,429.7199999997301,2.3834e-05
429.73499999973006,2.51466e-05,429.73499999973006,1.084415e-05,429.73499999973006,1.63263e-05,429.73499999973006,2.368459e-05
429.74999999973005,2.484112e-05,429.74999999973005,1.074628e-05,429.74999999973005,1.602235e-05,429.74999999973005,2.389126e-05
429.76499999973004,2.467156e-05,429.76499999973004,1.024843e-05,429.76499999973004,1.583309e-05,429.76499999973004,2.362385e-05
429.77999999973,2.590322e-05,429.77999999973,9.931514e-06,429.77999999973,1.381981e-05,429.77999999973,2.146634e-05
429.79499999973,2.519417e-05,429.79499999973,1.142608e-05,429.79499999973,1.440182e-05,429.79499999973,2.140588e-05
429.80999999973,2.370005e-05,429.80999999973,1.269455e-05,429.80999999973,1.483164e-05,429.80999999973,2.217707e-05
429.82499999973,2.323181e-05,429.82499999973,1.511389e-05,429.82499999973,1.446038e-05,429.82499999973,2.105086e-05
429.83999999972997,2.208669e-05,429.83999999972997,1.97585e-05,429.83999999972997,1.44818e-05,429.83999999972997,2.016637e-05
429.85499999972996,2.062156e-05,429.85499999972996,2.021103e-05,429.85499999972996,1.46106e-05,429.85499999972996,1.903961e-05
429.86999999972994,1.797555e-05,429.86999999972994,2.098585e-05,429.86999999972994,1.571969e-05,429.86999999972994,2.022218e-05
429.8849999997299,1.72901e-05,429.8849999997299,2.10033e-05,429.8849999997299,1.59748e-05,429.8849999997299,2.027227e-05
429.8999999997299,1.800217e-05,429.8999999997299,2.101403e-05,429.8999999997299,1.684608e-05,429.8999999997299,2.000577e-05
429.9149999997299,1.843899e-05,429.9149999997299,2.105086e-05,429.9149999997299,1.666871e-05,429.9149999997299,1.996136e-05
429.9299999997299,1.875485e-05,429.9299999997299,2.109765e-05,429.9299999997299,1.640807e-05,429.9299999997299,2.038107e-05
429.9449999997299,2.023889e-05,429.9449999997299,2.104216e-05,429.9449999997299,1.587751e-05,429.9449999997299,2.122148e-05
429.95999999972986,2.01922e-05,429.95999999972986,2.089908e-05,429.95999999972986,1.543027e-05,429.95999999972986,2.138942e-05
429.97499999972985,2.040663e-05,429.97499999972985,2.050854e-05,429.97499999972985,1.506815e-05,429.97499999972985,2.072173e-05
429.98999999972983,2.017615e-05,429.98999999972983,2.054148e-05,429.98999999972983,1.51027e-05,429.98999999972983,2.094621e-05
430.0049999997298,2.077605e-05,430.0049999997298,2.053805e-05,430.0049999997298,1.511855e-05,430.0049999997298,2.036932e-05
430.0199999997298,2.254997e-05,430.0199999997298,2.052296e-05,430.0199999997298,1.575728e-05,430.0199999997298,2.079502e-05
430.0349999997298,2.23517e-05,430.0349999997298,1.99656e-05,430.0349999997298,1.47067e-05,430.0349999997298,2.048449e-05
430.0499999997298,2.283552e-05,430.0499999997298,1.895062e-05,430.0499999997298,1.403826e-05,430.0499999997298,1.984103e-05
430.06499999972976,2.268388e-05,430.06499999972976,1.875485e-05,430.06499999972976,1.395371e-05,430.06499999972976,1.847486e-05
430.07999999972975,2.280959e-05,430.07999999972975,1.482404e-05,430.07999999972975,1.403525e-05,430.07999999972975,1.971568e-05
430.09499999972974,2.323121e-05,430.09499999972974,1.128092e-05,430.09499999972974,1.460674e-05,430.09499999972974,2.041698e-05
430.1099999997297,2.309559e-05,430.1099999997297,1.026491e-05,430.1099999997297,1.449541e-05,430.1099999997297,1.985451e-05
430.1249999997297,2.360297e-05,430.1249999997297,1.011144e-05,430.1249999997297,1.465008e-05,430.1249999997297,1.862673e-05
430.1399999997297,2.323121e-05,430.1399999997297,1.005556e-05,430.1399999997297,1.354492e-05,430.1399999997297,1.872178e-05
430.1549999997297,2.235548e-05,430.1549999997297,9.949936e-06,430.1549999997297,1.371442e-05,430.1549999997297,1.743452e-05
430.16999999972967,2.292233e-05,430.16999999972967,1.128466e-05,430.16999999972967,1.359164e-05,430.16999999972967,1.731859e-05
430.18499999972965,2.284477e-05,430.18499999972965,1.121328e-05,430.18499999972965,1.322073e-05,430.18499999972965,1.748374e-05
430.19999999972964,2.131685e-05,430.19999999972964,1.125592e-05,430.19999999972964,1.318659e-05,430.19999999972964,1.704145e-05
430.2149999997296,2.015938e-05,430.2149999997296,1.110472e-05,430.2149999997296,1.316948e-05,430.2149999997296,1.970782e-05
430.2299999997296,2.018801e-05,430.2299999997296,1.067262e-05,430.2299999997296,1.309654e-05,430.2299999997296,2.152335e-05
430.2449999997296,1.985593e-05,430.2449999997296,1.052242e-05,430.2449999997296,1.287087e-05,430.2449999997296,2.129437e-05
430.2599999997296,1.881709e-05,430.2599999997296,1.040665e-05,430.2599999997296,1.253487e-05,430.2599999997296,2.151026e-05
430.2749999997296,1.758576e-05,430.2749999997296,1.044314e-05,430.2749999997296,1.248532e-05,430.2749999997296,2.147946e-05
430.28999999972956,1.669151e-05,430.28999999972956,1.120574e-05,430.28999999972956,1.296357e-05,430.28999999972956,2.140259e-05
430.30499999972955,1.683939e-05,430.30499999972955,1.10933e-05,430.30499999972955,1.304589e-05,430.30499999972955,2.161544e-05
430.31999999972953,1.73251e-05,430.31999999972953,1.126217e-05,430.31999999972953,1.282153e-05,430.31999999972953,2.140456e-05
430.3349999997295,1.888584e-05,430.3349999997295,1.125216e-05,430.3349999997295,1.27455e-05,430.3349999997295,2.031184e-05
430.3499999997295,1.858054e-05,430.3499999997295,1.110853e-05,430.3499999997295,1.263449e-05,430.3499999997295,1.992251e-05
430.3649999997295,1.852283e-05,430.3649999997295,1.099509e-05,430.3649999997295,1.149124e-05,430.3649999997295,2.115966e-05
430.3799999997295,1.849619e-05,430.3799999997295,1.056251e-05,430.3799999997295,1.296574e-05,430.3799999997295,2.139666e-05
430.39499999972946,1.865846e-05,430.39499999972946,1.064884e-05,430.39499999972946,1.532492e-05,430.39499999972946,2.214211e-05
430.40999999972945,1.805218e-05,430.40999999972945,1.034692e-05,430.40999999972945,1.532124e-05,430.40999999972945,2.264783e-05
430.42499999972944,1.766808e-05,430.42499999972944,8.560311e-06,430.42499999972944,1.534146e-05,430.42499999972944,2.239011e-05
430.4399999997294,1.827554e-05,430.4399999997294,8.5108e-06,430.4399999997294,1.569188e-05,430.4399999997294,2.206053e-05
430.4549999997294,1.8213e-05,430.4549999997294,8.442667e-06,430.4549999997294,1.571072e-05,430.4549999997294,2.104685e-05
430.4699999997294,1.816498e-05,430.4699999997294,8.248557e-06,430.4699999997294,1.569099e-05,430.4699999997294,1.758176e-05
430.4849999997294,1.808804e-05,430.4849999997294,8.216045e-06,430.4849999997294,1.571521e-05,430.4849999997294,1.687114e-05
430.49999999972937,1.82524e-05,430.49999999972937,8.326743e-06,430.49999999972937,1.580726e-05,430.49999999972937,1.665772e-05
430.51499999972935,1.888957e-05,430.51499999972935,8.289442e-06,430.51499999972935,1.570534e-05,430.51499999972935,1.616677e-05
430.52999999972934,1.818048e-05,430.52999999972934,7.728359e-06,430.52999999972934,1.531481e-05,430.52999999972934,1.609428e-05
430.5449999997293,1.778568e-05,430.5449999997293,7.011599e-06,430.5449999997293,1.501289e-05,430.5449999997293,1.65389e-05
430.5599999997293,1.838849e-05,430.5599999997293,8.821272e-06,430.5599999997293,1.484683e-05,430.5599999997293,1.656273e-05
430.5749999997293,1.795987e-05,430.5749999997293,8.573465e-06,430.5749999997293,1.531297e-05,430.5749999997293,1.682767e-05
430.5899999997293,1.65048e-05,430.5899999997293,8.859515e-06,430.5899999997293,1.552311e-05,430.5899999997293,1.648174e-05
430.6049999997293,1.633321e-05,430.6049999997293,8.973265e-06,430.6049999997293,1.507656e-05,430.6049999997293,1.631077e-05
430.61999999972926,1.603729e-05,430.61999999972926,1.585176e-05,430.61999999972926,1.486485e-05,430.61999999972926,1.526413e-05
430.63499999972925,1.640893e-05,430.63499999972925,1.786313e-05,430.63499999972925,1.329086e-05,430.63499999972925,1.503446e-05
430.64999999972923,1.632976e-05,430.64999999972923,1.886718e-05,430.64999999972923,1.197743e-05,430.64999999972923,1.317269e-05
430.6649999997292,1.652441e-05,430.6649999997292,1.890596e-05,430.6649999997292,1.407534e-05,430.6649999997292,1.288291e-05
430.6799999997292,1.677485e-05,430.6799999997292,1.907435e-05,430.6799999997292,1.398497e-05,430.6799999997292,1.334269e-05
430.6949999997292,1.711239e-05,430.6949999997292,1.931798e-05,430.6949999997292,1.428593e-05,430.6949999997292,1.301562e-05
430.7099999997292,1.864714e-05,430.7099999997292,1.93973e-05,430.7099999997292,1.417805e-05,430.7099999997292,1.346461e-05
430.72499999972916,1.902999e-05,430.72499999972916,2.037554e-05,430.72499999972916,1.524104e-05,430.72499999972916,1.473732e-05
430.73999999972915,1.870446e-05,430.73999999972915,2.070609e-05,430.73999999972915,1.566943e-05,430.73999999972915,1.486864e-05
430.75499999972914,1.825317e-05,430.75499999972914,2.073057e-05,430.75499999972914,1.574208e-05,430.75499999972914,1.581439e-05
430.7699999997291,1.791275e-05,430.7699999997291,2.075027e-05,430.7699999997291,1.629435e-05,430.7699999997291,1.577247e-05
430.7849999997291,1.743937e-05,430.7849999997291,2.086738e-05,430.7849999997291,1.632372e-05,430.7849999997291,1.693615e-05
430.7999999997291,1.707283e-05,430.7999999997291,2.084712e-05,430.7999999997291,1.633924e-05,430.7999999997291,1.705385e-05
430.8149999997291,1.801391e-05,430.8149999997291,2.018592e-05,430.8149999997291,1.647148e-05,430.8149999997291,1.649284e-05
430.82999999972907,1.784578e-05,430.82999999972907,2.074144e-05,430.82999999972907,1.657124e-05,430.82999999972907,1.648943e-05
430.84499999972905,1.809427e-05,430.84499999972905,2.063317e-05,430.84499999972905,1.637455e-05,430.84499999972905,1.645693e-05
430.85999999972904,1.976705e-05,430.85999999972904,1.723379e-05,430.85999999972904,1.647746e-05,430.85999999972904,1.648601e-05
430.874999999729,1.986657e-05,430.874999999729,1.585442e-05,430.874999999729,1.642609e-05,430.874999999729,1.673618e-05
430.889999999729,1.926102e-05,430.889999999729,1.358957e-05,430.889999999729,1.558921e-05,430.889999999729,1.688533e-05
430.904999999729,1.928003e-05,430.904999999729,1.294073e-05,430.904999999729,1.502133e-05,430.904999999729,1.6922e-05
430.919999999729,1.899591e-05,430.919999999729,1.292984e-05,430.919999999729,1.352203e-05,430.919999999729,1.69951e-05
430.934999999729,1.882008e-05,430.934999999729,1.286869e-05,430.934999999729,1.37062e-05,430.934999999729,1.667293e-05
430.94999999972896,1.813393e-05,430.94999999972896,1.257526e-05,430.94999999972896,1.349804e-05,430.94999999972896,1.77238e-05
430.96499999972895,1.68653e-05,430.96499999972895,1.278302e-05,430.96499999972895,1.366091e-05,430.96499999972895,1.832864e-05
430.97999999972893,1.631422e-05,430.97999999972893,1.346565e-05,430.97999999972893,1.285445e-05,430.97999999972893,1.761378e-05
430.9949999997289,1.613711e-05,430.9949999997289,1.3547e-05,430.9949999997289,1.318659e-05,430.9949999997289,1.741431e-05
431.0099999997289,1.623632e-05,431.0099999997289,1.448277e-05,431.0099999997289,1.409634e-05,431.0099999997289,1.686196e-05
431.0249999997289,1.64749e-05,431.0249999997289,1.455554e-05,431.0249999997289,1.566673e-05,431.0249999997289,1.77508e-05
431.0399999997289,1.712145e-05,431.0399999997289,1.461253e-05,431.0399999997289,1.620854e-05,431.0399999997289,1.705963e-05
431.05499999972886,1.730313e-05,431.05499999972886,1.509804e-05,431.05499999972886,1.792454e-05,431.05499999972886,1.642866e-05
431.06999999972885,1.680505e-05,431.06999999972885,1.519291e-05,431.06999999972885,1.785998e-05,431.06999999972885,1.669826e-05
431.08499999972884,1.722889e-05,431.08499999972884,1.516414e-05,431.08499999972884,1.742078e-05,431.08499999972884,1.701746e-05
431.0999999997288,1.516692e-05,431.0999999997288,1.51827e-05,431.0999999997288,1.734947e-05,431.0999999997288,1.818436e-05
431.1149999997288,1.583576e-05,431.1149999997288,1.563342e-05,431.1149999997288,1.745067e-05,431.1149999997288,1.923248e-05
431.1299999997288,1.591738e-05,431.1299999997288,1.576979e-05,431.1299999997288,1.747084e-05,431.1299999997288,1.937769e-05
431.1449999997288,1.614584e-05,431.1449999997288,1.571521e-05,431.1449999997288,1.74926e-05,431.1449999997288,1.945242e-05
431.15999999972877,1.672944e-05,431.15999999972877,1.57689e-05,431.15999999972877,1.75577e-05,431.15999999972877,1.970138e-05
431.17499999972875,1.766728e-05,431.17499999972875,1.576086e-05,431.17499999972875,1.724278e-05,431.17499999972875,1.963908e-05
431.18999999972874,1.979554e-05,431.18999999972874,1.581973e-05,431.18999999972874,1.82817e-05,431.18999999972874,1.890299e-05
431.2049999997287,1.950015e-05,431.2049999997287,1.581261e-05,431.2049999997287,1.85555e-05,431.2049999997287,1.77508e-05
431.2199999997287,2.006623e-05,431.2199999997287,1.562441e-05,431.2199999997287,1.861992e-05,431.2199999997287,1.803579e-05
431.2349999997287,2.02173e-05,431.2349999997287,1.341849e-05,431.2349999997287,1.783551e-05,431.2349999997287,1.812306e-05
431.2499999997287,2.025767e-05,431.2499999997287,1.271894e-05,431.2499999997287,1.804126e-05,431.2499999997287,1.838696e-05
431.2649999997287,2.032848e-05,431.2649999997287,1.164709e-05,431.2649999997287,1.613537e-05,431.2649999997287,1.853728e-05
431.27999999972866,2.035687e-05,431.27999999972866,1.149369e-05,431.27999999972866,1.635303e-05,431.27999999972866,1.772777e-05
431.29499999972865,2.058259e-05,431.29499999972865,1.105514e-05,431.29499999972865,1.588815e-05,431.29499999972865,1.765053e-05
431.30999999972863,2.019081e-05,431.30999999972863,1.002188e-05,431.30999999972863,1.418699e-05,431.30999999972863,1.788835e-05
431.3249999997286,1.962114e-05,431.3249999997286,9.710626e-06,431.3249999997286,1.458454e-05,431.3249999997286,1.803891e-05
431.3399999997286,1.947124e-05,431.3399999997286,8.207468e-06,431.3399999997286,1.513903e-05,431.3399999997286,1.825008e-05
431.3549999997286,1.928295e-05,431.3549999997286,7.713764e-06,431.3549999997286,1.50859e-05,431.3549999997286,1.574655e-05
431.3699999997286,1.910461e-05,431.3699999997286,5.219545e-06,431.3699999997286,1.548858e-05,431.3699999997286,1.524289e-05
431.38499999972856,1.889106e-05,431.38499999972856,5.143422e-06,431.38499999972856,1.540011e-05,431.38499999972856,1.52318e-05
431.39999999972855,1.867582e-05,431.39999999972855,4.945147e-06,431.39999999972855,1.53992e-05,431.39999999972855,1.504757e-05
431.41499999972854,1.921709e-05,431.41499999972854,4.687774e-06,431.41499999972854,1.53873e-05,431.41499999972854,1.447791e-05
431.4299999997285,2.042181e-05,431.4299999997285,4.578317e-06,431.4299999997285,1.496214e-05,431.4299999997285,1.503071e-05
431.4449999997285,1.849467e-05,431.4449999997285,4.097722e-06,431.4449999997285,1.399303e-05,431.4449999997285,1.75095e-05
431.4599999997285,1.799983e-05,431.4599999997285,4.049309e-06,431.4599999997285,1.386256e-05,431.4599999997285,1.710251e-05
431.4749999997285,1.899294e-05,431.4749999997285,3.84957e-06,431.4749999997285,1.387576e-05,431.4749999997285,1.681762e-05
431.48999999972847,1.901222e-05,431.48999999972847,4.196231e-06,431.48999999972847,1.402722e-05,431.48999999972847,1.726646e-05
431.50499999972845,1.949076e-05,431.50499999972845,4.52882e-06,431.50499999972845,1.329086e-05,431.50499999972845,1.75577e-05
431.51999999972844,1.973853e-05,431.51999999972844,4.812329e-06,431.51999999972844,1.263672e-05,431.51999999972844,1.759217e-05
431.5349999997284,1.965557e-05,431.5349999997284,5.329048e-06,431.5349999997284,1.216183e-05,431.5349999997284,1.735516e-05
431.5499999997284,1.933402e-05,431.5499999997284,5.487926e-06,431.5499999997284,1.261999e-05,431.5499999997284,1.698515e-05
431.5649999997284,1.935586e-05,431.5649999997284,5.775575e-06,431.5649999997284,1.2838e-05,431.5649999997284,1.710169e-05
431.5799999997284,1.902703e-05,431.5799999997284,6.201342e-06,431.5799999997284,1.186992e-05,431.5799999997284,1.614497e-05
431.5949999997284,1.887091e-05,431.5949999997284,6.178585e-06,431.5949999997284,1.192557e-05,431.5949999997284,1.596775e-05
431.60999999972836,1.956146e-05,431.60999999972836,6.371642e-06,431.60999999972836,1.185567e-05,431.60999999972836,1.600036e-05
431.62499999972835,1.99945e-05,431.62499999972835,6.784931e-06,431.62499999972835,1.191257e-05,431.62499999972835,1.572507e-05
431.63999999972833,2.007325e-05,431.63999999972833,6.789081e-06,431.63999999972833,1.194563e-05,431.63999999972833,1.571072e-05
431.6549999997283,1.899294e-05,431.6549999997283,6.908378e-06,431.6549999997283,1.235375e-05,431.6549999997283,1.66611e-05
431.6699999997283,1.838696e-05,431.6699999997283,6.914493e-06,431.6699999997283,1.265454e-05,431.6699999997283,1.624673e-05
431.6849999997283,1.687365e-05,431.6849999997283,7.493299e-06,431.6849999997283,1.301779e-05,431.6849999997283,1.567032e-05
431.6999999997283,1.712556e-05,431.6999999997283,7.786468e-06,431.6999999997283,1.2601e-05,431.6999999997283,1.358128e-05
431.71499999972826,1.757855e-05,431.71499999972826,8.143716e-06,431.71499999972826,1.245482e-05,431.71499999972826,1.388388e-05
431.72999999972825,1.658483e-05,431.72999999972825,8.299631e-06,431.72999999972825,1.219191e-05,431.72999999972825,1.395977e-05
431.74499999972824,1.657293e-05,431.74499999972824,8.1264e-06,431.74499999972824,1.40523e-05,431.74499999972824,1.29983e-05
431.7599999997282,1.51502e-05,431.7599999997282,7.913874e-06,431.7599999997282,1.459613e-05,431.7599999997282,1.297769e-05
431.7749999997282,1.540194e-05,431.7749999997282,7.872827e-06,431.7749999997282,1.560547e-05,431.7749999997282,1.271783e-05
431.7899999997282,1.526782e-05,431.7899999997282,7.664298e-06,431.7899999997282,1.529087e-05,431.7899999997282,1.273112e-05
431.8049999997282,1.522902e-05,431.8049999997282,7.63668e-06,431.8049999997282,1.516785e-05,431.8049999997282,1.267345e-05
431.81999999972817,1.520496e-05,431.81999999972817,7.719241e-06,431.81999999972817,1.521884e-05,431.81999999972817,1.21514e-05
431.83499999972815,1.537997e-05,431.83499999972815,8.749116e-06,431.83499999972815,1.517714e-05,431.83499999972815,1.203258e-05
431.84999999972814,1.534238e-05,431.84999999972814,9.265217e-06,431.84999999972814,1.483544e-05,431.84999999972814,1.300263e-05
431.8649999997281,1.432335e-05,431.8649999997281,9.420515e-06,431.8649999997281,1.477169e-05,431.8649999997281,1.369284e-05
431.8799999997281,1.397087e-05,431.8799999997281,9.040516e-06,431.8799999997281,1.465488e-05,431.8799999997281,1.517157e-05
431.8949999997281,1.425336e-05,431.8949999997281,9.325834e-06,431.8949999997281,1.467793e-05,431.8949999997281,1.399605e-05
431.9099999997281,1.412828e-05,431.9099999997281,1.001344e-05,431.9099999997281,1.450027e-05,431.9099999997281,1.371442e-05
431.9249999997281,1.602762e-05,431.9249999997281,1.007095e-05,431.9249999997281,1.457682e-05,431.9249999997281,1.37452e-05
431.93999999972806,1.673954e-05,431.93999999972806,1.150961e-05,431.93999999972806,1.452551e-05,431.93999999972806,1.336485e-05
431.95499999972805,1.601532e-05,431.95499999972805,1.332051e-05,431.95499999972805,1.458937e-05,431.95499999972805,1.327814e-05
431.96999999972803,1.707613e-05,431.96999999972803,1.343109e-05,431.96999999972803,1.44672e-05,431.96999999972803,1.31545e-05
431.984999999728,1.760498e-05,431.984999999728,1.33131e-05,431.984999999728,1.323563e-05,431.984999999728,1.301995e-05
431.999999999728,1.83724e-05,431.999999999728,1.32951e-05,431.999999999728,1.271451e-05,431.999999999728,1.299288e-05
432.014999999728,1.825471e-05,432.014999999728,1.344576e-05,432.014999999728,1.107678e-05,432.014999999728,1.262333e-05
432.029999999728,1.853424e-05,432.029999999728,1.375954e-05,432.029999999728,1.10933e-05,432.029999999728,1.343633e-05
432.04499999972796,1.825934e-05,432.04499999972796,1.384426e-05,432.04499999972796,1.108568e-05,432.04499999972796,1.351681e-05
432.05999999972795,1.804594e-05,432.05999999972795,1.387678e-05,432.05999999972795,1.039988e-05,432.05999999972795,1.404428e-05
432.07499999972794,1.812383e-05,432.07499999972794,1.363924e-05,432.07499999972794,1.03442e-05,432.07499999972794,1.464238e-05
432.0899999997279,1.925297e-05,432.0899999997279,1.338275e-05,432.0899999997279,1.03904e-05,432.0899999997279,1.50943e-05
432.1049999997279,1.942633e-05,432.1049999997279,1.338275e-05,432.1049999997279,1.024843e-05,432.1049999997279,1.560637e-05
432.1199999997279,1.904775e-05,432.1199999997279,1.336274e-05,432.1199999997279,1.019468e-05,432.1199999997279,1.481929e-05
432.1349999997279,1.888285e-05,432.1349999997279,1.323351e-05,432.1349999997279,9.774246e-06,432.1349999997279,1.436754e-05
432.14999999972787,1.876086e-05,432.14999999972787,1.304157e-05,432.14999999972787,1.031829e-05,432.14999999972787,1.473923e-05
432.16499999972785,1.894095e-05,432.16499999972785,1.316734e-05,432.16499999972785,1.047277e-05,432.16499999972785,1.558108e-05
432.17999999972784,1.716828e-05,432.17999999972784,1.406733e-05,432.17999999972784,1.085713e-05,432.17999999972784,1.61981e-05
432.1949999997278,1.6922e-05,432.1949999997278,1.37493e-05,432.1949999997278,1.110726e-05,432.1949999997278,1.661114e-05
432.2099999997278,1.568201e-05,432.2099999997278,1.262668e-05,432.2099999997278,1.125466e-05,432.2099999997278,1.637197e-05
432.2249999997278,1.570265e-05,432.2249999997278,1.360822e-05,432.2249999997278,1.127967e-05,432.2249999997278,1.633407e-05
432.2399999997278,1.504944e-05,432.2399999997278,1.414223e-05,432.2399999997278,1.118939e-05,432.2399999997278,1.638229e-05
432.2549999997278,1.591738e-05,432.2549999997278,1.719779e-05,432.2549999997278,1.073448e-05,432.2549999997278,1.66264e-05
432.26999999972776,1.638143e-05,432.26999999972776,1.825857e-05,432.26999999972776,1.058116e-05,432.26999999972776,1.666363e-05
432.28499999972775,1.663487e-05,432.28499999972775,1.880211e-05,432.28499999972775,1.147652e-05,432.28499999972775,1.620332e-05
432.29999999972773,1.677149e-05,432.29999999972773,2.081669e-05,432.29999999972773,1.167246e-05,432.29999999972773,1.587041e-05
432.3149999997277,1.7142e-05,432.3149999997277,2.199209e-05,432.3149999997277,1.173385e-05,432.3149999997277,1.544669e-05
432.3299999997277,1.729906e-05,432.3299999997277,2.189645e-05,432.3299999997277,1.164346e-05,432.3299999997277,1.443894e-05
432.3449999997277,1.728929e-05,432.3449999997277,2.188358e-05,432.3449999997277,1.164951e-05,432.3449999997277,1.372674e-05
432.3599999997277,1.725422e-05,432.3599999997277,2.188744e-05,432.3599999997277,1.224954e-05,432.3599999997277,1.253824e-05
432.37499999972766,1.724605e-05,432.37499999972766,2.186103e-05,432.37499999972766,1.247855e-05,432.37499999972766,1.216415e-05
432.38999999972765,1.84596e-05,432.38999999972765,2.209243e-05,432.38999999972765,1.223574e-05,432.38999999972765,1.253037e-05
432.40499999972764,1.971996e-05,432.40499999972764,2.217135e-05,432.40499999972764,1.188889e-05,432.40499999972764,1.150594e-05
432.4199999997276,1.981759e-05,432.4199999997276,2.164735e-05,432.4199999997276,1.127467e-05,432.4199999997276,1.072004e-05
432.4349999997276,1.998675e-05,432.4349999997276,2.079773e-05,432.4349999997276,1.102707e-05,432.4349999997276,9.995137e-06
432.4499999997276,2.004165e-05,432.4499999997276,2.03866e-05,432.4499999997276,1.192557e-05,432.4499999997276,1.00961e-05
432.4649999997276,2.016847e-05,432.4649999997276,1.994512e-05,432.4649999997276,1.203843e-05,432.4649999997276,1.012814e-05
432.47999999972757,2.028339e-05,432.47999999972757,1.938423e-05,432.47999999972757,1.258757e-05,432.47999999972757,1.031693e-05
432.49499999972755,2.035964e-05,432.49499999972755,1.918848e-05,432.49499999972755,1.378409e-05,432.49499999972755,1.165797e-05
432.50999999972754,2.013142e-05,432.50999999972754,1.557022e-05,432.50999999972754,1.374725e-05,432.50999999972754,1.118561e-05
432.5249999997275,1.977988e-05,432.5249999997275,1.413127e-05,432.5249999997275,1.380962e-05,432.5249999997275,1.11982e-05
432.5399999997275,2.044387e-05,432.5399999997275,1.300805e-05,432.5399999997275,1.324095e-05,432.5399999997275,1.167729e-05
432.5549999997275,2.111301e-05,432.5549999997275,9.800154e-06,432.5549999997275,1.374315e-05,432.5549999997275,1.193383e-05
432.5699999997275,2.089369e-05,432.5699999997275,7.793701e-06,432.5699999997275,1.386764e-05,432.5699999997275,1.231835e-05
432.5849999997275,2.127319e-05,432.5849999997275,8.42262e-06,432.5849999997275,1.457295e-05,432.5849999997275,1.235717e-05
432.59999999972746,2.091323e-05,432.59999999972746,7.949394e-06,432.59999999972746,1.466257e-05,432.59999999972746,1.238564e-05
432.61499999972744,2.101135e-05,432.61499999972744,9.161248e-06,432.61499999972744,1.422269e-05,432.61499999972744,1.248532e-05
432.62999999972743,2.059901e-05,432.62999999972743,9.09334e-06,432.62999999972743,1.477455e-05,432.62999999972743,1.224954e-05
432.6449999997274,1.978201e-05,432.6449999997274,9.645126e-06,432.6449999997274,1.484114e-05,432.6449999997274,1.291676e-05
432.6599999997274,1.913997e-05,432.6599999997274,9.398059e-06,432.6599999997274,1.574386e-05,432.6599999997274,1.289165e-05
432.6749999997274,1.855702e-05,432.6749999997274,9.331874e-06,432.6749999997274,1.590499e-05,432.6749999997274,1.260994e-05
432.6899999997274,1.787811e-05,432.6899999997274,9.204201e-06,432.6899999997274,1.566493e-05,432.6899999997274,1.243898e-05
432.70499999972736,1.814558e-05,432.70499999972736,8.960697e-06,432.70499999972736,1.477359e-05,432.70499999972736,1.224149e-05
432.71999999972735,1.824236e-05,432.71999999972735,9.003043e-06,432.71999999972735,1.498942e-05,432.71999999972735,1.205013e-05
432.73499999972734,1.793475e-05,432.73499999972734,9.042074e-06,432.73499999972734,1.493104e-05,432.73499999972734,1.189837e-05
432.7499999997273,1.769676e-05,432.7499999997273,9.0374e-06,432.7499999997273,1.437146e-05,432.7499999997273,1.093728e-05
432.7649999997273,1.640549e-05,432.7649999997273,9.147398e-06,432.7649999997273,1.424347e-05,432.7649999997273,1.184259e-05
432.7799999997273,1.595363e-05,432.7799999997273,9.352983e-06,432.7799999997273,1.405731e-05,432.7799999997273,1.217919e-05
432.7949999997273,1.421377e-05,432.7949999997273,9.351477e-06,432.7949999997273,1.404227e-05,432.7949999997273,1.186042e-05
432.80999999972727,1.39072e-05,432.80999999972727,9.487566e-06,432.80999999972727,1.348969e-05,432.80999999972727,1.152429e-05
432.82499999972725,1.32898e-05,432.82499999972725,9.551197e-06,432.82499999972725,1.304697e-05,432.82499999972725,1.129589e-05
432.83999999972724,1.340274e-05,432.83999999972724,9.038959e-06,432.83999999972724,1.28391e-05,432.83999999972724,1.122709e-05
432.8549999997272,1.318231e-05,432.8549999997272,9.119637e-06,432.8549999997272,1.270121e-05,432.8549999997272,1.172184e-05
432.8699999997272,1.314379e-05,432.8699999997272,1.479646e-05,432.8699999997272,1.327495e-05,432.8699999997272,1.182474e-05
432.8849999997272,1.28993e-05,432.8849999997272,1.679499e-05,432.8849999997272,1.222537e-05,432.8849999997272,1.193029e-05
432.8999999997272,1.339117e-05,432.8999999997272,1.795046e-05,432.8999999997272,1.244916e-05,432.8999999997272,1.196919e-05
432.9149999997272,1.293855e-05,432.9149999997272,1.811139e-05,432.9149999997272,1.127217e-05,432.9149999997272,1.191848e-05
432.92999999972716,1.337644e-05,432.92999999972716,1.813083e-05,432.92999999972716,1.200093e-05,432.92999999972716,1.206531e-05
432.94499999972714,1.421179e-05,432.94499999972714,1.816653e-05,432.94499999972714,1.229546e-05,432.94499999972714,1.213284e-05
432.95999999972713,1.403826e-05,432.95999999972713,1.833863e-05,432.95999999972713,1.214561e-05,432.95999999972713,1.22817e-05
432.9749999997271,1.39416e-05,432.9749999997271,1.853879e-05,432.9749999997271,1.088305e-05,432.9749999997271,1.26779e-05
432.9899999997271,1.429875e-05,432.9899999997271,1.858888e-05,432.9899999997271,1.051171e-05,432.9899999997271,1.263895e-05
433.0049999997271,1.401214e-05,433.0049999997271,1.861841e-05,433.0049999997271,1.063163e-05,433.0049999997271,1.216415e-05
433.0199999997271,1.49546e-05,433.0199999997271,1.854867e-05,433.0199999997271,1.06845e-05,433.0199999997271,1.120951e-05
433.03499999972706,1.507376e-05,433.03499999972706,1.896993e-05,433.03499999972706,1.06409e-05,433.03499999972706,1.079859e-05
433.04999999972705,1.504851e-05,433.04999999972705,1.963047e-05,433.04999999972705,1.06581e-05,433.04999999972705,1.079076e-05
433.06499999972704,1.485632e-05,433.06499999972704,2.004305e-05,433.06499999972704,1.071215e-05,433.06499999972704,1.107932e-05
433.079999999727,1.448861e-05,433.079999999727,2.039558e-05,433.079999999727,1.067922e-05,433.079999999727,1.149737e-05
433.094999999727,1.377898e-05,433.094999999727,2.055314e-05,433.094999999727,1.045123e-05,433.094999999727,1.152796e-05
433.109999999727,1.386154e-05,433.109999999727,1.760578e-05,433.109999999727,1.008354e-05,433.109999999727,1.078031e-05
433.124999999727,1.389707e-05,433.124999999727,1.575728e-05,433.124999999727,1.042153e-05,433.124999999727,1.089728e-05
433.13999999972697,1.37411e-05,433.13999999972697,1.775477e-05,433.13999999972697,1.026628e-05,433.13999999972697,1.029779e-05
433.15499999972695,1.391429e-05,433.15499999972695,1.808649e-05,433.15499999972695,1.056917e-05,433.15499999972695,9.931514e-06
433.16999999972694,1.390922e-05,433.16999999972694,3.814243e-05,433.16999999972694,1.028958e-05,433.16999999972694,9.857482e-06
433.1849999997269,1.36382e-05,433.1849999997269,4.851801e-05,433.1849999997269,9.548246e-06,433.1849999997269,9.707725e-06
433.1999999997269,1.27278e-05,433.1999999997269,5.226395e-05,433.1999999997269,1.071083e-05,433.1999999997269,9.595341e-06
433.2149999997269,1.28391e-05,433.2149999997269,5.994874e-05,433.2149999997269,1.083636e-05,433.2149999997269,9.623194e-06
433.2299999997269,1.292221e-05,433.2299999997269,7.360395e-05,433.2299999997269,1.128841e-05,433.2299999997269,9.139696e-06
433.2449999997269,1.275765e-05,433.2449999997269,9.689191e-05,433.2449999997269,1.165435e-05,433.2449999997269,9.429483e-06
433.25999999972686,1.291021e-05,433.25999999972686,0.0001058083,433.25999999972686,1.192202e-05,433.25999999972686,9.142777e-06
433.27499999972684,1.183188e-05,433.27499999972684,0.0001071691,433.27499999972684,1.17026e-05,433.27499999972684,9.590935e-06
433.28999999972683,1.215256e-05,433.28999999972683,0.0001143635,433.28999999972683,1.160954e-05,433.28999999972683,1.016008e-05
433.3049999997268,1.258757e-05,433.3049999997268,0.0001259188,433.3049999997268,1.173745e-05,433.3049999997268,9.880319e-06
433.3199999997268,1.244011e-05,433.3199999997268,0.000140715,433.3199999997268,1.179014e-05,433.3199999997268,9.351477e-06
433.3349999997268,1.249434e-05,433.3349999997268,0.0001460319,433.3349999997268,1.185092e-05,433.3349999997268,1.006816e-05
433.3499999997268,1.288837e-05,433.3499999997268,0.0001582829,433.3499999997268,1.207232e-05,433.3499999997268,1.010586e-05
433.36499999972676,1.379022e-05,433.36499999972676,0.0001636106,433.36499999972676,1.183426e-05,433.36499999972676,1.027588e-05
433.37999999972675,1.45971e-05,433.37999999972675,0.0001707854,433.37999999972675,1.162409e-05,433.37999999972675,1.022504e-05
