X[s],a: EMG RMS 1-1,X[s].1,a: EMG RMS 1-2,X[s].2,a: EMG RMS 1-3,X[s].3,a: EMG RMS 1-4
140.00999999999354,6.282877e-05,140.00999999999354,7.571843e-06,140.00999999999354,3.843931e-05,140.00999999999354,2.458118e-05
140.02499999999353,6.277494e-05,140.02499999999353,7.448044e-06,140.02499999999353,3.704186e-05,140.02499999999353,2.489324e-05
140.0399999999935,6.198911e-05,140.0399999999935,7.387274e-06,140.0399999999935,3.685887e-05,140.0399999999935,2.393368e-05
140.0549999999935,6.148348e-05,140.0549999999935,7.775606e-06,140.0549999999935,3.691463e-05,140.0549999999935,2.516675e-05
140.06999999999348,6.148897e-05,140.06999999999348,8.763595e-06,140.06999999999348,3.705897e-05,140.06999999999348,2.543844e-05
140.08499999999347,6.155996e-05,140.08499999999347,9.038959e-06,140.08499999999347,3.601178e-05,140.08499999999347,2.533856e-05
140.09999999999346,6.152928e-05,140.09999999999346,9.018676e-06,140.09999999999346,3.601335e-05,140.09999999999346,2.592062e-05
140.11499999999344,6.12652e-05,140.11499999999344,8.95126e-06,140.11499999999344,3.401257e-05,140.11499999999344,2.588364e-05
140.12999999999343,6.095124e-05,140.12999999999343,8.739451e-06,140.12999999999343,3.352828e-05,140.12999999999343,2.465213e-05
140.14499999999342,6.030905e-05,140.14499999999342,9.198077e-06,140.14499999999342,3.323373e-05,140.14499999999342,2.372203e-05
140.1599999999934,6.288211e-05,140.1599999999934,9.0374e-06,140.1599999999934,3.417783e-05,140.1599999999934,2.31711e-05
140.1749999999934,6.605395e-05,140.1749999999934,9.003043e-06,140.1749999999934,3.269701e-05,140.1749999999934,2.239451e-05
140.18999999999338,6.669975e-05,140.18999999999338,8.78607e-06,140.18999999999338,2.776776e-05,140.18999999999338,2.329963e-05
140.20499999999336,6.060404e-05,140.20499999999336,8.91025e-06,140.20499999999336,2.542348e-05,140.20499999999336,2.491756e-05
140.21999999999335,6.055963e-05,140.21999999999335,8.68934e-06,140.21999999999335,2.466584e-05,140.21999999999335,2.525002e-05
140.23499999999333,5.771403e-05,140.23499999999333,8.62425e-06,140.23499999999333,2.326696e-05,140.23499999999333,2.686742e-05
140.24999999999332,6.083001e-05,140.24999999999332,8.744285e-06,140.24999999999332,2.320451e-05,140.24999999999332,2.664365e-05
140.2649999999933,5.796755e-05,140.2649999999933,8.758771e-06,140.2649999999933,2.398013e-05,140.2649999999933,2.737229e-05
140.2799999999933,5.566651e-05,140.2799999999933,8.832443e-06,140.2799999999933,2.404407e-05,140.2799999999933,2.785185e-05
140.29499999999328,5.700873e-05,140.29499999999328,9.494987e-06,140.29499999999328,2.934339e-05,140.29499999999328,2.997601e-05
140.30999999999327,5.817835e-05,140.30999999999327,8.95126e-06,140.30999999999327,3.087194e-05,140.30999999999327,2.941627e-05
140.32499999999325,6.035575e-05,140.32499999999325,8.107309e-06,140.32499999999325,3.098672e-05,140.32499999999325,2.939471e-05
140.33999999999324,6.28736e-05,140.33999999999324,1.047681e-05,140.33999999999324,3.069118e-05,140.33999999999324,2.915556e-05
140.35499999999323,6.264578e-05,140.35499999999323,1.091924e-05,140.35499999999323,3.014238e-05,140.35499999999323,2.84904e-05
140.3699999999932,6.246586e-05,140.3699999999932,1.096172e-05,140.3699999999932,2.998588e-05,140.3699999999932,2.8369e-05
140.3849999999932,6.25632e-05,140.3849999999932,1.088823e-05,140.3849999999932,2.99793e-05,140.3849999999932,2.871154e-05
140.39999999999318,6.230825e-05,140.39999999999318,1.07266e-05,140.39999999999318,2.968465e-05,140.39999999999318,2.924481e-05
140.41499999999317,5.94556e-05,140.41499999999317,1.070952e-05,140.41499999999317,2.745554e-05,140.41499999999317,3.019141e-05
140.42999999999316,5.437512e-05,140.42999999999316,1.107296e-05,140.42999999999316,2.724643e-05,140.42999999999316,3.029667e-05
140.44499999999314,5.37799e-05,140.44499999999314,1.130088e-05,140.44499999999314,2.79508e-05,140.44499999999314,2.88525e-05
140.45999999999313,5.070131e-05,140.45999999999313,1.130586e-05,140.45999999999313,3.013163e-05,140.45999999999313,2.948897e-05
140.47499999999312,4.886201e-05,140.47499999999312,1.176383e-05,140.47499999999312,3.029481e-05,140.47499999999312,2.995204e-05
140.4899999999931,4.611885e-05,140.4899999999931,1.22817e-05,140.4899999999931,2.932322e-05,140.4899999999931,2.763045e-05
140.5049999999931,4.053272e-05,140.5049999999931,1.25775e-05,140.5049999999931,3.080982e-05,140.5049999999931,2.748221e-05
140.51999999999308,4.118912e-05,140.51999999999308,1.287744e-05,140.51999999999308,3.13923e-05,140.51999999999308,2.582807e-05
140.53499999999306,4.342659e-05,140.53499999999306,1.284129e-05,140.53499999999306,3.155342e-05,140.53499999999306,2.524221e-05
140.54999999999305,4.045515e-05,140.54999999999305,1.236515e-05,140.54999999999305,2.682649e-05,140.54999999999305,2.241275e-05
140.56499999999303,3.804369e-05,140.56499999999303,1.220461e-05,140.56499999999303,2.570012e-05,140.56499999999303,2.205797e-05
140.57999999999302,3.397776e-05,140.57999999999302,1.201852e-05,140.57999999999302,2.582152e-05,140.57999999999302,2.19106e-05
140.594999999993,3.132267e-05,140.594999999993,9.989498e-06,140.594999999993,2.69726e-05,140.594999999993,2.215419e-05
140.609999999993,3.068659e-05,140.609999999993,9.979622e-06,140.609999999993,2.742679e-05,140.609999999993,2.384287e-05
140.62499999999298,3.024036e-05,140.62499999999298,9.947104e-06,140.62499999999298,2.780731e-05,140.62499999999298,2.459435e-05
140.63999999999297,2.99012e-05,140.63999999999297,9.951351e-06,140.63999999999297,2.833522e-05,140.63999999999297,2.506861e-05
140.65499999999295,3.011199e-05,140.65499999999295,9.841749e-06,140.65499999999295,3.037468e-05,140.65499999999295,2.419184e-05
140.66999999999294,3.445819e-05,140.66999999999294,9.551197e-06,140.66999999999294,3.108385e-05,140.66999999999294,2.319419e-05
140.68499999999293,3.562598e-05,140.68499999999293,9.198077e-06,140.68499999999293,3.173327e-05,140.68499999999293,2.331111e-05
140.6999999999929,3.663922e-05,140.6999999999929,8.946537e-06,140.6999999999929,3.083405e-05,140.6999999999929,2.367329e-05
140.7149999999929,3.861226e-05,140.7149999999929,8.774839e-06,140.7149999999929,2.886909e-05,140.7149999999929,2.262481e-05
140.72999999999288,3.981001e-05,140.72999999999288,8.328435e-06,140.72999999999288,2.816718e-05,140.72999999999288,2.224747e-05
140.74499999999287,4.039556e-05,140.74499999999287,7.530803e-06,140.74499999999287,2.879287e-05,140.74499999999287,2.370124e-05
140.75999999999286,4.034078e-05,140.75999999999286,7.379642e-06,140.75999999999286,2.984603e-05,140.75999999999286,2.519193e-05
140.77499999999284,3.858963e-05,140.77499999999284,7.021637e-06,140.77499999999284,2.848842e-05,140.77499999999284,2.50495e-05
140.78999999999283,3.71679e-05,140.78999999999283,7.827967e-06,140.78999999999283,2.867767e-05,140.78999999999283,2.776269e-05
140.80499999999282,4.116791e-05,140.80499999999282,7.822567e-06,140.80499999999282,2.935683e-05,140.80499999999282,2.885006e-05
140.8199999999928,4.173881e-05,140.8199999999928,8.011176e-06,140.8199999999928,2.982667e-05,140.8199999999928,2.836354e-05
140.8349999999928,4.208098e-05,140.8349999999928,7.610811e-06,140.8349999999928,3.07054e-05,140.8349999999928,2.794173e-05
140.84999999999278,4.547878e-05,140.84999999999278,7.24479e-06,140.84999999999278,3.241664e-05,140.84999999999278,2.795232e-05
140.86499999999276,5.001626e-05,140.86499999999276,7.160693e-06,140.86499999999276,3.235487e-05,140.86499999999276,2.665264e-05
140.87999999999275,5.248584e-05,140.87999999999275,7.160693e-06,140.87999999999275,3.266814e-05,140.87999999999275,2.609664e-05
140.89499999999273,5.391672e-05,140.89499999999273,8.747506e-06,140.89499999999273,3.530704e-05,140.89499999999273,2.516955e-05
140.90999999999272,5.350601e-05,140.90999999999272,1.001344e-05,140.90999999999272,3.749393e-05,140.90999999999272,2.548104e-05
140.9249999999927,5.21887e-05,140.9249999999927,1.150104e-05,140.9249999999927,3.679882e-05,140.9249999999927,2.663255e-05
140.9399999999927,5.414614e-05,140.9399999999927,1.179611e-05,140.9399999999927,3.64573e-05,140.9399999999927,2.646701e-05
140.95499999999268,5.844987e-05,140.95499999999268,1.174945e-05,140.95499999999268,3.64828e-05,140.95499999999268,2.73867e-05
140.96999999999267,6.079295e-05,140.96999999999267,1.166281e-05,140.96999999999267,3.668955e-05,140.96999999999267,2.860783e-05
140.98499999999265,5.964201e-05,140.98499999999265,1.150104e-05,140.98499999999265,3.673752e-05,140.98499999999265,2.834367e-05
140.99999999999264,5.971754e-05,140.99999999999264,1.142115e-05,140.99999999999264,3.563191e-05,140.99999999999264,2.883052e-05
141.01499999999263,5.9764e-05,141.01499999999263,1.166039e-05,141.01499999999263,3.386855e-05,141.01499999999263,2.789531e-05
141.0299999999926,5.920417e-05,141.0299999999926,1.282922e-05,141.0299999999926,3.384442e-05,141.0299999999926,2.708985e-05
141.0449999999926,5.68578e-05,141.0449999999926,1.257414e-05,141.0449999999926,3.291386e-05,141.0449999999926,2.528235e-05
141.05999999999258,5.544185e-05,141.05999999999258,1.236856e-05,141.05999999999258,3.209829e-05,141.05999999999258,2.512698e-05
141.07499999999257,5.514608e-05,141.07499999999257,1.235945e-05,141.07499999999257,3.185291e-05,141.07499999999257,2.506692e-05
141.08999999999256,5.552589e-05,141.08999999999256,1.236856e-05,141.08999999999256,3.103578e-05,141.08999999999256,2.505231e-05
141.10499999999254,5.193273e-05,141.10499999999254,1.240836e-05,141.10499999999254,2.892759e-05,141.10499999999254,2.472346e-05
141.11999999999253,4.908005e-05,141.11999999999253,1.24469e-05,141.11999999999253,2.915943e-05,141.11999999999253,2.490229e-05
141.13499999999252,4.50865e-05,141.13499999999252,1.279954e-05,141.13499999999252,2.807852e-05,141.13499999999252,2.645477e-05
141.1499999999925,4.422374e-05,141.1499999999925,1.152918e-05,141.1499999999925,2.555115e-05,141.1499999999925,2.647818e-05
141.1649999999925,4.369983e-05,141.1649999999925,9.478654e-06,141.1649999999925,2.008799e-05,141.1649999999925,2.577893e-05
141.17999999999248,4.2819e-05,141.17999999999248,8.908669e-06,141.17999999999248,2.041905e-05,141.17999999999248,2.786146e-05
141.19499999999246,3.825122e-05,141.19499999999246,9.038959e-06,141.19499999999246,3.006095e-05,141.19499999999246,2.774391e-05
141.20999999999245,2.764523e-05,141.20999999999245,9.460803e-06,141.20999999999245,3.234268e-05,141.20999999999245,2.77241e-05
141.22499999999243,2.352406e-05,141.22499999999243,9.542344e-06,141.22499999999243,3.466524e-05,141.22499999999243,2.598142e-05
141.23999999999242,2.333225e-05,141.23999999999242,9.511293e-06,141.23999999999242,3.458346e-05,141.23999999999242,2.615218e-05
141.2549999999924,2.502024e-05,141.2549999999924,9.631973e-06,141.2549999999924,3.384275e-05,141.2549999999924,2.496444e-05
141.2699999999924,3.035195e-05,141.2699999999924,8.907087e-06,141.2699999999924,3.410604e-05,141.2699999999924,2.46687e-05
141.28499999999238,3.461359e-05,141.28499999999238,7.248678e-06,141.28499999999238,3.402209e-05,141.28499999999238,2.357371e-05
141.29999999999237,4.179379e-05,141.29999999999237,7.27777e-06,141.29999999999237,3.397196e-05,141.29999999999237,2.297022e-05
141.31499999999235,4.960619e-05,141.31499999999235,7.680822e-06,141.31499999999235,3.382735e-05,141.31499999999235,2.251058e-05
141.32999999999234,5.009449e-05,141.32999999999234,7.656943e-06,141.32999999999234,3.372684e-05,141.32999999999234,2.314677e-05
141.34499999999233,5.114226e-05,141.34499999999233,7.638524e-06,141.34499999999233,3.347993e-05,141.34499999999233,2.275333e-05
141.3599999999923,5.091009e-05,141.3599999999923,7.581139e-06,141.3599999999923,3.931329e-05,141.3599999999923,2.401535e-05
141.3749999999923,5.572569e-05,141.3749999999923,7.451826e-06,141.3749999999923,3.902378e-05,141.3749999999923,2.380502e-05
141.38999999999228,5.643205e-05,141.38999999999228,6.774542e-06,141.38999999999228,3.841401e-05,141.38999999999228,2.377482e-05
141.40499999999227,5.722748e-05,141.40499999999227,7.031661e-06,141.40499999999227,3.821511e-05,141.40499999999227,2.473143e-05
141.41999999999226,6.463307e-05,141.41999999999226,7.459384e-06,141.41999999999226,3.79818e-05,141.41999999999226,2.46647e-05
141.43499999999224,6.489995e-05,141.43499999999224,7.708283e-06,141.43499999999224,3.665306e-05,141.43499999999224,2.201514e-05
141.44999999999223,6.575279e-05,141.44999999999223,7.757469e-06,141.44999999999223,3.098308e-05,141.44999999999223,2.269692e-05
141.46499999999222,6.584142e-05,141.46499999999222,7.264208e-06,141.46499999999222,2.822863e-05,141.46499999999222,2.140588e-05
141.4799999999922,7.005168e-05,141.4799999999922,7.306746e-06,141.4799999999922,2.654938e-05,141.4799999999922,2.245042e-05
141.4949999999922,6.934713e-05,141.4949999999922,7.362442e-06,141.4949999999922,2.65902e-05,141.4949999999922,2.287743e-05
141.50999999999217,7.149333e-05,141.50999999999217,7.279705e-06,141.50999999999217,2.678603e-05,141.50999999999217,2.327422e-05
141.52499999999216,7.155655e-05,141.52499999999216,7.429107e-06,141.52499999999216,2.829841e-05,141.52499999999216,2.374577e-05
141.53999999999215,6.860909e-05,141.53999999999215,7.995334e-06,141.53999999999215,2.834069e-05,141.53999999999215,2.441327e-05
141.55499999999213,6.314925e-05,141.55499999999213,8.019962e-06,141.55499999999213,2.887446e-05,141.55499999999213,2.460523e-05
141.56999999999212,6.217744e-05,141.56999999999212,7.788277e-06,141.56999999999212,2.875126e-05,141.56999999999212,2.474965e-05
141.5849999999921,6.019028e-05,141.5849999999921,7.739288e-06,141.5849999999921,2.858616e-05,141.5849999999921,2.509164e-05
141.5999999999921,6.055567e-05,141.5999999999921,8.270727e-06,141.5999999999921,2.453586e-05,141.5999999999921,2.567271e-05
141.61499999999208,6.123692e-05,141.61499999999208,8.614445e-06,141.61499999999208,2.217008e-05,141.61499999999208,2.436417e-05
141.62999999999207,5.838018e-05,141.62999999999207,8.612809e-06,141.62999999999207,2.270684e-05,141.62999999999207,2.446514e-05
141.64499999999205,5.800958e-05,141.64499999999205,8.532291e-06,141.64499999999205,2.266462e-05,141.64499999999205,2.232773e-05
141.65999999999204,5.642232e-05,141.65999999999204,8.238303e-06,141.65999999999204,2.268698e-05,141.65999999999204,2.22291e-05
141.67499999999202,4.882826e-05,141.67499999999202,7.699141e-06,141.67499999999202,2.281145e-05,141.67499999999202,2.222656e-05
141.689999999992,4.850524e-05,141.689999999992,7.071614e-06,141.689999999992,2.266649e-05,141.689999999992,2.311632e-05
141.704999999992,4.809928e-05,141.704999999992,7.035667e-06,141.704999999992,2.34965e-05,141.704999999992,2.199658e-05
141.71999999999198,5.106839e-05,141.71999999999198,7.077588e-06,141.71999999999198,2.412362e-05,141.71999999999198,2.115034e-05
141.73499999999197,4.514676e-05,141.73499999999197,7.22142e-06,141.73499999999197,2.440288e-05,141.73499999999197,2.064546e-05
141.74999999999196,4.568615e-05,141.74999999999196,7.22532e-06,141.74999999999196,2.454849e-05,141.74999999999196,1.984813e-05
141.76499999999194,4.219197e-05,141.76499999999194,7.217518e-06,141.76499999999194,2.501292e-05,141.76499999999194,2.015449e-05
141.77999999999193,4.386874e-05,141.77999999999193,6.426676e-06,141.77999999999193,2.370421e-05,141.77999999999193,1.991968e-05
141.79499999999192,4.341134e-05,141.79499999999192,6.309435e-06,141.79499999999192,2.377364e-05,141.79499999999192,1.949293e-05
141.8099999999919,4.326801e-05,141.8099999999919,6.2781e-06,141.8099999999919,2.34947e-05,141.8099999999919,1.952109e-05
141.8249999999919,4.097482e-05,141.8249999999919,6.139704e-06,141.8249999999919,2.332863e-05,141.8249999999919,1.863807e-05
141.83999999999187,4.131376e-05,141.83999999999187,5.903427e-06,141.83999999999187,2.22949e-05,141.83999999999187,1.730313e-05
141.85499999999186,4.040463e-05,141.85499999999186,5.035477e-06,141.85499999999186,2.148339e-05,141.85499999999186,1.687532e-05
141.86999999999185,3.870445e-05,141.86999999999185,5.057808e-06,141.86999999999185,1.923174e-05,141.86999999999185,1.676981e-05
141.88499999999183,3.740328e-05,141.88499999999183,5.441526e-06,141.88499999999183,1.891639e-05,141.88499999999183,1.640807e-05
141.89999999999182,3.697792e-05,141.89999999999182,5.599728e-06,141.89999999999182,1.898701e-05,141.89999999999182,1.619637e-05
141.9149999999918,3.649901e-05,141.9149999999918,5.629835e-06,141.9149999999918,1.900036e-05,141.9149999999918,1.632976e-05
141.9299999999918,3.633345e-05,141.9299999999918,5.657291e-06,141.9299999999918,1.862824e-05,141.9299999999918,1.554125e-05
141.94499999999178,3.582392e-05,141.94499999999178,5.415577e-06,141.94499999999178,1.809349e-05,141.94499999999178,1.328132e-05
141.95999999999177,3.528389e-05,141.95999999999177,5.373798e-06,141.95999999999177,1.499693e-05,141.95999999999177,1.332579e-05
141.97499999999175,3.104485e-05,141.97499999999175,5.273245e-06,141.97499999999175,1.479075e-05,141.97499999999175,1.278963e-05
141.98999999999174,3.028737e-05,141.98999999999174,4.896482e-06,141.98999999999174,1.448472e-05,141.98999999999174,1.23092e-05
142.00499999999172,2.872184e-05,142.00499999999172,4.756387e-06,142.00499999999172,1.480312e-05,142.00499999999172,1.364646e-05
142.0199999999917,2.70503e-05,142.0199999999917,4.696781e-06,142.0199999999917,1.409834e-05,142.0199999999917,1.31277e-05
142.0349999999917,1.829249e-05,142.0349999999917,4.569077e-06,142.0349999999917,1.192202e-05,142.0349999999917,1.278192e-05
142.04999999999168,1.802251e-05,142.04999999999168,4.612038e-06,142.04999999999168,1.170019e-05,142.04999999999168,1.222422e-05
142.06499999999167,1.721089e-05,142.06499999999167,4.824024e-06,142.06499999999167,1.165193e-05,142.06499999999167,1.205246e-05
142.07999999999166,1.627099e-05,142.07999999999166,4.956529e-06,142.07999999999166,1.227252e-05,142.07999999999166,1.21896e-05
142.09499999999164,1.445064e-05,142.09499999999164,4.976383e-06,142.09499999999164,1.257638e-05,142.09499999999164,1.266122e-05
142.10999999999163,1.442039e-05,142.10999999999163,5.035477e-06,142.10999999999163,1.29527e-05,142.10999999999163,1.2884e-05
142.12499999999162,1.296357e-05,142.12499999999162,4.572159e-06,142.12499999999162,1.3147e-05,142.12499999999162,1.30286e-05
142.1399999999916,1.30804e-05,142.1399999999916,4.131956e-06,142.1399999999916,1.359268e-05,142.1399999999916,1.311374e-05
142.1549999999916,1.462505e-05,142.1549999999916,4.383405e-06,142.1549999999916,1.412529e-05,142.1549999999916,1.27278e-05
142.16999999999157,1.568111e-05,142.16999999999157,5.273245e-06,142.16999999999157,1.460867e-05,142.16999999999157,1.344367e-05
142.18499999999156,1.516042e-05,142.18499999999156,5.549188e-06,142.18499999999156,1.472776e-05,142.18499999999156,1.352203e-05
142.19999999999155,1.50915e-05,142.19999999999155,7.784659e-06,142.19999999999155,1.51055e-05,142.19999999999155,1.36258e-05
142.21499999999153,1.610391e-05,142.21499999999153,8.193725e-06,142.21499999999153,1.532032e-05,142.21499999999153,1.377591e-05
142.22999999999152,1.685527e-05,142.22999999999152,8.31828e-06,142.22999999999152,1.55874e-05,142.22999999999152,1.397994e-05
142.2449999999915,1.715515e-05,142.2449999999915,8.726546e-06,142.2449999999915,1.517157e-05,142.2449999999915,1.489041e-05
142.2599999999915,1.717074e-05,142.2599999999915,8.708772e-06,142.2599999999915,1.434988e-05,142.2599999999915,1.42098e-05
142.27499999999148,1.72068e-05,142.27499999999148,8.687718e-06,142.27499999999148,1.382797e-05,142.27499999999148,1.326752e-05
142.28999999999147,1.687198e-05,142.28999999999147,8.848378e-06,142.28999999999147,1.372058e-05,142.28999999999147,1.410733e-05
142.30499999999145,1.642437e-05,142.30499999999145,8.749116e-06,142.30499999999145,1.36846e-05,142.30499999999145,1.502696e-05
142.31999999999144,1.712474e-05,142.31999999999144,8.758771e-06,142.31999999999144,1.348029e-05,142.31999999999144,1.51827e-05
142.33499999999142,1.75569e-05,142.33499999999142,8.805288e-06,142.33499999999142,1.264229e-05,142.33499999999142,1.486959e-05
142.3499999999914,1.785603e-05,142.3499999999914,8.900759e-06,142.3499999999914,1.24729e-05,142.3499999999914,1.52281e-05
142.3649999999914,1.761218e-05,142.3649999999914,8.946537e-06,142.3649999999914,1.234462e-05,142.3649999999914,1.577604e-05
142.37999999999138,1.760018e-05,142.37999999999138,9.348464e-06,142.37999999999138,1.229431e-05,142.37999999999138,1.515763e-05
142.39499999999137,1.755931e-05,142.39499999999137,9.459313e-06,142.39499999999137,1.186873e-05,142.39499999999137,1.515391e-05
142.40999999999136,1.662046e-05,142.40999999999136,9.392062e-06,142.40999999999136,1.112753e-05,142.40999999999136,1.48819e-05
142.42499999999134,1.624239e-05,142.42499999999134,9.020237e-06,142.42499999999134,1.071215e-05,142.42499999999134,1.441941e-05
142.43999999999133,1.603905e-05,142.43999999999133,8.065501e-06,142.43999999999133,1.082465e-05,142.43999999999133,1.42662e-05
142.45499999999132,1.644837e-05,142.45499999999132,7.027653e-06,142.45499999999132,1.098355e-05,142.45499999999132,1.437146e-05
142.4699999999913,1.524289e-05,142.4699999999913,6.608231e-06,142.4699999999913,1.062235e-05,142.4699999999913,1.408334e-05
142.4849999999913,1.481359e-05,142.4849999999913,6.2781e-06,142.4849999999913,1.047546e-05,142.4849999999913,1.356155e-05
142.49999999999127,1.457198e-05,142.49999999999127,6.160319e-06,142.49999999999127,1.055984e-05,142.49999999999127,1.231149e-05
142.51499999999126,1.463372e-05,142.51499999999126,6.289309e-06,142.51499999999126,1.046066e-05,142.51499999999126,1.27134e-05
142.52999999999125,1.505038e-05,142.52999999999125,6.554722e-06,142.52999999999125,1.065942e-05,142.52999999999125,1.273776e-05
142.54499999999123,1.497908e-05,142.54499999999123,6.356147e-06,142.54499999999123,1.12296e-05,142.54499999999123,1.145686e-05
142.55999999999122,1.5768e-05,142.55999999999122,6.219488e-06,142.55999999999122,1.15194e-05,142.55999999999122,1.12484e-05
142.5749999999912,1.544395e-05,142.5749999999912,6.201342e-06,142.5749999999912,1.147529e-05,142.5749999999912,1.177938e-05
142.5899999999912,1.541839e-05,142.5899999999912,6.266871e-06,142.5899999999912,1.150104e-05,142.5899999999912,1.248419e-05
142.60499999999118,1.530837e-05,142.60499999999118,6.016875e-06,142.60499999999118,1.154017e-05,142.60499999999118,1.164588e-05
142.61999999999117,1.534421e-05,142.61999999999117,5.799914e-06,142.61999999999117,1.137295e-05,142.61999999999117,1.171342e-05
142.63499999999115,1.497343e-05,142.63499999999115,5.371176e-06,142.63499999999115,1.09102e-05,142.63499999999115,1.184378e-05
142.64999999999114,1.474114e-05,142.64999999999114,4.890725e-06,142.64999999999114,1.083115e-05,142.64999999999114,1.228285e-05
142.66499999999112,1.386561e-05,142.66499999999112,4.747494e-06,142.66499999999112,1.06581e-05,142.66499999999112,1.300805e-05
142.6799999999911,1.381879e-05,142.6799999999911,5.018664e-06,142.6799999999911,1.077901e-05,142.6799999999911,1.306963e-05
142.6949999999911,1.38351e-05,142.6949999999911,5.339611e-06,142.6949999999911,1.04889e-05,142.6949999999911,1.292766e-05
142.70999999999108,1.254947e-05,142.70999999999108,5.546649e-06,142.70999999999108,9.475681e-06,142.70999999999108,1.274439e-05
142.72499999999107,1.326009e-05,142.72499999999107,5.556798e-06,142.72499999999107,9.669923e-06,142.72499999999107,1.272669e-05
142.73999999999106,1.325797e-05,142.73999999999106,5.599728e-06,142.73999999999106,9.500919e-06,142.73999999999106,1.266122e-05
142.75499999999104,1.311159e-05,142.75499999999104,5.451871e-06,142.75499999999104,9.368033e-06,142.75499999999104,1.203726e-05
142.76999999999103,1.305129e-05,142.76999999999103,5.289249e-06,142.76999999999103,9.225602e-06,142.76999999999103,1.195742e-05
142.78499999999102,1.286978e-05,142.78499999999102,5.00461e-06,142.78499999999102,9.043632e-06,142.78499999999102,1.201735e-05
142.799999999991,1.101429e-05,142.799999999991,4.873412e-06,142.799999999991,8.136793e-06,142.799999999991,1.17746e-05
142.814999999991,1.123462e-05,142.814999999991,4.910845e-06,142.814999999991,8.246849e-06,142.814999999991,1.184259e-05
142.82999999999097,1.117427e-05,142.82999999999097,4.794733e-06,142.82999999999097,8.056763e-06,142.82999999999097,1.149982e-05
142.84499999999096,1.039582e-05,142.84499999999096,4.687774e-06,142.84499999999096,7.988284e-06,142.84499999999096,1.076724e-05
142.85999999999095,1.031693e-05,142.85999999999095,4.69378e-06,142.85999999999095,7.917432e-06,142.85999999999095,1.05184e-05
142.87499999999093,1.055584e-05,142.87499999999093,4.66971e-06,142.87499999999093,8.270727e-06,142.87499999999093,1.048487e-05
142.88999999999092,1.041071e-05,142.88999999999092,4.684768e-06,142.88999999999092,8.31828e-06,142.88999999999092,1.043099e-05
142.9049999999909,1.106278e-05,142.9049999999909,4.774123e-06,142.9049999999909,8.419275e-06,142.9049999999909,1.025393e-05
142.9199999999909,1.167367e-05,142.9199999999909,4.984868e-06,142.9199999999909,8.390783e-06,142.9199999999909,9.751159e-06
142.93499999999088,1.163862e-05,142.93499999999088,5.281253e-06,142.93499999999088,7.755652e-06,142.93499999999088,1.072135e-05
142.94999999999087,1.145686e-05,142.94999999999087,6.707672e-06,142.94999999999087,7.584854e-06,142.94999999999087,1.081423e-05
142.96499999999085,1.132329e-05,142.96499999999085,6.650728e-06,142.96499999999085,7.442368e-06,142.96499999999085,1.070426e-05
142.97999999999084,1.096558e-05,142.97999999999084,6.58688e-06,142.97999999999084,7.201887e-06,142.97999999999084,1.092052e-05
142.99499999999082,1.082595e-05,142.99499999999082,6.528882e-06,142.99499999999082,6.844875e-06,142.99499999999082,1.105259e-05
143.0099999999908,1.105004e-05,143.0099999999908,6.511599e-06,143.0099999999908,6.965238e-06,143.0099999999908,1.113512e-05
143.0249999999908,1.072135e-05,143.0249999999908,6.539662e-06,143.0249999999908,6.898175e-06,143.0249999999908,1.116671e-05
143.03999999999078,1.070689e-05,143.03999999999078,6.692956e-06,143.03999999999078,6.99148e-06,143.03999999999078,1.147161e-05
143.05499999999077,1.070689e-05,143.05499999999077,7.21166e-06,143.05499999999077,7.077588e-06,143.05499999999077,1.139398e-05
143.06999999999076,1.037411e-05,143.06999999999076,7.459384e-06,143.06999999999076,6.934835e-06,143.06999999999076,1.071346e-05
143.08499999999074,1.038226e-05,143.08499999999074,7.528932e-06,143.08499999999074,7.40061e-06,143.08499999999074,1.044449e-05
143.09999999999073,1.055717e-05,143.09999999999073,7.577422e-06,143.09999999999073,7.38918e-06,143.09999999999073,9.814517e-06
143.11499999999072,1.056784e-05,143.11499999999072,8.157542e-06,143.11499999999072,7.432898e-06,143.11499999999072,9.41902e-06
143.1299999999907,1.033875e-05,143.1299999999907,8.328435e-06,143.1299999999907,7.176414e-06,143.1299999999907,9.274335e-06
143.1449999999907,1.075415e-05,143.1449999999907,8.669864e-06,143.1449999999907,7.219469e-06,143.1449999999907,9.304663e-06
143.15999999999067,1.050232e-05,143.15999999999067,8.484277e-06,143.15999999999067,7.320229e-06,143.15999999999067,8.752336e-06
143.17499999999066,1.002328e-05,143.17499999999066,8.154087e-06,143.17499999999066,7.431003e-06,143.17499999999066,8.558665e-06
143.18999999999065,9.772805e-06,143.18999999999065,7.166593e-06,143.18999999999065,7.383459e-06,143.18999999999065,7.42721e-06
143.20499999999063,9.840318e-06,143.20499999999063,6.749543e-06,143.20499999999063,7.217518e-06,143.20499999999063,7.392992e-06
143.21999999999062,9.372543e-06,143.21999999999062,7.00959e-06,143.21999999999062,7.238955e-06,143.21999999999062,8.333508e-06
143.2349999999906,9.509811e-06,143.2349999999906,7.203842e-06,143.2349999999906,7.493299e-06,143.2349999999906,8.373978e-06
143.2499999999906,9.627584e-06,143.2499999999906,7.466933e-06,143.2499999999906,7.510198e-06,143.2499999999906,8.563602e-06
143.26499999999058,9.457824e-06,143.26499999999058,7.470705e-06,143.26499999999058,7.669811e-06,143.26499999999058,9.496471e-06
143.27999999999057,9.697562e-06,143.27999999999057,7.417721e-06,143.27999999999057,7.956479e-06,143.27999999999057,9.830293e-06
143.29499999999055,9.634898e-06,143.29499999999055,7.156758e-06,143.29499999999055,7.963557e-06,143.29499999999055,9.838886e-06
143.30999999999054,9.366529e-06,143.30999999999054,6.612493e-06,143.30999999999054,8.098617e-06,143.30999999999054,1.044044e-05
143.32499999999052,9.12427e-06,143.32499999999052,6.513761e-06,143.32499999999052,8.495891e-06,143.32499999999052,1.066338e-05
143.3399999999905,9.392062e-06,143.3399999999905,6.498606e-06,143.3399999999905,8.301328e-06,143.3399999999905,1.068318e-05
143.3549999999905,1.003312e-05,143.3549999999905,6.450741e-06,143.3549999999905,8.372296e-06,143.3549999999905,1.127467e-05
143.36999999999048,1.028547e-05,143.36999999999048,5.684616e-06,143.36999999999048,8.035755e-06,143.36999999999048,1.137047e-05
143.38499999999047,1.051439e-05,143.38499999999047,5.371176e-06,143.38499999999047,8.241723e-06,143.38499999999047,1.17746e-05
143.39999999999046,9.771364e-06,143.39999999999046,5.038274e-06,143.39999999999046,8.145445e-06,143.39999999999046,1.214329e-05
143.41499999999044,9.580649e-06,143.41499999999044,5.013047e-06,143.41499999999044,8.174792e-06,143.41499999999044,1.242198e-05
143.42999999999043,9.546771e-06,143.42999999999043,4.962209e-06,143.42999999999043,8.041013e-06,143.42999999999043,1.23412e-05
143.44499999999042,9.599744e-06,143.44499999999042,4.847328e-06,143.44499999999042,8.221186e-06,143.44499999999042,1.226793e-05
143.4599999999904,9.92016e-06,143.4599999999904,4.687774e-06,143.4599999999904,8.29284e-06,143.4599999999904,1.25225e-05
143.4749999999904,1.018224e-05,143.4749999999904,4.080498e-06,143.4749999999904,8.306418e-06,143.4749999999904,1.20396e-05
143.48999999999037,1.03714e-05,143.48999999999037,3.882364e-06,143.48999999999037,8.192006e-06,143.48999999999037,1.216299e-05
143.50499999999036,1.03904e-05,143.50499999999036,3.572469e-06,143.50499999999036,8.067247e-06,143.50499999999036,1.190784e-05
143.51999999999035,1.068713e-05,143.51999999999035,3.59605e-06,143.51999999999035,8.053266e-06,143.51999999999035,1.115408e-05
143.53499999999033,1.065281e-05,143.53499999999033,3.654337e-06,143.53499999999033,7.686323e-06,143.53499999999033,1.070557e-05
143.54999999999032,1.074497e-05,143.54999999999032,3.67356e-06,143.54999999999032,7.688155e-06,143.54999999999032,1.046066e-05
143.5649999999903,1.092568e-05,143.5649999999903,3.681221e-06,143.5649999999903,7.252564e-06,143.5649999999903,9.908794e-06
143.5799999999903,1.099765e-05,143.5799999999903,3.685046e-06,143.5799999999903,6.906339e-06,143.5799999999903,1.006676e-05
143.59499999999028,1.069372e-05,143.59499999999028,3.677393e-06,143.59499999999028,6.576178e-06,143.59499999999028,1.014898e-05
143.60999999999026,1.012397e-05,143.60999999999026,3.552699e-06,143.60999999999026,6.755802e-06,143.60999999999026,9.390561e-06
143.62499999999025,9.935768e-06,143.62499999999025,3.56062e-06,143.62499999999025,7.304818e-06,143.62499999999025,9.283444e-06
143.63999999999024,9.631973e-06,143.63999999999024,3.361178e-06,143.63999999999024,7.726537e-06,143.63999999999024,8.750726e-06
143.65499999999022,9.627584e-06,143.65499999999022,3.171418e-06,143.65499999999022,7.913874e-06,143.65499999999022,8.703918e-06
143.6699999999902,9.807338e-06,143.6699999999902,3.175857e-06,143.6699999999902,8.058511e-06,143.6699999999902,8.357139e-06
143.6849999999902,9.830293e-06,143.6849999999902,3.228645e-06,143.6849999999902,8.004139e-06,143.6849999999902,8.525684e-06
143.69999999999018,9.68157e-06,143.69999999999018,3.276286e-06,143.69999999999018,8.075974e-06,143.69999999999018,8.11252e-06
143.71499999999017,9.181215e-06,143.71499999999017,3.373728e-06,143.71499999999017,8.077717e-06,143.71499999999017,7.291306e-06
143.72999999999016,9.08249e-06,143.72999999999016,3.398688e-06,143.72999999999016,7.979462e-06,143.72999999999016,8.164447e-06
143.74499999999014,8.798887e-06,143.74499999999014,3.90768e-06,143.74499999999014,7.68449e-06,143.74499999999014,8.485937e-06
143.75999999999013,8.570179e-06,143.75999999999013,4.229668e-06,143.75999999999013,7.869248e-06,143.75999999999013,8.81648e-06
143.77499999999011,8.880161e-06,143.77499999999011,4.376973e-06,143.77499999999011,7.993573e-06,143.77499999999011,9.06075e-06
143.7899999999901,9.087142e-06,143.7899999999901,4.338181e-06,143.7899999999901,8.088174e-06,143.7899999999901,9.08404e-06
143.8049999999901,9.18275e-06,143.8049999999901,4.29576e-06,143.8049999999901,8.265616e-06,143.8049999999901,9.10263e-06
143.81999999999007,8.966984e-06,143.81999999999007,4.321914e-06,143.81999999999007,8.348708e-06,143.81999999999007,9.207261e-06
143.83499999999006,9.167396e-06,143.83499999999006,4.328428e-06,143.83499999999006,8.687718e-06,143.83499999999006,9.020237e-06
143.84999999999005,9.579178e-06,143.84999999999005,4.341427e-06,143.84999999999005,8.645458e-06,143.84999999999005,9.328855e-06
143.86499999999003,1.011701e-05,143.86499999999003,4.39624e-06,143.86499999999003,8.576751e-06,143.86499999999003,9.357501e-06
143.87999999999002,1.038904e-05,143.87999999999002,4.497608e-06,143.87999999999002,7.664298e-06,143.87999999999002,9.219493e-06
143.89499999999,1.095144e-05,143.89499999999,4.456705e-06,143.89499999999,7.575563e-06,143.89499999999,9.045189e-06
143.90999999999,1.114903e-05,143.90999999999,4.602866e-06,143.90999999999,7.826167e-06,143.90999999999,9.327345e-06
143.92499999998998,1.109076e-05,143.92499999998998,4.624239e-06,143.92499999998998,8.002378e-06,143.92499999998998,9.260655e-06
143.93999999998996,1.107423e-05,143.93999999998996,4.967884e-06,143.93999999998996,7.904969e-06,143.93999999998996,9.260655e-06
143.95499999998995,1.158646e-05,143.95499999998995,4.93374e-06,143.95499999998995,8.079462e-06,143.95499999998995,9.701918e-06
143.96999999998994,1.148265e-05,143.96999999998994,4.930884e-06,143.96999999998994,8.124666e-06,143.96999999998994,9.713527e-06
143.98499999998992,1.146915e-05,143.98499999998992,5.281253e-06,143.98499999998992,8.192006e-06,143.98499999998992,9.051417e-06
143.9999999999899,1.149369e-05,143.9999999999899,4.75046e-06,143.9999999999899,8.353768e-06,143.9999999999899,8.340267e-06
144.0149999999899,1.17038e-05,144.0149999999899,4.675739e-06,144.0149999999899,8.325052e-06,144.0149999999899,8.21433e-06
144.02999999998988,1.138533e-05,144.02999999998988,4.550541e-06,144.02999999998988,8.42262e-06,144.02999999998988,8.724932e-06
144.04499999998987,1.115535e-05,144.04499999998987,4.584466e-06,144.04499999998987,8.561957e-06,144.04499999998987,8.742674e-06
144.05999999998986,1.132827e-05,144.05999999998986,4.867628e-06,144.05999999998986,8.164447e-06,144.05999999998986,8.467658e-06
144.07499999998984,1.147652e-05,144.07499999998984,5.102175e-06,144.07499999998984,8.119463e-06,144.07499999998984,8.750726e-06
144.08999999998983,1.14544e-05,144.08999999998983,5.974584e-06,144.08999999998983,8.358825e-06,144.08999999998983,8.749116e-06
144.10499999998981,1.15194e-05,144.10499999998981,5.995767e-06,144.10499999998981,8.36893e-06,144.10499999998981,9.162785e-06
144.1199999999898,1.109584e-05,144.1199999999898,5.924864e-06,144.1199999999898,8.604628e-06,144.1199999999898,9.381556e-06
144.1349999999898,1.103984e-05,144.1349999999898,6.005157e-06,144.1349999999898,8.571823e-06,144.1349999999898,9.181215e-06
144.14999999998977,1.140387e-05,144.14999999998977,6.042573e-06,144.14999999998977,8.055015e-06,144.14999999998977,8.92131e-06
144.16499999998976,1.248983e-05,144.16499999998976,5.898653e-06,144.16499999998976,8.402527e-06,144.16499999998976,8.98895e-06
144.17999999998975,1.247064e-05,144.17999999998975,5.765811e-06,144.17999999998975,8.205751e-06,144.17999999998975,9.230183e-06
144.19499999998973,1.237084e-05,144.19499999998973,5.647323e-06,144.19499999998973,9.23781e-06,144.19499999998973,9.562988e-06
144.20999999998972,1.212587e-05,144.20999999998972,5.659781e-06,144.20999999998972,9.090241e-06,144.20999999998972,1.040395e-05
144.2249999999897,1.218729e-05,144.2249999999897,5.564399e-06,144.2249999999897,9.291028e-06,144.2249999999897,1.055717e-05
144.2399999999897,1.278302e-05,144.2399999999897,5.344885e-06,144.2399999999897,9.275854e-06,144.2399999999897,1.073973e-05
144.25499999998968,1.27455e-05,144.25499999998968,5.331691e-06,144.25499999998968,9.10263e-06,144.25499999998968,1.108441e-05
144.26999999998966,1.266567e-05,144.26999999998966,5.238403e-06,144.26999999998966,8.818078e-06,144.26999999998966,1.1332e-05
144.28499999998965,1.264229e-05,144.28499999998965,5.235713e-06,144.28499999998965,8.718472e-06,144.28499999998965,1.126592e-05
144.29999999998964,1.258534e-05,144.29999999998964,5.257193e-06,144.29999999998964,8.712006e-06,144.29999999998964,1.141622e-05
144.31499999998962,1.287853e-05,144.31499999998962,4.82986e-06,144.31499999998962,8.745896e-06,144.31499999998962,1.146915e-05
144.3299999999896,1.316306e-05,144.3299999999896,4.651575e-06,144.3299999999896,8.545489e-06,144.3299999999896,1.143225e-05
144.3449999999896,1.316306e-05,144.3449999999896,3.692683e-06,144.3449999999896,8.454338e-06,144.3449999999896,1.1332e-05
144.35999999998958,1.288947e-05,144.35999999998958,3.665883e-06,144.35999999998958,8.571823e-06,144.35999999998958,1.148143e-05
144.37499999998957,1.277861e-05,144.37499999998957,3.584279e-06,144.37499999998957,8.289442e-06,144.37499999998957,1.165193e-05
144.38999999998956,1.247403e-05,144.38999999998956,3.508812e-06,144.38999999998956,8.528988e-06,144.38999999998956,1.207932e-05
144.40499999998954,1.127592e-05,144.40499999998954,3.556662e-06,144.40499999998954,8.640569e-06,144.40499999998954,1.211309e-05
144.41999999998953,1.059314e-05,144.41999999998953,3.662038e-06,144.41999999998953,8.166172e-06,144.41999999998953,1.226793e-05
144.43499999998951,1.063163e-05,144.43499999998951,3.568524e-06,144.43499999998951,7.963557e-06,144.43499999998951,1.249773e-05
144.4499999999895,1.090116e-05,144.4499999999895,3.580347e-06,144.4499999999895,6.692956e-06,144.4499999999895,1.170019e-05
144.4649999999895,1.144333e-05,144.4649999999895,3.635012e-06,144.4649999999895,6.66131e-06,144.4649999999895,1.124966e-05
144.47999999998947,1.122709e-05,144.47999999998947,3.540784e-06,144.47999999998947,6.554722e-06,144.47999999998947,1.115535e-05
144.49499999998946,1.124089e-05,144.49499999998946,3.524834e-06,144.49499999998946,6.705572e-06,144.49499999998946,1.124339e-05
144.50999999998945,1.116797e-05,144.50999999998945,3.504795e-06,144.50999999998945,7.304818e-06,144.50999999998945,1.103345e-05
144.52499999998943,1.104111e-05,144.52499999998943,3.552699e-06,144.52499999998943,7.512074e-06,144.52499999998943,1.106151e-05
144.53999999998942,1.198801e-05,144.53999999998942,3.79057e-06,144.53999999998942,8.136793e-06,144.53999999998942,1.11288e-05
144.5549999999894,1.283141e-05,144.5549999999894,4.186148e-06,144.5549999999894,8.160995e-06,144.5549999999894,1.129714e-05
144.5699999999894,1.294617e-05,144.5699999999894,4.559819e-06,144.5699999999894,8.269024e-06,144.5699999999894,1.137295e-05
144.58499999998938,1.279183e-05,144.58499999998938,4.910845e-06,144.58499999998938,8.260502e-06,144.58499999998938,1.117175e-05
144.59999999998936,1.329616e-05,144.59999999998936,4.996159e-06,144.59999999998936,8.032248e-06,144.59999999998936,1.103601e-05
144.61499999998935,1.415617e-05,144.61499999998935,5.423375e-06,144.61499999998935,8.231461e-06,144.61499999998935,1.037004e-05
144.62999999998934,1.439986e-05,144.62999999998934,5.729046e-06,144.62999999998934,8.454338e-06,144.62999999998934,1.045392e-05
144.64499999998932,1.668982e-05,144.64499999998932,6.061194e-06,144.64499999998932,8.469321e-06,144.64499999998932,1.045796e-05
144.6599999999893,1.681846e-05,144.6599999999893,6.148874e-06,144.6599999999893,8.632413e-06,144.6599999999893,1.115029e-05
144.6749999999893,1.74329e-05,144.6749999999893,6.318359e-06,144.6749999999893,8.51411e-06,144.6749999999893,1.173625e-05
144.68999999998928,1.785525e-05,144.68999999998928,6.345057e-06,144.68999999998928,8.813284e-06,144.68999999998928,1.293311e-05
144.70499999998927,1.835629e-05,144.70499999998927,6.597564e-06,144.70499999998927,8.845193e-06,144.70499999998927,1.344681e-05
144.71999999998926,1.862975e-05,144.71999999998926,6.820134e-06,144.71999999998926,8.908669e-06,144.71999999998926,1.404027e-05
144.73499999998924,1.923833e-05,144.73499999998924,6.902258e-06,144.73499999998924,9.05764e-06,144.73499999998924,1.479551e-05
144.74999999998923,2.009009e-05,144.74999999998923,7.101431e-06,144.74999999998923,9.318279e-06,144.74999999998923,1.502696e-05
144.76499999998921,2.016637e-05,144.76499999998921,7.067629e-06,144.76499999998921,8.952834e-06,144.76499999998921,1.523087e-05
144.7799999999892,2.027366e-05,144.7799999999892,7.129148e-06,144.7799999999892,8.720087e-06,144.7799999999892,1.511762e-05
144.7949999999892,1.958665e-05,144.7949999999892,6.918566e-06,144.7949999999892,8.091657e-06,144.7949999999892,1.463468e-05
144.80999999998917,2.053257e-05,144.80999999998917,6.638008e-06,144.80999999998917,8.15236e-06,144.80999999998917,1.470478e-05
144.82499999998916,2.051197e-05,144.82499999998916,6.391509e-06,144.82499999998916,7.815361e-06,144.82499999998916,1.479932e-05
144.83999999998915,2.043284e-05,144.83999999998915,6.266871e-06,144.83999999998915,7.892485e-06,144.83999999998915,1.584465e-05
144.85499999998913,2.033956e-05,144.85499999998913,6.061194e-06,144.85499999998913,7.878193e-06,144.85499999998913,1.632976e-05
144.86999999998912,2.047417e-05,144.86999999998912,5.898653e-06,144.86999999998912,7.903186e-06,144.86999999998912,1.683939e-05
144.8849999999891,2.012862e-05,144.8849999999891,5.438937e-06,144.8849999999891,7.634834e-06,144.8849999999891,1.708686e-05
144.8999999999891,1.844815e-05,144.8999999999891,5.178904e-06,144.8999999999891,7.508323e-06,144.8999999999891,1.785367e-05
144.91499999998908,1.84084e-05,144.91499999998908,5.181623e-06,144.91499999998908,7.558809e-06,144.91499999998908,1.72901e-05
144.92999999998906,1.743775e-05,144.92999999998906,5.472503e-06,144.92999999998906,7.847737e-06,144.92999999998906,1.670248e-05
144.94499999998905,1.700256e-05,144.94499999998905,5.503306e-06,144.94499999998905,7.865667e-06,144.94499999998905,1.593949e-05
144.95999999998904,1.653038e-05,144.95999999998904,6.69506e-06,144.95999999998904,7.942303e-06,144.95999999998904,1.598186e-05
144.97499999998902,1.5619e-05,144.97499999998902,6.873626e-06,144.97499999998902,8.330127e-06,144.97499999998902,1.538089e-05
144.989999999989,1.510736e-05,144.989999999989,6.922637e-06,144.989999999989,8.091657e-06,144.989999999989,1.5324e-05
145.004999999989,1.363614e-05,145.004999999989,6.795303e-06,145.004999999989,7.867457e-06,145.004999999989,1.607677e-05
145.01999999998898,1.337328e-05,145.01999999998898,7.744747e-06,145.01999999998898,8.072484e-06,145.01999999998898,1.642952e-05
145.03499999998897,1.359579e-05,145.03499999998897,7.795508e-06,145.03499999998897,8.456004e-06,145.03499999998897,1.666532e-05
145.04999999998896,1.138161e-05,145.04999999998896,8.044515e-06,145.04999999998896,9.045189e-06,145.04999999998896,1.671512e-05
145.06499999998894,1.127592e-05,145.06499999998894,8.169621e-06,145.06499999998894,9.387561e-06,145.06499999998894,1.680002e-05
145.07999999998893,1.081163e-05,145.07999999998893,8.210899e-06,145.07999999998893,9.546771e-06,145.07999999998893,1.637885e-05
145.09499999998891,1.011701e-05,145.09499999998891,8.694202e-06,145.09499999998891,9.494987e-06,145.09499999998891,1.548586e-05
145.1099999999889,9.242383e-06,145.1099999999889,8.789276e-06,145.1099999999889,9.511293e-06,145.1099999999889,1.557836e-05
145.1249999999889,8.718472e-06,145.1249999999889,8.790878e-06,145.1249999999889,9.380055e-06,145.1249999999889,1.496779e-05
145.13999999998887,9.207261e-06,145.13999999998887,8.8754e-06,145.13999999998887,9.269777e-06,145.13999999998887,1.458937e-05
145.15499999998886,1.046335e-05,145.15499999998886,8.763595e-06,145.15499999998886,9.487566e-06,145.15499999998886,1.380962e-05
145.16999999998885,1.054783e-05,145.16999999998885,8.68934e-06,145.16999999998885,9.752604e-06,145.16999999998885,1.44155e-05
145.18499999998883,1.08947e-05,145.18499999998883,8.348708e-06,145.18499999998883,9.697562e-06,145.18499999998883,1.439399e-05
145.19999999998882,1.103856e-05,145.19999999998882,8.200599e-06,145.19999999998882,9.555621e-06,145.19999999998882,1.378205e-05
145.2149999999888,1.095144e-05,145.2149999999888,7.219469e-06,145.2149999999888,9.567407e-06,145.2149999999888,1.428889e-05
145.2299999999888,1.090374e-05,145.2299999999888,7.172487e-06,145.2299999999888,9.23476e-06,145.2299999999888,1.420683e-05
145.24499999998878,1.078684e-05,145.24499999998878,7.28164e-06,145.24499999998878,9.187351e-06,145.24499999998878,1.426817e-05
145.25999999998876,1.103601e-05,145.25999999998876,7.105398e-06,145.25999999998876,9.020237e-06,145.25999999998876,1.332262e-05
145.27499999998875,1.260547e-05,145.27499999998875,6.33617e-06,145.27499999998875,8.656856e-06,145.27499999998875,1.28654e-05
145.28999999998874,1.209912e-05,145.28999999998874,6.224016e-06,145.28999999998874,8.270727e-06,145.28999999998874,1.264675e-05
145.30499999998872,1.251012e-05,145.30499999998872,6.028569e-06,145.30499999998872,8.385746e-06,145.30499999998872,1.295487e-05
145.3199999999887,1.230577e-05,145.3199999999887,6.146583e-06,145.3199999999887,8.240013e-06,145.3199999999887,1.267123e-05
145.3349999999887,1.26077e-05,145.3349999999887,5.946224e-06,145.3349999999887,8.308113e-06,145.3349999999887,1.33817e-05
145.34999999998868,1.280944e-05,145.34999999998868,5.60727e-06,145.34999999998868,8.202317e-06,145.34999999998868,1.338275e-05
145.36499999998867,1.352411e-05,145.36499999998867,5.736418e-06,145.36499999998867,8.240013e-06,145.36499999998867,1.283032e-05
145.37999999998866,1.452939e-05,145.37999999998866,5.701935e-06,145.37999999998866,8.253678e-06,145.37999999998866,1.2465e-05
145.39499999998864,1.452551e-05,145.39499999998864,5.826569e-06,145.39499999998864,8.353768e-06,145.39499999998864,1.395674e-05
145.40999999998863,1.390619e-05,145.40999999998863,6.313899e-06,145.40999999998863,8.188566e-06,145.40999999998863,1.387272e-05
145.42499999998861,1.359061e-05,145.42499999998861,6.413511e-06,145.42499999998861,7.799122e-06,145.42499999998861,1.318445e-05
145.4399999999886,1.371031e-05,145.4399999999886,6.64861e-06,145.4399999999886,7.702799e-06,145.4399999999886,1.351681e-05
145.4549999999886,1.455747e-05,145.4549999999886,6.442001e-06,145.4549999999886,8.088174e-06,145.4549999999886,1.33796e-05
145.46999999998857,1.470957e-05,145.46999999998857,6.537507e-06,145.46999999998857,8.089915e-06,145.46999999998857,1.268234e-05
145.48499999998856,1.515949e-05,145.48499999998856,6.720261e-06,145.48499999998856,8.105571e-06,145.48499999998856,1.254048e-05
145.49999999998855,1.607764e-05,145.49999999998855,6.811867e-06,145.49999999998855,8.634045e-06,145.49999999998855,1.211774e-05
145.51499999998853,1.624846e-05,145.51499999998853,6.822199e-06,145.51499999998853,8.916571e-06,145.51499999998853,1.263895e-05
145.52999999998852,1.559282e-05,145.52999999998852,6.809799e-06,145.52999999998852,9.790087e-06,145.52999999998852,1.282263e-05
145.5449999999885,1.556117e-05,145.5449999999885,6.809799e-06,145.5449999999885,9.848904e-06,145.5449999999885,1.289056e-05
145.5599999999885,1.5768e-05,145.5599999999885,6.711871e-06,145.5599999999885,1.036461e-05,145.5599999999885,1.367946e-05
145.57499999998848,1.578854e-05,145.57499999998848,6.770382e-06,145.57499999998848,1.064619e-05,145.57499999998848,1.391935e-05
145.58999999998846,1.653379e-05,145.58999999998846,7.137048e-06,145.58999999998846,1.142608e-05,145.58999999998846,1.452066e-05
145.60499999998845,1.65193e-05,145.60499999998845,6.737009e-06,145.60499999998845,1.150839e-05,145.60499999998845,1.539005e-05
145.61999999998844,1.640979e-05,145.61999999998844,6.728641e-06,145.61999999998844,1.149369e-05,145.61999999998844,1.721826e-05
145.63499999998842,1.592711e-05,145.63499999998842,6.983416e-06,145.63499999998842,1.155359e-05,145.63499999998842,1.790724e-05
145.6499999999884,1.572865e-05,145.6499999999884,6.834577e-06,145.6499999999884,1.133573e-05,145.6499999999884,1.711898e-05
145.6649999999884,1.596334e-05,145.6649999999884,6.345057e-06,145.6649999999884,1.142855e-05,145.6649999999884,1.769676e-05
145.67999999998838,1.651333e-05,145.67999999998838,6.393712e-06,145.67999999998838,1.146424e-05,145.67999999998838,1.774445e-05
145.69499999998837,1.635389e-05,145.69499999998837,6.289309e-06,145.69499999998837,1.172544e-05,145.69499999998837,1.760578e-05
145.70999999998836,1.580192e-05,145.70999999998836,6.347276e-06,145.70999999998836,1.149492e-05,145.70999999998836,1.757695e-05
145.72499999998834,1.557565e-05,145.72499999998834,6.442001e-06,145.72499999998834,1.198213e-05,145.72499999998834,1.794732e-05
145.73999999998833,1.517714e-05,145.73999999998833,6.107498e-06,145.73999999998833,1.211541e-05,145.73999999998833,1.803423e-05
145.7549999999883,1.447888e-05,145.7549999999883,6.11211e-06,145.7549999999883,1.166764e-05,145.7549999999883,1.80748e-05
145.7699999999883,1.418103e-05,145.7699999999883,6.026232e-06,145.7699999999883,1.132329e-05,145.7699999999883,1.736084e-05
145.7849999999883,1.458937e-05,145.7849999999883,6.030905e-06,145.7849999999883,1.055183e-05,145.7849999999883,1.731697e-05
145.79999999998827,1.51502e-05,145.79999999998827,6.282586e-06,145.79999999998827,1.032921e-05,145.79999999998827,1.734298e-05
145.81499999998826,1.447596e-05,145.81499999998826,6.203613e-06,145.81499999998826,9.39656e-06,145.81499999998826,1.679415e-05
145.82999999998825,1.378818e-05,145.82999999998825,6.051891e-06,145.82999999998825,8.891258e-06,145.82999999998825,1.684691e-05
145.84499999998823,1.37411e-05,145.84499999998823,5.706874e-06,145.84499999998823,8.192006e-06,145.84499999998823,1.64115e-05
145.85999999998822,1.322605e-05,145.85999999998822,6.06584e-06,145.85999999998822,8.236593e-06,145.85999999998822,1.550313e-05
145.8749999999882,1.267679e-05,145.8749999999882,6.174023e-06,145.8749999999882,8.345331e-06,145.8749999999882,1.362167e-05
145.8899999999882,1.240155e-05,145.8899999999882,6.569749e-06,145.8899999999882,8.39414e-06,145.8899999999882,1.230805e-05
145.90499999998818,1.260994e-05,145.90499999998818,6.692956e-06,145.90499999998818,8.487596e-06,145.90499999998818,1.198918e-05
145.91999999998816,1.259652e-05,145.91999999998816,6.699267e-06,145.91999999998816,8.519072e-06,145.91999999998816,1.132578e-05
145.93499999998815,1.198096e-05,145.93499999998815,6.505105e-06,145.93499999998815,8.854743e-06,145.93499999998815,1.130462e-05
145.94999999998814,1.187822e-05,145.94999999998814,6.494269e-06,145.94999999998814,8.576751e-06,145.94999999998814,1.165797e-05
145.96499999998812,1.185329e-05,145.96499999998812,6.151165e-06,145.96499999998812,8.620983e-06,145.96499999998812,1.216878e-05
145.9799999999881,1.22507e-05,145.9799999999881,6.114414e-06,145.9799999999881,7.938755e-06,145.9799999999881,1.179014e-05
145.9949999999881,1.23754e-05,145.9949999999881,6.139704e-06,145.9949999999881,7.784659e-06,145.9949999999881,1.171583e-05
146.00999999998808,1.234234e-05,146.00999999998808,6.255622e-06,146.00999999998808,8.166172e-06,146.00999999998808,1.184259e-05
146.02499999998807,1.269455e-05,146.02499999998807,6.382687e-06,146.02499999998807,8.39414e-06,146.02499999998807,1.190784e-05
146.03999999998805,1.24503e-05,146.03999999998805,6.205884e-06,146.03999999998805,8.475971e-06,146.03999999998805,1.181759e-05
146.05499999998804,1.172665e-05,146.05499999998804,6.095956e-06,146.05499999998804,8.328435e-06,146.05499999998804,1.162045e-05
146.06999999998803,1.193619e-05,146.06999999998803,6.072803e-06,146.06999999998803,8.492574e-06,146.06999999998803,1.226793e-05
146.084999999988,1.191493e-05,146.084999999988,6.014533e-06,146.084999999988,8.630781e-06,146.084999999988,1.176622e-05
146.099999999988,1.167005e-05,146.099999999988,5.991066e-06,146.099999999988,8.822869e-06,146.099999999988,1.200914e-05
146.114999999988,1.218382e-05,146.114999999988,5.297233e-06,146.114999999988,8.935509e-06,146.114999999988,1.190192e-05
146.12999999998797,1.264675e-05,146.12999999998797,5.066156e-06,146.12999999998797,8.930779e-06,146.12999999998797,1.178177e-05
146.14499999998796,1.330675e-05,146.14499999998796,4.135364e-06,146.14499999998796,8.630781e-06,146.14499999998796,1.215488e-05
146.15999999998795,1.248983e-05,146.15999999998795,4.338181e-06,146.15999999998795,8.301328e-06,146.15999999998795,1.216647e-05
146.17499999998793,1.279844e-05,146.17499999998793,4.35762e-06,146.17499999998793,8.31828e-06,146.17499999998793,1.227597e-05
146.18999999998792,1.288181e-05,146.18999999998792,4.525708e-06,146.18999999998792,7.739288e-06,146.18999999998792,1.290912e-05
146.2049999999879,1.304805e-05,146.2049999999879,4.535037e-06,146.2049999999879,7.442368e-06,146.2049999999879,1.341114e-05
146.2199999999879,1.343843e-05,146.2199999999879,4.424985e-06,146.2199999999879,7.457495e-06,146.2199999999879,1.267234e-05
146.23499999998788,1.316199e-05,146.23499999998788,4.491339e-06,146.23499999998788,7.762914e-06,146.23499999998788,1.270454e-05
146.24999999998786,1.279513e-05,146.24999999998786,4.450379e-06,146.24999999998786,7.759284e-06,146.24999999998786,1.240268e-05
146.26499999998785,1.238564e-05,146.26499999998785,4.087396e-06,146.26499999998785,7.666136e-06,146.26499999998785,1.225874e-05
146.27999999998784,1.20396e-05,146.27999999998784,3.885991e-06,146.27999999998784,7.370092e-06,146.27999999998784,1.251237e-05
146.29499999998782,1.261329e-05,146.29499999998782,3.989731e-06,146.29499999998782,7.62006e-06,146.29499999998782,1.303725e-05
146.3099999999878,1.246047e-05,146.3099999999878,3.954266e-06,146.3099999999878,8.11252e-06,146.3099999999878,1.426719e-05
146.3249999999878,1.233321e-05,146.3249999999878,3.989731e-06,146.3249999999878,8.348708e-06,146.3249999999878,1.410633e-05
146.33999999998778,1.222768e-05,146.33999999998778,3.982663e-06,146.33999999998778,8.119463e-06,146.33999999998778,1.400209e-05
146.35499999998777,1.223113e-05,146.35499999998777,4.083948e-06,146.35499999998777,8.042764e-06,146.35499999998777,1.462505e-05
146.36999999998775,1.187348e-05,146.36999999998775,4.192873e-06,146.36999999998775,8.089915e-06,146.36999999998775,1.599067e-05
146.38499999998774,1.222883e-05,146.38499999998774,4.39624e-06,146.38499999998774,8.209184e-06,146.38499999998774,1.608728e-05
146.39999999998773,1.325584e-05,146.39999999998773,4.535037e-06,146.39999999998773,8.233172e-06,146.39999999998773,1.653209e-05
146.4149999999877,1.32367e-05,146.4149999999877,4.360851e-06,146.4149999999877,8.335198e-06,146.4149999999877,1.676057e-05
146.4299999999877,1.318445e-05,146.4299999999877,4.152361e-06,146.4299999999877,8.716856e-06,146.4299999999877,1.662046e-05
146.4449999999877,1.400812e-05,146.4449999999877,4.125132e-06,146.4449999999877,9.803028e-06,146.4449999999877,1.699593e-05
146.45999999998767,1.465969e-05,146.45999999998767,4.666692e-06,146.45999999998767,1.019054e-05,146.45999999998767,1.742159e-05
146.47499999998766,1.533135e-05,146.47499999998766,4.596741e-06,146.47499999998766,1.046335e-05,146.47499999998766,1.74934e-05
146.48999999998765,1.560908e-05,146.48999999998765,4.657627e-06,146.48999999998765,1.040801e-05,146.48999999998765,1.843517e-05
146.50499999998763,1.617983e-05,146.50499999998763,4.815255e-06,146.50499999998763,1.019745e-05,146.50499999998763,1.877887e-05
146.51999999998762,1.618941e-05,146.51999999998762,4.853136e-06,146.51999999998762,1.041477e-05,146.51999999998762,1.888285e-05
146.5349999999876,1.601795e-05,146.5349999999876,4.873412e-06,146.5349999999876,1.06356e-05,146.5349999999876,1.870672e-05
146.5499999999876,1.595363e-05,146.5499999999876,4.812329e-06,146.5499999999876,1.115913e-05,146.5499999999876,1.812383e-05
146.56499999998758,1.622504e-05,146.56499999998758,4.774123e-06,146.56499999998758,1.126842e-05,146.56499999998758,1.714282e-05
146.57999999998756,1.723706e-05,146.57999999998756,4.771172e-06,146.57999999998756,1.125592e-05,146.57999999998756,1.709592e-05
146.59499999998755,1.72068e-05,146.59499999998755,4.832776e-06,146.59499999998755,1.133324e-05,146.59499999998755,1.708521e-05
146.60999999998754,1.739083e-05,146.60999999998754,4.925167e-06,146.60999999998754,1.149859e-05,146.60999999998754,1.584376e-05
146.62499999998752,1.701167e-05,146.62499999998752,4.756387e-06,146.62499999998752,1.169778e-05,146.62499999998752,1.510643e-05
146.6399999999875,1.635734e-05,146.6399999999875,4.777073e-06,146.6399999999875,1.16797e-05,146.6399999999875,1.51892e-05
146.6549999999875,1.579657e-05,146.6549999999875,4.882076e-06,146.6549999999875,1.186873e-05,146.6549999999875,1.462409e-05
146.66999999998748,1.604783e-05,146.66999999998748,4.916579e-06,146.66999999998748,1.18295e-05,146.66999999998748,1.445356e-05
146.68499999998747,1.578854e-05,146.68499999998747,4.930884e-06,146.68499999998747,1.152673e-05,146.68499999998747,1.454198e-05
146.69999999998745,1.5433e-05,146.69999999998745,4.794733e-06,146.69999999998745,1.151818e-05,146.69999999998745,1.225759e-05
146.71499999998744,1.484968e-05,146.71499999998744,4.621192e-06,146.71499999998744,1.110726e-05,146.71499999998744,1.195624e-05
146.72999999998743,1.495931e-05,146.72999999998743,4.788854e-06,146.72999999998743,1.118561e-05,146.72999999998743,1.191138e-05
146.7449999999874,1.549131e-05,146.7449999999874,4.666692e-06,146.7449999999874,1.153895e-05,146.7449999999874,1.072923e-05
146.7599999999874,1.555755e-05,146.7599999999874,5.441526e-06,146.7599999999874,1.159618e-05,146.7599999999874,1.099893e-05
146.7749999999874,1.600916e-05,146.7749999999874,5.579567e-06,146.7749999999874,1.173985e-05,146.7749999999874,1.223228e-05
146.78999999998737,1.644323e-05,146.78999999998737,6.135114e-06,146.78999999998737,1.16616e-05,146.78999999998737,1.243331e-05
146.80499999998736,1.690618e-05,146.80499999998736,6.296025e-06,146.80499999998736,1.089599e-05,146.80499999998736,1.23412e-05
146.81999999998735,1.916424e-05,146.81999999998735,6.442001e-06,146.81999999998735,1.095401e-05,146.81999999998735,1.246613e-05
146.83499999998733,1.850153e-05,146.83499999998733,6.618881e-06,146.83499999998733,1.118057e-05,146.83499999998733,1.296574e-05
146.84999999998732,1.868939e-05,146.84999999998732,6.621009e-06,146.84999999998732,1.152429e-05,146.84999999998732,1.419294e-05
146.8649999999873,1.896028e-05,146.8649999999873,6.58688e-06,146.8649999999873,1.143101e-05,146.8649999999873,1.446233e-05
146.8799999999873,1.939222e-05,146.8799999999873,6.709772e-06,146.8799999999873,1.139275e-05,146.8799999999873,1.436754e-05
146.89499999998728,2.085995e-05,146.89499999998728,6.66131e-06,146.89499999998728,1.162045e-05,146.89499999998728,1.466449e-05
146.90999999998726,2.272049e-05,146.90999999998726,6.610363e-06,146.90999999998726,1.183069e-05,146.90999999998726,1.468657e-05
146.92499999998725,2.721695e-05,146.92499999998725,6.567604e-06,146.92499999998725,1.160468e-05,146.92499999998725,1.530652e-05
146.93999999998724,3.028877e-05,146.93999999998724,6.612493e-06,146.93999999998724,1.171463e-05,146.93999999998724,1.559102e-05
146.95499999998722,3.038071e-05,146.95499999998722,6.776621e-06,146.95499999998722,1.099124e-05,146.95499999998722,1.640635e-05
146.9699999999872,3.030643e-05,146.9699999999872,6.770382e-06,146.9699999999872,1.092955e-05,146.9699999999872,1.640807e-05
146.9849999999872,3.038396e-05,146.9849999999872,6.528882e-06,146.9849999999872,1.113006e-05,146.9849999999872,1.635475e-05
146.99999999998718,3.004173e-05,146.99999999998718,6.389304e-06,146.99999999998718,1.112627e-05,146.99999999998718,1.579657e-05
147.01499999998717,2.995157e-05,147.01499999998717,5.799914e-06,147.01499999998717,1.080642e-05,147.01499999998717,1.516506e-05
147.02999999998715,2.976001e-05,147.02999999998715,5.597212e-06,147.02999999998715,1.103856e-05,147.02999999998715,1.451969e-05
147.04499999998714,2.951666e-05,147.04499999998714,5.838645e-06,147.04499999998714,1.12934e-05,147.04499999998714,1.461253e-05
147.05999999998713,2.891785e-05,147.05999999998713,5.597212e-06,147.05999999998713,1.139522e-05,147.05999999998713,1.46212e-05
147.0749999999871,2.755592e-05,147.0749999999871,5.485359e-06,147.0749999999871,1.122333e-05,147.0749999999871,1.455651e-05
147.0899999999871,2.733625e-05,147.0899999999871,5.397339e-06,147.0899999999871,1.137666e-05,147.0899999999871,1.446331e-05
147.1049999999871,2.736663e-05,147.1049999999871,5.368553e-06,147.1049999999871,1.119317e-05,147.1049999999871,1.463661e-05
147.11999999998707,2.794274e-05,147.11999999998707,5.313164e-06,147.11999999998707,1.149124e-05,147.11999999998707,1.529824e-05
147.13499999998706,2.772156e-05,147.13499999998706,5.22494e-06,147.13499999998706,1.137542e-05,147.13499999998706,1.528258e-05
147.14999999998705,2.697051e-05,147.14999999998705,5.28392e-06,147.14999999998705,1.122458e-05,147.14999999998705,1.499411e-05
147.16499999998703,2.513427e-05,147.16499999998703,5.508422e-06,147.16499999998703,1.16253e-05,147.16499999998703,1.477455e-05
147.17999999998702,1.638659e-05,147.17999999998702,5.704405e-06,147.17999999998702,1.165072e-05,147.17999999998702,1.449152e-05
147.194999999987,1.577336e-05,147.194999999987,5.622323e-06,147.194999999987,1.197155e-05,147.194999999987,1.421575e-05
147.209999999987,1.485537e-05,147.209999999987,5.785323e-06,147.209999999987,1.437832e-05,147.209999999987,1.335641e-05
147.22499999998698,1.496402e-05,147.22499999998698,5.986361e-06,147.22499999998698,1.443504e-05,147.22499999998698,1.317055e-05
147.23999999998696,1.459613e-05,147.23999999998696,6.16489e-06,147.23999999998696,1.428889e-05,147.23999999998696,1.292003e-05
147.25499999998695,1.450416e-05,147.25499999998695,6.257873e-06,147.25499999998695,1.413825e-05,147.25499999998695,1.293638e-05
147.26999999998694,1.444869e-05,147.26999999998694,6.922637e-06,147.26999999998694,1.419096e-05,147.26999999998694,1.309762e-05
147.28499999998692,1.445259e-05,147.28499999998692,6.678206e-06,147.28499999998692,1.399202e-05,147.28499999998692,1.284897e-05
147.2999999999869,1.444772e-05,147.2999999999869,6.448557e-06,147.2999999999869,1.369901e-05,147.2999999999869,1.286431e-05
147.3149999999869,1.443504e-05,147.3149999999869,6.509435e-06,147.3149999999869,1.3602e-05,147.3149999999869,1.26144e-05
147.32999999998688,1.440475e-05,147.32999999998688,6.713969e-06,147.32999999998688,1.338065e-05,147.32999999998688,1.218382e-05
147.34499999998687,1.437146e-05,147.34499999998687,6.665538e-06,147.34499999998687,1.342794e-05,147.34499999998687,1.200445e-05
147.35999999998685,1.382083e-05,147.35999999998685,7.237009e-06,147.35999999998685,1.350848e-05,147.35999999998685,1.028137e-05
147.37499999998684,1.17985e-05,147.37499999998684,7.38918e-06,147.37499999998684,1.359786e-05,147.37499999998684,1.0306e-05
147.38999999998683,1.284897e-05,147.38999999998683,7.735647e-06,147.38999999998683,1.37288e-05,147.38999999998683,1.091278e-05
147.4049999999868,1.303617e-05,147.4049999999868,7.942303e-06,147.4049999999868,1.35366e-05,147.4049999999868,1.085843e-05
147.4199999999868,1.406733e-05,147.4199999999868,8.115992e-06,147.4199999999868,1.303293e-05,147.4199999999868,1.063163e-05
147.4349999999868,1.438322e-05,147.4349999999868,8.892842e-06,147.4349999999868,1.302536e-05,147.4349999999868,1.014482e-05
147.44999999998677,1.455941e-05,147.44999999998677,8.838821e-06,147.44999999998677,1.203375e-05,147.44999999998677,1.03333e-05
147.46499999998676,1.761698e-05,147.46499999998676,8.676361e-06,147.46499999998676,1.002469e-05,147.46499999998676,1.0625e-05
147.47999999998675,1.787259e-05,147.47999999998675,8.760379e-06,147.47999999998675,1.003452e-05,147.47999999998675,1.065942e-05
147.49499999998673,1.783946e-05,147.49499999998673,9.515735e-06,147.49499999998673,1.01767e-05,147.49499999998673,1.132951e-05
147.50999999998672,1.802172e-05,147.50999999998672,9.49202e-06,147.50999999998672,1.053847e-05,147.50999999998672,1.139398e-05
147.5249999999867,1.798652e-05,147.5249999999867,9.334893e-06,147.5249999999867,1.032512e-05,147.5249999999867,1.152184e-05
147.5399999999867,1.787575e-05,147.5399999999867,9.530527e-06,147.5399999999867,1.024843e-05,147.5399999999867,1.141622e-05
147.55499999998668,1.870521e-05,147.55499999998668,9.477167e-06,147.55499999998668,1.040936e-05,147.55499999998668,1.125466e-05
147.56999999998666,1.887539e-05,147.56999999998666,1.032102e-05,147.56999999998666,1.044449e-05,147.56999999998666,1.107551e-05
147.58499999998665,1.885224e-05,147.58499999998665,1.113133e-05,147.58499999998665,1.012397e-05,147.58499999998665,1.140881e-05
147.59999999998664,1.944445e-05,147.59999999998664,1.142362e-05,147.59999999998664,1.005556e-05,147.59999999998664,1.31073e-05
147.61499999998662,1.943648e-05,147.61499999998662,1.136427e-05,147.61499999998662,9.324323e-06,147.61499999998662,1.268789e-05
147.6299999999866,1.967204e-05,147.6299999999866,1.127467e-05,147.6299999999866,9.043632e-06,147.6299999999866,1.268345e-05
147.6449999999866,1.909059e-05,147.6449999999866,1.095144e-05,147.6449999999866,9.099535e-06,147.6449999999866,1.226793e-05
147.65999999998658,2.050236e-05,147.65999999998658,1.102962e-05,147.65999999998658,9.646586e-06,147.65999999998658,1.267123e-05
147.67499999998657,2.01461e-05,147.67499999998657,1.134815e-05,147.67499999998657,9.445902e-06,147.67499999998657,1.314914e-05
147.68999999998655,2.013631e-05,147.68999999998655,1.106278e-05,147.68999999998655,9.416029e-06,147.68999999998655,1.37134e-05
147.70499999998654,2.020057e-05,147.70499999998654,1.102962e-05,147.70499999998654,9.481625e-06,147.70499999998654,1.418202e-05
147.71999999998653,1.778489e-05,147.71999999998653,1.114777e-05,147.71999999998653,9.96691e-06,147.71999999998653,1.409134e-05
147.7349999999865,1.761298e-05,147.7349999999865,1.105769e-05,147.7349999999865,1.035509e-05,147.7349999999865,1.393351e-05
147.7499999999865,1.90677e-05,147.7499999999865,1.036868e-05,147.7499999999865,1.002328e-05,147.7499999999865,1.362063e-05
147.7649999999865,1.895879e-05,147.7649999999865,1.061174e-05,147.7649999999865,1.054515e-05,147.7649999999865,1.374725e-05
147.77999999998647,1.876011e-05,147.77999999998647,1.05958e-05,147.77999999998647,1.040259e-05,147.77999999998647,1.407634e-05
147.79499999998646,1.85e-05,147.79499999998646,1.05745e-05,147.79499999998646,1.05585e-05,147.79499999998646,1.417606e-05
147.80999999998645,1.817661e-05,147.80999999998645,1.029779e-05,147.80999999998645,1.047681e-05,147.80999999998645,1.444967e-05
147.82499999998643,1.819675e-05,147.82499999998643,9.178147e-06,147.82499999998643,1.05958e-05,147.82499999998643,1.431942e-05
147.83999999998642,1.925297e-05,147.83999999998642,8.350395e-06,147.83999999998642,1.060775e-05,147.83999999998642,1.399202e-05
147.8549999999864,1.939222e-05,147.8549999999864,7.935205e-06,147.8549999999864,1.108314e-05,147.8549999999864,1.299504e-05
147.8699999999864,1.960318e-05,147.8699999999864,7.952937e-06,147.8699999999864,1.125592e-05,147.8699999999864,1.295161e-05
147.88499999998638,2.074687e-05,147.88499999998638,9.001478e-06,147.88499999998638,1.135931e-05,147.88499999998638,1.239928e-05
147.89999999998636,2.052776e-05,147.89999999998636,9.246955e-06,147.89999999998636,1.134194e-05,147.89999999998636,1.243898e-05
147.91499999998635,2.273412e-05,147.91499999998635,8.5108e-06,147.91499999998635,1.163015e-05,147.91499999998635,1.216415e-05
147.92999999998634,2.473086e-05,147.92999999998634,8.030494e-06,147.92999999998634,1.178416e-05,147.92999999998634,1.200445e-05
147.94499999998632,2.586839e-05,147.94499999998632,7.826167e-06,147.94499999998632,1.202789e-05,147.94499999998632,1.187348e-05
147.9599999999863,2.685325e-05,147.9599999999863,7.990047e-06,147.9599999999863,1.197155e-05,147.9599999999863,1.284239e-05
147.9749999999863,2.748477e-05,147.9749999999863,8.119463e-06,147.9749999999863,1.141992e-05,147.9749999999863,1.301238e-05
147.98999999998628,3.077414e-05,147.98999999998628,8.299631e-06,147.98999999998628,1.129465e-05,147.98999999998628,1.313199e-05
148.00499999998627,3.040713e-05,148.00499999998627,8.37566e-06,148.00499999998627,1.073973e-05,148.00499999998627,1.267345e-05
148.01999999998625,3.041825e-05,148.01999999998625,8.243432e-06,148.01999999998625,1.060775e-05,148.01999999998625,1.263449e-05
148.03499999998624,3.075995e-05,148.03499999998624,9.116548e-06,148.03499999998624,1.055584e-05,148.03499999998624,1.310837e-05
148.04999999998623,3.074254e-05,148.04999999998623,9.46378e-06,148.04999999998623,1.051974e-05,148.04999999998623,1.36258e-05
148.0649999999862,3.078284e-05,148.0649999999862,1.087787e-05,148.0649999999862,1.063031e-05,148.0649999999862,1.495555e-05
148.0799999999862,3.080342e-05,148.0799999999862,1.186992e-05,148.0799999999862,1.06409e-05,148.0799999999862,1.512414e-05
148.0949999999862,3.042056e-05,148.0949999999862,1.287634e-05,148.0949999999862,1.082205e-05,148.0949999999862,1.51892e-05
148.10999999998617,3.010965e-05,148.10999999998617,1.315664e-05,148.10999999998617,1.048084e-05,148.10999999998617,1.553762e-05
148.12499999998616,2.946268e-05,148.12499999998616,1.308148e-05,148.12499999998616,1.042288e-05,148.12499999998616,1.551494e-05
148.13999999998614,2.901074e-05,148.13999999998614,1.248419e-05,148.13999999998614,9.94852e-06,148.13999999998614,1.603466e-05
148.15499999998613,2.888324e-05,148.15499999998613,1.244464e-05,148.15499999998613,9.90595e-06,148.15499999998613,1.614759e-05
148.16999999998612,2.560072e-05,148.16999999998612,1.23936e-05,148.16999999998612,9.324323e-06,148.16999999998612,1.614497e-05
148.1849999999861,2.442538e-05,148.1849999999861,1.247177e-05,148.1849999999861,9.015552e-06,148.1849999999861,1.593154e-05
148.1999999999861,2.238004e-05,148.1999999999861,1.247064e-05,148.1999999999861,8.798887e-06,148.1999999999861,1.538822e-05
148.21499999998608,2.091997e-05,148.21499999998608,1.237881e-05,148.21499999998608,8.77805e-06,148.21499999998608,1.446038e-05
148.22999999998606,1.86562e-05,148.22999999998606,1.210262e-05,148.22999999998606,8.547137e-06,148.22999999998606,1.499693e-05
148.24499999998605,1.447304e-05,148.24499999998605,1.206531e-05,148.24499999998605,8.907087e-06,148.24499999998605,1.504757e-05
148.25999999998604,1.393957e-05,148.25999999998604,1.246613e-05,148.25999999998604,8.864284e-06,148.25999999998604,1.521977e-05
148.27499999998602,1.41203e-05,148.27499999998602,1.27134e-05,148.27499999998602,8.721702e-06,148.27499999998602,1.481454e-05
148.289999999986,1.502602e-05,148.289999999986,1.262222e-05,148.289999999986,8.489256e-06,148.289999999986,1.45061e-05
148.304999999986,1.542296e-05,148.304999999986,1.222422e-05,148.304999999986,8.720087e-06,148.304999999986,1.480978e-05
148.31999999998598,1.540194e-05,148.31999999998598,1.10194e-05,148.31999999998598,9.413036e-06,148.31999999998598,1.316627e-05
148.33499999998597,1.544669e-05,148.33499999998597,1.015315e-05,148.33499999998597,9.668466e-06,148.33499999998597,1.417506e-05
148.34999999998595,1.521977e-05,148.34999999998595,9.150478e-06,148.34999999998595,9.667009e-06,148.34999999998595,1.358853e-05
148.36499999998594,1.602235e-05,148.36499999998594,9.207261e-06,148.36499999998594,9.097987e-06,148.36499999998594,1.359372e-05
148.37999999998593,1.661792e-05,148.37999999998593,9.384559e-06,148.37999999998593,9.687388e-06,148.37999999998593,1.356778e-05
148.3949999999859,1.639776e-05,148.3949999999859,1.002328e-05,148.3949999999859,1.010726e-05,148.3949999999859,1.342059e-05
148.4099999999859,1.587662e-05,148.4099999999859,9.958426e-06,148.4099999999859,1.011144e-05,148.4099999999859,1.358439e-05
148.42499999998589,1.580994e-05,148.42499999998589,1.02388e-05,148.42499999998589,9.863196e-06,148.42499999998589,1.339958e-05
148.43999999998587,1.726238e-05,148.43999999998587,1.19786e-05,148.43999999998587,1.033466e-05,148.43999999998587,1.344052e-05
148.45499999998586,1.74135e-05,148.45499999998586,1.230577e-05,148.45499999998586,1.035509e-05,148.45499999998586,1.360097e-05
148.46999999998584,1.783077e-05,148.46999999998584,1.284019e-05,148.46999999998584,1.123963e-05,148.46999999998584,1.330569e-05
148.48499999998583,1.781655e-05,148.48499999998583,1.345937e-05,148.48499999998583,1.111867e-05,148.48499999998583,1.285445e-05
148.49999999998582,1.795908e-05,148.49999999998582,1.353036e-05,148.49999999998582,1.101301e-05,148.49999999998582,1.320473e-05
148.5149999999858,1.755289e-05,148.5149999999858,1.322818e-05,148.5149999999858,1.104749e-05,148.5149999999858,1.322392e-05
148.5299999999858,1.787653e-05,148.5299999999858,1.333425e-05,148.5299999999858,1.138533e-05,148.5299999999858,1.319833e-05
148.54499999998578,1.718386e-05,148.54499999998578,1.365678e-05,148.54499999998578,1.129215e-05,148.54499999998578,1.308148e-05
148.55999999998576,1.702574e-05,148.55999999998576,1.385036e-05,148.55999999998576,1.118561e-05,148.55999999998576,1.270897e-05
148.57499999998575,1.687615e-05,148.57499999998575,1.361339e-05,148.57499999998575,1.043369e-05,148.57499999998575,1.24129e-05
148.58999999998574,1.632285e-05,148.58999999998574,1.441159e-05,148.58999999998574,1.024293e-05,148.58999999998574,1.126467e-05
148.60499999998572,1.57537e-05,148.60499999998572,1.466737e-05,148.60499999998572,1.111233e-05,148.60499999998572,1.086103e-05
148.6199999999857,1.524844e-05,148.6199999999857,1.451581e-05,148.6199999999857,1.150227e-05,148.6199999999857,1.050902e-05
148.6349999999857,1.583486e-05,148.6349999999857,1.443015e-05,148.6349999999857,1.106278e-05,148.6349999999857,1.07082e-05
148.64999999998568,1.56199e-05,148.64999999998568,1.427508e-05,148.64999999998568,1.090245e-05,148.64999999998568,1.018639e-05
148.66499999998567,1.624413e-05,148.66499999998567,1.432729e-05,148.66499999998567,1.098355e-05,148.66499999998567,1.086232e-05
148.67999999998565,1.596422e-05,148.67999999998565,1.40543e-05,148.67999999998565,1.117805e-05,148.67999999998565,1.09643e-05
148.69499999998564,1.434596e-05,148.69499999998564,1.350952e-05,148.69499999998564,1.088564e-05,148.69499999998564,1.164225e-05
148.70999999998563,1.42207e-05,148.70999999998563,1.348029e-05,148.70999999998563,1.015731e-05,148.70999999998563,1.179731e-05
148.7249999999856,1.382083e-05,148.7249999999856,1.309116e-05,148.7249999999856,9.941437e-06,148.7249999999856,1.164709e-05
148.7399999999856,1.359475e-05,148.7399999999856,1.349282e-05,148.7399999999856,1.078162e-05,148.7399999999856,1.142362e-05
148.75499999998559,1.419393e-05,148.75499999998559,1.361649e-05,148.75499999998559,1.113006e-05,148.75499999998559,1.126842e-05
148.76999999998557,1.534329e-05,148.76999999998557,1.423852e-05,148.76999999998557,1.150104e-05,148.76999999998557,1.121454e-05
148.78499999998556,1.49216e-05,148.78499999998556,1.349804e-05,148.78499999998556,1.151573e-05,148.78499999998556,1.091794e-05
148.79999999998554,1.526136e-05,148.79999999998554,1.361236e-05,148.79999999998554,1.147038e-05,148.79999999998554,1.047949e-05
148.81499999998553,1.549949e-05,148.81499999998553,1.409634e-05,148.81499999998553,1.128342e-05,148.81499999998553,1.056251e-05
148.82999999998552,1.572775e-05,148.82999999998552,1.474114e-05,148.82999999998552,1.122207e-05,148.82999999998552,1.059712e-05
148.8449999999855,1.606274e-05,148.8449999999855,1.482784e-05,148.8449999999855,1.076855e-05,148.8449999999855,1.118687e-05
148.8599999999855,1.595363e-05,148.8599999999855,1.589436e-05,148.8599999999855,1.084415e-05,148.8599999999855,1.113765e-05
148.87499999998548,1.614584e-05,148.87499999998548,1.604432e-05,148.87499999998548,1.056517e-05,148.87499999998548,1.16156e-05
148.88999999998546,1.566673e-05,148.88999999998546,1.638831e-05,148.88999999998546,1.084935e-05,148.88999999998546,1.132951e-05
148.90499999998545,1.548676e-05,148.90499999998545,1.755048e-05,148.90499999998545,1.073579e-05,148.90499999998545,1.207932e-05
148.91999999998544,1.555302e-05,148.91999999998544,1.760658e-05,148.91999999998544,1.104749e-05,148.91999999998544,1.069241e-05
148.93499999998542,1.58233e-05,148.93499999998542,1.741107e-05,148.93499999998542,1.083766e-05,148.93499999998542,1.081032e-05
148.9499999999854,1.593242e-05,148.9499999999854,1.778727e-05,148.9499999999854,1.123963e-05,148.9499999999854,1.027314e-05
148.9649999999854,1.590676e-05,148.9649999999854,1.801547e-05,148.9649999999854,1.135807e-05,148.9649999999854,1.015176e-05
148.97999999998538,1.5717e-05,148.97999999998538,1.80896e-05,148.97999999998538,1.115913e-05,148.97999999998538,1.039175e-05
148.99499999998537,1.589967e-05,148.99499999998537,1.811528e-05,148.99499999998537,1.078815e-05,148.99499999998537,1.079337e-05
149.00999999998535,1.449638e-05,149.00999999998535,1.803032e-05,149.00999999998535,1.038768e-05,149.00999999998535,1.081684e-05
149.02499999998534,1.423753e-05,149.02499999998534,1.781022e-05,149.02499999998534,1.010029e-05,149.02499999998534,1.123211e-05
149.03999999998533,1.354492e-05,149.03999999998533,1.778093e-05,149.03999999998533,1.049427e-05,149.03999999998533,1.140758e-05
149.0549999999853,1.331733e-05,149.0549999999853,1.767605e-05,149.0549999999853,1.073448e-05,149.0549999999853,1.167488e-05
149.0699999999853,1.259317e-05,149.0699999999853,1.692783e-05,149.0699999999853,1.080642e-05,149.0699999999853,1.183426e-05
149.08499999998529,1.223574e-05,149.08499999998529,1.839462e-05,149.08499999998529,1.094372e-05,149.08499999998529,1.153529e-05
149.09999999998527,1.20968e-05,149.09999999998527,1.818668e-05,149.09999999998527,1.047412e-05,149.09999999998527,1.131583e-05
149.11499999998526,1.258757e-05,149.11499999998526,1.800374e-05,149.11499999998526,1.043099e-05,149.11499999998526,1.139151e-05
149.12999999998524,1.225759e-05,149.12999999998524,1.764414e-05,149.12999999998524,1.057317e-05,149.12999999998524,1.052777e-05
149.14499999998523,1.307717e-05,149.14499999998523,1.716992e-05,149.14499999998523,1.055584e-05,149.14499999998523,9.968323e-06
149.15999999998522,1.331098e-05,149.15999999998522,1.645265e-05,149.15999999998522,1.027177e-05,149.15999999998522,1.059845e-05
149.1749999999852,1.346879e-05,149.1749999999852,1.63099e-05,149.1749999999852,1.013092e-05,149.1749999999852,1.102196e-05
149.1899999999852,1.356882e-05,149.1899999999852,1.613711e-05,149.1899999999852,1.027999e-05,149.1899999999852,1.138904e-05
149.20499999998518,1.362994e-05,149.20499999998518,1.623198e-05,149.20499999998518,9.968323e-06,149.20499999998518,1.122082e-05
149.21999999998516,1.35709e-05,149.21999999998516,1.627099e-05,149.21999999998516,1.004294e-05,149.21999999998516,1.139893e-05
149.23499999998515,1.444381e-05,149.23499999998515,1.570445e-05,149.23499999998515,9.76848e-06,149.23499999998515,1.19173e-05
149.24999999998514,1.451775e-05,149.24999999998514,1.620593e-05,149.24999999998514,9.573294e-06,149.24999999998514,1.176023e-05
149.26499999998512,1.519012e-05,149.26499999998512,1.638315e-05,149.26499999998512,9.506848e-06,149.26499999998512,1.193383e-05
149.2799999999851,1.479551e-05,149.2799999999851,1.601356e-05,149.2799999999851,9.207261e-06,149.2799999999851,1.196331e-05
149.2949999999851,1.48658e-05,149.2949999999851,1.610828e-05,149.2949999999851,8.528988e-06,149.2949999999851,1.247064e-05
149.30999999998508,1.503071e-05,149.30999999998508,1.622417e-05,149.30999999998508,8.749116e-06,149.30999999998508,1.282922e-05
149.32499999998507,1.499411e-05,149.32499999998507,1.583842e-05,149.32499999998507,8.865873e-06,149.32499999998507,1.276427e-05
149.33999999998505,1.506067e-05,149.33999999998505,1.3547e-05,149.33999999998505,8.943388e-06,149.33999999998505,1.309762e-05
149.35499999998504,1.464719e-05,149.35499999998504,1.245482e-05,149.35499999998504,8.884918e-06,149.35499999998504,1.371134e-05
149.36999999998503,1.438812e-05,149.36999999998503,1.256741e-05,149.36999999998503,8.439329e-06,149.36999999998503,1.374315e-05
149.384999999985,1.39749e-05,149.384999999985,1.254834e-05,149.384999999985,8.296236e-06,149.384999999985,1.396179e-05
149.399999999985,1.348134e-05,149.399999999985,1.233092e-05,149.399999999985,8.297934e-06,149.399999999985,1.433122e-05
149.41499999998499,1.537081e-05,149.41499999998499,1.20933e-05,149.41499999998499,8.442667e-06,149.41499999998499,1.468561e-05
149.42999999998497,1.493764e-05,149.42999999998497,1.191138e-05,149.42999999998497,8.355453e-06,149.42999999998497,1.44155e-05
149.44499999998496,1.475642e-05,149.44499999998496,1.092568e-05,149.44499999998496,8.053266e-06,149.44499999998496,1.450416e-05
149.45999999998494,1.484778e-05,149.45999999998494,1.067658e-05,149.45999999998494,8.074229e-06,149.45999999998494,1.469232e-05
149.47499999998493,1.895211e-05,149.47499999998493,9.851764e-06,149.47499999998493,8.299631e-06,149.47499999998493,1.50999e-05
149.48999999998492,2.028477e-05,149.48999999998492,9.648047e-06,149.48999999998492,8.41258e-06,149.48999999998492,1.502133e-05
149.5049999999849,2.022775e-05,149.5049999999849,7.671647e-06,149.5049999999849,8.937085e-06,149.5049999999849,1.50803e-05
149.5199999999849,2.060174e-05,149.5199999999849,7.551351e-06,149.5199999999849,9.245431e-06,149.5199999999849,1.489231e-05
149.53499999998488,2.136965e-05,149.53499999998488,7.170523e-06,149.53499999998488,9.239335e-06,149.53499999998488,1.436166e-05
149.54999999998486,2.127783e-05,149.54999999998486,6.816002e-06,149.54999999998486,9.935768e-06,149.54999999998486,1.373905e-05
149.56499999998485,2.114567e-05,149.56499999998485,7.186222e-06,149.56499999998485,1.014621e-05,149.56499999998485,1.365885e-05
149.57999999998484,2.117496e-05,149.57999999998484,7.453716e-06,149.57999999998484,9.813081e-06,149.57999999998484,1.372058e-05
149.59499999998482,2.148667e-05,149.59499999998482,7.451826e-06,149.59499999998482,9.713527e-06,149.59499999998482,1.290585e-05
149.6099999999848,2.139732e-05,149.6099999999848,7.123218e-06,149.6099999999848,9.707725e-06,149.6099999999848,1.381778e-05
149.6249999999848,2.136768e-05,149.6249999999848,7.287441e-06,149.6249999999848,9.725122e-06,149.6249999999848,1.419096e-05
149.63999999998478,2.121086e-05,149.63999999998478,7.398706e-06,149.63999999998478,1.176502e-05,149.63999999998478,1.437342e-05
149.65499999998477,2.051335e-05,149.65499999998477,7.610811e-06,149.65499999998477,1.254947e-05,149.65499999998477,1.36774e-05
149.66999999998475,1.924858e-05,149.66999999998475,7.908532e-06,149.66999999998475,1.279844e-05,149.66999999998475,1.32058e-05
149.68499999998474,1.923907e-05,149.68499999998474,8.479295e-06,149.68499999998474,1.30804e-05,149.68499999998474,1.308794e-05
149.69999999998473,1.949799e-05,149.69999999998473,9.990908e-06,149.69999999998473,1.312126e-05,149.69999999998473,1.351786e-05
149.7149999999847,2.017964e-05,149.7149999999847,1.009331e-05,149.7149999999847,1.33131e-05,149.7149999999847,1.332156e-05
149.7299999999847,1.409834e-05,149.7299999999847,1.034692e-05,149.7299999999847,1.32154e-05,149.7299999999847,1.250223e-05
149.74499999998469,1.417506e-05,149.74499999998469,1.079729e-05,149.74499999998469,1.360718e-05,149.74499999998469,1.24129e-05
149.75999999998467,1.466353e-05,149.75999999998467,1.117049e-05,149.75999999998467,1.363924e-05,149.75999999998467,1.272891e-05
149.77499999998466,1.604958e-05,149.77499999998466,1.153773e-05,149.77499999998466,1.367843e-05,149.77499999998466,1.313199e-05
149.78999999998464,2.127783e-05,149.78999999998464,1.150839e-05,149.78999999998464,1.400812e-05,149.78999999998464,1.36227e-05
149.80499999998463,2.154102e-05,149.80499999998463,1.168694e-05,149.80499999998463,1.395371e-05,149.80499999998463,1.389301e-05
149.81999999998462,2.177322e-05,149.81999999998462,1.129589e-05,149.81999999998462,1.392946e-05,149.81999999998462,1.372674e-05
149.8349999999846,2.172789e-05,149.8349999999846,1.10194e-05,149.8349999999846,1.41492e-05,149.8349999999846,1.370929e-05
149.8499999999846,2.147421e-05,149.8499999999846,1.094501e-05,149.8499999999846,1.457102e-05,149.8499999999846,1.36258e-05
149.86499999998458,2.15312e-05,149.86499999998458,1.09553e-05,149.86499999998458,1.495366e-05,149.86499999998458,1.344471e-05
149.87999999998456,2.141246e-05,149.87999999998456,1.084935e-05,149.87999999998456,1.498848e-05,149.87999999998456,1.292766e-05
149.89499999998455,2.158283e-05,149.89499999998455,1.076069e-05,149.89499999998455,1.346461e-05,149.89499999998455,1.260435e-05
149.90999999998454,2.216182e-05,149.90999999998454,1.281054e-05,149.90999999998454,1.242084e-05,149.90999999998454,1.274439e-05
149.92499999998452,2.536135e-05,149.92499999998452,1.365885e-05,149.92499999998452,1.223343e-05,149.92499999998452,1.244124e-05
149.9399999999845,2.586131e-05,149.9399999999845,1.450124e-05,149.9399999999845,1.209447e-05,149.9399999999845,1.214097e-05
149.9549999999845,2.593203e-05,149.9549999999845,1.371442e-05,149.9549999999845,1.214561e-05,149.9549999999845,1.236743e-05
149.96999999998448,2.550811e-05,149.96999999998448,1.38137e-05,149.96999999998448,1.189008e-05,149.96999999998448,1.28993e-05
149.98499999998447,2.524723e-05,149.98499999998447,1.356052e-05,149.98499999998447,1.165193e-05,149.98499999998447,1.329298e-05
149.99999999998445,2.449219e-05,149.99999999998445,1.326752e-05,149.99999999998445,1.143225e-05,149.99999999998445,1.33543e-05
150.01499999998444,2.464699e-05,150.01499999998444,1.30048e-05,150.01499999998444,1.10666e-05,150.01499999998444,1.278963e-05
150.02999999998443,2.1153e-05,150.02999999998443,1.292221e-05,150.02999999998443,1.081944e-05,150.02999999998443,1.201618e-05
150.0449999999844,1.841452e-05,150.0449999999844,1.301562e-05,150.0449999999844,1.015869e-05,150.0449999999844,1.2134e-05
150.0599999999844,1.810128e-05,150.0599999999844,1.301238e-05,150.0599999999844,1.015037e-05,150.0599999999844,1.201149e-05
150.07499999998439,1.832941e-05,150.07499999998439,1.338486e-05,150.07499999998439,1.104749e-05,150.07499999998439,1.210145e-05
150.08999999998437,1.84596e-05,150.08999999998437,1.372674e-05,150.08999999998437,1.163378e-05,150.08999999998437,1.16797e-05
150.10499999998436,2.320026e-05,150.10499999998436,1.371545e-05,150.10499999998436,1.183545e-05,150.10499999998436,1.161075e-05
150.11999999998434,2.380206e-05,150.11999999998434,1.358853e-05,150.11999999998434,1.17985e-05,150.11999999998434,1.127467e-05
150.13499999998433,2.397543e-05,150.13499999998433,1.378716e-05,150.13499999998433,1.199388e-05,150.13499999998433,1.129839e-05
150.14999999998432,2.38139e-05,150.14999999998432,1.382491e-05,150.14999999998432,1.205597e-05,150.14999999998432,1.142608e-05
150.1649999999843,2.288543e-05,150.1649999999843,1.205363e-05,150.1649999999843,1.21282e-05,150.1649999999843,1.144702e-05
150.1799999999843,2.027157e-05,150.1799999999843,1.118435e-05,150.1799999999843,1.218151e-05,150.1799999999843,1.146178e-05
150.19499999998428,2.011251e-05,150.19499999998428,9.640744e-06,150.19499999998428,1.227252e-05,150.19499999998428,1.132578e-05
150.20999999998426,2.197543e-05,150.20999999998426,9.210321e-06,150.20999999998426,1.225759e-05,150.20999999998426,1.123462e-05
150.22499999998425,2.227847e-05,150.22499999998425,9.265217e-06,150.22499999998425,1.226563e-05,150.22499999998425,1.017255e-05
150.23999999998424,2.230564e-05,150.23999999998424,9.393561e-06,150.23999999998424,1.211658e-05,150.23999999998424,9.833158e-06
150.25499999998422,2.281577e-05,150.25499999998422,9.564462e-06,150.25499999998422,1.243558e-05,150.25499999998422,9.130444e-06
150.2699999999842,2.498756e-05,150.2699999999842,1.139522e-05,150.2699999999842,1.240836e-05,150.2699999999842,9.626121e-06
150.2849999999842,2.515668e-05,150.2849999999842,1.129963e-05,150.2849999999842,1.265009e-05,150.2849999999842,9.30012e-06
150.29999999998418,2.542293e-05,150.29999999998418,1.12459e-05,150.29999999998418,1.258869e-05,150.29999999998418,9.487566e-06
150.31499999998417,2.545338e-05,150.31499999998417,1.10309e-05,150.31499999998417,1.166281e-05,150.31499999998417,9.404052e-06
150.32999999998415,2.567655e-05,150.32999999998415,1.034284e-05,150.32999999998415,1.11604e-05,150.32999999998415,9.393561e-06
150.34499999998414,2.535246e-05,150.34499999998414,1.015869e-05,150.34499999998414,1.113512e-05,150.34499999998414,9.369536e-06
150.35999999998413,2.267518e-05,150.35999999998413,1.018501e-05,150.35999999998413,1.086232e-05,150.35999999998413,9.411539e-06
150.3749999999841,2.289466e-05,150.3749999999841,1.019192e-05,150.3749999999841,1.049024e-05,150.3749999999841,9.579178e-06
150.3899999999841,2.307668e-05,150.3899999999841,9.732362e-06,150.3899999999841,1.04053e-05,150.3899999999841,9.475681e-06
150.40499999998408,2.549375e-05,150.40499999998408,9.08404e-06,150.40499999998408,1.054248e-05,150.40499999998408,9.239335e-06
150.41999999998407,2.646807e-05,150.41999999998407,8.723317e-06,150.41999999998407,1.061174e-05,150.41999999998407,8.821272e-06
150.43499999998406,2.612308e-05,150.43499999998406,8.581677e-06,150.43499999998406,1.050232e-05,150.43499999998406,8.922889e-06
150.44999999998404,2.567655e-05,150.44999999998404,8.981111e-06,150.44999999998404,1.240041e-05,150.44999999998404,8.492574e-06
150.46499999998403,2.418835e-05,150.46499999998403,9.43695e-06,150.46499999998403,1.236173e-05,150.46499999998403,9.021799e-06
150.47999999998402,2.592986e-05,150.47999999998402,9.512773e-06,150.47999999998402,1.230119e-05,150.47999999998402,9.462292e-06
150.494999999984,2.786651e-05,150.494999999984,9.420515e-06,150.494999999984,1.289384e-05,150.494999999984,9.487566e-06
150.509999999984,2.845923e-05,150.509999999984,7.383459e-06,150.509999999984,1.376364e-05,150.509999999984,9.454845e-06
150.52499999998398,2.679181e-05,150.52499999998398,6.406918e-06,150.52499999998398,1.376159e-05,150.52499999998398,9.656803e-06
150.53999999998396,2.693863e-05,150.53999999998396,6.298262e-06,150.53999999998396,1.366709e-05,150.53999999998396,9.785769e-06
150.55499999998395,2.695483e-05,150.55499999998395,6.406918e-06,150.55499999998395,1.368769e-05,150.55499999998395,9.539391e-06
150.56999999998393,2.729706e-05,150.56999999998393,6.382687e-06,150.56999999998393,1.385849e-05,150.56999999998393,9.451865e-06
150.58499999998392,2.878455e-05,150.58499999998392,6.595429e-06,150.58499999998392,1.351369e-05,150.58499999998392,9.497953e-06
150.5999999999839,2.830189e-05,150.5999999999839,6.618881e-06,150.5999999999839,1.388084e-05,150.5999999999839,9.076284e-06
150.6149999999839,2.875322e-05,150.6149999999839,6.565459e-06,150.6149999999839,1.367328e-05,150.6149999999839,9.110365e-06
150.62999999998388,2.985688e-05,150.62999999998388,6.533196e-06,150.62999999998388,1.354076e-05,150.62999999998388,8.880161e-06
150.64499999998387,2.983234e-05,150.64499999998387,6.424483e-06,150.64499999998387,1.408734e-05,150.64499999998387,8.918151e-06
150.65999999998385,2.761974e-05,150.65999999998385,6.376062e-06,150.65999999998385,1.490554e-05,150.65999999998385,8.92131e-06
150.67499999998384,2.708881e-05,150.67499999998384,6.296025e-06,150.67499999998384,1.511389e-05,150.67499999998384,8.91973e-06
150.68999999998383,2.696685e-05,150.68999999998383,6.19225e-06,150.68999999998383,1.590145e-05,150.68999999998383,8.744285e-06
150.7049999999838,2.69266e-05,150.7049999999838,5.376418e-06,150.7049999999838,1.492915e-05,150.7049999999838,8.960697e-06
150.7199999999838,2.699296e-05,150.7199999999838,4.976383e-06,150.7199999999838,1.507002e-05,150.7199999999838,8.982679e-06
150.73499999998378,2.597328e-05,150.73499999998378,4.732634e-06,150.73499999998378,1.555031e-05,150.73499999998378,8.59316e-06
150.74999999998377,2.374696e-05,150.74999999998377,4.602866e-06,150.74999999998377,1.499881e-05,150.74999999998377,8.760379e-06
150.76499999998376,2.298554e-05,150.76499999998376,4.759348e-06,150.76499999998376,1.39153e-05,150.76499999998376,8.323359e-06
150.77999999998374,2.309132e-05,150.77999999998374,5.043863e-06,150.77999999998374,1.373905e-05,150.77999999998374,8.145445e-06
150.79499999998373,2.248992e-05,150.79499999998373,4.962209e-06,150.79499999998373,1.393654e-05,150.79499999998373,8.260502e-06
150.80999999998372,2.341301e-05,150.80999999998372,5.352786e-06,150.80999999998372,1.475451e-05,150.80999999998372,8.210899e-06
150.8249999999837,2.103748e-05,150.8249999999837,5.539025e-06,150.8249999999837,1.462794e-05,150.8249999999837,8.224612e-06
150.8399999999837,2.147027e-05,150.8399999999837,6.474718e-06,150.8399999999837,1.443601e-05,150.8399999999837,8.21433e-06
150.85499999998368,2.054834e-05,150.85499999998368,7.113323e-06,150.85499999998368,1.484778e-05,150.85499999998368,8.169621e-06
150.86999999998366,2.086671e-05,150.86999999998366,8.119463e-06,150.86999999998366,1.484114e-05,150.86999999998366,8.284342e-06
150.88499999998365,2.014541e-05,150.88499999998365,8.228038e-06,150.88499999998365,1.472488e-05,150.88499999998365,8.358825e-06
150.89999999998363,1.997335e-05,150.89999999998363,8.594799e-06,150.89999999998363,1.436362e-05,150.89999999998363,8.620983e-06
150.91499999998362,2.018732e-05,150.91499999998362,8.695822e-06,150.91499999998362,1.349074e-05,150.91499999998362,8.60299e-06
150.9299999999836,2.020894e-05,150.9299999999836,8.737838e-06,150.9299999999836,1.330357e-05,150.9299999999836,8.484277e-06
150.9449999999836,2.034025e-05,150.9449999999836,8.718472e-06,150.9449999999836,1.219191e-05,150.9449999999836,8.630781e-06
150.95999999998358,2.084374e-05,150.95999999998358,8.713623e-06,150.95999999998358,1.238564e-05,150.95999999998358,8.026986e-06
150.97499999998357,2.159196e-05,150.97499999998357,8.647087e-06,150.97499999998357,1.217225e-05,150.97499999998357,7.724713e-06
150.98999999998355,2.087413e-05,150.98999999998355,9.514254e-06,150.98999999998355,1.210611e-05,150.98999999998355,7.666136e-06
151.00499999998354,2.124006e-05,151.00499999998354,9.668466e-06,151.00499999998354,1.221615e-05,151.00499999998354,7.977696e-06
151.01999999998353,2.145058e-05,151.01999999998353,9.661178e-06,151.01999999998353,1.223113e-05,151.01999999998353,8.186846e-06
151.0349999999835,2.134987e-05,151.0349999999835,9.52757e-06,151.0349999999835,1.231034e-05,151.0349999999835,9.921579e-06
151.0499999999835,2.075909e-05,151.0499999999835,9.595341e-06,151.0499999999835,1.184854e-05,151.0499999999835,1.05184e-05
151.06499999998348,2.070949e-05,151.06499999998348,9.645126e-06,151.06499999998348,1.121328e-05,151.06499999998348,1.191257e-05
151.07999999998347,2.111701e-05,151.07999999998347,9.362016e-06,151.07999999998347,1.084675e-05,151.07999999998347,1.219191e-05
151.09499999998346,2.086468e-05,151.09499999998346,8.716856e-06,151.09499999998346,1.115029e-05,151.09499999998346,1.219422e-05
151.10999999998344,2.015659e-05,151.10999999998344,7.788277e-06,151.10999999998344,1.034692e-05,151.10999999998344,1.243558e-05
151.12499999998343,1.932163e-05,151.12499999998343,7.285508e-06,151.12499999998343,1.091278e-05,151.12499999998343,1.241517e-05
151.13999999998342,1.958952e-05,151.13999999998342,7.29903e-06,151.13999999998342,1.08714e-05,151.13999999998342,1.226449e-05
151.1549999999834,1.972711e-05,151.1549999999834,7.075597e-06,151.1549999999834,1.102579e-05,151.1549999999834,1.211076e-05
151.1699999999834,2.003954e-05,151.1699999999834,7.061647e-06,151.1699999999834,1.12934e-05,151.1699999999834,1.25719e-05
151.18499999998338,2.107026e-05,151.18499999998338,7.021637e-06,151.18499999998338,1.222998e-05,151.18499999998338,1.256966e-05
151.19999999998336,2.129768e-05,151.19999999998336,7.017624e-06,151.19999999998336,1.214097e-05,151.19999999998336,1.247968e-05
151.21499999998335,2.076384e-05,151.21499999998335,7.03967e-06,151.21499999998335,1.173625e-05,151.21499999998335,1.250449e-05
151.22999999998333,2.080924e-05,151.22999999998333,6.894089e-06,151.22999999998333,1.159618e-05,151.22999999998333,1.247064e-05
151.24499999998332,2.070201e-05,151.24499999998332,5.729046e-06,151.24499999998332,1.113386e-05,151.24499999998332,1.238222e-05
151.2599999999833,2.002055e-05,151.2599999999833,6.160319e-06,151.2599999999833,1.110472e-05,151.2599999999833,1.20933e-05
151.2749999999833,2.055931e-05,151.2749999999833,6.795303e-06,151.2749999999833,1.099765e-05,151.2749999999833,1.058116e-05
151.28999999998328,2.088965e-05,151.28999999998328,6.838698e-06,151.28999999998328,1.100277e-05,151.28999999998328,1.008912e-05
151.30499999998327,2.069589e-05,151.30499999998327,6.574036e-06,151.30499999998327,1.304373e-05,151.30499999998327,9.324323e-06
151.31999999998325,2.050648e-05,151.31999999998325,6.260124e-06,151.31999999998325,1.33817e-05,151.31999999998325,8.128133e-06
151.33499999998324,2.199594e-05,151.33499999998324,7.312527e-06,151.33499999998324,1.35522e-05,151.33499999998324,8.042764e-06
151.34999999998323,2.517403e-05,151.34999999998323,7.632989e-06,151.34999999998323,1.34876e-05,151.34999999998323,8.086432e-06
151.3649999999832,3.26211e-05,151.3649999999832,1.19739e-05,151.3649999999832,1.376773e-05,151.3649999999832,8.147174e-06
151.3799999999832,3.366915e-05,151.3799999999832,1.225184e-05,151.3799999999832,1.637885e-05,151.3799999999832,8.202317e-06
151.39499999998318,3.562044e-05,151.39499999998318,1.228973e-05,151.39499999998318,1.668644e-05,151.39499999998318,8.157542e-06
151.40999999998317,3.69962e-05,151.40999999998317,1.234576e-05,151.40999999998317,1.64843e-05,151.40999999998317,8.048017e-06
151.42499999998316,3.70449e-05,151.42499999998316,1.245369e-05,151.42499999998316,1.632285e-05,151.42499999998316,7.629297e-06
151.43999999998314,3.650094e-05,151.43999999998314,1.299613e-05,151.43999999998314,1.555936e-05,151.43999999998314,9.271297e-06
151.45499999998313,3.621773e-05,151.45499999998313,1.347925e-05,151.45499999998313,1.539645e-05,151.45499999998313,9.836022e-06
151.46999999998312,3.630397e-05,151.46999999998312,1.377694e-05,151.46999999998312,1.54904e-05,151.46999999998312,1.048084e-05
151.4849999999831,3.594796e-05,151.4849999999831,1.381574e-05,151.4849999999831,1.554759e-05,151.4849999999831,1.060775e-05
151.4999999999831,3.59746e-05,151.4999999999831,1.390213e-05,151.4999999999831,1.567931e-05,151.4999999999831,1.089599e-05
151.51499999998308,3.580543e-05,151.51499999998308,1.357816e-05,151.51499999998308,1.572058e-05,151.51499999998308,1.112627e-05
151.52999999998306,3.525154e-05,151.52999999998306,1.362684e-05,151.52999999998306,1.586153e-05,151.52999999998306,1.10194e-05
151.54499999998305,3.50375e-05,151.54499999998305,1.36227e-05,151.54499999998305,1.452066e-05,151.54499999998305,1.096044e-05
151.55999999998303,3.557573e-05,151.55999999998303,1.376466e-05,151.55999999998303,1.399404e-05,151.55999999998303,1.095787e-05
151.57499999998302,3.498157e-05,151.57499999998302,1.366606e-05,151.57499999998302,1.384324e-05,151.57499999998302,1.102324e-05
151.589999999983,3.351105e-05,151.589999999983,1.327602e-05,151.589999999983,1.376671e-05,151.589999999983,1.139522e-05
151.604999999983,3.189533e-05,151.604999999983,1.292112e-05,151.604999999983,1.361339e-05,151.604999999983,1.292984e-05
151.61999999998298,2.380917e-05,151.61999999998298,1.12909e-05,151.61999999998298,1.246952e-05,151.61999999998298,1.354908e-05
151.63499999998297,2.012442e-05,151.63499999998297,1.270564e-05,151.63499999998297,9.068521e-06,151.63499999998297,1.379227e-05
151.64999999998295,1.612402e-05,151.64999999998295,1.345309e-05,151.64999999998295,8.160995e-06,151.64999999998295,1.378716e-05
151.66499999998294,1.540743e-05,151.66499999998294,1.357713e-05,151.66499999998294,8.198881e-06,151.66499999998294,1.400108e-05
151.67999999998293,1.567212e-05,151.67999999998293,1.42207e-05,151.67999999998293,8.333508e-06,151.67999999998293,1.352515e-05
151.6949999999829,1.538181e-05,151.6949999999829,1.469903e-05,151.6949999999829,8.505834e-06,151.6949999999829,1.277751e-05
151.7099999999829,1.54257e-05,151.7099999999829,1.463468e-05,151.7099999999829,8.837226e-06,151.7099999999829,1.233892e-05
151.72499999998288,1.646207e-05,151.72499999998288,1.448958e-05,151.72499999998288,8.721702e-06,151.72499999998288,1.198683e-05
151.73999999998287,1.645522e-05,151.73999999998287,1.493104e-05,151.73999999998287,8.656856e-06,151.73999999998287,1.196919e-05
151.75499999998286,1.669488e-05,151.75499999998286,1.781576e-05,151.75499999998286,8.558665e-06,151.75499999998286,1.203843e-05
151.76999999998284,1.684691e-05,151.76999999998284,1.835629e-05,151.76999999998284,8.550433e-06,151.76999999998284,1.202789e-05
151.78499999998283,1.699178e-05,151.78499999998283,1.845426e-05,151.78499999998283,8.830848e-06,151.78499999998283,1.256629e-05
151.79999999998282,1.789937e-05,151.79999999998282,1.852131e-05,151.79999999998282,9.028043e-06,151.79999999998282,1.231835e-05
151.8149999999828,1.725013e-05,151.8149999999828,1.879612e-05,151.8149999999828,8.970124e-06,151.8149999999828,1.242991e-05
151.8299999999828,1.712474e-05,151.8299999999828,2.133073e-05,151.8299999999828,9.94852e-06,151.8299999999828,1.250674e-05
151.84499999998278,1.705054e-05,151.84499999998278,2.330869e-05,151.84499999998278,1.022779e-05,151.84499999998278,1.107423e-05
151.85999999998276,1.722644e-05,151.85999999998276,2.397367e-05,151.85999999998276,1.023192e-05,151.85999999998276,1.037819e-05
151.87499999998275,1.81859e-05,151.87499999998275,2.310962e-05,151.87499999998275,1.038362e-05,151.87499999998275,9.287995e-06
151.88999999998273,2.255434e-05,151.88999999998273,2.247676e-05,151.88999999998273,1.047277e-05,151.88999999998273,9.230183e-06
151.90499999998272,2.253435e-05,151.90499999998272,2.247049e-05,151.90499999998272,1.083376e-05,151.90499999998272,9.306177e-06
151.9199999999827,2.184041e-05,151.9199999999827,2.284662e-05,151.9199999999827,1.084155e-05,151.9199999999827,9.208791e-06
151.9349999999827,2.182234e-05,151.9349999999827,2.241463e-05,151.9349999999827,1.110345e-05,151.9349999999827,9.316767e-06
151.94999999998268,2.272173e-05,151.94999999998268,2.211282e-05,151.94999999998268,1.099637e-05,151.94999999998268,9.383058e-06
151.96499999998267,2.263166e-05,151.96499999998267,2.22031e-05,151.96499999998267,1.085454e-05,151.96499999998267,1.021952e-05
151.97999999998265,2.174215e-05,151.97999999998265,2.210773e-05,151.97999999998265,1.095915e-05,151.97999999998265,1.056251e-05
151.99499999998264,2.183266e-05,151.99499999998264,2.164474e-05,151.99499999998264,1.11174e-05,151.99499999998264,1.042153e-05
152.00999999998263,2.183331e-05,152.00999999998263,1.928952e-05,152.00999999998263,1.100021e-05,152.00999999998263,1.051037e-05
152.0249999999826,2.157238e-05,152.0249999999826,1.921269e-05,152.0249999999826,1.107678e-05,152.0249999999826,1.031146e-05
152.0399999999826,2.155213e-05,152.0399999999826,1.948208e-05,152.0399999999826,1.03714e-05,152.0399999999826,1.031146e-05
152.05499999998258,2.025072e-05,152.05499999998258,1.969209e-05,152.05499999998258,1.027863e-05,152.05499999998258,1.028684e-05
152.06999999998257,2.03361e-05,152.06999999998257,1.899665e-05,152.06999999998257,1.046066e-05,152.06999999998257,1.005976e-05
152.08499999998256,2.096504e-05,152.08499999998256,1.471244e-05,152.08499999998256,9.643665e-06,152.08499999998256,1.039717e-05
152.09999999998254,2.103279e-05,152.09999999998254,1.379737e-05,152.09999999998254,9.524612e-06,152.09999999998254,1.016562e-05
152.11499999998253,2.069793e-05,152.11499999998253,1.250787e-05,152.11499999998253,9.518695e-06,152.11499999998253,9.951351e-06
152.12999999998252,1.865091e-05,152.12999999998252,1.228973e-05,152.12999999998252,9.357501e-06,152.12999999998252,1.003452e-05
152.1449999999825,1.530929e-05,152.1449999999825,1.222307e-05,152.1449999999825,9.648047e-06,152.1449999999825,1.02841e-05
152.1599999999825,1.483639e-05,152.1599999999825,1.147038e-05,152.1599999999825,9.35449e-06,152.1599999999825,1.035373e-05
152.17499999998248,1.477931e-05,152.17499999998248,1.049964e-05,152.17499999998248,9.562988e-06,152.17499999998248,1.032921e-05
152.18999999998246,1.446136e-05,152.18999999998246,9.811646e-06,152.18999999998246,9.362016e-06,152.18999999998246,1.030326e-05
152.20499999998245,1.361753e-05,152.20499999998245,9.551197e-06,152.20499999998245,9.500919e-06,152.20499999998245,1.024018e-05
152.21999999998243,1.394867e-05,152.21999999998243,9.142777e-06,152.21999999998243,9.645126e-06,152.21999999998243,9.558568e-06
152.23499999998242,1.320687e-05,152.23499999998242,9.331874e-06,152.23499999998242,9.263696e-06,152.23499999998242,9.216436e-06
152.2499999999824,1.308363e-05,152.2499999999824,1.012397e-05,152.2499999999824,9.138154e-06,152.2499999999824,9.661178e-06
152.2649999999824,1.312126e-05,152.2649999999824,1.164346e-05,152.2649999999824,9.066966e-06,152.2649999999824,9.895991e-06
152.27999999998238,1.378307e-05,152.27999999998238,1.166039e-05,152.27999999998238,9.077836e-06,152.27999999998238,9.94427e-06
152.29499999998237,1.39416e-05,152.29499999998237,1.196331e-05,152.29499999998237,8.971695e-06,152.29499999998237,9.874615e-06
152.30999999998235,1.407234e-05,152.30999999998235,1.196802e-05,152.30999999998235,8.373978e-06,152.30999999998235,1.178177e-05
152.32499999998234,1.471436e-05,152.32499999998234,1.294617e-05,152.32499999998234,8.976404e-06,152.32499999998234,1.263783e-05
152.33999999998233,1.49367e-05,152.33999999998233,1.538089e-05,152.33999999998233,1.011004e-05,152.33999999998233,1.300155e-05
152.3549999999823,1.828093e-05,152.3549999999823,1.574923e-05,152.3549999999823,1.031693e-05,152.3549999999823,1.388388e-05
152.3699999999823,1.931579e-05,152.3699999999823,1.617809e-05,152.3699999999823,1.105004e-05,152.3699999999823,1.375954e-05
152.38499999998228,1.880736e-05,152.38499999998228,1.622764e-05,152.38499999998228,1.100405e-05,152.38499999998228,1.376159e-05
152.39999999998227,1.882233e-05,152.39999999998227,1.633838e-05,152.39999999998227,1.148756e-05,152.39999999998227,1.536531e-05
152.41499999998226,2.042664e-05,152.41499999998226,1.669066e-05,152.41499999998226,1.565593e-05,152.41499999998226,1.555846e-05
152.42999999998224,2.054903e-05,152.42999999998224,1.754406e-05,152.42999999998224,1.617286e-05,152.42999999998224,1.624933e-05
152.44499999998223,2.013911e-05,152.44499999998223,1.926395e-05,152.44499999998223,1.621375e-05,152.44499999998223,1.690034e-05
152.45999999998222,2.007045e-05,152.45999999998222,2.095159e-05,152.45999999998222,1.626839e-05,152.45999999998222,1.760018e-05
152.4749999999822,2.006623e-05,152.4749999999822,2.104417e-05,152.4749999999822,1.646121e-05,152.4749999999822,1.762097e-05
152.4899999999822,2.079096e-05,152.4899999999822,2.10435e-05,152.4899999999822,1.664249e-05,152.4899999999822,1.809349e-05
152.50499999998218,2.121019e-05,152.50499999998218,2.122215e-05,152.50499999998218,1.674039e-05,152.50499999998218,1.78363e-05
152.51999999998216,2.575488e-05,152.51999999998216,2.23517e-05,152.51999999998216,1.665179e-05,152.51999999998216,1.778014e-05
152.53499999998215,2.777233e-05,152.53499999998215,2.241526e-05,152.53499999998215,1.659587e-05,152.53499999998215,1.756412e-05
152.54999999998213,3.370303e-05,152.54999999998213,2.205286e-05,152.54999999998213,1.668391e-05,152.54999999998213,1.70588e-05
152.56499999998212,3.481648e-05,152.56499999998212,3.504313e-05,152.56499999998212,1.680002e-05,152.56499999998212,1.607589e-05
152.5799999999821,3.643643e-05,152.5799999999821,5.896814e-05,152.5799999999821,1.653294e-05,152.5799999999821,1.552855e-05
152.5949999999821,3.642947e-05,152.5949999999821,6.863433e-05,152.5949999999821,1.571072e-05,152.5949999999821,1.494518e-05
152.60999999998208,3.561965e-05,152.60999999998208,7.195429e-05,152.60999999998208,1.578854e-05,152.60999999998208,1.496025e-05
152.62499999998207,3.580858e-05,152.62499999998207,7.218278e-05,152.62499999998207,1.528166e-05,152.62499999998207,1.507282e-05
152.63999999998205,3.69337e-05,152.63999999998205,7.251107e-05,152.63999999998205,1.51381e-05,152.63999999998205,1.468657e-05
152.65499999998204,3.77769e-05,152.65499999998204,7.258156e-05,152.65499999998204,1.313199e-05,152.65499999998204,1.242198e-05
152.66999999998202,3.731957e-05,152.66999999998202,7.248017e-05,152.66999999998202,1.056784e-05,152.66999999998202,1.230462e-05
152.684999999982,3.825269e-05,152.684999999982,7.254098e-05,152.684999999982,9.993728e-06,152.684999999982,1.163741e-05
152.699999999982,3.933192e-05,152.699999999982,7.202982e-05,152.699999999982,1.208281e-05,152.699999999982,1.099124e-05
152.71499999998198,4.307059e-05,152.71499999998198,7.209374e-05,152.71499999998198,1.264452e-05,152.71499999998198,9.433964e-06
152.72999999998197,4.332819e-05,152.72999999998197,7.239344e-05,152.72999999998197,1.252362e-05,152.72999999998197,9.637821e-06
152.74499999998196,4.446801e-05,152.74499999998196,7.265197e-05,152.74499999998196,1.304157e-05,152.74499999998196,8.566891e-06
152.75999999998194,4.502679e-05,152.75999999998194,7.230231e-05,152.75999999998194,1.320793e-05,152.75999999998194,8.830848e-06
152.77499999998193,4.25904e-05,152.77499999998193,7.220679e-05,152.77499999998193,1.336379e-05,152.77499999998193,9.227129e-06
152.78999999998192,3.982593e-05,152.78999999998192,7.217459e-05,152.78999999998192,1.362477e-05,152.78999999998192,9.883171e-06
152.8049999999819,3.862977e-05,152.8049999999819,7.20482e-05,152.8049999999819,1.549768e-05,152.8049999999819,1.0005e-05
152.8199999999819,4.080221e-05,152.8199999999819,4.843927e-05,152.8199999999819,1.661453e-05,152.8199999999819,1.031146e-05
152.83499999998187,4.735461e-05,152.83499999998187,4.218796e-05,152.83499999998187,1.770551e-05,152.83499999998187,1.033194e-05
152.84999999998186,5.488542e-05,152.84999999998186,2.701799e-05,152.84999999998186,2.430571e-05,152.84999999998186,1.035237e-05
152.86499999998185,5.665925e-05,152.86499999998185,1.989775e-05,152.86499999998185,3.80881e-05,152.86499999998185,9.988088e-06
152.87999999998183,5.776916e-05,152.87999999998183,1.949293e-05,152.87999999998183,3.880332e-05,152.87999999998183,9.704822e-06
152.89499999998182,5.803823e-05,152.89499999998182,1.96928e-05,152.89499999998182,4.097825e-05,152.89499999998182,1.033466e-05
152.9099999999818,6.005908e-05,152.9099999999818,2.041836e-05,152.9099999999818,4.205051e-05,152.9099999999818,1.079337e-05
152.9249999999818,7.169344e-05,152.9249999999818,2.194978e-05,152.9249999999818,4.931541e-05,152.9249999999818,1.231378e-05
152.93999999998178,7.254913e-05,152.93999999998178,2.153513e-05,152.93999999998178,5.035197e-05,152.93999999998178,1.223343e-05
152.95499999998177,7.120291e-05,152.95499999998177,2.077198e-05,152.95499999998177,4.998329e-05,152.95499999998177,1.219422e-05
152.96999999998175,7.002855e-05,152.96999999998175,2.011041e-05,152.96999999998175,4.985914e-05,152.96999999998175,1.239928e-05
152.98499999998174,6.952586e-05,152.98499999998174,1.882682e-05,152.98499999998174,4.991928e-05,152.98499999998174,1.230805e-05
152.99999999998172,6.882126e-05,152.99999999998172,1.787811e-05,152.99999999998172,4.98108e-05,152.99999999998172,1.227826e-05
153.0149999999817,6.845348e-05,153.0149999999817,1.758416e-05,153.0149999999817,4.97644e-05,153.0149999999817,1.198918e-05
153.0299999999817,6.841993e-05,153.0299999999817,1.745955e-05,153.0299999999817,4.970463e-05,153.0299999999817,1.208981e-05
153.04499999998168,6.819329e-05,153.04499999998168,1.743856e-05,153.04499999998168,4.949162e-05,153.04499999998168,1.193265e-05
153.05999999998167,6.576563e-05,153.05999999998167,1.759057e-05,153.05999999998167,4.89769e-05,153.05999999998167,1.149124e-05
153.07499999998166,6.483371e-05,153.07499999998166,1.62857e-05,153.07499999998166,4.870637e-05,153.07499999998166,1.125842e-05
153.08999999998164,5.472709e-05,153.08999999998164,1.602499e-05,153.08999999998164,4.681881e-05,153.08999999998164,1.114018e-05
153.10499999998163,5.128804e-05,153.10499999998163,1.593773e-05,153.10499999998163,4.197742e-05,153.10499999998163,1.12459e-05
153.11999999998162,4.97992e-05,153.11999999998162,1.673365e-05,153.11999999998162,3.411306e-05,153.11999999998162,1.327389e-05
153.1349999999816,4.803158e-05,153.1349999999816,1.708933e-05,153.1349999999816,3.229735e-05,153.1349999999816,1.362167e-05
153.1499999999816,4.616465e-05,153.1499999999816,1.613013e-05,153.1499999999816,3.033617e-05,153.1499999999816,1.304913e-05
153.16499999998157,4.056191e-05,153.16499999998157,1.488663e-05,153.16499999998157,2.849386e-05,153.16499999998157,1.263672e-05
153.17999999998156,1.581172e-05,153.17999999998156,1.358024e-05,153.17999999998156,1.380145e-05,153.17999999998156,1.142732e-05
153.19499999998155,1.189126e-05,153.19499999998155,1.368563e-05,153.19499999998155,1.076855e-05,153.19499999998155,1.147284e-05
153.20999999998153,1.276868e-05,153.20999999998153,1.417506e-05,153.20999999998153,1.061704e-05,153.20999999998153,1.161318e-05
153.22499999998152,1.26211e-05,153.22499999998152,1.411232e-05,153.22499999998152,1.094372e-05,153.22499999998152,1.150227e-05
153.2399999999815,1.285554e-05,153.2399999999815,1.53286e-05,153.2399999999815,1.102707e-05,153.2399999999815,1.163741e-05
153.2549999999815,1.360097e-05,153.2549999999815,1.554759e-05,153.2549999999815,1.088823e-05,153.2549999999815,1.168453e-05
153.26999999998148,1.457971e-05,153.26999999998148,1.522625e-05,153.26999999998148,1.147652e-05,153.26999999998148,1.155115e-05
153.28499999998147,1.790095e-05,153.28499999998147,1.513252e-05,153.28499999998147,1.144333e-05,153.28499999998147,1.105259e-05
153.29999999998145,1.859494e-05,153.29999999998145,1.504102e-05,153.29999999998145,1.149492e-05,153.29999999998145,1.103984e-05
153.31499999998144,2.017196e-05,153.31499999998144,1.517621e-05,153.31499999998144,1.145932e-05,153.31499999998144,1.07266e-05
153.32999999998142,2.050098e-05,153.32999999998142,1.578229e-05,153.32999999998142,1.183664e-05,153.32999999998142,1.045796e-05
153.3449999999814,2.075298e-05,153.3449999999814,1.584198e-05,153.3449999999814,1.229317e-05,153.3449999999814,1.06647e-05
153.3599999999814,2.138086e-05,153.3599999999814,1.774445e-05,153.3599999999814,1.241631e-05,153.3599999999814,1.174825e-05
153.37499999998138,2.295856e-05,153.37499999998138,1.742159e-05,153.37499999998138,1.232864e-05,153.37499999998138,1.085454e-05
153.38999999998137,2.317657e-05,153.38999999998137,1.660181e-05,153.38999999998137,1.204194e-05,153.38999999998137,1.08934e-05
153.40499999998136,2.377186e-05,153.40499999998136,1.689618e-05,153.40499999998136,1.17746e-05,153.40499999998136,1.158646e-05
153.41999999998134,2.408622e-05,153.41999999998134,1.946472e-05,153.41999999998134,1.152551e-05,153.41999999998134,1.250899e-05
153.43499999998133,2.449622e-05,153.43499999998133,2.133799e-05,153.43499999998133,1.116166e-05,153.43499999998133,1.714529e-05
153.44999999998132,2.569355e-05,153.44999999998132,2.116299e-05,153.44999999998132,1.038226e-05,153.44999999998132,1.809272e-05
153.4649999999813,2.529795e-05,153.4649999999813,2.105822e-05,153.4649999999813,1.035781e-05,153.4649999999813,2.089504e-05
153.4799999999813,2.556273e-05,153.4799999999813,2.14164e-05,153.4799999999813,9.983855e-06,153.4799999999813,2.174409e-05
153.49499999998127,2.535246e-05,153.49499999998127,2.242782e-05,153.49499999998127,9.722225e-06,153.49499999998127,2.166296e-05
153.50999999998126,2.534968e-05,153.50999999998126,2.301678e-05,153.50999999998126,9.72657e-06,153.50999999998126,2.167726e-05
153.52499999998125,2.328027e-05,153.52499999998125,2.323363e-05,153.52499999998125,9.401056e-06,153.52499999998125,2.228606e-05
153.53999999998123,2.193373e-05,153.53999999998123,2.284107e-05,153.53999999998123,9.298606e-06,153.53999999998123,2.230691e-05
153.55499999998122,2.157761e-05,153.55499999998122,2.280527e-05,153.55499999998122,9.590935e-06,153.55499999998122,2.226455e-05
153.5699999999812,2.043698e-05,153.5699999999812,2.305836e-05,153.5699999999812,9.318279e-06,153.5699999999812,2.255372e-05
153.5849999999812,2.01489e-05,153.5849999999812,2.445823e-05,153.5849999999812,8.387425e-06,153.5849999999812,2.247175e-05
153.59999999998118,2.027505e-05,153.59999999998118,2.358745e-05,153.59999999998118,8.479295e-06,153.59999999998118,2.287065e-05
153.61499999998117,1.994512e-05,153.61499999998117,2.322878e-05,153.61499999998117,8.306418e-06,153.61499999998117,2.247614e-05
153.62999999998115,1.789229e-05,153.62999999998115,2.313033e-05,153.62999999998115,8.553727e-06,153.62999999998115,2.221325e-05
153.64499999998114,1.772062e-05,153.64499999998114,2.359282e-05,153.64499999998114,8.713623e-06,153.64499999998114,2.226709e-05
153.65999999998112,1.708521e-05,153.65999999998112,2.326575e-05,153.65999999998112,8.943388e-06,153.65999999998112,2.222149e-05
153.6749999999811,1.616851e-05,153.6749999999811,2.022984e-05,153.6749999999811,8.737838e-06,153.6749999999811,2.101671e-05
153.6899999999811,1.551312e-05,153.6899999999811,1.98318e-05,153.6899999999811,8.741063e-06,153.6899999999811,1.835246e-05
153.70499999998108,1.459806e-05,153.70499999998108,1.96835e-05,153.70499999998108,8.848378e-06,153.70499999998108,1.744179e-05
153.71999999998107,1.491121e-05,153.71999999998107,1.940456e-05,153.71999999998107,8.837226e-06,153.71999999998107,1.670332e-05
153.73499999998106,1.534513e-05,153.73499999998106,1.787811e-05,153.73499999998106,9.034282e-06,153.73499999998106,1.597039e-05
153.74999999998104,1.535706e-05,153.74999999998104,1.729499e-05,153.74999999998104,9.432471e-06,153.74999999998104,1.636336e-05
153.76499999998103,1.496779e-05,153.76499999998103,1.661962e-05,153.76499999998103,9.245431e-06,153.76499999998103,1.623459e-05
153.77999999998102,1.518085e-05,153.77999999998102,1.642952e-05,153.77999999998102,9.425e-06,153.77999999998102,1.582419e-05
153.794999999981,1.532124e-05,153.794999999981,1.643638e-05,153.794999999981,1.064222e-05,153.794999999981,1.601532e-05
153.809999999981,1.542661e-05,153.809999999981,1.644152e-05,153.809999999981,1.093342e-05,153.809999999981,1.555484e-05
153.82499999998097,1.527151e-05,153.82499999998097,1.3892e-05,153.82499999998097,1.106915e-05,153.82499999998097,1.55113e-05
153.83999999998096,1.612751e-05,153.83999999998096,1.520681e-05,153.83999999998096,1.117679e-05,153.83999999998096,1.565414e-05
153.85499999998095,1.601883e-05,153.85499999998095,1.52752e-05,153.85499999998095,1.201031e-05,153.85499999998095,1.506628e-05
153.86999999998093,1.728603e-05,153.86999999998093,1.535706e-05,153.86999999998093,1.457682e-05,153.86999999998093,1.760338e-05
153.88499999998092,1.754807e-05,153.88499999998092,1.542205e-05,153.88499999998092,1.468081e-05,153.88499999998092,1.806311e-05
153.8999999999809,1.745067e-05,153.8999999999809,1.353348e-05,153.8999999999809,1.49612e-05,153.8999999999809,1.857978e-05
153.9149999999809,1.772539e-05,153.9149999999809,1.319406e-05,153.9149999999809,1.508404e-05,153.9149999999809,1.85957e-05
153.92999999998088,1.806467e-05,153.92999999998088,1.378103e-05,153.92999999998088,1.515113e-05,153.92999999998088,1.827554e-05
153.94499999998087,1.806389e-05,153.94499999998087,1.419691e-05,153.94499999998087,1.531021e-05,153.94499999998087,1.852511e-05
153.95999999998085,1.799748e-05,153.95999999998085,1.422368e-05,153.95999999998085,1.513717e-05,153.95999999998085,1.779598e-05
153.97499999998084,1.850076e-05,153.97499999998084,1.401214e-05,153.97499999998084,1.495555e-05,153.97499999998084,1.735353e-05
153.98999999998082,1.895954e-05,153.98999999998082,1.351369e-05,153.98999999998082,1.471723e-05,153.98999999998082,1.868185e-05
154.0049999999808,2.555005e-05,154.0049999999808,1.311804e-05,154.0049999999808,1.457198e-05,154.0049999999808,1.946617e-05
154.0199999999808,2.563591e-05,154.0199999999808,1.313092e-05,154.0199999999808,1.45536e-05,154.0199999999808,2.043215e-05
154.03499999998078,2.593909e-05,154.03499999998078,1.386561e-05,154.03499999998078,1.426422e-05,154.03499999998078,1.998111e-05
154.04999999998077,2.605505e-05,154.04999999998077,1.429678e-05,154.04999999998077,1.368254e-05,154.04999999998077,2.010271e-05
154.06499999998076,2.581607e-05,154.06499999998076,1.430958e-05,154.06499999998076,1.340589e-05,154.06499999998076,2.065228e-05
154.07999999998074,2.545006e-05,154.07999999998074,1.245143e-05,154.07999999998074,1.341744e-05,154.07999999998074,2.152793e-05
154.09499999998073,2.496556e-05,154.09499999998073,1.12459e-05,154.09499999998073,1.264675e-05,154.09499999998073,2.164865e-05
154.10999999998072,2.44732e-05,154.10999999998072,1.049427e-05,154.10999999998072,1.213516e-05,154.10999999998072,2.186361e-05
154.1249999999807,2.412829e-05,154.1249999999807,1.06581e-05,154.1249999999807,1.011422e-05,154.1249999999807,2.109632e-05
154.1399999999807,2.428135e-05,154.1399999999807,1.068713e-05,154.1399999999807,9.448883e-06,154.1399999999807,2.083563e-05
154.15499999998067,2.452667e-05,154.15499999998067,1.062633e-05,154.15499999998067,9.049861e-06,154.15499999998067,2.094621e-05
154.16999999998066,2.440172e-05,154.16999999998066,1.020021e-05,154.16999999998066,8.957552e-06,154.16999999998066,2.090515e-05
154.18499999998065,2.430107e-05,154.18499999998065,9.363521e-06,154.18499999998065,8.865873e-06,154.18499999998065,2.088762e-05
154.19999999998063,2.399188e-05,154.19999999998063,9.104177e-06,154.19999999998063,9.101082e-06,154.19999999998063,2.119358e-05
154.21499999998062,2.396132e-05,154.21499999998062,9.13507e-06,154.21499999998062,9.714977e-06,154.21499999998062,2.172011e-05
154.2299999999806,2.423838e-05,154.2299999999806,9.087142e-06,154.2299999999806,9.764152e-06,154.2299999999806,2.24943e-05
