X[s],a: EMG RMS 1-1,X[s].1,a: EMG RMS 1-2,X[s].2,a: EMG RMS 1-3,X[s].3,a: EMG RMS 1-4
10.005,1.09797e-05,10.005,5.135199e-06,10.005,1.015453e-05,10.005,1.318231e-05
10.020000000000001,1.076855e-05,10.020000000000001,5.143422e-06,10.020000000000001,9.821691e-06,10.020000000000001,1.302428e-05
10.035000000000002,1.096172e-05,10.035000000000002,4.774123e-06,10.035000000000002,9.170469e-06,10.035000000000002,1.304589e-05
10.050000000000002,1.072266e-05,10.050000000000002,4.815255e-06,10.050000000000002,9.176611e-06,10.050000000000002,1.334058e-05
10.065000000000003,1.004154e-05,10.065000000000003,5.189773e-06,10.065000000000003,9.851764e-06,10.065000000000003,1.331098e-05
10.080000000000004,1.015315e-05,10.080000000000004,5.594695e-06,10.080000000000004,9.890295e-06,10.080000000000004,1.324734e-05
10.095000000000004,1.014204e-05,10.095000000000004,5.943854e-06,10.095000000000004,9.945687e-06,10.095000000000004,1.309547e-05
10.110000000000005,9.965496e-06,10.110000000000005,7.129148e-06,10.110000000000005,1.056917e-05,10.110000000000005,1.315985e-05
10.125000000000005,9.636359e-06,10.125000000000005,7.043671e-06,10.125000000000005,1.00961e-05,10.125000000000005,1.382797e-05
10.140000000000006,8.737838e-06,10.140000000000006,7.105398e-06,10.140000000000006,1.009191e-05,10.140000000000006,1.361339e-05
10.155000000000006,8.789276e-06,10.155000000000006,6.865424e-06,10.155000000000006,9.709175e-06,10.155000000000006,1.374623e-05
10.170000000000007,7.984756e-06,10.170000000000007,6.869526e-06,10.170000000000007,9.605612e-06,10.170000000000007,1.291567e-05
10.185000000000008,8.109047e-06,10.185000000000008,6.894089e-06,10.185000000000008,9.674292e-06,10.185000000000008,1.315129e-05
10.200000000000008,8.358825e-06,10.200000000000008,6.900217e-06,10.200000000000008,9.52757e-06,10.200000000000008,1.419294e-05
10.215000000000009,8.784466e-06,10.215000000000009,6.762054e-06,10.215000000000009,9.138154e-06,10.215000000000009,1.405932e-05
10.23000000000001,9.085591e-06,10.23000000000001,6.678206e-06,10.23000000000001,9.574765e-06,10.23000000000001,1.348029e-05
10.24500000000001,9.091791e-06,10.24500000000001,6.936866e-06,10.24500000000001,9.989498e-06,10.24500000000001,1.332473e-05
10.26000000000001,9.193482e-06,10.26000000000001,6.875675e-06,10.26000000000001,1.064222e-05,10.26000000000001,1.335641e-05
10.275000000000011,9.334893e-06,10.275000000000011,6.865424e-06,10.275000000000011,1.126342e-05,10.275000000000011,1.353348e-05
10.290000000000012,9.484596e-06,10.290000000000012,6.920602e-06,10.290000000000012,1.131956e-05,10.290000000000012,1.341324e-05
10.305000000000012,9.612942e-06,10.305000000000012,6.887957e-06,10.305000000000012,1.122458e-05,10.305000000000012,1.385849e-05
10.320000000000013,1.076069e-05,10.320000000000013,6.659195e-06,10.320000000000013,1.090504e-05,10.320000000000013,1.388591e-05
10.335000000000013,1.162045e-05,10.335000000000013,6.511599e-06,10.335000000000013,1.091149e-05,10.335000000000013,1.40533e-05
10.350000000000014,1.165314e-05,10.350000000000014,6.026232e-06,10.350000000000014,1.097328e-05,10.350000000000014,1.387475e-05
10.365000000000014,1.210378e-05,10.365000000000014,5.068936e-06,10.365000000000014,1.036596e-05,10.365000000000014,1.355012e-05
10.380000000000015,1.206064e-05,10.380000000000015,4.864733e-06,10.380000000000015,9.921579e-06,10.380000000000015,1.357816e-05
10.395000000000016,1.26211e-05,10.395000000000016,4.861837e-06,10.395000000000016,1.002609e-05,10.395000000000016,1.327708e-05
10.410000000000016,1.306963e-05,10.410000000000016,4.899358e-06,10.410000000000016,1.038226e-05,10.410000000000016,1.301995e-05
10.425000000000017,1.325265e-05,10.425000000000017,5.013047e-06,10.425000000000017,1.030873e-05,10.425000000000017,1.266678e-05
10.440000000000017,1.292112e-05,10.440000000000017,5.00461e-06,10.440000000000017,1.09347e-05,10.440000000000017,1.230348e-05
10.455000000000018,1.301238e-05,10.455000000000018,5.159829e-06,10.455000000000018,1.127092e-05,10.455000000000018,1.116797e-05
10.470000000000018,1.272891e-05,10.470000000000018,5.184341e-06,10.470000000000018,1.132081e-05,10.470000000000018,1.11136e-05
10.485000000000019,1.2397e-05,10.485000000000019,5.135199e-06,10.485000000000019,1.097072e-05,10.485000000000019,1.09874e-05
10.50000000000002,1.242651e-05,10.50000000000002,4.777073e-06,10.50000000000002,1.137542e-05,10.50000000000002,1.056384e-05
10.51500000000002,1.226334e-05,10.51500000000002,4.753424e-06,10.51500000000002,1.117553e-05,10.51500000000002,1.045392e-05
10.53000000000002,1.206415e-05,10.53000000000002,4.550541e-06,10.53000000000002,1.121831e-05,10.53000000000002,9.908794e-06
10.545000000000021,1.184259e-05,10.545000000000021,4.541245e-06,10.545000000000021,1.159618e-05,10.545000000000021,9.607078e-06
10.560000000000022,1.127467e-05,10.560000000000022,4.52882e-06,10.560000000000022,1.142362e-05,10.560000000000022,8.932356e-06
10.575000000000022,1.114398e-05,10.575000000000022,4.20629e-06,10.575000000000022,1.142732e-05,10.575000000000022,8.601352e-06
10.590000000000023,1.069767e-05,10.590000000000023,4.049309e-06,10.590000000000023,1.149982e-05,10.590000000000023,8.461e-06
10.605000000000024,1.163499e-05,10.605000000000024,4.189512e-06,10.605000000000024,1.130337e-05,10.605000000000024,8.929201e-06
10.620000000000024,1.149369e-05,10.620000000000024,4.506994e-06,10.620000000000024,1.154871e-05,10.620000000000024,8.055015e-06
10.635000000000025,1.144333e-05,10.635000000000025,4.687774e-06,10.635000000000025,1.160954e-05,10.635000000000025,8.362194e-06
10.650000000000025,1.093986e-05,10.650000000000025,6.631638e-06,10.650000000000025,1.127342e-05,10.650000000000025,7.863876e-06
10.665000000000026,1.031146e-05,10.665000000000026,7.190141e-06,10.665000000000026,1.113133e-05,10.665000000000026,8.601352e-06
10.680000000000026,1.037683e-05,10.680000000000026,7.555081e-06,10.680000000000026,1.086881e-05,10.680000000000026,8.661737e-06
10.695000000000027,1.108314e-05,10.695000000000027,7.614512e-06,10.695000000000027,1.038768e-05,10.695000000000027,8.829253e-06
10.710000000000027,1.148756e-05,10.710000000000027,8.009417e-06,10.710000000000027,1.050232e-05,10.710000000000027,9.555621e-06
10.725000000000028,1.148143e-05,10.725000000000028,7.995334e-06,10.725000000000028,1.058915e-05,10.725000000000028,1.020159e-05
10.740000000000029,1.141745e-05,10.740000000000029,8.012934e-06,10.740000000000029,1.180805e-05,10.740000000000029,1.019745e-05
10.75500000000003,1.147038e-05,10.75500000000003,8.077717e-06,10.75500000000003,1.173985e-05,10.75500000000003,1.08947e-05
10.77000000000003,1.164104e-05,10.77000000000003,8.301328e-06,10.77000000000003,1.118939e-05,10.77000000000003,1.12934e-05
10.78500000000003,1.199623e-05,10.78500000000003,8.326743e-06,10.78500000000003,1.09347e-05,10.78500000000003,1.135063e-05
10.800000000000031,1.212704e-05,10.800000000000031,8.299631e-06,10.800000000000031,1.056784e-05,10.800000000000031,1.133448e-05
10.815000000000031,1.189008e-05,10.815000000000031,8.286042e-06,10.815000000000031,1.037547e-05,10.815000000000031,1.147161e-05
10.830000000000032,1.127467e-05,10.830000000000032,8.277538e-06,10.830000000000032,1.063031e-05,10.830000000000032,1.195624e-05
10.845000000000033,1.136675e-05,10.845000000000033,8.24514e-06,10.845000000000033,1.108568e-05,10.845000000000033,1.203024e-05
10.860000000000033,1.07082e-05,10.860000000000033,8.555373e-06,10.860000000000033,1.159618e-05,10.860000000000033,1.17026e-05
10.875000000000034,1.061572e-05,10.875000000000034,8.824465e-06,10.875000000000034,1.157916e-05,10.875000000000034,1.159011e-05
10.890000000000034,1.072529e-05,10.890000000000034,8.935509e-06,10.890000000000034,1.155603e-05,10.890000000000034,1.102451e-05
10.905000000000035,1.135559e-05,10.905000000000035,8.5108e-06,10.905000000000035,1.185924e-05,10.905000000000035,1.043504e-05
10.920000000000035,1.139769e-05,10.920000000000035,8.098617e-06,10.920000000000035,1.192557e-05,10.920000000000035,1.029643e-05
10.935000000000036,1.037004e-05,10.935000000000036,7.811755e-06,10.935000000000036,1.182116e-05,10.935000000000036,1.027177e-05
10.950000000000037,1.062235e-05,10.950000000000037,7.806343e-06,10.950000000000037,1.175424e-05,10.950000000000037,9.710626e-06
10.965000000000037,1.078554e-05,10.965000000000037,7.440475e-06,10.965000000000037,1.182116e-05,10.965000000000037,9.066966e-06
10.980000000000038,1.099124e-05,10.980000000000038,7.434793e-06,10.980000000000038,1.102835e-05,10.980000000000038,9.271297e-06
10.995000000000038,1.085713e-05,10.995000000000038,7.396802e-06,10.995000000000038,1.004575e-05,10.995000000000038,9.435456e-06
11.010000000000039,1.090504e-05,11.010000000000039,8.686096e-06,11.010000000000039,9.629048e-06,11.010000000000039,8.492574e-06
11.02500000000004,1.058915e-05,11.02500000000004,8.724932e-06,11.02500000000004,9.402554e-06,11.02500000000004,8.286042e-06
11.04000000000004,1.047008e-05,11.04000000000004,9.051417e-06,11.04000000000004,9.393561e-06,11.04000000000004,8.782863e-06
11.05500000000004,1.112373e-05,11.05500000000004,9.150478e-06,11.05500000000004,9.655344e-06,11.05500000000004,9.228656e-06
11.070000000000041,1.123838e-05,11.070000000000041,9.162785e-06,11.070000000000041,9.941437e-06,11.070000000000041,9.947104e-06
11.085000000000042,1.114777e-05,11.085000000000042,9.168933e-06,11.085000000000042,9.383058e-06,11.085000000000042,9.90026e-06
11.100000000000042,1.158525e-05,11.100000000000042,1.924419e-05,11.100000000000042,9.287995e-06,11.100000000000042,1.051706e-05
11.115000000000043,1.22e-05,11.115000000000043,2.127121e-05,11.115000000000043,8.525684e-06,11.115000000000043,1.076855e-05
11.130000000000043,1.274992e-05,11.130000000000043,2.247864e-05,11.130000000000043,8.489256e-06,11.130000000000043,1.097714e-05
11.145000000000044,1.293638e-05,11.145000000000044,2.252372e-05,11.145000000000044,8.757163e-06,11.145000000000044,1.123963e-05
11.160000000000045,1.262891e-05,11.160000000000045,2.253997e-05,11.160000000000045,8.870637e-06,11.160000000000045,1.133573e-05
11.175000000000045,1.291567e-05,11.175000000000045,2.274775e-05,11.175000000000045,8.902342e-06,11.175000000000045,1.146424e-05
11.190000000000046,1.300696e-05,11.190000000000046,2.280465e-05,11.190000000000046,8.818078e-06,11.190000000000046,1.151573e-05
11.205000000000046,1.287087e-05,11.205000000000046,2.282626e-05,11.205000000000046,8.873813e-06,11.205000000000046,1.142485e-05
11.220000000000047,1.269122e-05,11.220000000000047,2.281824e-05,11.220000000000047,8.749116e-06,11.220000000000047,1.151818e-05
11.235000000000047,1.292221e-05,11.235000000000047,2.28275e-05,11.235000000000047,8.676361e-06,11.235000000000047,1.117931e-05
11.250000000000048,1.340484e-05,11.250000000000048,2.283552e-05,11.250000000000048,8.575109e-06,11.250000000000048,1.192911e-05
11.265000000000049,1.355324e-05,11.265000000000049,2.230501e-05,11.265000000000049,8.699061e-06,11.265000000000049,1.190074e-05
11.280000000000049,1.379431e-05,11.280000000000049,2.228669e-05,11.280000000000049,8.695822e-06,11.280000000000049,1.178536e-05
11.29500000000005,1.415916e-05,11.29500000000005,2.220564e-05,11.29500000000005,8.692581e-06,11.29500000000005,1.131583e-05
11.31000000000005,1.373905e-05,11.31000000000005,2.217517e-05,11.31000000000005,9.469733e-06,11.31000000000005,1.130586e-05
11.32500000000005,1.365472e-05,11.32500000000005,2.215101e-05,11.32500000000005,9.489051e-06,11.32500000000005,1.045796e-05
11.340000000000051,1.353868e-05,11.340000000000051,2.212556e-05,11.340000000000051,9.533483e-06,11.340000000000051,1.105514e-05
11.355000000000052,1.336485e-05,11.355000000000052,1.343213e-05,11.355000000000052,9.70337e-06,11.355000000000052,1.070031e-05
11.370000000000053,1.272337e-05,11.370000000000053,8.798887e-06,11.370000000000053,1.064355e-05,11.370000000000053,1.067131e-05
11.385000000000053,1.213284e-05,11.385000000000053,5.910582e-06,11.385000000000053,1.162409e-05,11.385000000000053,1.149492e-05
11.400000000000054,1.193619e-05,11.400000000000054,5.75603e-06,11.400000000000054,1.137419e-05,11.400000000000054,1.179611e-05
11.415000000000054,1.186042e-05,11.415000000000054,5.381656e-06,11.415000000000054,1.113259e-05,11.415000000000054,1.188534e-05
11.430000000000055,1.14421e-05,11.430000000000055,4.525708e-06,11.430000000000055,1.145563e-05,11.430000000000055,1.176143e-05
11.445000000000055,1.136551e-05,11.445000000000055,4.488202e-06,11.445000000000055,1.148143e-05,11.445000000000055,1.168814e-05
11.460000000000056,1.15743e-05,11.460000000000056,4.415424e-06,11.460000000000056,1.125842e-05,11.460000000000056,1.145317e-05
11.475000000000056,1.206531e-05,11.475000000000056,4.472482e-06,11.475000000000056,1.169898e-05,11.475000000000056,1.143101e-05
11.490000000000057,1.183664e-05,11.490000000000057,4.4218e-06,11.490000000000057,1.185329e-05,11.490000000000057,1.11136e-05
11.505000000000058,1.127842e-05,11.505000000000058,4.450379e-06,11.505000000000058,1.255171e-05,11.505000000000058,1.0625e-05
11.520000000000058,1.102835e-05,11.520000000000058,4.399444e-06,11.520000000000058,1.270897e-05,11.520000000000058,1.091665e-05
11.535000000000059,1.038768e-05,11.535000000000059,4.503868e-06,11.535000000000059,1.269899e-05,11.535000000000059,1.07266e-05
11.55000000000006,9.841749e-06,11.55000000000006,4.497608e-06,11.55000000000006,1.265899e-05,11.55000000000006,1.082335e-05
11.56500000000006,1.003031e-05,11.56500000000006,4.602866e-06,11.56500000000006,1.168573e-05,11.56500000000006,1.106023e-05
11.58000000000006,1.030873e-05,11.58000000000006,4.618143e-06,11.58000000000006,1.161924e-05,11.58000000000006,1.110726e-05
11.595000000000061,1.027314e-05,11.595000000000061,4.618143e-06,11.595000000000061,1.165314e-05,11.595000000000061,1.020573e-05
11.610000000000062,9.93435e-06,11.610000000000062,4.608983e-06,11.610000000000062,1.114018e-05,11.610000000000062,1.044044e-05
11.625000000000062,1.011979e-05,11.625000000000062,4.593675e-06,11.625000000000062,9.90026e-06,11.625000000000062,9.778569e-06
11.640000000000063,1.022504e-05,11.640000000000063,4.69378e-06,11.640000000000063,9.585059e-06,11.640000000000063,9.032722e-06
11.655000000000063,1.009331e-05,11.655000000000063,4.69378e-06,11.655000000000063,9.792964e-06,11.655000000000063,8.331817e-06
11.670000000000064,1.033739e-05,11.670000000000064,5.368553e-06,11.670000000000064,9.68448e-06,11.670000000000064,8.439329e-06
11.685000000000064,1.034011e-05,11.685000000000064,5.790191e-06,11.685000000000064,9.627584e-06,11.685000000000064,9.105725e-06
11.700000000000065,9.574765e-06,11.700000000000065,6.169459e-06,11.700000000000065,9.558568e-06,11.700000000000065,9.181215e-06
11.715000000000066,8.976404e-06,11.715000000000066,6.205884e-06,11.715000000000066,9.631973e-06,11.715000000000066,9.208791e-06
11.730000000000066,8.51411e-06,11.730000000000066,6.251117e-06,11.730000000000066,9.289512e-06,11.730000000000066,9.091791e-06
11.745000000000067,8.643829e-06,11.745000000000067,6.273611e-06,11.745000000000067,8.181682e-06,11.745000000000067,9.051417e-06
11.760000000000067,9.330365e-06,11.760000000000067,6.567604e-06,11.760000000000067,8.58824e-06,11.760000000000067,8.91025e-06
11.775000000000068,9.359006e-06,11.775000000000068,6.50294e-06,11.775000000000068,8.897593e-06,11.775000000000068,8.884918e-06
11.790000000000068,9.450374e-06,11.790000000000068,7.69548e-06,11.790000000000068,8.903924e-06,11.790000000000068,9.23476e-06
11.805000000000069,9.973975e-06,11.805000000000069,7.818965e-06,11.805000000000069,9.330365e-06,11.805000000000069,9.271297e-06
11.82000000000007,1.163983e-05,11.82000000000007,7.944076e-06,11.82000000000007,9.573294e-06,11.82000000000007,8.865873e-06
11.83500000000007,1.253711e-05,11.83500000000007,7.945849e-06,11.83500000000007,9.784329e-06,11.83500000000007,9.026482e-06
11.85000000000007,1.246161e-05,11.85000000000007,9.221021e-06,11.85000000000007,1.006676e-05,11.85000000000007,8.937085e-06
11.865000000000071,1.248081e-05,11.865000000000071,1.048487e-05,11.865000000000071,1.041342e-05,11.865000000000071,8.930779e-06
11.880000000000072,1.328238e-05,11.880000000000072,1.899442e-05,11.880000000000072,1.15974e-05,11.880000000000072,8.861105e-06
11.895000000000072,1.532216e-05,11.895000000000072,2.151026e-05,11.895000000000072,1.223804e-05,11.895000000000072,8.985815e-06
11.910000000000073,1.739407e-05,11.910000000000073,2.204392e-05,11.910000000000073,1.201149e-05,11.910000000000073,8.998348e-06
11.925000000000074,1.843058e-05,11.925000000000074,2.231069e-05,11.925000000000074,1.242765e-05,11.925000000000074,9.286478e-06
11.940000000000074,2.035064e-05,11.940000000000074,2.228858e-05,11.940000000000074,1.360925e-05,11.940000000000074,8.872225e-06
11.955000000000075,2.411486e-05,11.955000000000075,2.242908e-05,11.955000000000075,1.490082e-05,11.955000000000075,8.789276e-06
11.970000000000075,2.607234e-05,11.970000000000075,2.262667e-05,11.970000000000075,1.576086e-05,11.970000000000075,8.792481e-06
11.985000000000076,3.237664e-05,11.985000000000076,2.345329e-05,11.985000000000076,1.574297e-05,11.985000000000076,8.755555e-06
12.000000000000076,3.552619e-05,12.000000000000076,2.53152e-05,12.000000000000076,1.57546e-05,12.000000000000076,9.066966e-06
12.015000000000077,3.854397e-05,12.015000000000077,2.801725e-05,12.015000000000077,1.538272e-05,12.015000000000077,9.343943e-06
12.030000000000078,3.982097e-05,12.030000000000078,2.839283e-05,12.030000000000078,1.556389e-05,12.030000000000078,9.351477e-06
12.045000000000078,4.307124e-05,12.045000000000078,2.9083e-05,12.045000000000078,1.580281e-05,12.045000000000078,8.943388e-06
12.060000000000079,4.349434e-05,12.060000000000079,2.940621e-05,12.060000000000079,1.616154e-05,12.060000000000079,8.938661e-06
12.07500000000008,4.393003e-05,12.07500000000008,2.933763e-05,12.07500000000008,1.608203e-05,12.07500000000008,8.792481e-06
12.09000000000008,5.186922e-05,12.09000000000008,2.936307e-05,12.09000000000008,1.601092e-05,12.09000000000008,8.802089e-06
12.10500000000008,5.242058e-05,12.10500000000008,2.892759e-05,12.10500000000008,1.603114e-05,12.10500000000008,8.805288e-06
12.120000000000081,5.372356e-05,12.120000000000081,2.739853e-05,12.120000000000081,1.513066e-05,12.120000000000081,9.059196e-06
12.135000000000081,5.705887e-05,12.135000000000081,2.307729e-05,12.135000000000081,1.510177e-05,12.135000000000081,9.188883e-06
12.150000000000082,5.698723e-05,12.150000000000082,2.121949e-05,12.150000000000082,1.483924e-05,12.150000000000082,9.29709e-06
12.165000000000083,5.769645e-05,12.165000000000083,2.090043e-05,12.165000000000083,1.532584e-05,12.165000000000083,9.791525e-06
12.180000000000083,5.730915e-05,12.180000000000083,2.027227e-05,12.180000000000083,1.485158e-05,12.180000000000083,9.590935e-06
12.195000000000084,5.844794e-05,12.195000000000084,2.019081e-05,12.195000000000084,1.294073e-05,12.195000000000084,9.675749e-06
12.210000000000084,5.796318e-05,12.210000000000084,2.002055e-05,12.210000000000084,1.167729e-05,12.210000000000084,9.596809e-06
12.225000000000085,5.734601e-05,12.225000000000085,1.976492e-05,12.225000000000085,1.151206e-05,12.225000000000085,9.976799e-06
12.240000000000085,5.384691e-05,12.240000000000085,1.79779e-05,12.240000000000085,1.204779e-05,12.240000000000085,1.002328e-05
12.255000000000086,5.201106e-05,12.255000000000086,1.626926e-05,12.255000000000086,1.206181e-05,12.255000000000086,9.277373e-06
12.270000000000087,5.552462e-05,12.270000000000087,1.068977e-05,12.270000000000087,1.263003e-05,12.270000000000087,9.330365e-06
12.285000000000087,8.732839e-05,12.285000000000087,1.039311e-05,12.285000000000087,1.692283e-05,12.285000000000087,9.251524e-06
12.300000000000088,0.0001198855,12.300000000000088,1.067394e-05,12.300000000000088,1.905662e-05,12.300000000000088,8.976404e-06
12.315000000000088,0.0001199165,12.315000000000088,1.061306e-05,12.315000000000088,1.947196e-05,12.315000000000088,9.049861e-06
12.330000000000089,0.0001197166,12.330000000000089,1.424446e-05,12.330000000000089,2.045765e-05,12.330000000000089,8.965412e-06
12.34500000000009,0.0001165088,12.34500000000009,1.463853e-05,12.34500000000009,2.435434e-05,12.34500000000009,8.794083e-06
12.36000000000009,0.0001161563,12.36000000000009,1.563342e-05,12.36000000000009,2.474168e-05,12.36000000000009,8.682853e-06
12.37500000000009,0.0001155742,12.37500000000009,1.635303e-05,12.37500000000009,2.755132e-05,12.37500000000009,8.638938e-06
12.390000000000091,0.0001139725,12.390000000000091,1.675132e-05,12.390000000000091,2.936354e-05,12.390000000000091,9.0374e-06
12.405000000000092,0.000113576,12.405000000000092,1.719206e-05,12.405000000000092,3.114813e-05,12.405000000000092,9.043632e-06
12.420000000000092,0.0001133063,12.420000000000092,1.871049e-05,12.420000000000092,3.148594e-05,12.420000000000092,9.071627e-06
12.435000000000093,0.0001122653,12.435000000000093,1.932819e-05,12.435000000000093,3.249129e-05,12.435000000000093,9.88887e-06
12.450000000000093,0.0001119274,12.450000000000093,2.006694e-05,12.450000000000093,3.349465e-05,12.450000000000093,9.851764e-06
12.465000000000094,0.0001119447,12.465000000000094,2.111634e-05,12.465000000000094,3.384691e-05,12.465000000000094,1.029095e-05
12.480000000000095,0.0001133006,12.480000000000095,2.125067e-05,12.480000000000095,3.462661e-05,12.480000000000095,1.024843e-05
12.495000000000095,0.0001177766,12.495000000000095,2.125199e-05,12.495000000000095,3.461969e-05,12.495000000000095,1.034011e-05
12.510000000000096,0.0001171425,12.510000000000096,2.127518e-05,12.510000000000096,3.521155e-05,12.510000000000096,1.048621e-05
12.525000000000096,0.0001189885,12.525000000000096,2.120422e-05,12.525000000000096,3.542017e-05,12.525000000000096,1.062368e-05
12.540000000000097,5.367398e-05,12.540000000000097,2.077062e-05,12.540000000000097,3.224147e-05,12.540000000000097,1.072135e-05
12.555000000000097,5.339743e-05,12.555000000000097,2.014051e-05,12.555000000000097,3.299465e-05,12.555000000000097,1.081554e-05
12.570000000000098,5.52224e-05,12.570000000000098,1.948208e-05,12.570000000000098,3.247525e-05,12.570000000000098,1.083506e-05
12.585000000000099,6.00044e-05,12.585000000000099,1.752076e-05,12.585000000000099,3.160695e-05,12.585000000000099,1.071346e-05
12.6000000000001,6.164548e-05,12.6000000000001,1.821996e-05,12.6000000000001,2.897187e-05,12.6000000000001,1.064884e-05
12.6150000000001,6.366157e-05,12.6150000000001,1.72387e-05,12.6150000000001,2.885055e-05,12.6150000000001,1.06051e-05
12.6300000000001,6.374604e-05,12.6300000000001,1.752639e-05,12.6300000000001,2.638278e-05,12.6300000000001,1.053981e-05
12.6450000000001,6.402343e-05,12.6450000000001,1.727298e-05,12.6450000000001,2.314434e-05,12.6450000000001,1.078423e-05
12.660000000000101,6.520311e-05,12.660000000000101,1.720352e-05,12.660000000000101,2.194272e-05,12.660000000000101,1.086621e-05
12.675000000000102,6.562519e-05,12.675000000000102,1.574565e-05,12.675000000000102,2.190867e-05,12.675000000000102,1.001204e-05
12.690000000000103,6.61852e-05,12.690000000000103,1.525028e-05,12.690000000000103,2.095966e-05,12.690000000000103,9.642205e-06
12.705000000000103,6.723991e-05,12.705000000000103,1.417308e-05,12.705000000000103,1.945966e-05,12.705000000000103,9.624658e-06
12.720000000000104,6.741211e-05,12.720000000000104,1.367946e-05,12.720000000000104,1.980408e-05,12.720000000000104,9.643665e-06
12.735000000000104,5.795394e-05,12.735000000000104,1.462987e-05,12.735000000000104,1.852283e-05,12.735000000000104,1.024156e-05
12.750000000000105,5.654078e-05,12.750000000000105,1.466833e-05,12.750000000000105,1.843669e-05,12.750000000000105,1.030736e-05
12.765000000000105,5.525683e-05,12.765000000000105,1.477264e-05,12.765000000000105,1.839156e-05,12.765000000000105,1.044449e-05
12.780000000000106,4.990968e-05,12.780000000000106,1.467505e-05,12.780000000000106,1.830404e-05,12.780000000000106,1.034828e-05
12.795000000000107,5.145859e-05,12.795000000000107,1.433024e-05,12.795000000000107,1.8158e-05,12.795000000000107,1.039311e-05
12.810000000000107,5.16324e-05,12.810000000000107,1.395472e-05,12.810000000000107,1.76609e-05,12.810000000000107,1.064222e-05
12.825000000000108,4.405555e-05,12.825000000000108,1.403324e-05,12.825000000000108,1.795673e-05,12.825000000000108,1.1207e-05
12.840000000000108,4.621618e-05,12.840000000000108,1.399202e-05,12.840000000000108,1.781734e-05,12.840000000000108,1.130462e-05
12.855000000000109,4.476322e-05,12.855000000000109,1.263783e-05,12.855000000000109,1.806155e-05,12.855000000000109,1.203258e-05
12.87000000000011,4.433e-05,12.87000000000011,1.254161e-05,12.87000000000011,1.799983e-05,12.87000000000011,1.240723e-05
12.88500000000011,4.401556e-05,12.88500000000011,1.269011e-05,12.88500000000011,1.792847e-05,12.88500000000011,1.217688e-05
12.90000000000011,4.386103e-05,12.90000000000011,1.231949e-05,12.90000000000011,1.784025e-05,12.90000000000011,1.190547e-05
12.915000000000111,4.230067e-05,12.915000000000111,1.191611e-05,12.915000000000111,1.691201e-05,12.915000000000111,1.184259e-05
12.930000000000112,4.215623e-05,12.930000000000112,1.120071e-05,12.930000000000112,1.689034e-05,12.930000000000112,1.214329e-05
12.945000000000112,4.050491e-05,12.945000000000112,1.117049e-05,12.945000000000112,1.671512e-05,12.945000000000112,1.205246e-05
12.960000000000113,3.986234e-05,12.960000000000113,1.120826e-05,12.960000000000113,1.662894e-05,12.960000000000113,1.223459e-05
12.975000000000113,4.021417e-05,12.975000000000113,9.643665e-06,12.975000000000113,1.631681e-05,12.975000000000113,1.20933e-05
12.990000000000114,4.232897e-05,12.990000000000114,8.385746e-06,12.990000000000114,1.549858e-05,12.990000000000114,1.163257e-05
13.005000000000114,4.196063e-05,13.005000000000114,8.462665e-06,13.005000000000114,1.506722e-05,13.005000000000114,1.165435e-05
13.020000000000115,3.99139e-05,13.020000000000115,8.461e-06,13.020000000000115,1.444577e-05,13.020000000000115,1.123713e-05
13.035000000000116,3.781565e-05,13.035000000000116,9.850334e-06,13.035000000000116,1.464334e-05,13.035000000000116,1.144825e-05
13.050000000000116,3.509936e-05,13.050000000000116,9.890295e-06,13.050000000000116,1.422269e-05,13.050000000000116,1.14544e-05
13.065000000000117,3.422931e-05,13.065000000000117,1.016562e-05,13.065000000000117,1.389808e-05,13.065000000000117,1.146178e-05
13.080000000000117,3.391759e-05,13.080000000000117,9.907371e-06,13.080000000000117,1.312233e-05,13.080000000000117,1.144087e-05
13.095000000000118,3.127946e-05,13.095000000000118,9.54382e-06,13.095000000000118,1.23092e-05,13.095000000000118,1.12934e-05
13.110000000000118,3.202843e-05,13.110000000000118,9.505367e-06,13.110000000000118,1.189245e-05,13.110000000000118,1.064752e-05
13.125000000000119,4.062298e-05,13.125000000000119,9.108818e-06,13.125000000000119,1.209563e-05,13.125000000000119,1.000359e-05
13.14000000000012,4.231965e-05,13.14000000000012,8.736227e-06,13.14000000000012,1.302428e-05,13.14000000000012,1.026217e-05
13.15500000000012,4.228369e-05,13.15500000000012,9.138154e-06,13.15500000000012,1.337328e-05,13.15500000000012,9.965496e-06
13.17000000000012,4.250332e-05,13.17000000000012,8.872225e-06,13.17000000000012,1.399504e-05,13.17000000000012,9.850334e-06
13.185000000000121,6.18706e-05,13.185000000000121,8.849969e-06,13.185000000000121,1.464142e-05,13.185000000000121,9.736703e-06
13.200000000000122,6.906543e-05,13.200000000000122,8.661737e-06,13.200000000000122,1.501008e-05,13.200000000000122,9.477167e-06
13.215000000000122,7.730947e-05,13.215000000000122,8.710389e-06,13.215000000000122,1.624066e-05,13.215000000000122,9.243908e-06
13.230000000000123,8.242731e-05,13.230000000000123,8.835633e-06,13.230000000000123,1.650992e-05,13.230000000000123,9.503884e-06
13.245000000000124,8.132586e-05,13.245000000000124,9.667009e-06,13.245000000000124,1.691201e-05,13.245000000000124,9.807338e-06
13.260000000000124,8.112607e-05,13.260000000000124,9.484596e-06,13.260000000000124,1.681678e-05,13.260000000000124,1.002047e-05
13.275000000000125,8.302279e-05,13.275000000000125,8.937085e-06,13.275000000000125,1.718386e-05,13.275000000000125,1.133697e-05
13.290000000000125,8.297289e-05,13.290000000000125,7.888914e-06,13.290000000000125,1.725993e-05,13.290000000000125,1.143594e-05
13.305000000000126,8.297798e-05,13.305000000000126,8.265616e-06,13.305000000000126,1.723625e-05,13.305000000000126,1.222883e-05
13.320000000000126,8.294063e-05,13.320000000000126,8.326743e-06,13.320000000000126,1.787969e-05,13.320000000000126,1.237767e-05
13.335000000000127,8.28123e-05,13.335000000000127,8.578393e-06,13.335000000000127,1.985168e-05,13.335000000000127,1.245708e-05
13.350000000000128,8.295268e-05,13.350000000000128,8.795684e-06,13.350000000000128,1.985522e-05,13.350000000000128,1.28654e-05
13.365000000000128,7.890164e-05,13.365000000000128,8.995216e-06,13.365000000000128,1.967204e-05,13.365000000000128,1.309224e-05
13.380000000000129,7.860436e-05,13.380000000000129,8.932356e-06,13.380000000000129,1.951171e-05,13.380000000000129,1.339222e-05
13.39500000000013,7.807841e-05,13.39500000000013,8.555373e-06,13.39500000000013,1.905957e-05,13.39500000000013,1.31791e-05
13.41000000000013,7.832123e-05,13.41000000000013,8.645458e-06,13.41000000000013,1.942995e-05,13.41000000000013,1.36413e-05
13.42500000000013,7.717689e-05,13.42500000000013,8.821272e-06,13.42500000000013,1.909723e-05,13.42500000000013,1.37534e-05
13.440000000000131,6.075122e-05,13.440000000000131,8.995216e-06,13.440000000000131,1.873155e-05,13.440000000000131,1.40232e-05
13.455000000000132,5.054604e-05,13.455000000000132,8.938661e-06,13.455000000000132,1.976278e-05,13.455000000000132,1.445064e-05
13.470000000000132,3.657227e-05,13.470000000000132,9.096438e-06,13.470000000000132,1.869391e-05,13.470000000000132,1.449444e-05
13.485000000000133,3.57574e-05,13.485000000000133,8.530639e-06,13.485000000000133,1.862295e-05,13.485000000000133,1.434596e-05
13.500000000000133,3.58078e-05,13.500000000000133,8.042764e-06,13.500000000000133,1.872855e-05,13.500000000000133,1.447888e-05
13.515000000000134,3.567932e-05,13.515000000000134,8.141986e-06,13.515000000000134,1.953407e-05,13.515000000000134,1.441062e-05
13.530000000000134,3.215091e-05,13.530000000000134,7.97063e-06,13.530000000000134,1.974709e-05,13.530000000000134,1.352203e-05
13.545000000000135,3.420626e-05,13.545000000000135,7.901403e-06,13.545000000000135,2.004024e-05,13.545000000000135,1.291021e-05
13.560000000000136,3.666805e-05,13.560000000000136,7.586711e-06,13.560000000000136,2.018383e-05,13.560000000000136,1.308255e-05
13.575000000000136,3.590954e-05,13.575000000000136,7.417721e-06,13.575000000000136,1.82686e-05,13.575000000000136,1.274881e-05
13.590000000000137,3.577828e-05,13.590000000000137,7.704628e-06,13.590000000000137,1.805531e-05,13.590000000000137,1.274328e-05
13.605000000000137,3.344583e-05,13.605000000000137,7.618211e-06,13.605000000000137,1.798887e-05,13.605000000000137,1.280394e-05
13.620000000000138,3.304457e-05,13.620000000000138,8.128133e-06,13.620000000000138,1.810206e-05,13.620000000000138,1.286212e-05
13.635000000000138,3.30893e-05,13.635000000000138,8.328435e-06,13.635000000000138,1.780547e-05,13.635000000000138,1.301346e-05
13.650000000000139,3.415887e-05,13.650000000000139,8.604628e-06,13.650000000000139,1.785761e-05,13.650000000000139,1.293855e-05
13.66500000000014,3.361639e-05,13.66500000000014,8.954407e-06,13.66500000000014,1.699344e-05,13.66500000000014,1.266011e-05
13.68000000000014,3.405313e-05,13.68000000000014,9.324323e-06,13.68000000000014,1.675384e-05,13.68000000000014,1.273554e-05
13.69500000000014,3.335389e-05,13.69500000000014,9.321302e-06,13.69500000000014,1.577247e-05,13.69500000000014,1.293311e-05
13.710000000000141,3.389433e-05,13.710000000000141,9.39506e-06,13.710000000000141,1.463565e-05,13.710000000000141,1.252475e-05
13.725000000000142,3.369968e-05,13.725000000000142,9.349971e-06,13.725000000000142,1.467793e-05,13.725000000000142,1.270897e-05
13.740000000000142,3.360466e-05,13.740000000000142,9.295575e-06,13.740000000000142,1.458454e-05,13.740000000000142,1.28391e-05
13.755000000000143,3.34732e-05,13.755000000000143,9.257612e-06,13.755000000000143,1.326859e-05,13.755000000000143,1.276758e-05
13.770000000000143,3.328963e-05,13.770000000000143,9.514254e-06,13.770000000000143,1.259205e-05,13.770000000000143,1.306424e-05
13.785000000000144,3.100399e-05,13.785000000000144,9.579178e-06,13.785000000000144,1.144702e-05,13.785000000000144,1.305561e-05
13.800000000000145,2.950043e-05,13.800000000000145,9.601211e-06,13.800000000000145,1.036461e-05,13.800000000000145,1.244351e-05
13.815000000000145,2.735685e-05,13.815000000000145,9.529049e-06,13.815000000000145,1.026491e-05,13.815000000000145,1.298637e-05
13.830000000000146,2.666796e-05,13.830000000000146,9.506848e-06,13.830000000000146,1.003452e-05,13.830000000000146,1.362373e-05
13.845000000000146,2.647393e-05,13.845000000000146,9.020237e-06,13.845000000000146,1.003452e-05,13.845000000000146,1.391125e-05
13.860000000000147,2.648882e-05,13.860000000000147,8.286042e-06,13.860000000000147,1.002469e-05,13.860000000000147,1.434006e-05
13.875000000000147,2.608585e-05,13.875000000000147,8.39414e-06,13.875000000000147,1.068318e-05,13.875000000000147,1.408634e-05
13.890000000000148,2.413763e-05,13.890000000000148,8.135063e-06,13.890000000000148,1.072792e-05,13.890000000000148,1.436754e-05
13.905000000000149,2.273536e-05,13.905000000000149,7.71559e-06,13.905000000000149,1.176143e-05,13.905000000000149,1.484209e-05
13.92000000000015,2.258867e-05,13.92000000000015,6.574036e-06,13.92000000000015,1.190074e-05,13.92000000000015,1.564423e-05
13.93500000000015,2.209625e-05,13.93500000000015,6.479067e-06,13.93500000000015,1.213632e-05,13.93500000000015,1.543392e-05
13.95000000000015,1.953552e-05,13.95000000000015,6.114414e-06,13.95000000000015,1.208515e-05,13.95000000000015,1.569278e-05
13.96500000000015,1.47354e-05,13.96500000000015,6.235322e-06,13.96500000000015,1.227023e-05,13.96500000000015,1.585354e-05
13.980000000000151,1.446623e-05,13.980000000000151,6.139704e-06,13.980000000000151,1.208748e-05,13.980000000000151,1.53873e-05
13.995000000000152,1.451386e-05,13.995000000000152,6.932803e-06,13.995000000000152,1.228055e-05,13.995000000000152,1.641579e-05
14.010000000000153,1.415816e-05,14.010000000000153,8.81648e-06,14.010000000000153,1.243671e-05,14.010000000000153,1.649284e-05
14.025000000000153,1.472297e-05,14.025000000000153,8.78607e-06,14.025000000000153,1.255957e-05,14.025000000000153,1.706953e-05
14.040000000000154,1.436558e-05,14.040000000000154,9.088692e-06,14.040000000000154,1.28993e-05,14.040000000000154,1.796771e-05
14.055000000000154,1.491971e-05,14.055000000000154,9.20267e-06,14.055000000000154,1.319406e-05,14.055000000000154,1.838543e-05
14.070000000000155,1.484873e-05,14.070000000000155,9.278891e-06,14.070000000000155,1.302212e-05,14.070000000000155,1.859721e-05
14.085000000000155,1.484683e-05,14.085000000000155,9.378553e-06,14.085000000000155,1.31994e-05,14.085000000000155,1.941617e-05
14.100000000000156,1.486106e-05,14.100000000000156,9.441426e-06,14.100000000000156,1.351473e-05,14.100000000000156,1.915762e-05
14.115000000000157,1.516135e-05,14.115000000000157,9.450374e-06,14.115000000000157,1.351473e-05,14.115000000000157,1.877737e-05
14.130000000000157,1.595892e-05,14.130000000000157,9.416029e-06,14.130000000000157,1.350743e-05,14.130000000000157,1.946979e-05
14.145000000000158,1.615805e-05,14.145000000000158,9.404052e-06,14.145000000000158,1.301454e-05,14.145000000000158,1.938132e-05
14.160000000000158,1.60118e-05,14.160000000000158,9.891719e-06,14.160000000000158,1.285335e-05,14.160000000000158,1.969566e-05
14.175000000000159,1.603378e-05,14.175000000000159,1.041883e-05,14.175000000000159,1.248532e-05,14.175000000000159,1.991119e-05
14.19000000000016,1.618679e-05,14.19000000000016,1.08025e-05,14.19000000000016,1.273665e-05,14.19000000000016,2.163172e-05
14.20500000000016,1.612314e-05,14.20500000000016,1.093728e-05,14.20500000000016,1.297877e-05,14.20500000000016,2.157695e-05
14.22000000000016,1.732266e-05,14.22000000000016,1.145563e-05,14.22000000000016,1.295379e-05,14.22000000000016,2.162261e-05
14.235000000000161,1.785446e-05,14.235000000000161,1.172304e-05,14.235000000000161,1.306424e-05,14.235000000000161,2.168246e-05
14.250000000000162,2.00543e-05,14.250000000000162,1.061837e-05,14.250000000000162,1.32569e-05,14.250000000000162,2.125597e-05
14.265000000000162,1.995501e-05,14.265000000000162,9.930095e-06,14.265000000000162,1.32569e-05,14.265000000000162,2.112835e-05
14.280000000000163,2.083766e-05,14.280000000000163,1.010168e-05,14.280000000000163,1.273665e-05,14.280000000000163,2.047279e-05
14.295000000000163,2.147618e-05,14.295000000000163,1.027725e-05,14.295000000000163,1.293202e-05,14.295000000000163,1.998605e-05
14.310000000000164,2.189902e-05,14.310000000000164,1.02553e-05,14.310000000000164,1.262222e-05,14.310000000000164,2.015869e-05
14.325000000000164,2.330688e-05,14.325000000000164,1.029232e-05,14.325000000000164,1.276648e-05,14.325000000000164,1.944517e-05
14.340000000000165,2.359282e-05,14.340000000000165,1.015731e-05,14.340000000000165,1.332368e-05,14.340000000000165,1.94285e-05
14.355000000000166,2.383518e-05,14.355000000000166,1.057717e-05,14.355000000000166,1.43263e-05,14.355000000000166,2.012232e-05
14.370000000000166,2.377068e-05,14.370000000000166,1.086362e-05,14.370000000000166,1.416512e-05,14.370000000000166,2.062771e-05
14.385000000000167,2.344728e-05,14.385000000000167,1.092052e-05,14.385000000000167,1.399706e-05,14.385000000000167,2.00943e-05
14.400000000000167,2.338833e-05,14.400000000000167,1.086751e-05,14.400000000000167,1.399102e-05,14.400000000000167,2.053188e-05
14.415000000000168,2.408739e-05,14.415000000000168,1.048353e-05,14.415000000000168,1.461542e-05,14.415000000000168,2.044732e-05
14.430000000000168,2.501967e-05,14.430000000000168,1.019468e-05,14.430000000000168,1.516042e-05,14.430000000000168,1.913408e-05
14.445000000000169,2.522378e-05,14.445000000000169,1.066074e-05,14.445000000000169,1.514089e-05,14.445000000000169,1.78978e-05
14.46000000000017,2.441673e-05,14.46000000000017,1.045931e-05,14.46000000000017,1.532492e-05,14.46000000000017,1.77079e-05
14.47500000000017,2.51225e-05,14.47500000000017,1.03333e-05,14.47500000000017,1.533962e-05,14.47500000000017,1.808337e-05
14.49000000000017,2.568422e-05,14.49000000000017,1.04053e-05,14.49000000000017,1.606888e-05,14.49000000000017,1.826089e-05
14.505000000000171,2.509332e-05,14.505000000000171,1.027863e-05,14.505000000000171,1.608728e-05,14.505000000000171,1.862748e-05
14.520000000000172,2.542847e-05,14.520000000000172,1.085713e-05,14.520000000000172,1.663571e-05,14.520000000000172,1.906697e-05
14.535000000000172,2.454849e-05,14.535000000000172,1.114903e-05,14.535000000000172,1.715022e-05,14.535000000000172,1.945024e-05
14.550000000000173,2.410376e-05,14.550000000000173,1.102068e-05,14.550000000000173,1.715104e-05,14.550000000000173,1.945169e-05
14.565000000000174,2.465556e-05,14.565000000000174,1.10194e-05,14.565000000000174,1.74926e-05,14.565000000000174,1.974067e-05
14.580000000000174,2.34791e-05,14.580000000000174,1.109076e-05,14.580000000000174,1.715268e-05,14.580000000000174,1.954128e-05
14.595000000000175,2.359223e-05,14.595000000000175,1.128966e-05,14.595000000000175,1.676981e-05,14.595000000000175,1.966632e-05
14.610000000000175,2.488871e-05,14.610000000000175,1.09102e-05,14.610000000000175,1.668729e-05,14.610000000000175,1.902851e-05
14.625000000000176,2.471263e-05,14.625000000000176,1.055183e-05,14.625000000000176,1.693864e-05,14.625000000000176,1.874959e-05
14.640000000000176,2.446687e-05,14.640000000000176,1.068186e-05,14.640000000000176,1.695277e-05,14.640000000000176,1.874959e-05
14.655000000000177,2.494807e-05,14.655000000000177,1.064884e-05,14.655000000000177,1.704393e-05,14.655000000000177,1.78205e-05
14.670000000000178,2.491586e-05,14.670000000000178,1.085065e-05,14.670000000000178,1.653975e-05,14.670000000000178,1.804828e-05
14.685000000000178,2.39525e-05,14.685000000000178,1.115535e-05,14.685000000000178,1.624586e-05,14.685000000000178,1.794103e-05
14.700000000000179,2.392367e-05,14.700000000000179,1.05545e-05,14.700000000000179,1.595804e-05,14.700000000000179,1.829172e-05
14.71500000000018,2.427323e-05,14.71500000000018,1.066206e-05,14.71500000000018,1.639175e-05,14.71500000000018,1.823155e-05
14.73000000000018,2.443576e-05,14.73000000000018,1.006536e-05,14.73000000000018,1.617374e-05,14.73000000000018,1.81448e-05
14.74500000000018,2.340218e-05,14.74500000000018,1.01184e-05,14.74500000000018,1.602675e-05,14.74500000000018,1.778489e-05
14.760000000000181,2.311266e-05,14.760000000000181,1.07999e-05,14.760000000000181,1.534238e-05,14.760000000000181,1.766249e-05
14.775000000000182,2.323667e-05,14.775000000000182,1.094372e-05,14.775000000000182,1.531757e-05,14.775000000000182,1.772777e-05
14.790000000000182,2.319965e-05,14.790000000000182,1.085713e-05,14.790000000000182,1.544304e-05,14.790000000000182,1.773651e-05
14.805000000000183,2.297451e-05,14.805000000000183,1.073973e-05,14.805000000000183,1.550676e-05,14.805000000000183,1.708026e-05
14.820000000000183,2.335337e-05,14.820000000000183,1.057983e-05,14.820000000000183,1.577783e-05,14.820000000000183,1.720025e-05
14.835000000000184,2.313399e-05,14.835000000000184,1.138904e-05,14.835000000000184,1.596334e-05,14.835000000000184,1.760018e-05
14.850000000000184,2.411252e-05,14.850000000000184,1.168814e-05,14.850000000000184,1.594303e-05,14.850000000000184,1.774445e-05
14.865000000000185,2.228163e-05,14.865000000000185,1.20068e-05,14.865000000000185,1.531481e-05,14.865000000000185,1.775398e-05
14.880000000000186,2.324576e-05,14.880000000000186,1.19102e-05,14.880000000000186,1.574029e-05,14.880000000000186,1.756974e-05
14.895000000000186,2.377305e-05,14.895000000000186,1.197625e-05,14.895000000000186,1.615543e-05,14.895000000000186,1.847409e-05
14.910000000000187,2.369886e-05,14.910000000000187,1.186636e-05,14.910000000000187,1.624239e-05,14.910000000000187,1.866526e-05
14.925000000000187,2.370956e-05,14.925000000000187,1.208515e-05,14.925000000000187,1.629003e-05,14.925000000000187,1.849467e-05
14.940000000000188,2.452667e-05,14.940000000000188,1.212123e-05,14.940000000000188,1.617896e-05,14.940000000000188,1.958449e-05
14.955000000000188,2.523606e-05,14.955000000000188,1.216183e-05,14.955000000000188,1.613275e-05,14.955000000000188,2.059969e-05
14.970000000000189,2.476445e-05,14.970000000000189,1.204077e-05,14.970000000000189,1.638831e-05,14.970000000000189,2.046247e-05
14.98500000000019,2.396426e-05,14.98500000000019,1.19739e-05,14.98500000000019,1.654742e-05,14.98500000000019,2.15299e-05
15.00000000000019,2.422327e-05,15.00000000000019,1.325478e-05,15.00000000000019,1.64672e-05,15.00000000000019,2.137097e-05
15.01500000000019,2.449794e-05,15.01500000000019,1.304373e-05,15.01500000000019,1.654742e-05,15.01500000000019,2.077673e-05
15.030000000000191,2.457602e-05,15.030000000000191,1.314057e-05,15.030000000000191,1.573491e-05,15.030000000000191,2.051884e-05
15.045000000000192,2.432946e-05,15.045000000000192,1.357713e-05,15.045000000000192,1.56865e-05,15.045000000000192,2.107227e-05
15.060000000000192,2.377423e-05,15.060000000000192,1.366606e-05,15.060000000000192,1.532676e-05,15.060000000000192,2.106625e-05
15.075000000000193,2.34773e-05,15.075000000000193,1.357505e-05,15.075000000000193,1.477836e-05,15.075000000000193,2.110566e-05
15.090000000000193,2.390718e-05,15.090000000000193,1.267901e-05,15.090000000000193,1.476596e-05,15.090000000000193,2.063317e-05
15.105000000000194,2.426568e-05,15.105000000000194,1.258645e-05,15.105000000000194,1.497343e-05,15.105000000000194,2.04087e-05
15.120000000000195,2.477923e-05,15.120000000000195,1.248983e-05,15.120000000000195,1.432434e-05,15.120000000000195,2.072649e-05
15.135000000000195,2.42622e-05,15.135000000000195,1.270121e-05,15.135000000000195,1.439693e-05,15.135000000000195,2.046316e-05
15.150000000000196,2.317475e-05,15.150000000000196,1.262557e-05,15.150000000000196,1.414721e-05,15.150000000000196,2.010481e-05
15.165000000000196,2.301249e-05,15.165000000000196,1.245934e-05,15.165000000000196,1.392036e-05,15.165000000000196,2.00971e-05
15.180000000000197,2.330205e-05,15.180000000000197,1.178775e-05,15.180000000000197,1.413227e-05,15.180000000000197,2.002548e-05
15.195000000000197,2.266027e-05,15.195000000000197,1.161075e-05,15.195000000000197,1.383e-05,15.195000000000197,1.920756e-05
15.210000000000198,2.310291e-05,15.210000000000198,1.182831e-05,15.210000000000198,1.371237e-05,15.210000000000198,1.873381e-05
15.225000000000199,2.344608e-05,15.225000000000199,1.220808e-05,15.225000000000199,1.326221e-05,15.225000000000199,1.92676e-05
15.2400000000002,2.332923e-05,15.2400000000002,1.222537e-05,15.2400000000002,1.299504e-05,15.2400000000002,1.763136e-05
15.2550000000002,2.323181e-05,15.2550000000002,9.548246e-06,15.2550000000002,1.312126e-05,15.2550000000002,1.793946e-05
15.2700000000002,2.300759e-05,15.2700000000002,9.144318e-06,15.2700000000002,1.352203e-05,15.2700000000002,1.96699e-05
15.2850000000002,2.286388e-05,15.2850000000002,8.286042e-06,15.2850000000002,1.352098e-05,15.2850000000002,1.883654e-05
15.300000000000201,2.305652e-05,15.300000000000201,9.017113e-06,15.300000000000201,1.381166e-05,15.300000000000201,1.892384e-05
15.315000000000202,2.380621e-05,15.315000000000202,8.995216e-06,15.315000000000202,1.417208e-05,15.315000000000202,1.866979e-05
15.330000000000203,2.314981e-05,15.330000000000203,9.038959e-06,15.330000000000203,1.428297e-05,15.330000000000203,1.817816e-05
15.345000000000203,2.22968e-05,15.345000000000203,8.902342e-06,15.345000000000203,1.398598e-05,15.345000000000203,1.822228e-05
15.360000000000204,2.013981e-05,15.360000000000204,8.990517e-06,15.360000000000204,1.379431e-05,15.360000000000204,1.816343e-05
15.375000000000204,2.033263e-05,15.375000000000204,8.998348e-06,15.375000000000204,1.402822e-05,15.375000000000204,1.805452e-05
15.390000000000205,2.025559e-05,15.390000000000205,8.922889e-06,15.390000000000205,1.424644e-05,15.390000000000205,1.829172e-05
15.405000000000205,2.034925e-05,15.405000000000205,8.943388e-06,15.405000000000205,1.374418e-05,15.405000000000205,1.859721e-05
15.420000000000206,2.00971e-05,15.420000000000206,8.845193e-06,15.420000000000206,1.367534e-05,15.420000000000206,1.825008e-05
15.435000000000207,1.984742e-05,15.435000000000207,8.905506e-06,15.435000000000207,1.360718e-05,15.435000000000207,1.834478e-05
15.450000000000207,1.91245e-05,15.450000000000207,8.695822e-06,15.450000000000207,1.370415e-05,15.450000000000207,1.804672e-05
15.465000000000208,1.798182e-05,15.465000000000208,8.169621e-06,15.465000000000208,1.343947e-05,15.465000000000208,1.726401e-05
15.480000000000208,1.769039e-05,15.480000000000208,8.042764e-06,15.480000000000208,1.326646e-05,15.480000000000208,1.689951e-05
15.495000000000209,1.746842e-05,15.495000000000209,7.931653e-06,15.495000000000209,1.2969e-05,15.495000000000209,1.642437e-05
15.51000000000021,1.72436e-05,15.51000000000021,7.881768e-06,15.51000000000021,1.274439e-05,15.51000000000021,1.601268e-05
15.52500000000021,1.70067e-05,15.52500000000021,7.931653e-06,15.52500000000021,1.231835e-05,15.52500000000021,1.404127e-05
15.54000000000021,1.691784e-05,15.54000000000021,6.963215e-06,15.54000000000021,1.212936e-05,15.54000000000021,1.375954e-05
15.555000000000211,1.560186e-05,15.555000000000211,6.417902e-06,15.555000000000211,1.181282e-05,15.555000000000211,1.352515e-05
15.570000000000212,1.527336e-05,15.570000000000212,6.411314e-06,15.570000000000212,1.175184e-05,15.570000000000212,1.339958e-05
15.585000000000212,1.558921e-05,15.585000000000212,6.367219e-06,15.585000000000212,1.13407e-05,15.585000000000212,1.3497e-05
15.600000000000213,1.572148e-05,15.600000000000213,6.618881e-06,15.600000000000213,1.139522e-05,15.600000000000213,1.274992e-05
15.615000000000213,1.641665e-05,15.615000000000213,7.558809e-06,15.615000000000213,1.165072e-05,15.615000000000213,1.178775e-05
15.630000000000214,1.644152e-05,15.630000000000214,7.293238e-06,15.630000000000214,1.143225e-05,15.630000000000214,1.17722e-05
15.645000000000215,1.613537e-05,15.645000000000215,7.254505e-06,15.645000000000215,1.099124e-05,15.645000000000215,1.150594e-05
15.660000000000215,1.610478e-05,15.660000000000215,7.279705e-06,15.660000000000215,1.107551e-05,15.660000000000215,1.026765e-05
15.675000000000216,1.636767e-05,15.675000000000216,7.295169e-06,15.675000000000216,1.101684e-05,15.675000000000216,1.042018e-05
15.690000000000216,1.667969e-05,15.690000000000216,7.466933e-06,15.690000000000216,1.075808e-05,15.690000000000216,9.951351e-06
15.705000000000217,1.720189e-05,15.705000000000217,7.735647e-06,15.705000000000217,1.064884e-05,15.705000000000217,1.031556e-05
15.720000000000217,1.704806e-05,15.720000000000217,7.453716e-06,15.720000000000217,1.041342e-05,15.720000000000217,1.043099e-05
15.735000000000218,1.730232e-05,15.735000000000218,7.423416e-06,15.735000000000218,1.040801e-05,15.735000000000218,1.06845e-05
15.750000000000218,1.679164e-05,15.750000000000218,7.457495e-06,15.750000000000218,1.051305e-05,15.750000000000218,1.105896e-05
15.765000000000219,1.709098e-05,15.765000000000219,7.29903e-06,15.765000000000219,1.078293e-05,15.765000000000219,1.079207e-05
15.78000000000022,1.754888e-05,15.78000000000022,7.033664e-06,15.78000000000022,1.079598e-05,15.78000000000022,1.057317e-05
15.79500000000022,1.734379e-05,15.79500000000022,7.083556e-06,15.79500000000022,1.050232e-05,15.79500000000022,1.052242e-05
15.81000000000022,1.754567e-05,15.81000000000022,7.10738e-06,15.81000000000022,1.045662e-05,15.81000000000022,1.094758e-05
15.825000000000221,2.026949e-05,15.825000000000221,7.304818e-06,15.825000000000221,1.061439e-05,15.825000000000221,1.160226e-05
15.840000000000222,2.100799e-05,15.840000000000222,7.36818e-06,15.840000000000222,1.102324e-05,15.840000000000222,1.15194e-05
15.855000000000222,2.248491e-05,15.855000000000222,6.981399e-06,15.855000000000222,1.156334e-05,15.855000000000222,1.151695e-05
15.870000000000223,2.293892e-05,15.870000000000223,6.686639e-06,15.870000000000223,1.208631e-05,15.870000000000223,1.122458e-05
15.885000000000224,2.439595e-05,15.885000000000224,6.981399e-06,15.885000000000224,1.173985e-05,15.885000000000224,1.119946e-05
15.900000000000224,2.518857e-05,15.900000000000224,7.00758e-06,15.900000000000224,1.177699e-05,15.900000000000224,1.118813e-05
15.915000000000225,2.768088e-05,15.915000000000225,6.97938e-06,15.915000000000225,1.161439e-05,15.915000000000225,1.147775e-05
15.930000000000225,2.923999e-05,15.930000000000225,6.947012e-06,15.930000000000225,1.141745e-05,15.930000000000225,1.124715e-05
15.945000000000226,3.155789e-05,15.945000000000226,6.444187e-06,15.945000000000226,1.14802e-05,15.945000000000226,1.163136e-05
15.960000000000226,3.506322e-05,15.960000000000226,7.62006e-06,15.960000000000226,1.157308e-05,15.960000000000226,1.145932e-05
15.975000000000227,3.714933e-05,15.975000000000227,7.827967e-06,15.975000000000227,1.155603e-05,15.975000000000227,1.147775e-05
15.990000000000228,4.730104e-05,15.990000000000228,8.034001e-06,15.990000000000228,1.153651e-05,15.990000000000228,1.118939e-05
16.005000000000226,5.211145e-05,16.005000000000226,8.124666e-06,16.005000000000226,1.119442e-05,16.005000000000226,1.087399e-05
16.020000000000227,5.274127e-05,16.020000000000227,8.198881e-06,16.020000000000227,1.118309e-05,16.020000000000227,1.072004e-05
16.035000000000228,5.260219e-05,16.035000000000228,8.228038e-06,16.035000000000228,1.108059e-05,16.035000000000228,1.086881e-05
16.050000000000228,5.391123e-05,16.050000000000228,8.269024e-06,16.050000000000228,1.117049e-05,16.050000000000228,1.081814e-05
16.06500000000023,5.982595e-05,16.06500000000023,8.297934e-06,16.06500000000023,1.101684e-05,16.06500000000023,1.045796e-05
16.08000000000023,6.516572e-05,16.08000000000023,8.068993e-06,16.08000000000023,1.09797e-05,16.08000000000023,9.62173e-06
16.09500000000023,6.575857e-05,16.09500000000023,7.952937e-06,16.09500000000023,9.971149e-06,16.09500000000023,9.79584e-06
16.11000000000023,6.546529e-05,16.11000000000023,7.824367e-06,16.11000000000023,1.121328e-05,16.11000000000023,1.007934e-05
16.12500000000023,6.5095e-05,16.12500000000023,7.003558e-06,16.12500000000023,1.045123e-05,16.12500000000023,1.028821e-05
16.14000000000023,6.47265e-05,16.14000000000023,6.629514e-06,16.14000000000023,1.044044e-05,16.14000000000023,1.028137e-05
16.155000000000232,6.433314e-05,16.155000000000232,6.640129e-06,16.155000000000232,1.051706e-05,16.155000000000232,1.006256e-05
16.170000000000233,6.30023e-05,16.170000000000233,6.805661e-06,16.170000000000233,1.059712e-05,16.170000000000233,9.765595e-06
16.185000000000233,6.253302e-05,16.185000000000233,7.00758e-06,16.185000000000233,1.064752e-05,16.185000000000233,9.432471e-06
16.200000000000234,6.02948e-05,16.200000000000234,6.646491e-06,16.200000000000234,1.054515e-05,16.200000000000234,8.502521e-06
16.215000000000234,5.934319e-05,16.215000000000234,5.467352e-06,16.215000000000234,1.103728e-05,16.215000000000234,8.326743e-06
16.230000000000235,5.685731e-05,16.230000000000235,5.869926e-06,16.230000000000235,1.135063e-05,16.230000000000235,8.260502e-06
16.245000000000235,4.704692e-05,16.245000000000235,6.091332e-06,16.245000000000235,1.114145e-05,16.245000000000235,8.372296e-06
16.260000000000236,4.443411e-05,16.260000000000236,6.044903e-06,16.260000000000236,1.182474e-05,16.260000000000236,8.316587e-06
16.275000000000237,4.414627e-05,16.275000000000237,5.955692e-06,16.275000000000237,1.210494e-05,16.275000000000237,8.313199e-06
16.290000000000237,4.426863e-05,16.290000000000237,5.865124e-06,16.290000000000237,1.251912e-05,16.290000000000237,8.079462e-06
16.305000000000238,3.840925e-05,16.305000000000238,5.850696e-06,16.305000000000238,1.273001e-05,16.305000000000238,8.367247e-06
16.32000000000024,3.223711e-05,16.32000000000024,6.273611e-06,16.32000000000024,1.396986e-05,16.32000000000024,8.185125e-06
16.33500000000024,1.806934e-05,16.33500000000024,6.402519e-06,16.33500000000024,1.381472e-05,16.33500000000024,8.330127e-06
16.35000000000024,1.556932e-05,16.35000000000024,6.576178e-06,16.35000000000024,1.32154e-05,16.35000000000024,7.862084e-06
16.36500000000024,1.517899e-05,16.36500000000024,6.574036e-06,16.36500000000024,1.295052e-05,16.36500000000024,7.702799e-06
16.38000000000024,1.465969e-05,16.38000000000024,6.654963e-06,16.38000000000024,1.294182e-05,16.38000000000024,7.140994e-06
16.39500000000024,1.495649e-05,16.39500000000024,6.57832e-06,16.39500000000024,1.328768e-05,16.39500000000024,7.62006e-06
16.41000000000024,1.487243e-05,16.41000000000024,6.816002e-06,16.41000000000024,1.31791e-05,16.41000000000024,7.252564e-06
16.425000000000242,1.459903e-05,16.425000000000242,6.597564e-06,16.425000000000242,1.318552e-05,16.425000000000242,7.190141e-06
16.440000000000243,1.413326e-05,16.440000000000243,6.402519e-06,16.440000000000243,1.311052e-05,16.440000000000243,7.618211e-06
16.455000000000243,1.357713e-05,16.455000000000243,6.428867e-06,16.455000000000243,1.301454e-05,16.455000000000243,8.449338e-06
16.470000000000244,1.35366e-05,16.470000000000244,6.395915e-06,16.470000000000244,1.264229e-05,16.470000000000244,8.949686e-06
16.485000000000245,1.336485e-05,16.485000000000245,6.016875e-06,16.485000000000245,1.222768e-05,16.485000000000245,8.859515e-06
16.500000000000245,1.379635e-05,16.500000000000245,6.684531e-06,16.500000000000245,1.221269e-05,16.500000000000245,8.733001e-06
16.515000000000246,1.459034e-05,16.515000000000246,6.848989e-06,16.515000000000246,1.191611e-05,16.515000000000246,8.808488e-06
16.530000000000246,1.452939e-05,16.530000000000246,6.855157e-06,16.530000000000246,1.136551e-05,16.530000000000246,8.902342e-06
16.545000000000247,1.400209e-05,16.545000000000247,6.898175e-06,16.545000000000247,1.079598e-05,16.545000000000247,8.889673e-06
16.560000000000247,1.443991e-05,16.560000000000247,6.772462e-06,16.560000000000247,9.924419e-06,16.560000000000247,8.694202e-06
16.575000000000248,1.480122e-05,16.575000000000248,6.411314e-06,16.575000000000248,8.470984e-06,16.575000000000248,8.733001e-06
16.59000000000025,1.730395e-05,16.59000000000025,6.293787e-06,16.59000000000025,8.447671e-06,16.59000000000025,8.752336e-06
16.60500000000025,1.885e-05,16.60500000000025,6.095956e-06,16.60500000000025,9.179681e-06,16.60500000000025,8.933933e-06
16.62000000000025,1.947196e-05,16.62000000000025,6.269119e-06,16.62000000000025,9.949936e-06,16.62000000000025,8.937085e-06
16.63500000000025,2.003181e-05,16.63500000000025,6.342836e-06,16.63500000000025,1.029232e-05,16.63500000000025,9.164322e-06
16.65000000000025,1.993947e-05,16.65000000000025,6.311667e-06,16.65000000000025,9.75838e-06,16.65000000000025,8.927624e-06
16.66500000000025,2.01531e-05,16.66500000000025,7.406318e-06,16.66500000000025,9.843181e-06,16.66500000000025,9.080939e-06
16.680000000000252,2.02361e-05,16.680000000000252,7.506446e-06,16.680000000000252,1.128092e-05,16.680000000000252,9.004607e-06
16.695000000000253,2.031392e-05,16.695000000000253,7.625604e-06,16.695000000000253,1.222307e-05,16.695000000000253,8.440998e-06
16.710000000000253,2.060516e-05,16.710000000000253,7.757469e-06,16.710000000000253,1.224494e-05,16.710000000000253,7.686323e-06
16.725000000000254,2.071766e-05,16.725000000000254,7.802733e-06,16.725000000000254,1.239928e-05,16.725000000000254,7.52706e-06
16.740000000000254,2.069248e-05,16.740000000000254,7.508323e-06,16.740000000000254,1.247968e-05,16.740000000000254,7.706456e-06
16.755000000000255,2.096033e-05,16.755000000000255,6.652846e-06,16.755000000000255,1.270343e-05,16.755000000000255,8.477633e-06
16.770000000000255,2.091929e-05,16.770000000000255,6.483414e-06,16.770000000000255,1.253936e-05,16.770000000000255,8.916571e-06
16.785000000000256,2.094554e-05,16.785000000000256,6.494269e-06,16.785000000000256,1.267679e-05,16.785000000000256,9.045189e-06
16.800000000000257,2.046109e-05,16.800000000000257,6.524566e-06,16.800000000000257,1.259876e-05,16.800000000000257,9.191949e-06
16.815000000000257,2.019011e-05,16.815000000000257,6.732826e-06,16.815000000000257,1.293964e-05,16.815000000000257,9.221021e-06
16.830000000000258,1.945531e-05,16.830000000000258,7.506446e-06,16.830000000000258,1.342479e-05,16.830000000000258,9.216436e-06
16.845000000000258,1.793554e-05,16.845000000000258,7.795508e-06,16.845000000000258,1.298094e-05,16.845000000000258,9.024921e-06
16.86000000000026,1.822305e-05,16.86000000000026,7.874616e-06,16.86000000000026,1.311911e-05,16.86000000000026,8.724932e-06
16.87500000000026,1.685527e-05,16.87500000000026,7.634834e-06,16.87500000000026,1.29233e-05,16.87500000000026,8.630781e-06
16.89000000000026,1.738759e-05,16.89000000000026,7.59599e-06,16.89000000000026,1.32058e-05,16.89000000000026,8.440998e-06
16.90500000000026,1.740379e-05,16.90500000000026,7.037669e-06,16.90500000000026,1.330675e-05,16.90500000000026,8.338578e-06
16.92000000000026,1.737706e-05,16.92000000000026,6.669763e-06,16.92000000000026,1.339958e-05,16.92000000000026,8.333508e-06
16.93500000000026,1.737949e-05,16.93500000000026,6.539662e-06,16.93500000000026,1.198918e-05,16.93500000000026,8.765202e-06
16.950000000000262,1.74321e-05,16.950000000000262,6.382687e-06,16.950000000000262,1.16797e-05,16.950000000000262,8.805288e-06
16.965000000000263,1.681678e-05,16.965000000000263,6.169459e-06,16.965000000000263,1.195977e-05,16.965000000000263,9.054529e-06
16.980000000000263,1.979198e-05,16.980000000000263,6.151165e-06,16.980000000000263,1.207348e-05,16.980000000000263,9.052973e-06
16.995000000000264,2.224873e-05,16.995000000000264,6.382687e-06,16.995000000000264,1.249322e-05,16.995000000000264,8.787673e-06
17.010000000000264,2.992757e-05,17.010000000000264,6.428867e-06,17.010000000000264,1.354804e-05,17.010000000000264,8.390783e-06
17.025000000000265,4.999006e-05,17.025000000000265,6.595429e-06,17.025000000000265,1.382695e-05,17.025000000000265,7.995334e-06
17.040000000000266,8.825582e-05,17.040000000000266,6.528882e-06,17.040000000000266,1.500445e-05,17.040000000000266,7.586711e-06
17.055000000000266,0.0001033432,17.055000000000266,6.409116e-06,17.055000000000266,1.575728e-05,17.055000000000266,7.517698e-06
17.070000000000267,0.0001050334,17.070000000000267,6.155743e-06,17.070000000000267,1.621375e-05,17.070000000000267,7.350954e-06
17.085000000000267,0.0001056244,17.085000000000267,5.00461e-06,17.085000000000267,1.60074e-05,17.085000000000267,7.324076e-06
17.100000000000268,0.0001055594,17.100000000000268,4.569077e-06,17.100000000000268,1.585265e-05,17.100000000000268,7.480127e-06
17.11500000000027,0.0001057177,17.11500000000027,4.556728e-06,17.11500000000027,1.564693e-05,17.11500000000027,7.306746e-06
17.13000000000027,0.0001057448,17.13000000000027,4.660651e-06,17.13000000000027,1.513066e-05,17.13000000000027,7.19993e-06
17.14500000000027,0.000105582,17.14500000000027,4.535037e-06,17.14500000000027,1.526321e-05,17.14500000000027,7.172487e-06
17.16000000000027,0.0001055761,17.16000000000027,4.125132e-06,17.16000000000027,1.514834e-05,17.16000000000027,7.139021e-06
17.17500000000027,0.0001055383,17.17500000000027,4.035369e-06,17.17500000000027,1.481169e-05,17.17500000000027,7.001547e-06
17.19000000000027,0.0001055187,17.19000000000027,4.216325e-06,17.19000000000027,1.475547e-05,17.19000000000027,6.569749e-06
17.205000000000272,0.0001055146,17.205000000000272,4.341427e-06,17.205000000000272,1.477169e-05,17.205000000000272,6.983416e-06
17.220000000000272,0.0001054804,17.220000000000272,4.229668e-06,17.220000000000272,1.447304e-05,17.220000000000272,6.606099e-06
17.235000000000273,0.000105,17.235000000000273,4.212983e-06,17.235000000000273,1.44711e-05,17.235000000000273,6.75163e-06
17.250000000000274,0.0001042998,17.250000000000274,3.893234e-06,17.250000000000274,1.377489e-05,17.250000000000274,6.58688e-06
17.265000000000274,9.756518e-05,17.265000000000274,3.741947e-06,17.265000000000274,1.285445e-05,17.265000000000274,6.550423e-06
17.280000000000275,8.026161e-05,17.280000000000275,3.564574e-06,17.280000000000275,1.179969e-05,17.280000000000275,7.797315e-06
17.295000000000275,4.080152e-05,17.295000000000275,3.707911e-06,17.295000000000275,1.10194e-05,17.295000000000275,9.390561e-06
17.310000000000276,2.567106e-05,17.310000000000276,3.979125e-06,17.310000000000276,9.876042e-06,17.310000000000276,1.453423e-05
17.325000000000276,1.497155e-05,17.325000000000276,4.347911e-06,17.325000000000276,8.736227e-06,17.325000000000276,1.62207e-05
17.340000000000277,1.307825e-05,17.340000000000277,4.31539e-06,17.340000000000277,9.136613e-06,17.340000000000277,1.743694e-05
17.355000000000278,1.117175e-05,17.355000000000278,4.338181e-06,17.355000000000278,8.888089e-06,17.355000000000278,1.866149e-05
17.370000000000278,9.365025e-06,17.370000000000278,6.987449e-06,17.370000000000278,8.859515e-06,17.370000000000278,1.883206e-05
17.38500000000028,9.142777e-06,17.38500000000028,8.032248e-06,17.38500000000028,8.789276e-06,17.38500000000028,1.888509e-05
17.40000000000028,8.726546e-06,17.40000000000028,9.269777e-06,17.40000000000028,8.36051e-06,17.40000000000028,1.895508e-05
17.41500000000028,8.787673e-06,17.41500000000028,9.583589e-06,17.41500000000028,8.405879e-06,17.41500000000028,1.905588e-05
17.43000000000028,8.884918e-06,17.43000000000028,9.618801e-06,17.43000000000028,8.60299e-06,17.43000000000028,1.946834e-05
17.44500000000028,9.087142e-06,17.44500000000028,1.091794e-05,17.44500000000028,8.984247e-06,17.44500000000028,1.953552e-05
17.46000000000028,9.21338e-06,17.46000000000028,1.140881e-05,17.46000000000028,8.91025e-06,17.46000000000028,1.951171e-05
17.475000000000282,9.028043e-06,17.475000000000282,1.1896e-05,17.475000000000282,9.240859e-06,17.475000000000282,1.956578e-05
17.490000000000283,1.05745e-05,17.490000000000283,1.232064e-05,17.490000000000283,9.245431e-06,17.490000000000283,1.96527e-05
17.505000000000283,1.157551e-05,17.505000000000283,1.248532e-05,17.505000000000283,9.026482e-06,17.505000000000283,1.989916e-05
17.520000000000284,1.167126e-05,17.520000000000284,1.2601e-05,17.520000000000284,9.1289e-06,17.520000000000284,1.977703e-05
17.535000000000284,1.203258e-05,17.535000000000284,1.258198e-05,17.535000000000284,9.439935e-06,17.535000000000284,1.919435e-05
17.550000000000285,1.315557e-05,17.550000000000285,1.258086e-05,17.550000000000285,9.486082e-06,17.550000000000285,1.840381e-05
17.565000000000285,1.423061e-05,17.565000000000285,1.244011e-05,17.565000000000285,9.411539e-06,17.565000000000285,1.465296e-05
17.580000000000286,1.438812e-05,17.580000000000286,1.243105e-05,17.580000000000286,9.306177e-06,17.580000000000286,1.297769e-05
17.595000000000287,1.44672e-05,17.595000000000287,1.243898e-05,17.595000000000287,9.417524e-06,17.595000000000287,1.174705e-05
17.610000000000287,1.471053e-05,17.610000000000287,1.245256e-05,17.610000000000287,9.736703e-06,17.610000000000287,1.036053e-05
17.625000000000288,1.511762e-05,17.625000000000288,1.077378e-05,17.625000000000288,1.032784e-05,17.625000000000288,1.024431e-05
17.64000000000029,1.531389e-05,17.64000000000029,9.821691e-06,17.64000000000029,1.039311e-05,17.64000000000029,1.047143e-05
17.65500000000029,1.538181e-05,17.65500000000029,9.188883e-06,17.65500000000029,1.060377e-05,17.65500000000029,1.10933e-05
17.67000000000029,1.539371e-05,17.67000000000029,8.932356e-06,17.67000000000029,1.093342e-05,17.67000000000029,1.078031e-05
17.68500000000029,1.562261e-05,17.68500000000029,8.811686e-06,17.68500000000029,1.072529e-05,17.68500000000029,1.04053e-05
17.70000000000029,1.555755e-05,17.70000000000029,6.924671e-06,17.70000000000029,1.03904e-05,17.70000000000029,1.069109e-05
17.71500000000029,1.582419e-05,17.71500000000029,6.582601e-06,17.71500000000029,1.034284e-05,17.71500000000029,1.096686e-05
17.73000000000029,1.590942e-05,17.73000000000029,5.339611e-06,17.73000000000029,1.018362e-05,17.73000000000029,1.067658e-05
17.745000000000292,1.408434e-05,17.745000000000292,4.910845e-06,17.745000000000292,1.027725e-05,17.745000000000292,1.065016e-05
17.760000000000293,1.432827e-05,17.760000000000293,4.431347e-06,17.760000000000293,1.036325e-05,17.760000000000293,1.031283e-05
17.775000000000293,1.418798e-05,17.775000000000293,4.29576e-06,17.775000000000293,1.030326e-05,17.775000000000293,1.028958e-05
17.790000000000294,1.330675e-05,17.790000000000294,4.360851e-06,17.790000000000294,1.081293e-05,17.790000000000294,1.025393e-05
17.805000000000295,1.268567e-05,17.805000000000295,4.192873e-06,17.805000000000295,1.10309e-05,17.805000000000295,1.006676e-05
17.820000000000295,1.131209e-05,17.820000000000295,4.131956e-06,17.820000000000295,1.093084e-05,17.820000000000295,1.026079e-05
17.835000000000296,1.207465e-05,17.835000000000296,4.097722e-06,17.835000000000296,1.133821e-05,17.835000000000296,9.907371e-06
17.850000000000296,1.204428e-05,17.850000000000296,4.090841e-06,17.850000000000296,1.175544e-05,17.850000000000296,9.524612e-06
17.865000000000297,1.155603e-05,17.865000000000297,4.128545e-06,17.865000000000297,1.145809e-05,17.865000000000297,9.791525e-06
17.880000000000297,1.155725e-05,17.880000000000297,4.094283e-06,17.880000000000297,1.120323e-05,17.880000000000297,9.674292e-06
17.895000000000298,1.154749e-05,17.895000000000298,4.094283e-06,17.895000000000298,1.113512e-05,17.895000000000298,1.090245e-05
17.9100000000003,1.168814e-05,17.9100000000003,4.152361e-06,17.9100000000003,1.098996e-05,17.9100000000003,1.004294e-05
17.9250000000003,1.192793e-05,17.9250000000003,4.249604e-06,17.9250000000003,1.081293e-05,17.9250000000003,1.033057e-05
17.9400000000003,1.200327e-05,17.9400000000003,4.212983e-06,17.9400000000003,1.098483e-05,17.9400000000003,1.02841e-05
17.9550000000003,1.157186e-05,17.9550000000003,3.979125e-06,17.9550000000003,1.103728e-05,17.9550000000003,9.828859e-06
17.9700000000003,1.103984e-05,17.9700000000003,3.771943e-06,17.9700000000003,1.101045e-05,17.9700000000003,9.583589e-06
17.9850000000003,1.176143e-05,17.9850000000003,3.715501e-06,17.9850000000003,1.076985e-05,17.9850000000003,9.633435e-06
18.000000000000302,1.143964e-05,18.000000000000302,3.654337e-06,18.000000000000302,1.045527e-05,18.000000000000302,1.041477e-05
18.015000000000303,1.124966e-05,18.015000000000303,3.696496e-06,18.015000000000303,1.035781e-05,18.015000000000303,1.060244e-05
18.030000000000303,1.156456e-05,18.030000000000303,3.730636e-06,18.030000000000303,1.051439e-05,18.030000000000303,1.065016e-05
18.045000000000304,1.222883e-05,18.045000000000304,3.741947e-06,18.045000000000304,9.864624e-06,18.045000000000304,1.065281e-05
18.060000000000304,1.191375e-05,18.060000000000304,3.711708e-06,18.060000000000304,9.904527e-06,18.060000000000304,1.054382e-05
18.075000000000305,1.148633e-05,18.075000000000305,3.779404e-06,18.075000000000305,9.751159e-06,18.075000000000305,1.104749e-05
18.090000000000305,1.100661e-05,18.090000000000305,3.764466e-06,18.090000000000305,9.268258e-06,18.090000000000305,1.137295e-05
18.105000000000306,1.111993e-05,18.105000000000306,3.707911e-06,18.105000000000306,9.546771e-06,18.105000000000306,1.175304e-05
18.120000000000307,1.224034e-05,18.120000000000307,3.677393e-06,18.120000000000307,9.755493e-06,18.120000000000307,1.155237e-05
18.135000000000307,1.21572e-05,18.135000000000307,3.692683e-06,18.135000000000307,9.570351e-06,18.135000000000307,1.124966e-05
18.150000000000308,1.23936e-05,18.150000000000308,3.779404e-06,18.150000000000308,9.587998e-06,18.150000000000308,1.067262e-05
18.16500000000031,1.272669e-05,18.16500000000031,3.520835e-06,18.16500000000031,9.585059e-06,18.16500000000031,1.057184e-05
18.18000000000031,1.313199e-05,18.18000000000031,3.603876e-06,18.18000000000031,9.595341e-06,18.18000000000031,1.020849e-05
18.19500000000031,1.295922e-05,18.19500000000031,3.452149e-06,18.19500000000031,9.413036e-06,18.19500000000031,1.111233e-05
18.21000000000031,1.341009e-05,18.21000000000031,3.348582e-06,18.21000000000031,9.521654e-06,18.21000000000031,1.225644e-05
18.22500000000031,1.369798e-05,18.22500000000031,3.592131e-06,18.22500000000031,9.636359e-06,18.22500000000031,1.248532e-05
18.24000000000031,1.303725e-05,18.24000000000031,3.756974e-06,18.24000000000031,9.551197e-06,18.24000000000031,1.269233e-05
18.25500000000031,1.370929e-05,18.25500000000031,4.305587e-06,18.25500000000031,9.751159e-06,18.25500000000031,1.290803e-05
18.270000000000312,1.402219e-05,18.270000000000312,4.925167e-06,18.270000000000312,9.92016e-06,18.270000000000312,1.320687e-05
18.285000000000313,1.43597e-05,18.285000000000313,5.066156e-06,18.285000000000313,9.521654e-06,18.285000000000313,1.333742e-05
18.300000000000313,1.39234e-05,18.300000000000313,5.055022e-06,18.300000000000313,9.426494e-06,18.300000000000313,1.369489e-05
18.315000000000314,1.46568e-05,18.315000000000314,5.035477e-06,18.315000000000314,9.340927e-06,18.315000000000314,1.387982e-05
18.330000000000314,1.453229e-05,18.330000000000314,4.976383e-06,18.330000000000314,1.058648e-05,18.330000000000314,1.355324e-05
18.345000000000315,1.474496e-05,18.345000000000315,5.013047e-06,18.345000000000315,1.018639e-05,18.345000000000315,1.325159e-05
18.360000000000316,1.442039e-05,18.360000000000316,5.041069e-06,18.360000000000316,9.735256e-06,18.360000000000316,1.415717e-05
18.375000000000316,1.411831e-05,18.375000000000316,5.027078e-06,18.375000000000316,1.000359e-05,18.375000000000316,1.454683e-05
18.390000000000317,1.385849e-05,18.390000000000317,4.979213e-06,18.390000000000317,1.01933e-05,18.390000000000317,1.500351e-05
18.405000000000317,1.359682e-05,18.405000000000317,5.124215e-06,18.405000000000317,1.026628e-05,18.405000000000317,1.500257e-05
18.420000000000318,1.293638e-05,18.420000000000318,5.102175e-06,18.420000000000318,1.024705e-05,18.420000000000318,1.528442e-05
18.43500000000032,1.275323e-05,18.43500000000032,5.235713e-06,18.43500000000032,1.017947e-05,18.43500000000032,1.504757e-05
18.45000000000032,1.357505e-05,18.45000000000032,5.291911e-06,18.45000000000032,1.057983e-05,18.45000000000032,1.455457e-05
18.46500000000032,1.261552e-05,18.46500000000032,5.431162e-06,18.46500000000032,1.026491e-05,18.46500000000032,1.385951e-05
18.48000000000032,1.2527e-05,18.48000000000032,5.208738e-06,18.48000000000032,1.03019e-05,18.48000000000032,1.374008e-05
18.49500000000032,1.240382e-05,18.49500000000032,5.007424e-06,18.49500000000032,1.07476e-05,18.49500000000032,1.338696e-05
18.51000000000032,1.149614e-05,18.51000000000032,4.488202e-06,18.51000000000032,1.095273e-05,18.51000000000032,1.281823e-05
18.525000000000322,1.071478e-05,18.525000000000322,3.719291e-06,18.525000000000322,1.105769e-05,18.525000000000322,1.267567e-05
18.540000000000322,1.037276e-05,18.540000000000322,3.73818e-06,18.540000000000322,1.168453e-05,18.540000000000322,1.25775e-05
18.555000000000323,1.028547e-05,18.555000000000323,3.812802e-06,18.555000000000323,1.203258e-05,18.555000000000323,1.212006e-05
18.570000000000324,9.310717e-06,18.570000000000324,3.834905e-06,18.570000000000324,1.219191e-05,18.570000000000324,1.211658e-05
18.585000000000324,9.253046e-06,18.585000000000324,3.756974e-06,18.585000000000324,1.10933e-05,18.585000000000324,1.205363e-05
18.600000000000325,9.260655e-06,18.600000000000325,3.99326e-06,18.600000000000325,1.133076e-05,18.600000000000325,1.224264e-05
18.615000000000325,9.240859e-06,18.615000000000325,3.954266e-06,18.615000000000325,1.145809e-05,18.615000000000325,1.159254e-05
18.630000000000326,8.708772e-06,18.630000000000326,3.91848e-06,18.630000000000326,1.123838e-05,18.630000000000326,1.110599e-05
18.645000000000326,9.683024e-06,18.645000000000326,3.904074e-06,18.645000000000326,1.11212e-05,18.645000000000326,1.061174e-05
18.660000000000327,9.49202e-06,18.660000000000327,3.619477e-06,18.660000000000327,1.107423e-05,18.660000000000327,1.056917e-05
18.675000000000328,9.496471e-06,18.675000000000328,3.623367e-06,18.675000000000328,1.08714e-05,18.675000000000328,1.253599e-05
18.690000000000328,8.297934e-06,18.690000000000328,3.331712e-06,18.690000000000328,1.103218e-05,18.690000000000328,1.385748e-05
18.70500000000033,8.382385e-06,18.70500000000033,3.241707e-06,18.70500000000033,1.051706e-05,18.70500000000033,1.418401e-05
18.72000000000033,8.470984e-06,18.72000000000033,3.19355e-06,18.72000000000033,1.045258e-05,18.72000000000033,1.471436e-05
18.73500000000033,9.866052e-06,18.73500000000033,3.310505e-06,18.73500000000033,1.048756e-05,18.73500000000033,1.465777e-05
18.75000000000033,1.03714e-05,18.75000000000033,3.431686e-06,18.75000000000033,1.037276e-05,18.75000000000033,1.454198e-05
18.76500000000033,1.184854e-05,18.76500000000033,3.415227e-06,18.76500000000033,1.045931e-05,18.76500000000033,1.45478e-05
18.78000000000033,1.227597e-05,18.78000000000033,3.365367e-06,18.78000000000033,9.761266e-06,18.78000000000033,1.461542e-05
18.795000000000332,1.28358e-05,18.795000000000332,3.348582e-06,18.795000000000332,1.017532e-05,18.795000000000332,1.475738e-05
18.810000000000333,1.275765e-05,18.810000000000333,3.365367e-06,18.810000000000333,1.014343e-05,18.810000000000333,1.507469e-05
18.825000000000333,1.276206e-05,18.825000000000333,3.452149e-06,18.825000000000333,9.922999e-06,18.825000000000333,1.526598e-05
18.840000000000334,1.304805e-05,18.840000000000334,3.504795e-06,18.840000000000334,9.787209e-06,18.840000000000334,1.512321e-05
18.855000000000334,1.295705e-05,18.855000000000334,3.184716e-06,18.855000000000334,9.662636e-06,18.855000000000334,1.448764e-05
18.870000000000335,1.344157e-05,18.870000000000335,3.28916e-06,18.870000000000335,9.401056e-06,18.870000000000335,1.480598e-05
18.885000000000336,1.347402e-05,18.885000000000336,3.377901e-06,18.885000000000336,9.585059e-06,18.885000000000336,1.518549e-05
18.900000000000336,1.2884e-05,18.900000000000336,3.356985e-06,18.900000000000336,9.368033e-06,18.900000000000336,1.487338e-05
18.915000000000337,1.312877e-05,18.915000000000337,3.390388e-06,18.915000000000337,9.540868e-06,18.915000000000337,1.475547e-05
18.930000000000337,1.329828e-05,18.930000000000337,3.415227e-06,18.930000000000337,9.50833e-06,18.930000000000337,1.156456e-05
18.945000000000338,1.330675e-05,18.945000000000338,3.468433e-06,18.945000000000338,9.263696e-06,18.945000000000338,1.141992e-05
18.96000000000034,1.332896e-05,18.96000000000034,3.419349e-06,18.96000000000034,9.303149e-06,18.96000000000034,1.125967e-05
18.97500000000034,1.334269e-05,18.97500000000034,3.233005e-06,18.97500000000034,9.745379e-06,18.97500000000034,1.08701e-05
18.99000000000034,1.238791e-05,18.99000000000034,3.331712e-06,18.99000000000034,9.298606e-06,18.99000000000034,1.151451e-05
19.00500000000034,1.17026e-05,19.00500000000034,3.382069e-06,19.00500000000034,9.348464e-06,19.00500000000034,1.303185e-05
19.02000000000034,1.111993e-05,19.02000000000034,3.472492e-06,19.02000000000034,9.359006e-06,19.02000000000034,1.370929e-05
19.03500000000034,1.123211e-05,19.03500000000034,4.17604e-06,19.03500000000034,9.426494e-06,19.03500000000034,1.473254e-05
19.05000000000034,1.108822e-05,19.05000000000034,5.115961e-06,19.05000000000034,8.606265e-06,19.05000000000034,1.62658e-05
19.065000000000342,1.114398e-05,19.065000000000342,6.563313e-06,19.065000000000342,8.415928e-06,19.065000000000342,1.624586e-05
19.080000000000343,1.097585e-05,19.080000000000343,6.953093e-06,19.080000000000343,8.827657e-06,19.080000000000343,1.663487e-05
19.095000000000343,1.124089e-05,19.095000000000343,7.113323e-06,19.095000000000343,9.023361e-06,19.095000000000343,1.706623e-05
19.110000000000344,1.186636e-05,19.110000000000344,7.109361e-06,19.110000000000344,8.929201e-06,19.110000000000344,1.814325e-05
19.125000000000345,1.124465e-05,19.125000000000345,7.19993e-06,19.125000000000345,8.959125e-06,19.125000000000345,1.882607e-05
19.140000000000345,1.14667e-05,19.140000000000345,7.545752e-06,19.140000000000345,9.059196e-06,19.140000000000345,2.030143e-05
19.155000000000346,1.115408e-05,19.155000000000346,7.575563e-06,19.155000000000346,9.217965e-06,19.155000000000346,2.118361e-05
19.170000000000346,1.115913e-05,19.170000000000346,7.577422e-06,19.170000000000346,9.073179e-06,19.170000000000346,2.301188e-05
19.185000000000347,1.23697e-05,19.185000000000347,7.631143e-06,19.185000000000347,9.383058e-06,19.185000000000347,2.286634e-05
19.200000000000347,1.246952e-05,19.200000000000347,7.686323e-06,19.200000000000347,9.820256e-06,19.200000000000347,2.457372e-05
19.215000000000348,1.236515e-05,19.215000000000348,7.69548e-06,19.215000000000348,1.006816e-05,19.215000000000348,2.498813e-05
19.23000000000035,1.227711e-05,19.23000000000035,7.675319e-06,19.23000000000035,1.024568e-05,19.23000000000035,2.509557e-05
19.24500000000035,1.305237e-05,19.24500000000035,7.669811e-06,19.24500000000035,1.014898e-05,19.24500000000035,2.535135e-05
19.26000000000035,1.397187e-05,19.26000000000035,7.586711e-06,19.26000000000035,1.000781e-05,19.26000000000035,2.481843e-05
19.27500000000035,1.372161e-05,19.27500000000035,7.534543e-06,19.27500000000035,9.890295e-06,19.27500000000035,2.441961e-05
19.29000000000035,1.357713e-05,19.29000000000035,7.059652e-06,19.29000000000035,9.573294e-06,19.29000000000035,2.365365e-05
19.30500000000035,1.345623e-05,19.30500000000035,6.838698e-06,19.30500000000035,9.976799e-06,19.30500000000035,2.287312e-05
19.320000000000352,1.364646e-05,19.320000000000352,5.574516e-06,19.320000000000352,1.017255e-05,19.320000000000352,2.303391e-05
19.335000000000353,1.349282e-05,19.335000000000353,5.714275e-06,19.335000000000353,1.027725e-05,19.335000000000353,2.301739e-05
19.350000000000353,1.455747e-05,19.350000000000353,5.929618e-06,19.350000000000353,1.006676e-05,19.350000000000353,2.27056e-05
19.365000000000354,1.45352e-05,19.365000000000354,5.877121e-06,19.365000000000354,9.803028e-06,19.365000000000354,2.189902e-05
19.380000000000354,1.567212e-05,19.380000000000354,5.724127e-06,19.380000000000354,9.907371e-06,19.380000000000354,2.147749e-05
19.395000000000355,1.56181e-05,19.395000000000355,5.350154e-06,19.395000000000355,1.005135e-05,19.395000000000355,2.08505e-05
19.410000000000355,1.556479e-05,19.410000000000355,5.358047e-06,19.410000000000355,1.00275e-05,19.410000000000355,1.889404e-05
19.425000000000356,1.531573e-05,19.425000000000356,5.342249e-06,19.425000000000356,1.02704e-05,19.425000000000356,2.01524e-05
19.440000000000357,1.455844e-05,19.440000000000357,5.140683e-06,19.440000000000357,1.071215e-05,19.440000000000357,2.02361e-05
19.455000000000357,1.442918e-05,19.455000000000357,5.197909e-06,19.455000000000357,1.05251e-05,19.455000000000357,1.817041e-05
19.470000000000358,1.449736e-05,19.470000000000358,5.235713e-06,19.470000000000358,1.032921e-05,19.470000000000358,1.818823e-05
19.48500000000036,1.439986e-05,19.48500000000036,5.241091e-06,19.48500000000036,1.070426e-05,19.48500000000036,1.765691e-05
19.50000000000036,1.416811e-05,19.50000000000036,5.230329e-06,19.50000000000036,1.193619e-05,19.50000000000036,1.745229e-05
19.51500000000036,1.37329e-05,19.51500000000036,5.189773e-06,19.51500000000036,1.193265e-05,19.51500000000036,1.851294e-05
19.53000000000036,1.38086e-05,19.53000000000036,5.132455e-06,19.53000000000036,1.189837e-05,19.53000000000036,1.892533e-05
19.54500000000036,1.361443e-05,19.54500000000036,4.302314e-06,19.54500000000036,1.170982e-05,19.54500000000036,1.898775e-05
19.56000000000036,1.348342e-05,19.56000000000036,4.272744e-06,19.56000000000036,1.157065e-05,19.56000000000036,2.161153e-05
19.57500000000036,1.341219e-05,19.57500000000036,3.996786e-06,19.57500000000036,1.120449e-05,19.57500000000036,2.154494e-05
19.590000000000362,1.312019e-05,19.590000000000362,3.711708e-06,19.590000000000362,1.122207e-05,19.590000000000362,2.159262e-05
19.605000000000363,1.148756e-05,19.605000000000363,3.241707e-06,19.605000000000363,1.133448e-05,19.605000000000363,2.183525e-05
19.620000000000363,1.024568e-05,19.620000000000363,3.280583e-06,19.620000000000363,1.206415e-05,19.620000000000363,2.107761e-05
19.635000000000364,9.814517e-06,19.635000000000364,3.319004e-06,19.635000000000364,1.244351e-05,19.635000000000364,2.181072e-05
19.650000000000365,1.131334e-05,19.650000000000365,3.654337e-06,19.650000000000365,1.279513e-05,19.650000000000365,2.143876e-05
19.665000000000365,1.200327e-05,19.665000000000365,3.801702e-06,19.665000000000365,1.293529e-05,19.665000000000365,2.11989e-05
19.680000000000366,1.191138e-05,19.680000000000366,3.867824e-06,19.680000000000366,1.266122e-05,19.680000000000366,1.998746e-05
19.695000000000366,1.269899e-05,19.695000000000366,3.893234e-06,19.695000000000366,1.384629e-05,19.695000000000366,2.003743e-05
19.710000000000367,1.278632e-05,19.710000000000367,3.989731e-06,19.710000000000367,1.506161e-05,19.710000000000367,1.986444e-05
19.725000000000367,1.300263e-05,19.725000000000367,4.01437e-06,19.725000000000367,1.567032e-05,19.725000000000367,2.02375e-05
19.740000000000368,1.247968e-05,19.740000000000368,4.017877e-06,19.740000000000368,1.553399e-05,19.740000000000368,2.049755e-05
19.75500000000037,1.227826e-05,19.75500000000037,3.99326e-06,19.75500000000037,1.507563e-05,19.75500000000037,2.039213e-05
19.77000000000037,1.205714e-05,19.77000000000037,4.212983e-06,19.77000000000037,1.545854e-05,19.77000000000037,1.878712e-05
19.78500000000037,1.198331e-05,19.78500000000037,4.562907e-06,19.78500000000037,1.551675e-05,19.78500000000037,1.866299e-05
19.80000000000037,1.199388e-05,19.80000000000037,5.219545e-06,19.80000000000037,1.534605e-05,19.80000000000037,1.805765e-05
19.81500000000037,1.224724e-05,19.81500000000037,5.627332e-06,19.81500000000037,1.539554e-05,19.81500000000037,1.534697e-05
19.83000000000037,1.245369e-05,19.83000000000037,6.114414e-06,19.83000000000037,1.534697e-05,19.83000000000037,1.517714e-05
19.845000000000372,1.258534e-05,19.845000000000372,6.171741e-06,19.845000000000372,1.541474e-05,19.845000000000372,1.49433e-05
19.860000000000372,1.28993e-05,19.860000000000372,6.095956e-06,19.860000000000372,1.544578e-05,19.860000000000372,1.54549e-05
19.875000000000373,1.285664e-05,19.875000000000373,6.148874e-06,19.875000000000373,1.463565e-05,19.875000000000373,1.610216e-05
19.890000000000374,1.244124e-05,19.890000000000374,6.11211e-06,19.890000000000374,1.43842e-05,19.890000000000374,1.6258e-05
19.905000000000374,1.174945e-05,19.905000000000374,5.93674e-06,19.905000000000374,1.421278e-05,19.905000000000374,1.804516e-05
19.920000000000375,1.146055e-05,19.920000000000375,5.845879e-06,19.920000000000375,1.426719e-05,19.920000000000375,2.035964e-05
19.935000000000375,1.152062e-05,19.935000000000375,5.838645e-06,19.935000000000375,1.409434e-05,19.935000000000375,2.07713e-05
19.950000000000376,1.044718e-05,19.950000000000376,5.778013e-06,19.950000000000376,1.169537e-05,19.950000000000376,2.155474e-05
19.965000000000376,1.062102e-05,19.965000000000376,5.672212e-06,19.965000000000376,1.117679e-05,19.965000000000376,2.133799e-05
19.980000000000377,1.13096e-05,19.980000000000377,5.684616e-06,19.980000000000377,1.066206e-05,19.980000000000377,2.166361e-05
19.995000000000378,1.219191e-05,19.995000000000378,5.711809e-06,19.995000000000378,1.058116e-05,19.995000000000378,2.25687e-05
20.010000000000378,1.328344e-05,20.010000000000378,5.714275e-06,20.010000000000378,9.861767e-06,20.010000000000378,2.274218e-05
20.02500000000038,1.29342e-05,20.02500000000038,5.495621e-06,20.02500000000038,9.96691e-06,20.02500000000038,2.267767e-05
20.04000000000038,1.291349e-05,20.04000000000038,5.173461e-06,20.04000000000038,9.997955e-06,20.04000000000038,2.255497e-05
20.05500000000038,1.302212e-05,20.05500000000038,4.639445e-06,20.05500000000038,9.817387e-06,20.05500000000038,2.324515e-05
20.07000000000038,1.259205e-05,20.07000000000038,3.900464e-06,20.07000000000038,9.904527e-06,20.07000000000038,2.330507e-05
20.08500000000038,1.271783e-05,20.08500000000038,3.572469e-06,20.08500000000038,9.650967e-06,20.08500000000038,2.504275e-05
20.10000000000038,1.245821e-05,20.10000000000038,3.512824e-06,20.10000000000038,9.736703e-06,20.10000000000038,2.580842e-05
20.115000000000382,1.199506e-05,20.115000000000382,3.476546e-06,20.115000000000382,9.497953e-06,20.115000000000382,2.524109e-05
20.130000000000383,1.281493e-05,20.130000000000383,3.365367e-06,20.130000000000383,9.634898e-06,20.130000000000383,2.464756e-05
20.145000000000383,1.299396e-05,20.145000000000383,3.448066e-06,20.145000000000383,9.913058e-06,20.145000000000383,2.357191e-05
20.160000000000384,1.29124e-05,20.160000000000384,3.638885e-06,20.160000000000384,9.645126e-06,20.160000000000384,2.158674e-05
20.175000000000384,1.292984e-05,20.175000000000384,3.592131e-06,20.175000000000384,9.620266e-06,20.175000000000384,2.008869e-05
20.190000000000385,1.347925e-05,20.190000000000385,3.681221e-06,20.190000000000385,9.730914e-06,20.190000000000385,2.031669e-05
20.205000000000386,1.371648e-05,20.205000000000386,3.67356e-06,20.205000000000386,9.195013e-06,20.205000000000386,2.129437e-05
20.220000000000386,1.390619e-05,20.220000000000386,3.67356e-06,20.220000000000386,8.224612e-06,20.220000000000386,2.058532e-05
20.235000000000387,1.327495e-05,20.235000000000387,3.662038e-06,20.235000000000387,8.17996e-06,20.235000000000387,1.95384e-05
20.250000000000387,1.309116e-05,20.250000000000387,3.73818e-06,20.250000000000387,8.708772e-06,20.250000000000387,1.989491e-05
20.265000000000388,1.221038e-05,20.265000000000388,3.86418e-06,20.265000000000388,8.343643e-06,20.265000000000388,2.109632e-05
20.28000000000039,1.226908e-05,20.28000000000039,3.805405e-06,20.28000000000039,8.21433e-06,20.28000000000039,2.16213e-05
20.29500000000039,1.213865e-05,20.29500000000039,4.007346e-06,20.29500000000039,8.207468e-06,20.29500000000039,2.17881e-05
20.31000000000039,1.219422e-05,20.31000000000039,3.957827e-06,20.31000000000039,8.45767e-06,20.31000000000039,2.054423e-05
20.32500000000039,1.297226e-05,20.32500000000039,4.028382e-06,20.32500000000039,8.930779e-06,20.32500000000039,1.990482e-05
20.34000000000039,1.295487e-05,20.34000000000039,4.007346e-06,20.34000000000039,9.587998e-06,20.34000000000039,1.842064e-05
20.35500000000039,1.345519e-05,20.35500000000039,4.042345e-06,20.35500000000039,9.949936e-06,20.35500000000039,1.989208e-05
20.370000000000392,1.359268e-05,20.370000000000392,4.11145e-06,20.370000000000392,9.964083e-06,20.370000000000392,2.232269e-05
20.385000000000392,1.309224e-05,20.385000000000392,4.021382e-06,20.385000000000392,1.086492e-05,20.385000000000392,2.234981e-05
20.400000000000393,1.322712e-05,20.400000000000393,3.96849e-06,20.400000000000393,1.065016e-05,20.400000000000393,2.234602e-05
20.415000000000393,1.360615e-05,20.415000000000393,3.867824e-06,20.415000000000393,1.100917e-05,20.415000000000393,2.23435e-05
20.430000000000394,1.320687e-05,20.430000000000394,3.768206e-06,20.430000000000394,1.085843e-05,20.430000000000394,2.25356e-05
20.445000000000395,1.27134e-05,20.445000000000395,3.756974e-06,20.445000000000395,1.068713e-05,20.445000000000395,2.171881e-05
20.460000000000395,1.224494e-05,20.460000000000395,3.764466e-06,20.460000000000395,1.074104e-05,20.460000000000395,2.179262e-05
20.475000000000396,1.186042e-05,20.475000000000396,3.779404e-06,20.475000000000396,1.097714e-05,20.475000000000396,2.317353e-05
20.490000000000396,1.136675e-05,20.490000000000396,3.741947e-06,20.490000000000396,1.104366e-05,20.490000000000396,2.489607e-05
20.505000000000397,1.121705e-05,20.505000000000397,3.719291e-06,20.505000000000397,1.082855e-05,20.505000000000397,2.509613e-05
20.520000000000397,1.127842e-05,20.520000000000397,3.623367e-06,20.520000000000397,1.086751e-05,20.520000000000397,2.421396e-05
20.535000000000398,1.156699e-05,20.535000000000398,3.623367e-06,20.535000000000398,1.098611e-05,20.535000000000398,2.407569e-05
20.5500000000004,1.215952e-05,20.5500000000004,4.541245e-06,20.5500000000004,1.130462e-05,20.5500000000004,2.481616e-05
20.5650000000004,1.179372e-05,20.5650000000004,4.708762e-06,20.5650000000004,1.110091e-05,20.5650000000004,2.598033e-05
20.5800000000004,1.201149e-05,20.5800000000004,5.719203e-06,20.5800000000004,1.132205e-05,20.5800000000004,2.591301e-05
20.5950000000004,1.210145e-05,20.5950000000004,5.838645e-06,20.5950000000004,1.097585e-05,20.5950000000004,2.516284e-05
20.6100000000004,1.187348e-05,20.6100000000004,5.753582e-06,20.6100000000004,1.114018e-05,20.6100000000004,2.362683e-05
20.6250000000004,1.17722e-05,20.6250000000004,5.874723e-06,20.6250000000004,1.099893e-05,20.6250000000004,2.276137e-05
20.640000000000402,1.147652e-05,20.640000000000402,5.979298e-06,20.640000000000402,1.130337e-05,20.640000000000402,2.290881e-05
20.655000000000403,1.127342e-05,20.655000000000403,6.009847e-06,20.655000000000403,1.159497e-05,20.655000000000403,2.395838e-05
20.670000000000403,1.09643e-05,20.670000000000403,6.244353e-06,20.670000000000403,1.117679e-05,20.670000000000403,2.412245e-05
20.685000000000404,1.084805e-05,20.685000000000404,6.273611e-06,20.685000000000404,1.15974e-05,20.685000000000404,2.409616e-05
20.700000000000404,1.099509e-05,20.700000000000404,6.329497e-06,20.700000000000404,1.246726e-05,20.700000000000404,2.442134e-05
20.715000000000405,1.133448e-05,20.715000000000405,6.331722e-06,20.715000000000405,1.291785e-05,20.715000000000405,2.402473e-05
20.730000000000405,1.154383e-05,20.730000000000405,6.298262e-06,20.730000000000405,1.263003e-05,20.730000000000405,2.187456e-05
20.745000000000406,1.132827e-05,20.745000000000406,6.273611e-06,20.745000000000406,1.270343e-05,20.745000000000406,2.076859e-05
20.760000000000407,1.168453e-05,20.760000000000407,6.269119e-06,20.760000000000407,1.2465e-05,20.760000000000407,2.054971e-05
20.775000000000407,1.154749e-05,20.775000000000407,6.33617e-06,20.775000000000407,1.261105e-05,20.775000000000407,2.087818e-05
20.790000000000408,1.097072e-05,20.790000000000408,6.2781e-06,20.790000000000408,1.266344e-05,20.790000000000408,2.073872e-05
20.80500000000041,1.149124e-05,20.80500000000041,5.500745e-06,20.80500000000041,1.263449e-05,20.80500000000041,1.865544e-05
20.82000000000041,1.252812e-05,20.82000000000041,5.321112e-06,20.82000000000041,1.262557e-05,20.82000000000041,2.059559e-05
20.83500000000041,1.223689e-05,20.83500000000041,4.485062e-06,20.83500000000041,1.255171e-05,20.83500000000041,2.116365e-05
20.85000000000041,1.318979e-05,20.85000000000041,4.756387e-06,20.85000000000041,1.227138e-05,20.85000000000041,2.128313e-05
20.86500000000041,1.330463e-05,20.86500000000041,4.893604e-06,20.86500000000041,1.239246e-05,20.86500000000041,2.123873e-05
20.88000000000041,1.377387e-05,20.88000000000041,4.627284e-06,20.88000000000041,1.244464e-05,20.88000000000041,2.165711e-05
20.89500000000041,1.411032e-05,20.89500000000041,4.696781e-06,20.89500000000041,1.126342e-05,20.89500000000041,2.132214e-05
20.910000000000412,1.423852e-05,20.910000000000412,4.75046e-06,20.910000000000412,1.100021e-05,20.910000000000412,2.078418e-05
20.925000000000413,1.502509e-05,20.925000000000413,4.553636e-06,20.925000000000413,1.08947e-05,20.925000000000413,2.111634e-05
20.940000000000413,1.512414e-05,20.940000000000413,4.887844e-06,20.940000000000413,1.018501e-05,20.940000000000413,2.127783e-05
20.955000000000414,1.485442e-05,20.955000000000414,4.925167e-06,20.955000000000414,1.017809e-05,20.955000000000414,2.158217e-05
20.970000000000415,1.478217e-05,20.970000000000415,4.887844e-06,20.970000000000415,1.009052e-05,20.970000000000415,2.281824e-05
20.985000000000415,1.484968e-05,20.985000000000415,5.315815e-06,20.985000000000415,1.077116e-05,20.985000000000415,2.254247e-05
21.000000000000416,1.491971e-05,21.000000000000416,5.350154e-06,21.000000000000416,1.079076e-05,21.000000000000416,2.257681e-05
21.015000000000416,1.484114e-05,21.015000000000416,5.219545e-06,21.015000000000416,1.169417e-05,21.015000000000416,2.318204e-05
21.030000000000417,1.479075e-05,21.030000000000417,5.118714e-06,21.030000000000417,1.175184e-05,21.030000000000417,2.467612e-05
21.045000000000417,1.463757e-05,21.045000000000417,5.096651e-06,21.045000000000417,1.202438e-05,21.045000000000417,2.756716e-05
21.060000000000418,1.348342e-05,21.060000000000418,5.12971e-06,21.060000000000418,1.184616e-05,21.060000000000418,2.806949e-05
21.07500000000042,1.314379e-05,21.07500000000042,5.113207e-06,21.07500000000042,1.194563e-05,21.07500000000042,2.680916e-05
21.09000000000042,1.2838e-05,21.09000000000042,5.230329e-06,21.09000000000042,1.171342e-05,21.09000000000042,2.75641e-05
21.10500000000042,1.22817e-05,21.10500000000042,5.052234e-06,21.10500000000042,1.189482e-05,21.10500000000042,2.857679e-05
21.12000000000042,1.236401e-05,21.12000000000042,4.982041e-06,21.12000000000042,1.159983e-05,21.12000000000042,2.944307e-05
21.13500000000042,1.322179e-05,21.13500000000042,5.251831e-06,21.13500000000042,1.181401e-05,21.13500000000042,2.974912e-05
21.15000000000042,1.342164e-05,21.15000000000042,5.281253e-06,21.15000000000042,1.179372e-05,21.15000000000042,3.15561e-05
21.165000000000422,1.280614e-05,21.165000000000422,5.523745e-06,21.165000000000422,1.18628e-05,21.165000000000422,3.137614e-05
21.180000000000422,1.241744e-05,21.180000000000422,5.475077e-06,21.180000000000422,1.195742e-05,21.180000000000422,3.119423e-05
21.195000000000423,1.310085e-05,21.195000000000423,5.275916e-06,21.195000000000423,1.189363e-05,21.195000000000423,3.02012e-05
21.210000000000424,1.414622e-05,21.210000000000424,5.410373e-06,21.210000000000424,1.153284e-05,21.210000000000424,2.961861e-05
21.225000000000424,1.428593e-05,21.225000000000424,5.444114e-06,21.225000000000424,1.126342e-05,21.225000000000424,2.92939e-05
21.240000000000425,1.406633e-05,21.240000000000425,5.386888e-06,21.240000000000425,1.087399e-05,21.240000000000425,2.979218e-05
21.255000000000425,1.426719e-05,21.255000000000425,5.392116e-06,21.255000000000425,1.123462e-05,21.255000000000425,3.051673e-05
21.270000000000426,1.536715e-05,21.270000000000426,5.407768e-06,21.270000000000426,1.020297e-05,21.270000000000426,2.84904e-05
21.285000000000426,1.663402e-05,21.285000000000426,5.48279e-06,21.285000000000426,1.056251e-05,21.285000000000426,2.861916e-05
21.300000000000427,1.685945e-05,21.300000000000427,5.969867e-06,21.300000000000427,1.05745e-05,21.300000000000427,2.598955e-05
21.315000000000428,1.69644e-05,21.315000000000428,6.009847e-06,21.315000000000428,1.158038e-05,21.315000000000428,2.511464e-05
21.330000000000428,1.722644e-05,21.330000000000428,6.595429e-06,21.330000000000428,1.133821e-05,21.330000000000428,2.581279e-05
21.34500000000043,1.724605e-05,21.34500000000043,6.614623e-06,21.34500000000043,1.122082e-05,21.34500000000043,2.579041e-05
21.36000000000043,1.764893e-05,21.36000000000043,6.673986e-06,21.36000000000043,1.147529e-05,21.36000000000043,2.72154e-05
21.37500000000043,1.69561e-05,21.37500000000043,6.665538e-06,21.37500000000043,1.160833e-05,21.37500000000043,2.702738e-05
21.39000000000043,1.58037e-05,21.39000000000043,6.541815e-06,21.39000000000043,1.303941e-05,21.39000000000043,2.612092e-05
21.40500000000043,1.605748e-05,21.40500000000043,6.141998e-06,21.40500000000043,1.504008e-05,21.40500000000043,2.442365e-05
21.42000000000043,1.615543e-05,21.42000000000043,6.144291e-06,21.42000000000043,1.584109e-05,21.42000000000043,2.63015e-05
21.435000000000432,1.647404e-05,21.435000000000432,6.369431e-06,21.435000000000432,2.035202e-05,21.435000000000432,2.880119e-05
21.450000000000433,1.599067e-05,21.450000000000433,6.298262e-06,21.450000000000433,2.029033e-05,21.450000000000433,2.989319e-05
21.465000000000433,1.560095e-05,21.465000000000433,6.086705e-06,21.465000000000433,2.039489e-05,21.465000000000433,3.038025e-05
21.480000000000434,1.682013e-05,21.480000000000434,6.03324e-06,21.480000000000434,2.048792e-05,21.480000000000434,3.12655e-05
21.495000000000434,1.739974e-05,21.495000000000434,5.943854e-06,21.495000000000434,2.08505e-05,21.495000000000434,3.169508e-05
21.510000000000435,1.658143e-05,21.510000000000435,5.993417e-06,21.510000000000435,2.179973e-05,21.510000000000435,3.143221e-05
21.525000000000436,1.605046e-05,21.525000000000436,5.862722e-06,21.525000000000436,2.198633e-05,21.525000000000436,3.138153e-05
21.540000000000436,1.499036e-05,21.540000000000436,5.659781e-06,21.540000000000436,2.252184e-05,21.540000000000436,3.106436e-05
21.555000000000437,1.564063e-05,21.555000000000437,5.402556e-06,21.555000000000437,2.192987e-05,21.555000000000437,3.141607e-05
21.570000000000437,1.569099e-05,21.570000000000437,5.157098e-06,21.570000000000437,2.19517e-05,21.570000000000437,3.170085e-05
21.585000000000438,1.574834e-05,21.585000000000438,4.36408e-06,21.585000000000438,2.215356e-05,21.585000000000438,3.108611e-05
21.60000000000044,1.566403e-05,21.60000000000044,4.27604e-06,21.60000000000044,2.23088e-05,21.60000000000044,3.106708e-05
21.61500000000044,1.528166e-05,21.61500000000044,4.450379e-06,21.61500000000044,2.27558e-05,21.61500000000044,3.099172e-05
21.63000000000044,1.542753e-05,21.63000000000044,4.687774e-06,21.63000000000044,2.279415e-05,21.63000000000044,3.119558e-05
21.64500000000044,1.5928e-05,21.64500000000044,4.519479e-06,21.64500000000044,2.247864e-05,21.64500000000044,3.229822e-05
21.66000000000044,1.555664e-05,21.66000000000044,4.503868e-06,21.66000000000044,2.103681e-05,21.66000000000044,3.325068e-05
21.67500000000044,1.577872e-05,21.67500000000044,4.556728e-06,21.67500000000044,1.992039e-05,21.67500000000044,3.245876e-05
21.690000000000442,1.544122e-05,21.690000000000442,4.29576e-06,21.690000000000442,1.764095e-05,21.690000000000442,3.161096e-05
21.705000000000442,1.569817e-05,21.705000000000442,4.38019e-06,21.705000000000442,1.779281e-05,21.705000000000442,3.241273e-05
21.720000000000443,1.579924e-05,21.720000000000443,4.562907e-06,21.720000000000443,1.786077e-05,21.720000000000443,3.322737e-05
21.735000000000444,1.462313e-05,21.735000000000444,4.593675e-06,21.735000000000444,1.823541e-05,21.735000000000444,3.22441e-05
21.750000000000444,1.660944e-05,21.750000000000444,4.428167e-06,21.750000000000444,1.632976e-05,21.750000000000444,3.200379e-05
21.765000000000445,1.809427e-05,21.765000000000445,4.478776e-06,21.765000000000445,1.669488e-05,21.765000000000445,3.223405e-05
21.780000000000445,1.875185e-05,21.780000000000445,4.541245e-06,21.780000000000445,1.625453e-05,21.780000000000445,3.535887e-05
21.795000000000446,1.802407e-05,21.795000000000446,4.522595e-06,21.795000000000446,1.63401e-05,21.795000000000446,3.581369e-05
21.810000000000446,1.797006e-05,21.810000000000446,4.491339e-06,21.810000000000446,1.687532e-05,21.810000000000446,3.60286e-05
21.825000000000447,1.839769e-05,21.825000000000447,4.605925e-06,21.825000000000447,1.694529e-05,21.825000000000447,3.536723e-05
21.840000000000447,1.854791e-05,21.840000000000447,4.621192e-06,21.840000000000447,1.657378e-05,21.840000000000447,3.650981e-05
21.855000000000448,1.856841e-05,21.855000000000448,4.525708e-06,21.855000000000448,1.664164e-05,21.855000000000448,3.530185e-05
21.87000000000045,1.843899e-05,21.87000000000045,4.334932e-06,21.87000000000045,1.582953e-05,21.87000000000045,3.432794e-05
21.88500000000045,1.939948e-05,21.88500000000045,4.242968e-06,21.88500000000045,1.644751e-05,21.88500000000045,3.366371e-05
21.90000000000045,2.034995e-05,21.90000000000045,4.334932e-06,21.90000000000045,1.858357e-05,21.90000000000045,3.329724e-05
21.91500000000045,2.016428e-05,21.91500000000045,4.331681e-06,21.91500000000045,2.183202e-05,21.91500000000045,3.211452e-05
21.93000000000045,2.019918e-05,21.93000000000045,4.624239e-06,21.93000000000045,2.571821e-05,21.93000000000045,3.310079e-05
21.94500000000045,2.081263e-05,21.94500000000045,4.605925e-06,21.94500000000045,2.578931e-05,21.94500000000045,3.474803e-05
21.960000000000452,2.077062e-05,21.960000000000452,4.654602e-06,21.960000000000452,2.612092e-05,21.960000000000452,3.467783e-05
21.975000000000453,2.135844e-05,21.975000000000453,4.633369e-06,21.975000000000453,2.64276e-05,21.975000000000453,3.482052e-05
21.990000000000453,2.105622e-05,21.990000000000453,4.687774e-06,21.990000000000453,2.769868e-05,21.990000000000453,3.546548e-05
22.005000000000454,1.948208e-05,22.005000000000454,4.708762e-06,22.005000000000454,2.79921e-05,22.005000000000454,3.659652e-05
22.020000000000454,1.886494e-05,22.020000000000454,4.79767e-06,22.020000000000454,2.782351e-05,22.020000000000454,3.558483e-05
22.035000000000455,1.847257e-05,22.035000000000455,4.838602e-06,22.035000000000455,2.772207e-05,22.035000000000455,3.324051e-05
22.050000000000455,1.871425e-05,22.050000000000455,4.945147e-06,22.050000000000455,2.735222e-05,22.050000000000455,3.497794e-05
22.065000000000456,1.934203e-05,22.065000000000456,5.350154e-06,22.065000000000456,2.732285e-05,22.065000000000456,3.459609e-05
22.080000000000457,1.909871e-05,22.080000000000457,6.205884e-06,22.080000000000457,2.731202e-05,22.080000000000457,3.77713e-05
22.095000000000457,1.917673e-05,22.095000000000457,6.665538e-06,22.095000000000457,2.737538e-05,22.095000000000457,3.807108e-05
22.110000000000458,1.939222e-05,22.110000000000458,7.542018e-06,22.110000000000458,2.752932e-05,22.110000000000458,3.966004e-05
22.12500000000046,1.892012e-05,22.12500000000046,7.586711e-06,22.12500000000046,2.74581e-05,22.12500000000046,3.987718e-05
22.14000000000046,1.796771e-05,22.14000000000046,8.007658e-06,22.14000000000046,2.629507e-05,22.14000000000046,3.991037e-05
22.15500000000046,1.833172e-05,22.15500000000046,8.1264e-06,22.15500000000046,2.647818e-05,22.15500000000046,3.915279e-05
22.17000000000046,1.845426e-05,22.17000000000046,8.082948e-06,22.17000000000046,2.168636e-05,22.17000000000046,3.857904e-05
22.18500000000046,1.834401e-05,22.18500000000046,8.065501e-06,22.18500000000046,1.903147e-05,22.18500000000046,3.850229e-05
22.20000000000046,1.783077e-05,22.20000000000046,8.093397e-06,22.20000000000046,1.923321e-05,22.20000000000046,3.671911e-05
22.21500000000046,1.831788e-05,22.21500000000046,8.046266e-06,22.21500000000046,1.908321e-05,22.21500000000046,3.587579e-05
22.230000000000462,1.732835e-05,22.230000000000462,7.910313e-06,22.230000000000462,1.816265e-05,22.230000000000462,3.476546e-05
22.245000000000463,1.759697e-05,22.245000000000463,8.014691e-06,22.245000000000463,1.678912e-05,22.245000000000463,3.372517e-05
22.260000000000463,1.716992e-05,22.260000000000463,7.919212e-06,22.260000000000463,1.735029e-05,22.260000000000463,3.519235e-05
22.275000000000464,1.767127e-05,22.275000000000464,8.03926e-06,22.275000000000464,1.734298e-05,22.275000000000464,3.558364e-05
22.290000000000465,1.804828e-05,22.290000000000465,8.063755e-06,22.290000000000465,1.727298e-05,22.290000000000465,3.552064e-05
22.305000000000465,1.711568e-05,22.305000000000465,7.908532e-06,22.305000000000465,1.761058e-05,22.305000000000465,3.429058e-05
22.320000000000466,1.721907e-05,22.320000000000466,7.804539e-06,22.320000000000466,1.758736e-05,22.320000000000466,3.589424e-05
22.335000000000466,1.712309e-05,22.335000000000466,6.981399e-06,22.335000000000466,1.767366e-05,22.335000000000466,3.257659e-05
22.350000000000467,1.637713e-05,22.350000000000467,6.582601e-06,22.350000000000467,1.9414e-05,22.350000000000467,3.252769e-05
22.365000000000467,1.634872e-05,22.365000000000467,5.753582e-06,22.365000000000467,2.181072e-05,22.365000000000467,3.267288e-05
22.380000000000468,1.793789e-05,22.380000000000468,5.682137e-06,22.380000000000468,2.208669e-05,22.380000000000468,3.306204e-05
22.39500000000047,1.975993e-05,22.39500000000047,5.195198e-06,22.39500000000047,2.031392e-05,22.39500000000047,3.378568e-05
22.41000000000047,2.069997e-05,22.41000000000047,4.962209e-06,22.41000000000047,2.022357e-05,22.41000000000047,3.349087e-05
22.42500000000047,2.071222e-05,22.42500000000047,4.93374e-06,22.42500000000047,2.058738e-05,22.42500000000047,3.545555e-05
22.44000000000047,2.065705e-05,22.44000000000047,4.645514e-06,22.44000000000047,2.143613e-05,22.44000000000047,3.495538e-05
22.45500000000047,2.044938e-05,22.45500000000047,4.753424e-06,22.45500000000047,2.162326e-05,22.45500000000047,3.48011e-05
22.47000000000047,2.176546e-05,22.47000000000047,4.73561e-06,22.47000000000047,2.173956e-05,22.47000000000047,3.488964e-05
22.485000000000472,2.184492e-05,22.485000000000472,4.581393e-06,22.485000000000472,2.171492e-05,22.485000000000472,3.53198e-05
22.500000000000473,2.196838e-05,22.500000000000473,4.572159e-06,22.500000000000473,2.195684e-05,22.500000000000473,3.593856e-05
22.515000000000473,2.164279e-05,22.515000000000473,4.431347e-06,22.515000000000473,2.200938e-05,22.515000000000473,3.35904e-05
22.530000000000474,2.193822e-05,22.530000000000474,4.409039e-06,22.530000000000474,2.190223e-05,22.530000000000474,3.271984e-05
22.545000000000474,2.188293e-05,22.545000000000474,4.453544e-06,22.545000000000474,2.195106e-05,22.545000000000474,3.556503e-05
22.560000000000475,2.216818e-05,22.560000000000475,4.354386e-06,22.560000000000475,2.205094e-05,22.560000000000475,3.561727e-05
22.575000000000475,2.224303e-05,22.575000000000475,4.325173e-06,22.575000000000475,2.20017e-05,22.575000000000475,3.297714e-05
22.590000000000476,2.38275e-05,22.590000000000476,4.236323e-06,22.590000000000476,2.085252e-05,22.590000000000476,3.677201e-05
22.605000000000476,2.386472e-05,22.605000000000476,4.189512e-06,22.605000000000476,2.017336e-05,22.605000000000476,3.635748e-05
22.620000000000477,2.409265e-05,22.620000000000477,4.196231e-06,22.620000000000477,1.719861e-05,22.620000000000477,3.856845e-05
22.635000000000478,2.278302e-05,22.635000000000478,4.282623e-06,22.635000000000478,1.745551e-05,22.635000000000478,3.719367e-05
22.650000000000478,2.013072e-05,22.650000000000478,4.447213e-06,22.650000000000478,1.83678e-05,22.650000000000478,3.78514e-05
22.66500000000048,2.045007e-05,22.66500000000048,4.412233e-06,22.66500000000048,1.881484e-05,22.66500000000048,4.345707e-05
22.68000000000048,2.08018e-05,22.68000000000048,4.373753e-06,22.68000000000048,1.878562e-05,22.68000000000048,4.234328e-05
22.69500000000048,2.071833e-05,22.69500000000048,4.440873e-06,22.69500000000048,1.75561e-05,22.69500000000048,4.333762e-05
22.71000000000048,2.046316e-05,22.71000000000048,4.541245e-06,22.71000000000048,1.718468e-05,22.71000000000048,4.394734e-05
22.72500000000048,2.05003e-05,22.72500000000048,4.596741e-06,22.72500000000048,1.673365e-05,22.72500000000048,4.319045e-05
22.74000000000048,2.226076e-05,22.74000000000048,4.541245e-06,22.74000000000048,1.680254e-05,22.74000000000048,4.320871e-05
22.755000000000482,2.255684e-05,22.755000000000482,4.472482e-06,22.755000000000482,1.698598e-05,22.755000000000482,4.299857e-05
22.770000000000483,2.436417e-05,22.770000000000483,4.572159e-06,22.770000000000483,1.610741e-05,22.770000000000483,4.345448e-05
22.785000000000483,2.403821e-05,22.785000000000483,4.478776e-06,22.785000000000483,1.659757e-05,22.785000000000483,4.313595e-05
22.800000000000484,2.380917e-05,22.800000000000484,4.516361e-06,22.800000000000484,1.655678e-05,22.800000000000484,4.098857e-05
22.815000000000484,2.435087e-05,22.815000000000484,4.516361e-06,22.815000000000484,1.624239e-05,22.815000000000484,4.136794e-05
22.830000000000485,2.353364e-05,22.830000000000485,4.488202e-06,22.830000000000485,1.632544e-05,22.830000000000485,4.092287e-05
22.845000000000486,2.276261e-05,22.845000000000486,4.636408e-06,22.845000000000486,1.617374e-05,22.845000000000486,3.800887e-05
22.860000000000486,2.324273e-05,22.860000000000486,4.73561e-06,22.860000000000486,1.734298e-05,22.860000000000486,3.563349e-05
22.875000000000487,2.275766e-05,22.875000000000487,4.651575e-06,22.875000000000487,1.74224e-05,22.875000000000487,3.442833e-05
22.890000000000487,2.312972e-05,22.890000000000487,4.777073e-06,22.890000000000487,1.680422e-05,22.890000000000487,3.489206e-05
22.905000000000488,2.338351e-05,22.905000000000488,5.12971e-06,22.905000000000488,1.659926e-05,22.905000000000488,3.142593e-05
22.92000000000049,2.407686e-05,22.92000000000049,5.487926e-06,22.92000000000049,1.515391e-05,22.92000000000049,2.689519e-05
22.93500000000049,2.380739e-05,22.93500000000049,6.068162e-06,22.93500000000049,1.570624e-05,22.93500000000049,2.857729e-05
22.95000000000049,2.370124e-05,22.95000000000049,6.098266e-06,22.95000000000049,1.594744e-05,22.95000000000049,2.959054e-05
22.96500000000049,2.313155e-05,22.96500000000049,6.098266e-06,22.96500000000049,1.642266e-05,22.96500000000049,2.998776e-05
22.98000000000049,2.243348e-05,22.98000000000049,6.214957e-06,22.98000000000049,1.640893e-05,22.98000000000049,3.002719e-05
22.99500000000049,2.150502e-05,22.99500000000049,6.242096e-06,22.99500000000049,1.568829e-05,22.99500000000049,3.01634e-05
23.010000000000492,2.097847e-05,23.010000000000492,6.282586e-06,23.010000000000492,1.585442e-05,23.010000000000492,3.054672e-05
23.025000000000492,2.123077e-05,23.025000000000492,6.210422e-06,23.025000000000492,1.574029e-05,23.025000000000492,3.071274e-05
23.040000000000493,2.161153e-05,23.040000000000493,6.194524e-06,23.040000000000493,1.512507e-05,23.040000000000493,3.24136e-05
23.055000000000494,2.310291e-05,23.055000000000494,6.093644e-06,23.055000000000494,1.50588e-05,23.055000000000494,3.152171e-05
23.070000000000494,2.336905e-05,23.070000000000494,6.217223e-06,23.070000000000494,1.526967e-05,23.070000000000494,3.125558e-05
23.085000000000495,2.343226e-05,23.085000000000495,6.178585e-06,23.085000000000495,1.550404e-05,23.085000000000495,3.376858e-05
23.100000000000495,2.358924e-05,23.100000000000495,6.313899e-06,23.100000000000495,1.526044e-05,23.100000000000495,3.571168e-05
23.115000000000496,2.330144e-05,23.115000000000496,6.340615e-06,23.115000000000496,1.458551e-05,23.115000000000496,3.817934e-05
23.130000000000496,2.399188e-05,23.130000000000496,6.413511e-06,23.130000000000496,1.498472e-05,23.130000000000496,3.813393e-05
23.145000000000497,2.380857e-05,23.145000000000497,6.153455e-06,23.145000000000497,1.526136e-05,23.145000000000497,3.722584e-05
23.160000000000498,2.377482e-05,23.160000000000498,5.877121e-06,23.160000000000498,1.474401e-05,23.160000000000498,3.624689e-05
23.175000000000498,2.338171e-05,23.175000000000498,5.402556e-06,23.175000000000498,1.479646e-05,23.175000000000498,3.718344e-05
23.1900000000005,2.407803e-05,23.1900000000005,5.060592e-06,23.1900000000005,1.445259e-05,23.1900000000005,3.510056e-05
23.2050000000005,2.439595e-05,23.2050000000005,4.838602e-06,23.2050000000005,1.519012e-05,23.2050000000005,3.403617e-05
23.2200000000005,2.390777e-05,23.2200000000005,4.69378e-06,23.2200000000005,1.531573e-05,23.2200000000005,3.35476e-05
23.2350000000005,2.510847e-05,23.2350000000005,4.459865e-06,23.2350000000005,1.524936e-05,23.2350000000005,3.340116e-05
23.2500000000005,2.456857e-05,23.2500000000005,4.618143e-06,23.2500000000005,1.552764e-05,23.2500000000005,3.289117e-05
23.2650000000005,2.674603e-05,23.2650000000005,4.717728e-06,23.2650000000005,1.651333e-05,23.2650000000005,3.380944e-05
23.280000000000502,2.741138e-05,23.280000000000502,4.711753e-06,23.280000000000502,1.68017e-05,23.280000000000502,3.556147e-05
23.295000000000503,2.730222e-05,23.295000000000503,4.68176e-06,23.295000000000503,1.700753e-05,23.295000000000503,3.435091e-05
23.310000000000503,2.620814e-05,23.310000000000503,4.516361e-06,23.310000000000503,1.804594e-05,23.310000000000503,3.52771e-05
23.325000000000504,2.61511e-05,23.325000000000504,1.482214e-05,23.325000000000504,1.810361e-05,23.325000000000504,3.535488e-05
23.340000000000504,2.673075e-05,23.340000000000504,1.638401e-05,23.340000000000504,1.77381e-05,23.340000000000504,3.109835e-05
23.355000000000505,2.595321e-05,23.355000000000505,1.81417e-05,23.355000000000505,1.837393e-05,23.355000000000505,3.040945e-05
23.370000000000505,2.665423e-05,23.370000000000505,1.843746e-05,23.370000000000505,1.853803e-05,23.370000000000505,3.002719e-05
23.385000000000506,2.632827e-05,23.385000000000506,1.840228e-05,23.385000000000506,1.833095e-05,23.385000000000506,3.123935e-05
23.400000000000507,2.617964e-05,23.400000000000507,1.8601e-05,23.400000000000507,1.784972e-05,23.400000000000507,3.409943e-05
23.415000000000507,2.653983e-05,23.415000000000507,1.864034e-05,23.415000000000507,1.787181e-05,23.415000000000507,3.451741e-05
23.430000000000508,2.594072e-05,23.430000000000508,1.866149e-05,23.430000000000508,1.812228e-05,23.430000000000508,3.321592e-05
23.44500000000051,2.607612e-05,23.44500000000051,1.866677e-05,23.44500000000051,1.775398e-05,23.44500000000051,3.372224e-05
23.46000000000051,2.611607e-05,23.46000000000051,1.871199e-05,23.46000000000051,1.708521e-05,23.46000000000051,3.557295e-05
23.47500000000051,2.624842e-05,23.47500000000051,1.871952e-05,23.47500000000051,1.819442e-05,23.47500000000051,3.690241e-05
23.49000000000051,2.528904e-05,23.49000000000051,1.869768e-05,23.49000000000051,1.876837e-05,23.49000000000051,3.730711e-05
23.50500000000051,2.448299e-05,23.50500000000051,1.873531e-05,23.50500000000051,1.764733e-05,23.50500000000051,3.780932e-05
23.52000000000051,2.042112e-05,23.52000000000051,1.872855e-05,23.52000000000051,1.770869e-05,23.52000000000051,3.540704e-05
23.53500000000051,2.106625e-05,23.53500000000051,1.874884e-05,23.53500000000051,1.73649e-05,23.53500000000051,3.468271e-05
23.550000000000512,1.992746e-05,23.550000000000512,1.876311e-05,23.550000000000512,1.722398e-05,23.550000000000512,3.400387e-05
23.565000000000513,1.994865e-05,23.565000000000513,1.881185e-05,23.565000000000513,1.689117e-05,23.565000000000513,3.38619e-05
23.580000000000513,2.002196e-05,23.580000000000513,1.173625e-05,23.580000000000513,1.676057e-05,23.580000000000513,3.422026e-05
23.595000000000514,2.066114e-05,23.595000000000514,8.971695e-06,23.595000000000514,1.690284e-05,23.595000000000514,3.491305e-05
23.610000000000515,2.092132e-05,23.610000000000515,6.413511e-06,23.610000000000515,1.612663e-05,23.610000000000515,3.55143e-05
23.625000000000515,2.01929e-05,23.625000000000515,6.293787e-06,23.625000000000515,1.63099e-05,23.625000000000515,3.362477e-05
23.640000000000516,2.024446e-05,23.640000000000516,6.185421e-06,23.640000000000516,1.634441e-05,23.640000000000516,3.217806e-05
23.655000000000516,1.959096e-05,23.655000000000516,6.030905e-06,23.655000000000516,1.708108e-05,23.655000000000516,2.998635e-05
23.670000000000517,1.973853e-05,23.670000000000517,5.939112e-06,23.670000000000517,1.719943e-05,23.670000000000517,3.111374e-05
23.685000000000517,1.964768e-05,23.685000000000517,5.995767e-06,23.685000000000517,1.909354e-05,23.685000000000517,3.000889e-05
23.700000000000518,1.890299e-05,23.700000000000518,5.962784e-06,23.700000000000518,1.954201e-05,23.700000000000518,2.929919e-05
23.71500000000052,1.879087e-05,23.71500000000052,5.93674e-06,23.71500000000052,1.960174e-05,23.71500000000052,2.650796e-05
23.73000000000052,2.076927e-05,23.73000000000052,5.967507e-06,23.73000000000052,1.842217e-05,23.73000000000052,2.655681e-05
23.74500000000052,2.185975e-05,23.74500000000052,6.116717e-06,23.74500000000052,1.817506e-05,23.74500000000052,2.560512e-05
23.76000000000052,2.166816e-05,23.76000000000052,6.340615e-06,23.76000000000052,1.813316e-05,23.76000000000052,2.483999e-05
23.77500000000052,2.234791e-05,23.77500000000052,6.726546e-06,23.77500000000052,1.784735e-05,23.77500000000052,2.493734e-05
23.79000000000052,2.212938e-05,23.79000000000052,8.340267e-06,23.79000000000052,1.771028e-05,23.79000000000052,2.477468e-05
23.805000000000522,2.2329e-05,23.805000000000522,8.721702e-06,23.805000000000522,1.796928e-05,23.805000000000522,2.486493e-05
23.820000000000523,2.214211e-05,23.820000000000523,8.886504e-06,23.820000000000523,1.759537e-05,23.820000000000523,2.424071e-05
23.835000000000523,2.154755e-05,23.835000000000523,9.191949e-06,23.835000000000523,1.785998e-05,23.835000000000523,2.268636e-05
23.850000000000524,2.051129e-05,23.850000000000524,9.231709e-06,23.850000000000524,1.819984e-05,23.850000000000524,2.213511e-05
23.865000000000524,2.050923e-05,23.865000000000524,8.992083e-06,23.865000000000524,1.772857e-05,23.865000000000524,2.147093e-05
23.880000000000525,2.079977e-05,23.880000000000525,8.930779e-06,23.880000000000525,1.750548e-05,23.880000000000525,2.088762e-05
23.895000000000525,2.135383e-05,23.895000000000525,9.269777e-06,23.895000000000525,1.786392e-05,23.895000000000525,2.055793e-05
23.910000000000526,2.138679e-05,23.910000000000526,9.321302e-06,23.910000000000526,1.744502e-05,23.910000000000526,1.998041e-05
23.925000000000527,2.113901e-05,23.925000000000527,9.448883e-06,23.925000000000527,1.674207e-05,23.925000000000527,1.953552e-05
23.940000000000527,2.149454e-05,23.940000000000527,9.438442e-06,23.940000000000527,1.520032e-05,23.940000000000527,2.022009e-05
23.955000000000528,2.13769e-05,23.955000000000528,9.389061e-06,23.955000000000528,1.410333e-05,23.955000000000528,2.002055e-05
23.970000000000528,1.958952e-05,23.970000000000528,9.39656e-06,23.970000000000528,1.430859e-05,23.970000000000528,1.983464e-05
23.98500000000053,1.888285e-05,23.98500000000053,9.265217e-06,23.98500000000053,1.415717e-05,23.98500000000053,2.057574e-05
24.00000000000053,1.86811e-05,24.00000000000053,9.1289e-06,24.00000000000053,1.4185e-05,24.00000000000053,2.092737e-05
24.01500000000053,1.815024e-05,24.01500000000053,8.715239e-06,24.01500000000053,1.43322e-05,24.01500000000053,2.178357e-05
24.03000000000053,1.812694e-05,24.03000000000053,8.410905e-06,24.03000000000053,1.493387e-05,24.03000000000053,2.185523e-05
24.04500000000053,1.727543e-05,24.04500000000053,6.391509e-06,24.04500000000053,1.424248e-05,24.04500000000053,2.281392e-05
24.06000000000053,1.758176e-05,24.06000000000053,6.33617e-06,24.06000000000053,1.477931e-05,24.06000000000053,2.35964e-05
24.075000000000532,1.804282e-05,24.075000000000532,6.132817e-06,24.075000000000532,1.489703e-05,24.075000000000532,2.467669e-05
24.090000000000533,1.837317e-05,24.090000000000533,5.018664e-06,24.090000000000533,1.482974e-05,24.090000000000533,2.453471e-05
24.105000000000533,1.880361e-05,24.105000000000533,4.936594e-06,24.105000000000533,1.50999e-05,24.105000000000533,2.451576e-05
24.120000000000534,1.901814e-05,24.120000000000534,4.882076e-06,24.120000000000534,1.504102e-05,24.120000000000534,2.431672e-05
24.135000000000534,1.876011e-05,24.135000000000534,4.896482e-06,24.135000000000534,1.520218e-05,24.135000000000534,2.432656e-05
24.150000000000535,1.808181e-05,24.150000000000535,4.266145e-06,24.150000000000535,1.486011e-05,24.150000000000535,2.433293e-05
24.165000000000536,1.803813e-05,24.165000000000536,4.262842e-06,24.165000000000536,1.448861e-05,24.165000000000536,2.312546e-05
24.180000000000536,1.757935e-05,24.180000000000536,4.338181e-06,24.180000000000536,1.385849e-05,24.180000000000536,2.351268e-05
24.195000000000537,1.865167e-05,24.195000000000537,4.648545e-06,24.195000000000537,1.353868e-05,24.195000000000537,2.375052e-05
24.210000000000537,2.005992e-05,24.210000000000537,4.654602e-06,24.210000000000537,1.482499e-05,24.210000000000537,2.407101e-05
24.225000000000538,1.996489e-05,24.225000000000538,4.639445e-06,24.225000000000538,1.470861e-05,24.225000000000538,2.41423e-05
