X[s],a: EMG RMS 1-1,X[s].1,a: EMG RMS 1-2,X[s].2,a: EMG RMS 1-3,X[s].3,a: EMG RMS 1-4
455.0099999997071,0.0001067862,455.0099999997071,0.0003277523,455.0099999997071,8.943388e-06,455.0099999997071,6.238688e-05
455.02499999970706,0.0001015953,455.02499999970706,0.0002889217,455.02499999970706,8.353768e-06,455.02499999970706,6.109482e-05
455.03999999970705,9.956134e-05,455.03999999970705,0.0002918455,455.03999999970705,8.277538e-06,455.03999999970705,5.837873e-05
455.05499999970704,9.911281e-05,455.05499999970704,0.0002858837,455.05499999970704,8.449338e-06,455.05499999970704,5.769401e-05
455.069999999707,9.977194e-05,455.069999999707,0.0002893538,455.069999999707,8.653601e-06,455.069999999707,5.777843e-05
455.084999999707,9.957988e-05,455.084999999707,0.0002904992,455.084999999707,8.21433e-06,455.084999999707,5.766397e-05
455.099999999707,9.960859e-05,455.099999999707,0.0002881644,455.099999999707,7.872827e-06,455.099999999707,5.793036e-05
455.114999999707,9.917547e-05,455.114999999707,0.0002857618,455.114999999707,7.967094e-06,455.114999999707,5.702874e-05
455.12999999970697,9.730292e-05,455.12999999970697,0.0002724733,455.12999999970697,7.534543e-06,455.12999999970697,5.509394e-05
455.14499999970695,9.661339e-05,455.14499999970695,0.0002703701,455.14499999970695,7.448044e-06,455.14499999970695,5.358309e-05
455.15999999970694,9.08235e-05,455.15999999970694,0.0002518524,455.15999999970694,7.279705e-06,455.15999999970694,4.936195e-05
455.1749999997069,8.821479e-05,455.1749999997069,0.0002490389,455.1749999997069,7.478244e-06,455.1749999997069,4.905335e-05
455.1899999997069,8.673909e-05,455.1899999997069,0.0002436973,455.1899999997069,7.325999e-06,455.1899999997069,4.382955e-05
455.2049999997069,8.517253e-05,455.2049999997069,0.0002337318,455.2049999997069,7.176414e-06,455.2049999997069,4.019665e-05
455.2199999997069,8.193588e-05,455.2199999997069,0.0002216677,455.2199999997069,6.853102e-06,455.2199999997069,3.570852e-05
455.2349999997069,8.424911e-05,455.2349999997069,0.0002204157,455.2349999997069,6.881819e-06,455.2349999997069,3.596403e-05
455.24999999970686,7.393983e-05,455.24999999970686,0.0002101236,455.24999999970686,6.809799e-06,455.24999999970686,2.959482e-05
455.26499999970684,6.922515e-05,455.26499999970684,0.0001828179,455.26499999970684,6.80773e-06,455.26499999970684,2.892759e-05
455.27999999970683,6.535309e-05,455.27999999970683,0.0001691024,455.27999999970683,7.156758e-06,455.27999999970683,2.875518e-05
455.2949999997068,6.787027e-05,455.2949999997068,0.0001678492,455.2949999997068,8.037508e-06,455.2949999997068,3.016153e-05
455.3099999997068,7.171033e-05,455.3099999997068,0.0001918986,455.3099999997068,7.942303e-06,455.3099999997068,3.146536e-05
455.3249999997068,7.401581e-05,455.3249999997068,0.0001909042,455.3249999997068,7.669811e-06,455.3249999997068,3.264096e-05
455.3399999997068,7.512374e-05,455.3399999997068,0.0001936662,455.3399999997068,7.733825e-06,455.3399999997068,3.407546e-05
455.35499999970676,7.683738e-05,455.35499999970676,0.0001949517,455.35499999970676,8.39414e-06,455.35499999970676,3.821659e-05
455.36999999970675,6.946951e-05,455.36999999970675,0.0001897629,455.36999999970675,8.296236e-06,455.36999999970675,3.769738e-05
455.38499999970674,6.821787e-05,455.38499999970674,0.0001761972,455.38499999970674,8.810087e-06,455.38499999970674,3.757762e-05
455.3999999997067,7.2329e-05,455.3999999997067,0.0001874748,455.3999999997067,9.411539e-06,455.3999999997067,3.743452e-05
455.4149999997067,7.153884e-05,455.4149999997067,0.0001864691,455.4149999997067,9.652426e-06,455.4149999997067,3.711898e-05
455.4299999997067,7.329902e-05,455.4299999997067,0.0001868572,455.4299999997067,9.336401e-06,455.4299999997067,3.693751e-05
455.4449999997067,7.459497e-05,455.4449999997067,0.0001934167,455.4449999997067,9.426494e-06,455.4449999997067,3.713302e-05
455.45999999970667,8.277725e-05,455.45999999970667,0.0002027467,455.45999999970667,9.898837e-06,455.45999999970667,3.828655e-05
455.47499999970665,8.639623e-05,455.47499999970665,0.0002051476,455.47499999970665,9.797278e-06,455.47499999970665,3.8763e-05
455.48999999970664,8.427101e-05,455.48999999970664,0.0002053733,455.48999999970664,9.825992e-06,455.48999999970664,4.032261e-05
455.5049999997066,8.423206e-05,455.5049999997066,0.0002070041,455.5049999997066,1.011562e-05,455.5049999997066,4.065072e-05
455.5199999997066,8.86155e-05,455.5199999997066,0.0002086144,455.5199999997066,1.027725e-05,455.5199999997066,4.147371e-05
455.5349999997066,9.104394e-05,455.5349999997066,0.0002184771,455.5349999997066,1.033057e-05,455.5349999997066,4.141763e-05
455.5499999997066,0.0001047592,455.5499999997066,0.0002224728,455.5499999997066,1.018639e-05,455.5499999997066,4.465294e-05
455.5649999997066,0.00011867,455.5649999997066,0.0002725194,455.5649999997066,1.044853e-05,455.5649999997066,4.691829e-05
455.57999999970656,0.0001221631,455.57999999970656,0.00027274,455.57999999970656,1.069109e-05,455.57999999970656,4.87347e-05
455.59499999970654,0.0001620729,455.59499999970654,0.0003332841,455.59499999970654,1.134567e-05,455.59499999970654,5.919607e-05
455.60999999970653,0.000186857,455.60999999970653,0.0003805746,455.60999999970653,1.171463e-05,455.60999999970653,6.037815e-05
455.6249999997065,0.0001878271,455.6249999997065,0.0003923803,455.6249999997065,1.238791e-05,455.6249999997065,7.018407e-05
455.6399999997065,0.0001918236,455.6399999997065,0.0004075198,455.6399999997065,1.211774e-05,455.6399999997065,7.414454e-05
455.6549999997065,0.0001924528,455.6549999997065,0.0004016059,455.6549999997065,1.169658e-05,455.6549999997065,7.507366e-05
455.6699999997065,0.0001920615,455.6699999997065,0.0004062021,455.6699999997065,1.164588e-05,455.6699999997065,7.842817e-05
455.68499999970646,0.000194395,455.68499999970646,0.0004058837,455.68499999970646,1.19586e-05,455.68499999970646,7.848599e-05
455.69999999970645,0.00019659,455.69999999970645,0.0004158755,455.69999999970645,1.194327e-05,455.69999999970645,7.896464e-05
455.71499999970644,0.0001942078,455.71499999970644,0.0004135992,455.71499999970644,1.166643e-05,455.71499999970644,7.838811e-05
455.7299999997064,0.0001943485,455.7299999997064,0.0004210624,455.7299999997064,1.188771e-05,455.7299999997064,7.801253e-05
455.7449999997064,0.0001945843,455.7449999997064,0.0004178669,455.7449999997064,1.309977e-05,455.7449999997064,7.755053e-05
455.7599999997064,0.0001945418,455.7599999997064,0.0004253354,455.7599999997064,1.296683e-05,455.7599999997064,7.725315e-05
455.7749999997064,0.0001925004,455.7749999997064,0.0004226431,455.7749999997064,1.29124e-05,455.7749999997064,7.694638e-05
455.78999999970637,0.0001917743,455.78999999970637,0.0004256301,455.78999999970637,1.302969e-05,455.78999999970637,7.695224e-05
455.80499999970635,0.0001789532,455.80499999970635,0.0004092065,455.80499999970635,1.343633e-05,455.80499999970635,7.408733e-05
455.81999999970634,0.0001718068,455.81999999970634,0.0003948874,455.81999999970634,1.335219e-05,455.81999999970634,7.365082e-05
455.8349999997063,0.0001603904,455.8349999997063,0.0004001149,455.8349999997063,1.38717e-05,455.8349999997063,6.919909e-05
455.8499999997063,0.0001110227,455.8499999997063,0.0003389059,455.8499999997063,1.294726e-05,455.8499999997063,5.904668e-05
455.8649999997063,8.666712e-05,455.8649999997063,0.000309318,455.8649999997063,1.329934e-05,455.8649999997063,5.604355e-05
455.8799999997063,8.651533e-05,455.8799999997063,0.0002968849,455.8799999997063,1.379431e-05,455.8799999997063,4.259371e-05
455.8949999997063,0.0001027092,455.8949999997063,0.0003004015,455.8949999997063,1.468657e-05,455.8949999997063,4.74212e-05
455.90999999970626,0.0001184071,455.90999999970626,0.0004226725,455.90999999970626,1.517064e-05,455.90999999970626,5.569687e-05
455.92499999970624,0.0001585224,455.92499999970624,0.0004339221,455.92499999970624,1.685193e-05,455.92499999970624,7.106369e-05
455.93999999970623,0.0001674342,455.93999999970623,0.0004356269,455.93999999970623,1.897959e-05,455.93999999970623,8.507854e-05
455.9549999997062,0.0001738787,455.9549999997062,0.0004510425,455.9549999997062,2.021172e-05,455.9549999997062,9.522246e-05
455.9699999997062,0.000183686,455.9699999997062,0.0004899389,455.9699999997062,2.134789e-05,455.9699999997062,0.0001002947
455.9849999997062,0.0001865976,455.9849999997062,0.0005041132,455.9849999997062,2.151877e-05,455.9849999997062,0.0001026613
455.9999999997062,0.0001874491,455.9999999997062,0.0005092067,455.9999999997062,2.080789e-05,455.9999999997062,0.0001025246
456.01499999970616,0.0001877442,456.01499999970616,0.0005172305,456.01499999970616,2.362266e-05,456.01499999970616,0.0001039654
456.02999999970615,0.0001947578,456.02999999970615,0.0005242458,456.02999999970615,2.507704e-05,456.02999999970615,0.000106728
456.04499999970614,0.0001948808,456.04499999970614,0.0005284453,456.04499999970614,2.495258e-05,456.04499999970614,0.0001070906
456.0599999997061,0.0001961501,456.0599999997061,0.0005324177,456.0599999997061,2.608315e-05,456.0599999997061,0.0001079177
456.0749999997061,0.0002068647,456.0749999997061,0.0005367919,456.0749999997061,3.024781e-05,456.0749999997061,0.000108141
456.0899999997061,0.0002091795,456.0899999997061,0.0005337282,456.0899999997061,4.00309e-05,456.0899999997061,0.000108087
456.1049999997061,0.0002108563,456.1049999997061,0.0005517281,456.1049999997061,4.718355e-05,456.1049999997061,0.0001082829
456.11999999970607,0.0002209187,456.11999999970607,0.0005681319,456.11999999970607,7.071235e-05,456.11999999970607,0.0001091063
456.13499999970605,0.0002261479,456.13499999970605,0.0007447923,456.13499999970605,9.491159e-05,456.13499999970605,0.0001113644
456.14999999970604,0.0002298356,456.14999999970604,0.0007990357,456.14999999970604,0.0001078469,456.14999999970604,0.0001083187
456.164999999706,0.0002155054,456.164999999706,0.0008325604,456.164999999706,0.0001193102,456.164999999706,9.932393e-05
456.179999999706,0.0002436003,456.179999999706,0.0008415869,456.179999999706,0.0001685554,456.179999999706,9.316298e-05
456.194999999706,0.0002474336,456.194999999706,0.0008633225,456.194999999706,0.0002122505,456.194999999706,8.452689e-05
456.209999999706,0.0002457606,456.209999999706,0.0008518333,456.209999999706,0.0002145043,456.209999999706,7.161048e-05
456.224999999706,0.0002554602,456.224999999706,0.00084106,456.224999999706,0.0002165417,456.224999999706,6.988477e-05
456.23999999970596,0.0002543373,456.23999999970596,0.000882677,456.23999999970596,0.0002170704,456.23999999970596,8.058862e-05
456.25499999970594,0.0002570209,456.25499999970594,0.0009034823,456.25499999970594,0.0002183641,456.25499999970594,8.053091e-05
456.26999999970593,0.0002535911,456.26999999970593,0.0009771868,456.26999999970593,0.0002186814,456.26999999970593,7.967059e-05
456.2849999997059,0.0002508561,456.2849999997059,0.0009873129,456.2849999997059,0.0002214292,456.2849999997059,7.724567e-05
456.2999999997059,0.000251787,456.2999999997059,0.0009905116,456.2999999997059,0.0002298728,456.2999999997059,7.87e-05
456.3149999997059,0.0002520691,456.3149999997059,0.00101391,456.3149999997059,0.0002352948,456.3149999997059,8.095486e-05
456.3299999997059,0.0002420382,456.3299999997059,0.001008714,456.3299999997059,0.0002346093,456.3299999997059,8.031617e-05
456.34499999970586,0.0002410676,456.34499999970586,0.001008237,456.34499999970586,0.0002466759,456.34499999970586,8.156713e-05
456.35999999970585,0.0002390659,456.35999999970585,0.001011684,456.35999999970585,0.0002658961,456.35999999970585,8.1616e-05
456.37499999970584,0.0002308051,456.37499999970584,0.0009899517,456.37499999970584,0.0002596637,456.37499999970584,7.990964e-05
456.3899999997058,0.0002228111,456.3899999997058,0.0008773942,456.3899999997058,0.0002708886,456.3899999997058,7.435532e-05
456.4049999997058,0.0002098558,456.4049999997058,0.0009684218,456.4049999997058,0.0002835274,456.4049999997058,7.352525e-05
456.4199999997058,0.0001898781,456.4199999997058,0.001036705,456.4199999997058,0.0002849878,456.4199999997058,7.200283e-05
456.4349999997058,0.0001438056,456.4349999997058,0.001029835,456.4349999997058,0.0002518611,456.4349999997058,6.913616e-05
456.44999999970577,0.0001335928,456.44999999970577,0.001024724,456.44999999970577,0.000235083,456.44999999970577,6.984586e-05
456.46499999970575,0.0001153537,456.46499999970575,0.001011907,456.46499999970575,0.0002379207,456.46499999970575,6.673269e-05
456.47999999970574,9.857067e-05,456.47999999970574,0.001008185,456.47999999970574,0.000239944,456.47999999970574,6.4215e-05
456.4949999997057,9.395e-05,456.4949999997057,0.0009585069,456.4949999997057,0.0002414309,456.4949999997057,4.831784e-05
456.5099999997057,8.905964e-05,456.5099999997057,0.0009033179,456.5099999997057,0.0002401202,456.5099999997057,4.892568e-05
456.5249999997057,8.960698e-05,456.5249999997057,0.0009184721,456.5249999997057,0.0002410451,456.5249999997057,4.6921e-05
456.5399999997057,8.815809e-05,456.5399999997057,0.000928064,456.5399999997057,0.0002431223,456.5399999997057,4.590025e-05
456.5549999997057,7.556441e-05,456.5549999997057,0.0009773626,456.5549999997057,0.0002407432,456.5549999997057,3.574637e-05
456.56999999970566,7.815775e-05,456.56999999970566,0.0009760296,456.56999999970566,0.0002386947,456.56999999970566,3.391552e-05
456.58499999970564,9.260746e-05,456.58499999970564,0.000972675,456.58499999970564,0.0002432082,456.58499999970564,3.35497e-05
456.59999999970563,0.0001014191,456.59999999970563,0.000979,456.59999999970563,0.0002254938,456.59999999970563,3.336107e-05
456.6149999997056,9.876812e-05,456.6149999997056,0.0009717857,456.6149999997056,0.0002062806,456.6149999997056,3.221743e-05
456.6299999997056,0.0001033725,456.6299999997056,0.0009685017,456.6299999997056,0.0002129718,456.6299999997056,3.214039e-05
456.6449999997056,0.0001342229,456.6449999997056,0.0009740021,456.6449999997056,0.0001976628,456.6449999997056,4.342789e-05
456.6599999997056,0.0001462732,456.6599999997056,0.0006948962,456.6599999997056,0.0001763894,456.6599999997056,4.658837e-05
456.67499999970556,0.0001471677,456.67499999970556,0.0006225877,456.67499999970556,0.0001782483,456.67499999970556,4.608402e-05
456.68999999970555,0.0001576754,456.68999999970555,0.0006256716,456.68999999970555,0.0001773653,456.68999999970555,4.781641e-05
456.70499999970554,0.0001640258,456.70499999970554,0.0006315631,456.70499999970554,0.0001719446,456.70499999970554,4.581423e-05
456.7199999997055,0.0001657038,456.7199999997055,0.0006334472,456.7199999997055,0.0001691922,456.7199999997055,4.582192e-05
456.7349999997055,0.0001655678,456.7349999997055,0.0006294156,456.7349999997055,0.0001662247,456.7349999997055,4.593583e-05
456.7499999997055,0.0001766736,456.7499999997055,0.0006141198,456.7499999997055,0.0001958348,456.7499999997055,5.582218e-05
456.7649999997055,0.0001845368,456.7649999997055,0.0006333998,456.7649999997055,0.0002749191,456.7649999997055,6.065538e-05
456.77999999970547,0.0001855689,456.77999999970547,0.0005564055,456.77999999970547,0.0003366009,456.77999999970547,6.524329e-05
456.79499999970545,0.00018677,456.79499999970545,0.0005280813,456.79499999970545,0.0003389137,456.79499999970545,6.624157e-05
456.80999999970544,0.0001868468,456.80999999970544,0.0004295445,456.80999999970544,0.000460661,456.80999999970544,6.646915e-05
456.8249999997054,0.0001863111,456.8249999997054,0.0003989153,456.8249999997054,0.0006244304,456.8249999997054,6.86136e-05
456.8399999997054,0.0001854188,456.8399999997054,0.0004530979,456.8399999997054,0.0007004721,456.8399999997054,7.051007e-05
456.8549999997054,0.0001825488,456.8549999997054,0.0004594601,456.8549999997054,0.0007081815,456.8549999997054,7.383306e-05
456.8699999997054,0.0001819694,456.8699999997054,0.0004625141,456.8699999997054,0.0007137234,456.8699999997054,7.477377e-05
456.88499999970537,0.0001774138,456.88499999970537,0.0004692908,456.88499999970537,0.0007306497,456.88499999970537,7.420038e-05
456.89999999970536,0.0001542955,456.89999999970536,0.0004536665,456.89999999970536,0.0007497237,456.89999999970536,6.626049e-05
456.91499999970534,0.000147453,456.91499999970534,0.000457339,456.91499999970534,0.0007624478,456.91499999970534,6.606142e-05
456.92999999970533,0.0001456332,456.92999999970533,0.0004611905,456.92999999970533,0.0007660594,456.92999999970533,6.632998e-05
456.9449999997053,0.0001542755,456.9449999997053,0.0004582697,456.9449999997053,0.0007665567,456.9449999997053,7.283226e-05
456.9599999997053,0.0001520234,456.9599999997053,0.0004731957,456.9599999997053,0.0007671061,456.9599999997053,7.717343e-05
456.9749999997053,0.0001616253,456.9749999997053,0.0004968484,456.9749999997053,0.0007677631,456.9749999997053,8.180615e-05
456.9899999997053,0.0001620058,456.9899999997053,0.0005054293,456.9899999997053,0.0007667593,456.9899999997053,8.37063e-05
457.00499999970526,0.000149498,457.00499999970526,0.0004761625,457.00499999970526,0.000751902,457.00499999970526,7.91738e-05
457.01999999970525,0.0001407008,457.01999999970525,0.0004582958,457.01999999970525,0.0007163003,457.01999999970525,7.472289e-05
457.03499999970524,0.0001414813,457.03499999970524,0.0004441984,457.03499999970524,0.0006796455,457.03499999970524,7.210585e-05
457.0499999997052,0.0001423799,457.0499999997052,0.0004371485,457.0499999997052,0.0006701206,457.0499999997052,7.166337e-05
457.0649999997052,0.0001442212,457.0649999997052,0.0004277974,457.0649999997052,0.0005821634,457.0649999997052,7.227854e-05
457.0799999997052,0.0001379173,457.0799999997052,0.0004124153,457.0799999997052,0.0004093219,457.0799999997052,6.94186e-05
457.0949999997052,0.0001302061,457.0949999997052,0.0003530099,457.0949999997052,0.0002760244,457.0949999997052,6.85565e-05
457.10999999970517,0.0001303817,457.10999999970517,0.000343152,457.10999999970517,0.0002542129,457.10999999970517,6.461913e-05
457.12499999970515,0.0001314368,457.12499999970515,0.0003393704,457.12499999970515,0.0002466174,457.12499999970515,6.504023e-05
457.13999999970514,0.0001318734,457.13999999970514,0.0003265686,457.13999999970514,0.0002127515,457.13999999970514,6.62069e-05
457.1549999997051,0.0001271373,457.1549999997051,0.0003240093,457.1549999997051,0.0001625529,457.1549999997051,6.598461e-05
457.1699999997051,0.0001271063,457.1699999997051,0.0003126206,457.1699999997051,0.0001165745,457.1699999997051,6.546142e-05
457.1849999997051,0.000126953,457.1849999997051,0.000308198,457.1849999997051,9.688653e-05,457.1849999997051,6.591519e-05
457.1999999997051,9.678092e-05,457.1999999997051,0.0002558785,457.1999999997051,9.301635e-05,457.1999999997051,5.433314e-05
457.21499999970507,8.944097e-05,457.21499999970507,0.0002343448,457.21499999970507,8.699758e-05,457.21499999970507,4.7925e-05
457.22999999970506,7.643833e-05,457.22999999970506,0.0001798124,457.22999999970506,7.923995e-05,457.22999999970506,4.072135e-05
457.24499999970504,9.411763e-05,457.24499999970504,0.0001602182,457.24499999970504,7.665456e-05,457.24499999970504,3.551033e-05
457.25999999970503,0.0001243629,457.25999999970503,0.0002258919,457.25999999970503,7.849873e-05,457.25999999970503,4.35888e-05
457.274999999705,0.0001311613,457.274999999705,0.0002348763,457.274999999705,8.032143e-05,457.274999999705,4.809576e-05
457.289999999705,0.0001992751,457.289999999705,0.0004400037,457.289999999705,7.140441e-05,457.289999999705,7.518541e-05
457.304999999705,0.0002145467,457.304999999705,0.0005132957,457.304999999705,5.91587e-05,457.304999999705,8.179168e-05
457.319999999705,0.000237024,457.319999999705,0.0005848898,457.319999999705,5.509496e-05,457.319999999705,9.282184e-05
457.33499999970496,0.0002369156,457.33499999970496,0.0005903567,457.33499999970496,5.687811e-05,457.33499999970496,9.273484e-05
457.34999999970495,0.0002515242,457.34999999970495,0.0006179385,457.34999999970495,5.709046e-05,457.34999999970495,9.935512e-05
457.36499999970493,0.0002566339,457.36499999970493,0.0006520972,457.36499999970493,5.626431e-05,457.36499999970493,0.000101044
457.3799999997049,0.0002568158,457.3799999997049,0.0006703613,457.3799999997049,5.556495e-05,457.3799999997049,0.0001021969
457.3949999997049,0.0002563527,457.3949999997049,0.0006701121,457.3949999997049,5.570243e-05,457.3949999997049,0.0001028705
457.4099999997049,0.0002949859,457.4099999997049,0.0007732289,457.4099999997049,5.446236e-05,457.4099999997049,0.0001256209
457.4249999997049,0.0003255254,457.4249999997049,0.0008474624,457.4249999997049,5.832562e-05,457.4249999997049,0.0001446569
457.43999999970487,0.0003307426,457.43999999970487,0.000875088,457.43999999970487,6.146583e-05,457.43999999970487,0.0001472262
457.45499999970485,0.000335166,457.45499999970485,0.0008895319,457.45499999970485,6.02228e-05,457.45499999970485,0.0001513875
457.46999999970484,0.0003436644,457.46999999970484,0.0009100412,457.46999999970484,5.709835e-05,457.46999999970484,0.0001558047
457.4849999997048,0.000347661,457.4849999997048,0.0009179144,457.4849999997048,5.432147e-05,457.4849999997048,0.0001576555
457.4999999997048,0.0003444428,457.4999999997048,0.0009481327,457.4999999997048,5.320053e-05,457.4999999997048,0.0001638587
457.5149999997048,0.0003437377,457.5149999997048,0.0009459074,457.5149999997048,5.113592e-05,457.5149999997048,0.0001656172
457.5299999997048,0.0003395652,457.5299999997048,0.0009361921,457.5299999997048,4.957807e-05,457.5299999997048,0.0001635928
457.54499999970477,0.0003033239,457.54499999970477,0.0008340853,457.54499999970477,4.915777e-05,457.54499999970477,0.0001550144
457.55999999970476,0.0002888315,457.55999999970476,0.0008103923,457.55999999970476,4.95161e-05,457.55999999970476,0.000149324
457.57499999970474,0.000283428,457.57499999970474,0.0007809717,457.57499999970474,4.711693e-05,457.57499999970474,0.0001475674
457.58999999970473,0.000281375,457.58999999970473,0.000775307,457.58999999970473,4.668985e-05,457.58999999970473,0.0001483153
457.6049999997047,0.0002725009,457.6049999997047,0.0007735581,457.6049999997047,4.633855e-05,457.6049999997047,0.000145829
457.6199999997047,0.0002683006,457.6199999997047,0.0007387883,457.6199999997047,4.621039e-05,457.6199999997047,0.0001447695
457.6349999997047,0.0002692514,457.6349999997047,0.0007388188,457.6349999997047,4.636347e-05,457.6349999997047,0.0001455088
457.6499999997047,0.0002719994,457.6499999997047,0.0007509045,457.6499999997047,4.570372e-05,457.6499999997047,0.0001457045
457.66499999970466,0.0002294826,457.66499999970466,0.0006332673,457.66499999970466,5.312422e-05,457.66499999970466,0.0001260387
457.67999999970465,0.000193155,457.67999999970465,0.0005969256,457.67999999970465,6.067233e-05,457.67999999970465,0.0001104371
457.69499999970463,0.0001872227,457.69499999970463,0.0006022063,457.69499999970463,6.102676e-05,457.69499999970463,0.0001090584
457.7099999997046,0.0001804141,457.7099999997046,0.0005824308,457.7099999997046,6.056102e-05,457.7099999997046,0.0001047572
457.7249999997046,0.0001648079,457.7249999997046,0.0005478216,457.7249999997046,6.439441e-05,457.7249999997046,9.788187e-05
457.7399999997046,0.0001483623,457.7399999997046,0.0005312948,457.7399999997046,6.881983e-05,457.7399999997046,8.909744e-05
457.7549999997046,0.0001302018,457.7549999997046,0.0004564245,457.7549999997046,7.042311e-05,457.7549999997046,7.742654e-05
457.76999999970457,0.0001281519,457.76999999970457,0.0004558301,457.76999999970457,7.002553e-05,457.76999999970457,7.576046e-05
457.78499999970455,0.0001245026,457.78499999970455,0.0004544836,457.78499999970455,7.013106e-05,457.78499999970455,7.333206e-05
457.79999999970454,0.000119558,457.79999999970454,0.0004527525,457.79999999970454,7.032343e-05,457.79999999970454,6.903482e-05
457.8149999997045,0.0001150317,457.8149999997045,0.0004448178,457.8149999997045,7.037468e-05,457.8149999997045,6.773273e-05
457.8299999997045,0.0001126562,457.8299999997045,0.0004420165,457.8299999997045,7.04561e-05,457.8299999997045,6.659915e-05
457.8449999997045,0.0001051094,457.8449999997045,0.0004238508,457.8449999997045,7.063183e-05,457.8449999997045,5.883326e-05
457.8599999997045,0.0001044092,457.8599999997045,0.0004108092,457.8599999997045,7.527379e-05,457.8599999997045,5.851683e-05
457.87499999970447,0.0001037612,457.87499999970447,0.0004085331,457.87499999970447,0.0002359518,457.87499999970447,5.599477e-05
457.88999999970446,9.813986e-05,457.88999999970446,0.0003836722,457.88999999970446,0.0003725291,457.88999999970446,5.217385e-05
457.90499999970444,8.617812e-05,457.90499999970444,0.0003454971,457.90499999970444,0.0004512317,457.90499999970444,4.870984e-05
457.91999999970443,8.174465e-05,457.91999999970443,0.0003343286,457.91999999970443,0.0006568573,457.91999999970443,4.0368e-05
457.9349999997044,5.686325e-05,457.9349999997044,0.0002204977,457.9349999997044,0.0007297011,457.9349999997044,2.354979e-05
457.9499999997044,7.123021e-05,457.9499999997044,0.0002367683,457.9499999997044,0.0007334282,457.9499999997044,1.967992e-05
457.9649999997044,7.4059e-05,457.9649999997044,0.0002416468,457.9649999997044,0.0007471632,457.9649999997044,2.300025e-05
457.9799999997044,7.63631e-05,457.9799999997044,0.0002399715,457.9799999997044,0.0007716423,457.9799999997044,2.341662e-05
457.99499999970436,8.169828e-05,457.99499999970436,0.0002871352,457.99499999970436,0.0007852882,457.99499999970436,2.635019e-05
458.00999999970435,8.424594e-05,458.00999999970435,0.0002896317,458.00999999970435,0.0007891907,458.00999999970435,2.667166e-05
458.02499999970433,8.415493e-05,458.02499999970433,0.0002896465,458.02499999970433,0.0007896545,458.02499999970433,2.665476e-05
458.0399999997043,8.380166e-05,458.0399999997043,0.0002883313,458.0399999997043,0.0007896848,458.0399999997043,2.690723e-05
458.0549999997043,8.403684e-05,458.0549999997043,0.0002873695,458.0549999997043,0.0007899583,458.0549999997043,2.711688e-05
458.0699999997043,8.411273e-05,458.0699999997043,0.0002876068,458.0699999997043,0.0007901835,458.0699999997043,2.711999e-05
458.0849999997043,8.427737e-05,458.0849999997043,0.0002875955,458.0849999997043,0.0007902159,458.0849999997043,2.709817e-05
458.09999999970427,8.418037e-05,458.09999999970427,0.0002890186,458.09999999970427,0.0007901486,458.09999999970427,2.713505e-05
458.11499999970425,8.425146e-05,458.11499999970425,0.0002886621,458.11499999970425,0.000786829,458.11499999970425,2.717188e-05
458.12999999970424,8.407739e-05,458.12999999970424,0.0002892274,458.12999999970424,0.0007192752,458.12999999970424,2.709245e-05
458.1449999997042,8.145688e-05,458.1449999997042,0.0002874753,458.1449999997042,0.0006731639,458.1449999997042,2.711791e-05
458.1599999997042,7.630054e-05,458.1599999997042,0.0002721071,458.1599999997042,0.0005883285,458.1599999997042,2.712311e-05
458.1749999997042,7.465651e-05,458.1749999997042,0.0002598305,458.1749999997042,0.0003701251,458.1749999997042,2.702633e-05
458.1899999997042,6.445127e-05,458.1899999997042,0.0002088637,458.1899999997042,0.0002595428,458.1899999997042,2.544508e-05
458.20499999970417,5.411101e-05,458.20499999970417,0.0002001231,458.20499999970417,0.0002535163,458.20499999970417,2.264099e-05
458.21999999970416,4.686872e-05,458.21999999970416,0.0001868915,458.21999999970416,0.0002157587,458.21999999970416,1.569188e-05
458.23499999970414,4.312256e-05,458.23499999970414,0.0001350972,458.23499999970414,0.0001403658,458.23499999970414,1.392946e-05
458.24999999970413,3.358243e-05,458.24999999970413,8.091013e-05,458.24999999970413,7.487826e-05,458.24999999970413,9.713527e-06
458.2649999997041,2.934579e-05,458.2649999997041,7.802751e-05,458.2649999997041,4.253281e-05,458.2649999997041,9.340927e-06
458.2799999997041,3.016247e-05,458.2799999997041,7.591111e-05,458.2799999997041,3.579363e-05,458.2799999997041,9.233234e-06
458.2949999997041,2.969936e-05,458.2949999997041,7.642801e-05,458.2949999997041,3.570576e-05,458.2949999997041,8.089915e-06
458.3099999997041,2.742987e-05,458.3099999997041,7.912004e-05,458.3099999997041,3.136985e-05,458.3099999997041,7.465047e-06
458.32499999970406,2.662144e-05,458.32499999970406,7.910562e-05,458.32499999970406,2.696424e-05,458.32499999970406,7.584854e-06
458.33999999970405,2.778298e-05,458.33999999970405,8.001921e-05,458.33999999970405,2.581661e-05,458.33999999970405,7.065636e-06
458.35499999970403,2.946364e-05,458.35499999970403,7.3822e-05,458.35499999970403,2.411019e-05,458.35499999970403,6.716067e-06
458.369999999704,3.261722e-05,458.369999999704,7.230075e-05,458.369999999704,2.097578e-05,458.369999999704,6.892046e-06
458.384999999704,3.336444e-05,458.384999999704,7.184104e-05,458.384999999704,1.878712e-05,458.384999999704,7.174451e-06
458.399999999704,3.31076e-05,458.399999999704,6.845513e-05,458.399999999704,1.771664e-05,458.399999999704,7.350954e-06
458.414999999704,3.321804e-05,458.414999999704,7.13381e-05,458.414999999704,1.777301e-05,458.414999999704,7.235062e-06
458.42999999970397,3.316711e-05,458.42999999970397,7.144899e-05,458.42999999970397,1.563342e-05,458.42999999970397,7.291306e-06
458.44499999970395,3.403865e-05,458.44499999970395,7.565235e-05,458.44499999970395,1.305021e-05,458.44499999970395,7.264208e-06
458.45999999970394,3.376232e-05,458.45999999970394,7.745892e-05,458.45999999970394,1.285226e-05,458.45999999970394,7.219469e-06
458.4749999997039,3.367794e-05,458.4749999997039,7.444223e-05,458.4749999997039,1.290367e-05,458.4749999997039,7.033664e-06
458.4899999997039,3.298611e-05,458.4899999997039,7.444053e-05,458.4899999997039,1.285992e-05,458.4899999997039,6.993494e-06
458.5049999997039,3.229342e-05,458.5049999997039,7.321729e-05,458.5049999997039,1.27134e-05,458.5049999997039,6.53104e-06
458.5199999997039,3.20737e-05,458.5199999997039,7.297852e-05,458.5199999997039,1.253149e-05,458.5199999997039,6.58688e-06
458.53499999970387,3.185069e-05,458.53499999970387,7.513499e-05,458.53499999970387,1.232521e-05,458.53499999970387,6.518086e-06
458.54999999970386,3.221962e-05,458.54999999970386,7.107717e-05,458.54999999970386,1.218266e-05,458.54999999970386,6.644371e-06
458.56499999970384,3.203019e-05,458.56499999970384,6.985675e-05,458.56499999970384,1.21096e-05,458.56499999970384,6.539662e-06
458.57999999970383,3.166439e-05,458.57999999970383,6.788459e-05,458.57999999970383,1.210494e-05,458.57999999970383,6.500773e-06
458.5949999997038,3.146446e-05,458.5949999997038,7.068227e-05,458.5949999997038,1.169898e-05,458.5949999997038,6.571893e-06
458.6099999997038,2.926215e-05,458.6099999997038,7.14409e-05,458.6099999997038,1.093213e-05,458.6099999997038,6.42229e-06
458.6249999997038,2.659179e-05,458.6249999997038,7.145746e-05,458.6249999997038,9.281926e-06,458.6249999997038,6.091332e-06
458.6399999997038,2.645104e-05,458.6399999997038,7.083159e-05,458.6399999997038,9.517214e-06,458.6399999997038,5.958057e-06
458.65499999970376,2.598304e-05,458.65499999970376,7.068965e-05,458.65499999970376,8.95598e-06,458.65499999970376,5.637336e-06
458.66999999970375,2.60988e-05,458.66999999970375,6.86887e-05,458.66999999970375,8.365563e-06,458.66999999970375,5.546649e-06
458.68499999970373,2.543068e-05,458.68499999970373,6.811309e-05,458.68499999970373,7.901403e-06,458.68499999970373,5.654801e-06
458.6999999997037,2.600147e-05,458.6999999997037,6.127647e-05,458.6999999997037,7.775606e-06,458.6999999997037,5.689569e-06
458.7149999997037,2.58869e-05,458.7149999997037,6.28671e-05,458.7149999997037,7.655103e-06,458.7149999997037,5.564399e-06
458.7299999997037,2.891103e-05,458.7299999997037,6.401749e-05,458.7299999997037,7.664298e-06,458.7299999997037,9.115002e-06
458.7449999997037,3.402085e-05,458.7449999997037,7.805026e-05,458.7449999997037,7.808148e-06,458.7449999997037,1.248871e-05
458.75999999970367,4.5064e-05,458.75999999970367,9.366575e-05,458.75999999970367,7.929877e-06,458.75999999970367,1.721744e-05
458.77499999970365,4.650605e-05,458.77499999970365,0.000105779,458.77499999970365,7.806343e-06,458.77499999970365,1.78655e-05
458.78999999970364,4.956841e-05,458.78999999970364,0.0001173924,458.78999999970364,7.442368e-06,458.78999999970364,2.023541e-05
458.8049999997036,4.920474e-05,458.8049999997036,0.000120766,458.8049999997036,7.188182e-06,458.8049999997036,2.040732e-05
458.8199999997036,4.974826e-05,458.8199999997036,0.0001220274,458.8199999997036,7.12124e-06,458.8199999997036,2.038315e-05
458.8349999997036,5.027246e-05,458.8349999997036,0.0001221607,458.8349999997036,6.96726e-06,458.8349999997036,2.047967e-05
458.8499999997036,5.020741e-05,458.8499999997036,0.0001211656,458.8499999997036,6.803591e-06,458.8499999997036,2.048792e-05
458.86499999970357,5.003174e-05,458.86499999970357,0.0001211883,458.86499999970357,7.077588e-06,458.86499999970357,2.049411e-05
458.87999999970356,5.001626e-05,458.87999999970356,0.0001208834,458.87999999970356,7.201887e-06,458.87999999970356,2.05106e-05
458.89499999970354,4.959938e-05,458.89499999970354,0.0001210429,458.89499999970354,6.631638e-06,458.89499999970354,2.054423e-05
458.90999999970353,4.964196e-05,458.90999999970353,0.0001202802,458.90999999970353,6.500773e-06,458.90999999970353,2.053531e-05
458.9249999997035,5.013047e-05,458.9249999997035,0.0001194744,458.9249999997035,6.474718e-06,458.9249999997035,2.056136e-05
458.9399999997035,5.011417e-05,458.9399999997035,0.0001195704,458.9399999997035,6.606099e-06,458.9399999997035,2.057574e-05
458.9549999997035,5.027918e-05,458.9549999997035,0.0001195143,458.9549999997035,6.642251e-06,458.9549999997035,2.057232e-05
458.9699999997035,5.088407e-05,458.9699999997035,0.0001180427,458.9699999997035,6.718165e-06,458.9699999997035,2.060448e-05
458.98499999970346,4.791677e-05,458.98499999970346,0.0001104022,458.98499999970346,6.537507e-06,458.98499999970346,1.788441e-05
458.99999999970345,4.306732e-05,458.99999999970345,0.0001033842,458.99999999970345,6.360578e-06,458.99999999970345,1.708768e-05
459.01499999970343,3.395785e-05,459.01499999970343,7.916419e-05,459.01499999970343,6.035575e-06,459.01499999970343,1.163015e-05
459.0299999997034,3.341212e-05,459.0299999997034,7.299898e-05,459.0299999997034,5.828986e-06,459.0299999997034,1.083506e-05
459.0449999997034,2.982526e-05,459.0449999997034,5.087909e-05,459.0449999997034,5.831403e-06,459.0449999997034,6.692956e-06
459.0599999997034,2.974012e-05,459.0599999997034,4.562506e-05,459.0599999997034,5.819312e-06,459.0599999997034,6.515924e-06
459.0749999997034,3.067695e-05,459.0749999997034,4.311243e-05,459.0749999997034,6.002811e-06,459.0749999997034,6.601833e-06
459.08999999970337,3.299636e-05,459.08999999970337,4.115148e-05,459.08999999970337,5.898653e-06,459.08999999970337,6.03324e-06
459.10499999970335,3.285346e-05,459.10499999970335,5.160812e-05,459.10499999970335,5.299891e-06,459.10499999970335,6.077441e-06
459.11999999970334,3.22751e-05,459.11999999970334,9.539731e-05,459.11999999970334,5.326404e-06,459.11999999970334,6.151165e-06
459.1349999997033,3.366957e-05,459.1349999997033,0.0001193304,459.1349999997033,5.760922e-06,459.1349999997033,5.993417e-06
459.1499999997033,3.351987e-05,459.1499999997033,0.0001201622,459.1499999997033,5.672212e-06,459.1499999997033,5.889093e-06
459.1649999997033,3.265994e-05,459.1649999997033,0.0001230303,459.1649999997033,5.60727e-06,459.1649999997033,5.946224e-06
459.1799999997033,3.212548e-05,459.1799999997033,0.0001232139,459.1799999997033,5.599728e-06,459.1799999997033,6.260124e-06
459.19499999970327,3.179846e-05,459.19499999970327,0.0001231519,459.19499999970327,5.56693e-06,459.19499999970327,6.189974e-06
459.20999999970326,3.075811e-05,459.20999999970326,0.0001232146,459.20999999970326,5.549188e-06,459.20999999970326,6.125922e-06
459.22499999970324,3.036402e-05,459.22499999970324,0.0001238528,459.22499999970324,5.451871e-06,459.22499999970324,6.54612e-06
459.23999999970323,2.978177e-05,459.23999999970323,0.0001257272,459.23999999970323,5.920107e-06,459.23999999970323,6.722357e-06
459.2549999997032,2.990073e-05,459.2549999997032,0.0001257115,459.2549999997032,6.174023e-06,459.2549999997032,6.591156e-06
459.2699999997032,3.026504e-05,459.2699999997032,0.0001274179,459.2699999997032,6.349495e-06,459.2699999997032,6.599699e-06
459.2849999997032,3.03617e-05,459.2849999997032,0.0001293662,459.2849999997032,6.446372e-06,459.2849999997032,6.625263e-06
459.2999999997032,3.030272e-05,459.2999999997032,0.0001296372,459.2999999997032,6.461651e-06,459.2999999997032,6.48993e-06
459.31499999970316,3.065628e-05,459.31499999970316,0.0001297216,459.31499999970316,6.402519e-06,459.31499999970316,6.737009e-06
459.32999999970315,2.702112e-05,459.32999999970315,0.0001301667,459.32999999970315,6.593293e-06,459.32999999970315,6.57832e-06
459.34499999970313,2.497854e-05,459.34499999970313,0.0001295174,459.34499999970313,7.217518e-06,459.34499999970313,6.597564e-06
459.3599999997031,2.511464e-05,459.3599999997031,0.000113992,459.3599999997031,7.434793e-06,459.3599999997031,6.384893e-06
459.3749999997031,2.599009e-05,459.3749999997031,7.947303e-05,459.3749999997031,6.938897e-06,459.3749999997031,6.351713e-06
459.3899999997031,2.605505e-05,459.3899999997031,6.555818e-05,459.3899999997031,7.142966e-06,459.3899999997031,6.417902e-06
459.4049999997031,2.655468e-05,459.4049999997031,6.372129e-05,459.4049999997031,7.184261e-06,459.4049999997031,6.428867e-06
459.41999999970307,2.695013e-05,459.41999999970307,6.533584e-05,459.41999999970307,7.40061e-06,459.41999999970307,6.289309e-06
459.43499999970305,2.747195e-05,459.43499999970305,6.9024e-05,459.43499999970305,7.498936e-06,459.43499999970305,6.539662e-06
459.44999999970304,2.71309e-05,459.44999999970304,7.620578e-05,459.44999999970304,7.487657e-06,459.44999999970304,6.688745e-06
459.464999999703,2.713557e-05,459.464999999703,7.757595e-05,459.464999999703,7.901403e-06,459.464999999703,7.101431e-06
459.479999999703,2.748733e-05,459.479999999703,8.031512e-05,459.479999999703,7.894269e-06,459.479999999703,6.533196e-06
459.494999999703,2.811963e-05,459.494999999703,7.798472e-05,459.494999999703,7.757469e-06,459.494999999703,6.541815e-06
459.509999999703,2.789026e-05,459.509999999703,7.759193e-05,459.509999999703,7.506446e-06,459.509999999703,6.667651e-06
459.52499999970297,2.731356e-05,459.52499999970297,7.392211e-05,459.52499999970297,7.540149e-06,459.52499999970297,7.027653e-06
459.53999999970296,2.711636e-05,459.53999999970296,7.236483e-05,459.53999999970296,7.495178e-06,459.53999999970296,7.033664e-06
459.55499999970294,2.611067e-05,459.55499999970294,7.319651e-05,459.55499999970294,7.871038e-06,459.55499999970294,7.129148e-06
459.56999999970293,2.563042e-05,459.56999999970293,7.510818e-05,459.56999999970293,8.122932e-06,459.56999999970293,6.987449e-06
459.5849999997029,2.72795e-05,459.5849999997029,7.452903e-05,459.5849999997029,7.549485e-06,459.5849999997029,7.00557e-06
459.5999999997029,2.756614e-05,459.5999999997029,7.362883e-05,459.5999999997029,7.897837e-06,459.5999999997029,7.029658e-06
459.6149999997029,2.747913e-05,459.6149999997029,7.41757e-05,459.6149999997029,7.833364e-06,459.6149999997029,7.067629e-06
459.6299999997029,2.577019e-05,459.6299999997029,7.380234e-05,459.6299999997029,8.023475e-06,459.6299999997029,7.059652e-06
459.64499999970286,2.430918e-05,459.64499999970286,7.34873e-05,459.64499999970286,8.058511e-06,459.64499999970286,6.940926e-06
459.65999999970285,2.38405e-05,459.65999999970285,7.370818e-05,459.65999999970285,8.018206e-06,459.65999999970285,6.957143e-06
459.67499999970283,2.364828e-05,459.67499999970283,6.840778e-05,459.67499999970283,8.314893e-06,459.67499999970283,7.075597e-06
459.6899999997028,2.372263e-05,459.6899999997028,7.119242e-05,459.6899999997028,9.277373e-06,459.6899999997028,6.601833e-06
459.7049999997028,2.43555e-05,459.7049999997028,6.6126e-05,459.7049999997028,9.429483e-06,459.7049999997028,6.358363e-06
459.7199999997028,2.46367e-05,459.7199999997028,6.647e-05,459.7199999997028,9.013988e-06,459.7199999997028,6.08439e-06
459.7349999997028,2.468354e-05,459.7349999997028,6.642484e-05,459.7349999997028,8.902342e-06,459.7349999997028,6.007502e-06
459.74999999970277,2.466641e-05,459.74999999970277,7.274362e-05,459.74999999970277,8.892842e-06,459.74999999970277,6.002811e-06
459.76499999970275,2.409675e-05,459.76499999970275,7.573461e-05,459.76499999970275,9.248478e-06,459.76499999970275,5.889093e-06
459.77999999970274,2.41965e-05,459.77999999970274,7.828508e-05,459.77999999970274,9.088692e-06,459.77999999970274,5.490492e-06
459.7949999997027,2.437515e-05,459.7949999997027,7.96262e-05,459.7949999997027,9.313742e-06,459.7949999997027,5.433755e-06
459.8099999997027,2.509837e-05,459.8099999997027,8.284665e-05,459.8099999997027,8.929201e-06,459.8099999997027,6.824264e-06
459.8249999997027,2.499432e-05,459.8249999997027,8.038174e-05,459.8249999997027,8.59316e-06,459.8249999997027,6.953093e-06
459.8399999997027,2.474168e-05,459.8399999997027,7.998487e-05,459.8399999997027,8.548785e-06,459.8399999997027,6.94904e-06
459.85499999970267,2.465328e-05,459.85499999970267,7.981368e-05,459.85499999970267,8.612809e-06,459.85499999970267,6.924671e-06
459.86999999970266,2.446399e-05,459.86999999970266,7.899407e-05,459.86999999970266,9.420515e-06,459.86999999970266,6.871577e-06
459.88499999970264,2.435781e-05,459.88499999970264,7.851183e-05,459.88499999970264,9.239335e-06,459.88499999970264,7.075597e-06
459.89999999970263,2.46921e-05,459.89999999970263,7.918198e-05,459.89999999970263,9.21185e-06,459.89999999970263,7.391086e-06
459.9149999997026,2.483261e-05,459.9149999997026,7.765926e-05,459.9149999997026,9.108818e-06,459.9149999997026,7.493299e-06
459.9299999997026,2.443172e-05,459.9299999997026,7.548738e-05,459.9299999997026,8.58496e-06,459.9299999997026,7.735647e-06
459.9449999997026,2.34845e-05,459.9449999997026,7.080314e-05,459.9449999997026,8.296236e-06,459.9449999997026,7.660622e-06
459.9599999997026,2.626881e-05,459.9599999997026,6.913902e-05,459.9599999997026,8.703918e-06,459.9599999997026,8.226325e-06
459.97499999970256,2.644784e-05,459.97499999970256,7.873078e-05,459.97499999970256,9.529049e-06,459.97499999970256,8.265616e-06
459.98999999970255,3.10766e-05,459.98999999970255,7.544034e-05,459.98999999970255,9.983855e-06,459.98999999970255,8.299631e-06
460.00499999970253,3.645382e-05,460.00499999970253,7.331227e-05,460.00499999970253,9.853194e-06,460.00499999970253,1.041612e-05
460.0199999997025,9.047183e-05,460.0199999997025,0.0001886579,460.0199999997025,1.13779e-05,460.0199999997025,3.81834e-05
460.0349999997025,0.0001332484,460.0349999997025,0.0002801713,460.0349999997025,1.219538e-05,460.0349999997025,5.733692e-05
460.0499999997025,0.0001502191,460.0499999997025,0.0003186506,460.0499999997025,1.280944e-05,460.0499999997025,6.268422e-05
460.0649999997025,0.0001527534,460.0649999997025,0.0003231615,460.0649999997025,1.291676e-05,460.0649999997025,6.382157e-05
460.07999999970247,0.0001585297,460.07999999970247,0.0003336833,460.07999999970247,1.300155e-05,460.07999999970247,6.783353e-05
460.09499999970245,0.0001613076,460.09499999970245,0.0003495443,460.09499999970245,1.331627e-05,460.09499999970245,6.84508e-05
460.10999999970244,0.0001613435,460.10999999970244,0.0003640624,460.10999999970244,1.360097e-05,460.10999999970244,6.85715e-05
460.1249999997024,0.0001630068,460.1249999997024,0.0004037491,460.1249999997024,1.387881e-05,460.1249999997024,6.880181e-05
460.1399999997024,0.0001636819,460.1399999997024,0.0004434795,460.1399999997024,1.422467e-05,460.1399999997024,6.906645e-05
460.1549999997024,0.0001637682,460.1549999997024,0.0004538443,460.1549999997024,1.417407e-05,460.1549999997024,6.917059e-05
460.1699999997024,0.0001644212,460.1699999997024,0.0004577166,460.1699999997024,1.80272e-05,460.1699999997024,6.919299e-05
460.18499999970237,0.000168521,460.18499999970237,0.0004631701,460.18499999970237,3.592444e-05,460.18499999970237,6.949648e-05
460.19999999970236,0.0001740903,460.19999999970236,0.0004803781,460.19999999970236,8.168242e-05,460.19999999970236,6.981035e-05
460.21499999970234,0.0001742164,460.21499999970234,0.0004909403,460.21499999970234,0.0003342689,460.21499999970234,6.978492e-05
460.22999999970233,0.0001738588,460.22999999970233,0.0004951036,460.22999999970233,0.0004147594,460.22999999970233,6.990291e-05
460.2449999997023,0.0001755359,460.2449999997023,0.0004959487,460.2449999997023,0.0008095487,460.2449999997023,7.095597e-05
460.2599999997023,0.0001645293,460.2599999997023,0.0004990667,460.2599999997023,0.00104667,460.2599999997023,6.314501e-05
460.2749999997023,0.0001485382,460.2749999997023,0.0004753968,460.2749999997023,0.001063413,460.2749999997023,5.581763e-05
460.2899999997023,0.0001158025,460.2899999997023,0.0004340603,460.2899999997023,0.001159525,460.2899999997023,3.670069e-05
460.30499999970226,0.0001098282,460.30499999970226,0.0004226748,460.30499999970226,0.001237484,460.30499999970226,3.542971e-05
460.31999999970225,0.0001056164,460.31999999970225,0.0004195566,460.31999999970225,0.001259538,460.31999999970225,3.066776e-05
460.33499999970223,9.763215e-05,460.33499999970223,0.0004098635,460.33499999970223,0.001260853,460.33499999970223,2.529349e-05
460.3499999997022,0.0001010827,460.3499999997022,0.0003920235,460.3499999997022,0.001263033,460.3499999997022,2.438613e-05
460.3649999997022,0.0001015181,460.3649999997022,0.0003848471,460.3649999997022,0.001267843,460.3649999997022,2.411895e-05
460.3799999997022,9.890195e-05,460.3799999997022,0.0003226894,460.3799999997022,0.001272135,460.3799999997022,2.34791e-05
460.3949999997022,9.8386e-05,460.3949999997022,0.0003099919,460.3949999997022,0.001276049,460.3949999997022,2.297206e-05
460.40999999970217,9.870534e-05,460.40999999970217,0.0003088398,460.40999999970217,0.001284688,460.40999999970217,2.244666e-05
460.42499999970215,9.735082e-05,460.42499999970215,0.0002992682,460.42499999970215,0.001287069,460.42499999970215,2.248365e-05
460.43999999970214,8.835186e-05,460.43999999970214,0.0002940474,460.43999999970214,0.001291079,460.43999999970214,2.159131e-05
460.4549999997021,7.550847e-05,460.4549999997021,0.0002608644,460.4549999997021,0.001281915,460.4549999997021,2.043353e-05
460.4699999997021,7.394402e-05,460.4699999997021,0.0002530636,460.4699999997021,0.00121776,460.4699999997021,2.030421e-05
460.4849999997021,7.422278e-05,460.4849999997021,0.0002712912,460.4849999997021,0.001187349,460.4849999997021,1.925444e-05
460.4999999997021,7.130748e-05,460.4999999997021,0.0002785135,460.4999999997021,0.0008811454,460.4999999997021,1.533135e-05
460.51499999970207,6.621605e-05,460.51499999970207,0.0003247638,460.51499999970207,0.0006948271,460.51499999970207,1.255508e-05
460.52999999970206,6.186651e-05,460.52999999970206,0.0003096356,460.52999999970206,0.0006651576,460.52999999970206,1.21711e-05
460.54499999970204,5.872157e-05,460.54499999970204,0.0003145668,460.54499999970204,0.0005136527,460.54499999970204,1.07082e-05
460.55999999970203,5.471164e-05,460.55999999970203,0.0003362787,460.55999999970203,0.0003709289,460.55999999970203,9.520175e-06
460.574999999702,5.462017e-05,460.574999999702,0.0003387719,460.574999999702,0.0003220907,460.574999999702,9.448883e-06
460.589999999702,5.067213e-05,460.589999999702,0.0003417879,460.589999999702,0.0003225891,460.589999999702,9.745379e-06
460.604999999702,5.072881e-05,460.604999999702,0.0003466209,460.604999999702,0.0003331066,460.604999999702,1.036596e-05
460.619999999702,5.906171e-05,460.619999999702,0.0003727,460.619999999702,0.0003306428,460.619999999702,1.009331e-05
460.63499999970196,6.056381e-05,460.63499999970196,0.0003955818,460.63499999970196,0.0003213443,460.63499999970196,1.084155e-05
460.64999999970195,6.322705e-05,460.64999999970195,0.0003906566,460.64999999970195,0.0003240986,460.64999999970195,1.077639e-05
460.66499999970193,7.289297e-05,460.66499999970193,0.0004095147,460.66499999970193,0.0003051748,460.66499999970193,1.118309e-05
460.6799999997019,8.055924e-05,460.6799999997019,0.0004299513,460.6799999997019,0.0003050684,460.6799999997019,1.109711e-05
460.6949999997019,8.085056e-05,460.6949999997019,0.0004268675,460.6949999997019,0.0002970051,460.6949999997019,1.094629e-05
460.7099999997019,8.507953e-05,460.7099999997019,0.0004267857,460.7099999997019,0.0003265001,460.7099999997019,1.36774e-05
460.7249999997019,9.367958e-05,460.7249999997019,0.0004271127,460.7249999997019,0.0003759377,460.7249999997019,1.734704e-05
460.73999999970187,9.480154e-05,460.73999999970187,0.0004282298,460.73999999970187,0.0004193875,460.73999999970187,1.785051e-05
460.75499999970185,9.300635e-05,460.75499999970185,0.0004146678,460.75499999970185,0.0004639314,460.75499999970185,1.778014e-05
460.76999999970184,9.218363e-05,460.76999999970184,0.0003734238,460.76999999970184,0.001327858,460.76999999970184,1.853575e-05
460.7849999997018,0.0001011791,460.7849999997018,0.0003967381,460.7849999997018,0.001649459,460.7849999997018,2.651593e-05
460.7999999997018,0.0001207327,460.7999999997018,0.0004296296,460.7999999997018,0.002141504,460.7999999997018,3.190902e-05
460.8149999997018,0.0001408982,460.8149999997018,0.0004259735,460.8149999997018,0.002511899,460.8149999997018,3.227641e-05
460.8299999997018,0.0001450821,460.8299999997018,0.0004220798,460.8299999997018,0.002599747,460.8299999997018,3.312291e-05
460.84499999970177,0.0001764821,460.84499999970177,0.000424691,460.84499999970177,0.002609005,460.84499999970177,3.777428e-05
460.85999999970176,0.0002068467,460.85999999970176,0.0004286114,460.85999999970176,0.002659851,460.85999999970176,3.937022e-05
460.87499999970174,0.0002081086,460.87499999970174,0.0004016569,460.87499999970174,0.002710715,460.87499999970174,3.946456e-05
460.88999999970173,0.0002097376,460.88999999970173,0.0003819549,460.88999999970173,0.002733601,460.88999999970173,3.938954e-05
460.9049999997017,0.000211533,460.9049999997017,0.0003769401,460.9049999997017,0.002740061,460.9049999997017,3.940849e-05
460.9199999997017,0.000208719,460.9199999997017,0.0003498176,460.9199999997017,0.00274119,460.9199999997017,3.961029e-05
460.9349999997017,0.0002070831,460.9349999997017,0.0003312514,460.9349999997017,0.002741167,460.9349999997017,3.965436e-05
460.9499999997017,0.000207024,460.9499999997017,0.0003318147,460.9499999997017,0.002740323,460.9499999997017,3.955833e-05
460.96499999970166,0.0002051188,460.96499999970166,0.0003354406,460.96499999970166,0.00273636,460.96499999970166,3.832517e-05
460.97999999970165,0.0002022268,460.97999999970165,0.0003330958,460.97999999970165,0.002728567,460.97999999970165,3.706277e-05
460.99499999970163,0.0002019145,460.99499999970163,0.000328812,460.99499999970163,0.002719693,460.99499999970163,3.70487e-05
461.0099999997016,0.0002016802,461.0099999997016,0.0003163517,461.0099999997016,0.00264229,461.0099999997016,3.701941e-05
461.0249999997016,0.0002017956,461.0249999997016,0.000309964,461.0249999997016,0.002240601,461.0249999997016,3.588874e-05
461.0399999997016,0.0001957268,461.0399999997016,0.0002651487,461.0399999997016,0.002017461,461.0399999997016,2.945408e-05
461.0549999997016,0.0001809212,461.0549999997016,0.0002192083,461.0549999997016,0.001546751,461.0549999997016,2.442769e-05
461.06999999970157,0.0001627687,461.06999999970157,0.0002142752,461.06999999970157,0.0008636478,461.06999999970157,2.370183e-05
461.08499999970155,0.0001582865,461.08499999970155,0.0002111884,461.08499999970155,0.0006801319,461.08499999970155,2.149585e-05
461.09999999970154,0.0001141496,461.09999999970154,0.0001989833,461.09999999970154,0.0006602664,461.09999999970154,1.360822e-05
461.1149999997015,6.711263e-05,461.1149999997015,0.0001680807,461.1149999997015,0.0005229975,461.1149999997015,1.154993e-05
461.1299999997015,6.398249e-05,461.1299999997015,0.0001653663,461.1299999997015,0.0003491289,461.1299999997015,1.09938e-05
461.1449999997015,5.511618e-05,461.1449999997015,0.0001649335,461.1449999997015,0.0002110966,461.1449999997015,1.070952e-05
461.1599999997015,4.753632e-05,461.1599999997015,0.0001668383,461.1599999997015,0.0001128876,461.1599999997015,1.019054e-05
461.17499999970147,4.638413e-05,461.17499999970147,0.0001711053,461.17499999970147,5.818827e-05,461.17499999970147,8.385746e-06
461.18999999970146,4.557192e-05,461.18999999970146,0.0001756198,461.18999999970146,4.175602e-05,461.18999999970146,7.799122e-06
461.20499999970144,5.49457e-05,461.20499999970144,0.0001665197,461.20499999970144,4.838194e-05,461.20499999970144,8.373978e-06
461.21999999970143,6.060706e-05,461.21999999970143,0.0001833286,461.21999999970143,5.9714e-05,461.21999999970143,8.45767e-06
461.2349999997014,6.695733e-05,461.2349999997014,0.0002108569,461.2349999997014,6.564258e-05,461.2349999997014,7.483893e-06
461.2499999997014,6.97209e-05,461.2499999997014,0.0002155755,461.2499999997014,6.63406e-05,461.2499999997014,6.987449e-06
461.2649999997014,6.898359e-05,461.2649999997014,0.000214163,461.2649999997014,6.281689e-05,461.2649999997014,7.324076e-06
461.2799999997014,7.358653e-05,461.2799999997014,0.0002167214,461.2799999997014,6.10076e-05,461.2799999997014,8.547137e-06
461.29499999970136,7.656906e-05,461.29499999970136,0.0002217713,461.29499999970136,6.033567e-05,461.29499999970136,9.348464e-06
461.30999999970135,7.783483e-05,461.30999999970135,0.00022474,461.30999999970135,5.85866e-05,461.30999999970135,9.42201e-06
461.32499999970133,7.804936e-05,461.32499999970133,0.0002425214,461.32499999970133,5.882368e-05,461.32499999970133,9.583589e-06
461.3399999997013,7.757559e-05,461.3399999997013,0.0002442824,461.3399999997013,5.954415e-05,461.3399999997013,1.045258e-05
461.3549999997013,7.795003e-05,461.3549999997013,0.0002563225,461.3549999997013,6.170874e-05,461.3549999997013,1.089728e-05
461.3699999997013,7.701793e-05,461.3699999997013,0.0002738334,461.3699999997013,6.226121e-05,461.3699999997013,1.096943e-05
461.3849999997013,7.772888e-05,461.3849999997013,0.0002812109,461.3849999997013,9.833215e-05,461.3849999997013,1.114524e-05
461.39999999970127,7.835701e-05,461.39999999970127,0.0002797964,461.39999999970127,0.0002676693,461.39999999970127,1.115156e-05
461.41499999970125,7.826132e-05,461.41499999970125,0.0002857668,461.41499999970125,0.0005371412,461.41499999970125,1.116923e-05
461.42999999970124,7.719733e-05,461.42999999970124,0.000324397,461.42999999970124,0.0005814675,461.42999999970124,1.163015e-05
461.4449999997012,7.761172e-05,461.4449999997012,0.000335538,461.4449999997012,0.001274636,461.4449999997012,1.494235e-05
461.4599999997012,7.114116e-05,461.4599999997012,0.000346817,461.4599999997012,0.001811781,461.4599999997012,1.637799e-05
461.4749999997012,6.343569e-05,461.4749999997012,0.0003583793,461.4749999997012,0.0020655,461.4749999997012,1.8274e-05
461.4899999997012,6.171445e-05,461.4899999997012,0.0003365942,461.4899999997012,0.00248208,461.4899999997012,2.467098e-05
461.50499999970117,6.414521e-05,461.50499999970117,0.0006866041,461.50499999970117,0.002765741,461.50499999970117,2.672442e-05
461.51999999970116,7.159572e-05,461.51999999970116,0.0008702383,461.51999999970116,0.002784921,461.51999999970116,2.745913e-05
461.53499999970114,6.724305e-05,461.53499999970114,0.001169501,461.53499999970114,0.0028301,461.53499999970114,2.735222e-05
461.54999999970113,6.55801e-05,461.54999999970113,0.001231641,461.54999999970113,0.002890287,461.54999999970113,2.72392e-05
461.5649999997011,6.636076e-05,461.5649999997011,0.001235614,461.5649999997011,0.002918957,461.5649999997011,2.756921e-05
461.5799999997011,6.66002e-05,461.5799999997011,0.001242647,461.5799999997011,0.002924588,461.5799999997011,2.759883e-05
461.5949999997011,6.69024e-05,461.5949999997011,0.00124444,461.5949999997011,0.002924751,461.5949999997011,2.764269e-05
461.6099999997011,6.628451e-05,461.6099999997011,0.001243288,461.6099999997011,0.002924789,461.6099999997011,2.757176e-05
461.62499999970106,6.612131e-05,461.62499999970106,0.001238536,461.62499999970106,0.002924932,461.62499999970106,2.753188e-05
461.63999999970105,6.527156e-05,461.63999999970105,0.001238576,461.63999999970105,0.002923148,461.63999999970105,2.78068e-05
461.65499999970103,6.715753e-05,461.65499999970103,0.001239169,461.65499999970103,0.002901837,461.65499999970103,2.827849e-05
461.669999999701,6.999817e-05,461.669999999701,0.001236961,461.669999999701,0.002862926,461.669999999701,2.835261e-05
461.684999999701,7.650557e-05,461.684999999701,0.001228081,461.684999999701,0.002835789,461.684999999701,2.838489e-05
461.699999999701,7.549634e-05,461.699999999701,0.001233032,461.699999999701,0.002502327,461.699999999701,2.726039e-05
461.714999999701,7.763694e-05,461.714999999701,0.001229502,461.714999999701,0.00214874,461.714999999701,2.705134e-05
461.72999999970096,7.94303e-05,461.72999999970096,0.001227454,461.72999999970096,0.001879949,461.72999999970096,2.474339e-05
461.74499999970095,6.859553e-05,461.74499999970095,0.001227733,461.74499999970095,0.001343268,461.74499999970095,1.732266e-05
461.75999999970094,6.606078e-05,461.75999999970094,0.0009447474,461.75999999970094,0.0007621369,461.75999999970094,1.603553e-05
461.7749999997009,6.427947e-05,461.7749999997009,0.0008217776,461.7749999997009,0.000730338,461.7749999997009,1.584998e-05
461.7899999997009,6.490537e-05,461.7899999997009,0.0003784857,461.7899999997009,0.0005816015,461.7899999997009,1.581795e-05
461.8049999997009,6.47772e-05,461.8049999997009,0.0002975866,461.8049999997009,0.0003439576,461.8049999997009,1.617199e-05
461.8199999997009,6.459209e-05,461.8199999997009,0.0002765604,461.8199999997009,0.0001592778,461.8199999997009,1.579657e-05
461.83499999970087,6.480415e-05,461.83499999970087,0.000258919,461.83499999970087,0.0001042848,461.83499999970087,1.587573e-05
461.84999999970086,6.827628e-05,461.84999999970086,0.000254131,461.84999999970086,0.0001027775,461.84999999970086,1.659672e-05
461.86499999970084,6.948979e-05,461.86499999970084,0.0002525744,461.86499999970084,9.658597e-05,461.86499999970084,1.681176e-05
461.87999999970083,7.026631e-05,461.87999999970083,0.0002487695,461.87999999970083,8.942632e-05,461.87999999970083,1.689284e-05
461.8949999997008,7.267194e-05,461.8949999997008,0.0002590997,461.8949999997008,8.339388e-05,461.8949999997008,1.704972e-05
461.9099999997008,7.698299e-05,461.9099999997008,0.0002596782,461.9099999997008,7.79146e-05,461.9099999997008,1.776746e-05
461.9249999997008,7.484175e-05,461.9249999997008,0.0002536245,461.9249999997008,6.456831e-05,461.9249999997008,1.898552e-05
461.9399999997008,7.256525e-05,461.9399999997008,0.0002455309,461.9399999997008,4.485251e-05,461.9399999997008,1.82524e-05
461.95499999970076,7.256874e-05,461.95499999970076,0.0002221242,461.95499999970076,4.295793e-05,461.95499999970076,1.666025e-05
461.96999999970075,7.091944e-05,461.96999999970075,0.000201766,461.96999999970075,3.13366e-05,461.96999999970075,1.706706e-05
461.98499999970073,6.694534e-05,461.98499999970073,0.0001952132,461.98499999970073,1.499881e-05,461.98499999970073,1.81952e-05
461.9999999997007,6.692598e-05,461.9999999997007,0.0001980192,461.9999999997007,1.265231e-05,461.9999999997007,1.90011e-05
462.0149999997007,6.746287e-05,462.0149999997007,0.0001969251,462.0149999997007,1.275212e-05,462.0149999997007,1.91488e-05
462.0299999997007,6.699687e-05,462.0299999997007,0.0001963802,462.0299999997007,1.265231e-05,462.0299999997007,1.903739e-05
462.0449999997007,6.55081e-05,462.0449999997007,0.0001806108,462.0449999997007,1.262222e-05,462.0449999997007,1.896993e-05
462.05999999970066,6.814535e-05,462.05999999970066,0.000181532,462.05999999970066,1.267012e-05,462.05999999970066,1.99543e-05
462.07499999970065,6.929917e-05,462.07499999970065,0.0001820922,462.07499999970065,1.240041e-05,462.07499999970065,2.012722e-05
462.08999999970064,6.767281e-05,462.08999999970064,0.0001769984,462.08999999970064,1.223113e-05,462.08999999970064,1.979625e-05
462.1049999997006,6.404037e-05,462.1049999997006,0.000166362,462.1049999997006,1.22173e-05,462.1049999997006,1.910756e-05
462.1199999997006,6.222885e-05,462.1199999997006,0.0001682817,462.1199999997006,1.198918e-05,462.1199999997006,1.879387e-05
462.1349999997006,6.318092e-05,462.1349999997006,0.000173297,462.1349999997006,1.167246e-05,462.1349999997006,1.940311e-05
462.1499999997006,5.827488e-05,462.1499999997006,0.0001395289,462.1499999997006,1.159132e-05,462.1499999997006,1.819829e-05
462.16499999970057,5.282347e-05,462.16499999970057,0.0001344355,462.16499999970057,9.91874e-06,462.16499999970057,1.664587e-05
462.17999999970056,5.142929e-05,462.17999999970056,0.0001365369,462.17999999970056,8.122932e-06,462.17999999970056,1.539462e-05
462.19499999970054,4.842531e-05,462.19499999970054,0.0001356011,462.19499999970054,7.788277e-06,462.19499999970054,1.543757e-05
462.2099999997005,4.846718e-05,462.2099999997005,0.0001369194,462.2099999997005,7.680822e-06,462.2099999997005,1.546128e-05
462.2249999997005,4.83569e-05,462.2249999997005,0.0001379828,462.2249999997005,7.444261e-06,462.2249999997005,1.502227e-05
462.2399999997005,4.85421e-05,462.2399999997005,0.0001315108,462.2399999997005,7.164627e-06,462.2399999997005,1.38035e-05
462.2549999997005,4.792206e-05,462.2549999997005,0.0001214941,462.2549999997005,6.69506e-06,462.2549999997005,1.243898e-05
462.2699999997005,4.528353e-05,462.2699999997005,0.0001232546,462.2699999997005,6.435437e-06,462.2699999997005,1.263672e-05
462.28499999970046,4.386906e-05,462.28499999970046,0.0001472629,462.28499999970046,6.463831e-06,462.28499999970046,1.258645e-05
462.29999999970045,4.363919e-05,462.29999999970045,0.0001508299,462.29999999970045,6.293787e-06,462.29999999970045,1.198918e-05
462.31499999970043,4.016054e-05,462.31499999970043,0.0001595453,462.31499999970043,5.652309e-06,462.31499999970043,1.046873e-05
462.3299999997004,3.794729e-05,462.3299999997004,0.000156032,462.3299999997004,4.690778e-06,462.3299999997004,1.026217e-05
462.3449999997004,3.771307e-05,462.3449999997004,0.0001576345,462.3449999997004,4.142171e-06,462.3449999997004,9.976799e-06
462.3599999997004,3.809808e-05,462.3599999997004,0.0001569396,462.3599999997004,4.11145e-06,462.3599999997004,9.954182e-06
462.3749999997004,3.836521e-05,462.3749999997004,0.0001581688,462.3749999997004,3.83123e-06,462.3749999997004,9.761266e-06
462.38999999970036,3.710494e-05,462.38999999970036,0.0001584788,462.38999999970036,3.812802e-06,462.38999999970036,9.161248e-06
462.40499999970035,3.581881e-05,462.40499999970035,0.0001591229,462.40499999970035,3.856882e-06,462.40499999970035,9.253046e-06
462.41999999970034,3.40552e-05,462.41999999970034,0.0001585146,462.41999999970034,4.101159e-06,462.41999999970034,9.592404e-06
462.4349999997003,3.366037e-05,462.4349999997003,0.0001594471,462.4349999997003,4.232997e-06,462.4349999997003,9.453355e-06
462.4499999997003,3.320277e-05,462.4499999997003,0.0001564,462.4499999997003,4.308857e-06,462.4499999997003,9.295575e-06
462.4649999997003,3.316881e-05,462.4649999997003,0.0001536605,462.4649999997003,4.38019e-06,462.4649999997003,9.438442e-06
462.4799999997003,3.283287e-05,462.4799999997003,0.0001538703,462.4799999997003,4.491339e-06,462.4799999997003,9.281926e-06
462.49499999970027,3.390513e-05,462.49499999970027,0.0001598024,462.49499999970027,4.562907e-06,462.49499999970027,9.707725e-06
462.50999999970026,3.260253e-05,462.50999999970026,0.0001594413,462.50999999970026,4.553636e-06,462.50999999970026,9.585059e-06
462.52499999970024,3.270735e-05,462.52499999970024,0.0001515048,462.52499999970024,4.516361e-06,462.52499999970024,9.024921e-06
462.5399999997002,3.258048e-05,462.5399999997002,0.0001303211,462.5399999997002,4.494475e-06,462.5399999997002,9.119637e-06
462.5549999997002,3.327947e-05,462.5549999997002,0.0001194824,462.5549999997002,4.559819e-06,462.5549999997002,9.024921e-06
462.5699999997002,3.170841e-05,462.5699999997002,0.0001042434,462.5699999997002,4.522595e-06,462.5699999997002,8.845193e-06
462.5849999997002,3.350432e-05,462.5849999997002,0.0001066581,462.5849999997002,4.575239e-06,462.5849999997002,8.78607e-06
462.5999999997002,3.377442e-05,462.5999999997002,0.0001051323,462.5999999997002,4.447213e-06,462.5999999997002,8.720087e-06
462.61499999970016,3.353416e-05,462.61499999970016,0.0001050363,462.61499999970016,4.434525e-06,462.61499999970016,8.760379e-06
462.62999999970015,3.425441e-05,462.62999999970015,0.0001006649,462.62999999970015,4.466178e-06,462.62999999970015,8.576751e-06
462.64499999970013,3.523155e-05,462.64499999970013,0.0001045694,462.64499999970013,4.266145e-06,462.64499999970013,8.68934e-06
462.6599999997001,3.47926e-05,462.6599999997001,0.0001076779,462.6599999997001,3.99326e-06,462.6599999997001,8.845193e-06
462.6749999997001,3.46502e-05,462.6749999997001,0.000103613,462.6749999997001,4.021382e-06,462.6749999997001,8.728161e-06
462.6899999997001,3.472736e-05,462.6899999997001,0.0001044244,462.6899999997001,3.911283e-06,462.6899999997001,9.015552e-06
462.7049999997001,3.406761e-05,462.7049999997001,0.0001038184,462.7049999997001,3.943564e-06,462.7049999997001,8.842007e-06
462.71999999970006,3.294295e-05,462.71999999970006,0.0001022392,462.71999999970006,3.961384e-06,462.71999999970006,8.477633e-06
462.73499999970005,3.217806e-05,462.73499999970005,9.314014e-05,462.73499999970005,3.91848e-06,462.73499999970005,8.637307e-06
462.74999999970004,3.184627e-05,462.74999999970004,9.15054e-05,462.74999999970004,4.003829e-06,462.74999999970004,8.517419e-06
462.7649999997,3.236184e-05,462.7649999997,9.231586e-05,462.7649999997,4.003829e-06,462.7649999997,8.908669e-06
462.7799999997,3.224235e-05,462.7799999997,9.52479e-05,462.7799999997,3.99326e-06,462.7799999997,8.811686e-06
462.7949999997,3.216361e-05,462.7949999997,9.26397e-05,462.7949999997,5.358047e-06,462.7949999997,8.840414e-06
462.8099999997,3.155967e-05,462.8099999997,9.213761e-05,462.8099999997,5.402556e-06,462.8099999997,9.028043e-06
462.82499999969997,3.115266e-05,462.82499999969997,9.215244e-05,462.82499999969997,5.487926e-06,462.82499999969997,9.125813e-06
462.83999999969996,2.929294e-05,462.83999999969996,8.893048e-05,462.83999999969996,5.415577e-06,462.83999999969996,9.224075e-06
462.85499999969994,2.940573e-05,462.85499999969994,8.760572e-05,462.85499999969994,5.48022e-06,462.85499999969994,8.981111e-06
462.8699999996999,2.861817e-05,462.8699999996999,8.771934e-05,462.8699999996999,5.516089e-06,462.8699999996999,8.848378e-06
462.8849999996999,2.727227e-05,462.8849999996999,8.523106e-05,462.8849999996999,5.513535e-06,462.8849999996999,8.869049e-06
462.8999999996999,2.506917e-05,462.8999999996999,7.855488e-05,462.8999999996999,5.503306e-06,462.8999999996999,8.616079e-06
462.9149999996999,2.510679e-05,462.9149999996999,7.361601e-05,462.9149999996999,5.704405e-06,462.9149999996999,8.186846e-06
462.9299999996999,2.585151e-05,462.9299999996999,6.974494e-05,462.9299999996999,5.903427e-06,462.9299999996999,8.525684e-06
462.94499999969986,2.743706e-05,462.94499999969986,6.922087e-05,462.94499999969986,5.924864e-06,462.94499999969986,8.34702e-06
462.95999999969985,2.886616e-05,462.95999999969985,7.024125e-05,462.95999999969985,5.946224e-06,462.95999999969985,8.899176e-06
462.97499999969983,2.891882e-05,462.97499999969983,7.034506e-05,462.97499999969983,5.993417e-06,462.97499999969983,8.77805e-06
462.9899999996998,2.794728e-05,462.9899999996998,7.140679e-05,462.9899999996998,7.525189e-06,462.9899999996998,8.286042e-06
463.0049999996998,2.803183e-05,463.0049999996998,7.454774e-05,463.0049999996998,8.303025e-06,463.0049999996998,8.174792e-06
463.0199999996998,2.786095e-05,463.0199999996998,7.926573e-05,463.0199999996998,8.326743e-06,463.0199999996998,7.790086e-06
463.0349999996998,2.766306e-05,463.0349999996998,7.680382e-05,463.0349999996998,8.28094e-06,463.0349999996998,7.793701e-06
463.04999999969976,2.73481e-05,463.04999999969976,7.849066e-05,463.04999999969976,7.799122e-06,463.04999999969976,7.808148e-06
463.06499999969975,2.726297e-05,463.06499999969975,7.885593e-05,463.06499999969975,8.086432e-06,463.06499999969975,7.571843e-06
463.07999999969974,2.760393e-05,463.07999999969974,8.692241e-05,463.07999999969974,8.287742e-06,463.07999999969974,7.797315e-06
463.0949999996997,2.766255e-05,463.0949999996997,9.210871e-05,463.0949999996997,8.824465e-06,463.0949999996997,7.981227e-06
463.1099999996997,2.810961e-05,463.1099999996997,9.498873e-05,463.1099999996997,8.926046e-06,463.1099999996997,8.363879e-06
463.1249999996997,3.113275e-05,463.1249999996997,9.8242e-05,463.1249999996997,9.577708e-06,463.1249999996997,8.424293e-06
463.1399999996997,3.175014e-05,463.1399999996997,0.0001011731,463.1399999996997,9.848904e-06,463.1399999996997,9.046747e-06
463.15499999969967,3.171418e-05,463.15499999969967,0.0001024359,463.15499999969967,9.968323e-06,463.15499999969967,9.801591e-06
463.16999999969966,3.343404e-05,463.16999999969966,0.0001067986,463.16999999969966,1.007795e-05,463.16999999969966,1.035509e-05
463.18499999969964,3.403451e-05,463.18499999969964,0.0001086894,463.18499999969964,1.013231e-05,463.18499999969964,1.100405e-05
463.1999999996996,3.353962e-05,463.1999999996996,0.0001112181,463.1999999996996,1.074891e-05,463.1999999996996,1.078684e-05
463.2149999996996,3.470626e-05,463.2149999996996,0.00011088,463.2149999996996,1.116923e-05,463.2149999996996,1.068845e-05
463.2299999996996,3.608056e-05,463.2299999996996,0.0001104363,463.2299999996996,1.14544e-05,463.2299999996996,1.08025e-05
463.2449999996996,3.683975e-05,463.2449999996996,0.0001087835,463.2449999996996,1.066734e-05,463.2449999996996,1.06845e-05
463.2599999996996,3.704832e-05,463.2599999996996,0.0001098342,463.2599999996996,1.047815e-05,463.2599999996996,1.079207e-05
463.27499999969956,4.053133e-05,463.27499999969956,0.0001112735,463.27499999969956,1.065016e-05,463.27499999969956,1.07999e-05
463.28999999969955,4.172261e-05,463.28999999969955,0.0001210539,463.28999999969955,1.067131e-05,463.28999999969955,1.059314e-05
463.30499999969953,4.236057e-05,463.30499999969953,0.0001225312,463.30499999969953,1.081032e-05,463.30499999969953,1.056651e-05
463.3199999996995,4.946571e-05,463.3199999996995,0.0001237973,463.3199999996995,1.243784e-05,463.3199999996995,1.110345e-05
463.3349999996995,5.150894e-05,463.3349999996995,0.0001204562,463.3349999996995,1.445941e-05,463.3349999996995,1.213981e-05
463.3499999996995,5.154994e-05,463.3499999996995,0.0001306254,463.3499999996995,1.508497e-05,463.3499999996995,1.191848e-05
463.3649999996995,5.254727e-05,463.3649999996995,0.0001421934,463.3649999996995,1.506535e-05,463.3649999996995,1.431155e-05
463.37999999969946,5.561689e-05,463.37999999969946,0.0003114013,463.37999999969946,1.48658e-05,463.37999999969946,1.720516e-05
463.39499999969945,5.760458e-05,463.39499999969945,0.0003926722,463.39499999969945,1.49546e-05,463.39499999969945,1.738354e-05
463.40999999969944,6.013221e-05,463.40999999969944,0.0003944981,463.40999999969944,1.512507e-05,463.40999999969944,1.881559e-05
463.4249999996994,5.981465e-05,463.4249999996994,0.0003982859,463.4249999996994,1.494801e-05,463.4249999996994,1.827785e-05
463.4399999996994,6.372947e-05,463.4399999996994,0.0003999606,463.4399999996994,1.588017e-05,463.4399999996994,1.795516e-05
463.4549999996994,6.828411e-05,463.4549999996994,0.0004022342,463.4549999996994,1.722235e-05,463.4549999996994,1.794182e-05
463.4699999996994,7.134975e-05,463.4699999996994,0.0004038104,463.4699999996994,2.180426e-05,463.4699999996994,1.83609e-05
463.48499999969937,7.15536e-05,463.48499999969937,0.0004059359,463.48499999969937,3.054948e-05,463.48499999969937,1.853043e-05
463.49999999969936,7.140383e-05,463.49999999969936,0.000416014,463.49999999969936,3.799886e-05,463.49999999969936,1.853575e-05
463.51499999969934,7.041231e-05,463.51499999969934,0.0004152118,463.51499999969934,4.016791e-05,463.51499999969934,1.932527e-05
463.5299999996993,7.066353e-05,463.5299999996993,0.0004155904,463.5299999996993,4.09208e-05,463.5299999996993,1.970639e-05
463.5449999996993,7.063003e-05,463.5449999996993,0.0004118979,463.5449999996993,4.204448e-05,463.5449999996993,2.002899e-05
463.5599999996993,7.003639e-05,463.5599999996993,0.000411893,463.5599999996993,4.183994e-05,463.5599999996993,2.021242e-05
463.5749999996993,6.795221e-05,463.5749999996993,0.0004117172,463.5749999996993,4.846805e-05,463.5749999996993,2.014191e-05
463.5899999996993,6.897807e-05,463.5899999996993,0.0004113809,463.5899999996993,0.0001130329,463.5899999996993,1.986941e-05
463.60499999969926,6.984646e-05,463.60499999969926,0.0004079623,463.60499999969926,0.0001563651,463.60499999969926,2.013421e-05
463.61999999969925,6.828618e-05,463.61999999969925,0.0003747428,463.61999999969925,0.0001842054,463.61999999969925,1.742967e-05
463.63499999969923,6.940724e-05,463.63499999969923,0.0002114373,463.63499999969923,0.0002126409,463.63499999969923,1.750145e-05
463.6499999996992,6.698321e-05,463.6499999996992,0.0001729776,463.6499999996992,0.0003275116,463.6499999996992,1.704228e-05
463.6649999996992,6.780092e-05,463.6649999996992,0.0001726493,463.6649999996992,0.0004066051,463.6649999996992,1.612227e-05
463.6799999996992,7.082085e-05,463.6799999996992,0.0001695059,463.6799999996992,0.0005128433,463.6799999996992,1.649199e-05
463.6949999996992,6.766615e-05,463.6949999996992,0.0001813142,463.6949999996992,0.0005600686,463.6949999996992,1.692034e-05
463.70999999969916,6.190179e-05,463.70999999969916,0.0001769981,463.70999999969916,0.001177645,463.70999999969916,1.710416e-05
463.72499999969915,6.001872e-05,463.72499999969915,0.000176719,463.72499999969915,0.001690767,463.72499999969915,1.674207e-05
463.73999999969914,5.985397e-05,463.73999999969914,0.00016996,463.73999999969914,0.001775991,463.73999999969914,1.666532e-05
463.7549999996991,6.049562e-05,463.7549999996991,0.0001719155,463.7549999996991,0.00221827,463.7549999996991,1.660181e-05
463.7699999996991,6.116833e-05,463.7699999996991,0.0001831281,463.7699999996991,0.002523347,463.7699999996991,1.63625e-05
463.7849999996991,6.383614e-05,463.7849999996991,0.000223537,463.7849999996991,0.002566387,463.7849999996991,1.737463e-05
463.7999999996991,6.85869e-05,463.7999999996991,0.0002480102,463.7999999996991,0.002574907,463.7999999996991,1.768003e-05
463.81499999969907,6.946181e-05,463.81499999969907,0.0002481446,463.81499999969907,0.002602637,463.81499999969907,1.76609e-05
463.82999999969906,7.300921e-05,463.82999999969906,0.0002451014,463.82999999969906,0.002623516,463.82999999969906,1.77381e-05
463.84499999969904,7.584093e-05,463.84499999969904,0.0002477448,463.84499999969904,0.002629686,463.84499999969904,1.781655e-05
463.859999999699,7.604589e-05,463.859999999699,0.0002483009,463.859999999699,0.002629395,463.859999999699,1.777618e-05
463.874999999699,7.642672e-05,463.874999999699,0.0002470073,463.874999999699,0.002627192,463.874999999699,1.764095e-05
463.889999999699,7.470838e-05,463.889999999699,0.0002496196,463.889999999699,0.002622201,463.889999999699,1.641408e-05
463.904999999699,7.453508e-05,463.904999999699,0.000245104,463.904999999699,0.002614088,463.904999999699,1.563703e-05
463.919999999699,7.662607e-05,463.919999999699,0.0002445842,463.919999999699,0.002597631,463.919999999699,1.587041e-05
463.93499999969896,7.824998e-05,463.93499999969896,0.0002365392,463.93499999969896,0.002577841,463.93499999969896,1.582953e-05
463.94999999969895,7.739398e-05,463.94999999969895,0.0002253412,463.94999999969895,0.002544897,463.94999999969895,1.570983e-05
463.96499999969893,7.713599e-05,463.96499999969893,0.0002403254,463.96499999969893,0.002204757,463.96499999969893,1.554759e-05
463.9799999996989,7.69418e-05,463.9799999996989,0.0003187745,463.9799999996989,0.001867778,463.9799999996989,1.507563e-05
463.9949999996989,7.86126e-05,463.9949999996989,0.0003270631,463.9949999996989,0.001749442,463.9949999996989,1.465584e-05
464.0099999996989,7.856241e-05,464.0099999996989,0.0003639862,464.0099999996989,0.001185584,464.0099999996989,1.477741e-05
464.0249999996989,7.850411e-05,464.0249999996989,0.0003805254,464.0249999996989,0.0005690937,464.0249999996989,1.439888e-05
464.03999999969886,7.362155e-05,464.03999999969886,0.0003616204,464.03999999969886,0.0004574083,464.03999999969886,1.304589e-05
464.05499999969885,6.98041e-05,464.05499999969885,0.0003542273,464.05499999969885,0.0004192014,464.05499999969885,1.219653e-05
464.06999999969884,6.648991e-05,464.06999999969884,0.0003563615,464.06999999969884,0.0002974344,464.06999999969884,1.210029e-05
464.0849999996988,6.050237e-05,464.0849999996988,0.0003585229,464.0849999996988,0.0001684164,464.0849999996988,1.137914e-05
464.0999999996988,5.548934e-05,464.0999999996988,0.0003555367,464.0999999996988,7.463801e-05,464.0999999996988,1.053179e-05
464.1149999996988,5.460056e-05,464.1149999996988,0.0003554667,464.1149999996988,2.873557e-05,464.1149999996988,1.030463e-05
464.1299999996988,5.214387e-05,464.1299999996988,0.0003547202,464.1299999996988,2.70503e-05,464.1299999996988,9.942854e-06
464.14499999969877,5.109045e-05,464.14499999969877,0.0003526099,464.14499999969877,2.328995e-05,464.14499999969877,9.725122e-06
464.15999999969875,4.846485e-05,464.15999999969875,0.0003531682,464.15999999969875,2.063522e-05,464.15999999969875,9.866052e-06
464.17499999969874,4.001401e-05,464.17499999969874,0.0003538985,464.17499999969874,2.093949e-05,464.17499999969874,1.117175e-05
464.1899999996987,3.421943e-05,464.1899999996987,0.0003563529,464.1899999996987,2.482637e-05,464.1899999996987,1.182712e-05
464.2049999996987,3.458672e-05,464.2049999996987,0.0003564229,464.2049999996987,2.606694e-05,464.2049999996987,1.161924e-05
464.2199999996987,3.482579e-05,464.2199999996987,0.0003239928,464.2199999996987,2.582588e-05,464.2199999996987,1.256069e-05
464.2349999996987,3.44136e-05,464.2349999996987,0.0002623859,464.2349999996987,3.44316e-05,464.2349999996987,1.569906e-05
464.2499999996987,3.216711e-05,464.2499999996987,0.0002489716,464.2499999996987,4.699629e-05,464.2499999996987,1.607063e-05
464.26499999969866,3.909626e-05,464.26499999969866,0.0001543537,464.26499999969866,4.874626e-05,464.26499999969866,1.784499e-05
464.27999999969865,4.25083e-05,464.27999999969865,0.0001264934,464.27999999969865,4.901859e-05,464.27999999969865,1.859873e-05
464.29499999969863,4.236456e-05,464.29499999969863,0.000127367,464.29499999969863,4.849333e-05,464.29499999969863,1.845349e-05
464.3099999996986,4.20361e-05,464.3099999996986,0.0001276189,464.3099999996986,4.840843e-05,464.3099999996986,1.878037e-05
464.3249999996986,4.656811e-05,464.3249999996986,0.0001238343,464.3249999996986,5.063848e-05,464.3249999996986,1.90507e-05
464.3399999996986,4.922277e-05,464.3399999996986,0.0001218935,464.3399999996986,5.230814e-05,464.3399999996986,1.921342e-05
464.3549999996986,4.932569e-05,464.3549999996986,0.0001253276,464.3549999996986,5.233533e-05,464.3549999996986,2.024446e-05
464.36999999969856,5.32918e-05,464.36999999969856,0.0001283606,464.36999999969856,5.644853e-05,464.36999999969856,2.067478e-05
464.38499999969855,6.308229e-05,464.38499999969855,0.0001447912,464.38499999969855,6.970252e-05,464.38499999969855,2.371847e-05
464.39999999969854,6.44788e-05,464.39999999969854,0.0001759514,464.39999999969854,8.268138e-05,464.39999999969854,2.432772e-05
464.4149999996985,6.745264e-05,464.4149999996985,0.0002107531,464.4149999996985,8.802617e-05,464.4149999996985,2.496331e-05
464.4299999996985,7.008445e-05,464.4299999996985,0.0002267541,464.4299999996985,8.79759e-05,464.4299999996985,2.568697e-05
464.4449999996985,7.155892e-05,464.4449999996985,0.0002385154,464.4449999996985,8.756632e-05,464.4449999996985,2.548491e-05
464.4599999996985,7.49516e-05,464.4599999996985,0.0002543634,464.4599999996985,8.787577e-05,464.4599999996985,2.599442e-05
464.47499999969847,7.469989e-05,464.47499999969847,0.0002547523,464.47499999969847,8.770167e-05,464.47499999969847,2.519584e-05
464.48999999969845,7.48378e-05,464.48999999969845,0.0002492029,464.48999999969845,8.3093e-05,464.48999999969845,2.422327e-05
464.50499999969844,7.617471e-05,464.50499999969844,0.0002695789,464.50499999969844,7.730601e-05,464.50499999969844,2.409382e-05
464.5199999996984,7.273762e-05,464.5199999996984,0.0002854421,464.5199999996984,7.6679e-05,464.5199999996984,2.310474e-05
464.5349999996984,7.237514e-05,464.5349999996984,0.0002873863,464.5349999996984,7.739251e-05,464.5349999996984,2.281515e-05
464.5499999996984,7.287403e-05,464.5499999996984,0.0002961491,464.5499999996984,7.879588e-05,464.5499999996984,2.289774e-05
464.5649999996984,7.293122e-05,464.5649999996984,0.0002965512,464.5649999996984,7.851308e-05,464.5649999996984,2.247739e-05
464.5799999996984,6.806178e-05,464.5799999996984,0.0002976223,464.5799999996984,7.538281e-05,464.5799999996984,2.267953e-05
464.59499999969836,6.661289e-05,464.59499999969836,0.0003009966,464.59499999969836,7.286494e-05,464.59499999969836,2.195106e-05
464.60999999969835,6.849359e-05,464.60999999969835,0.0003026453,464.60999999969835,7.252913e-05,464.60999999969835,2.135383e-05
464.62499999969833,6.769903e-05,464.62499999969833,0.0003033571,464.62499999969833,6.944416e-05,464.62499999969833,2.05257e-05
464.6399999996983,6.022584e-05,464.6399999996983,0.0003249157,464.6399999996983,5.793985e-05,464.6399999996983,1.763695e-05
464.6549999996983,5.936099e-05,464.6549999996983,0.0003586822,464.6549999996983,4.134069e-05,464.6549999996983,1.767206e-05
464.6699999996983,5.664159e-05,464.6699999996983,0.0005373605,464.6699999996983,3.13905e-05,464.6699999996983,1.8377e-05
464.6849999996983,7.408885e-05,464.6849999996983,0.001232302,464.6849999996983,3.095306e-05,464.6849999996983,3.032874e-05
464.69999999969826,9.425209e-05,464.69999999969826,0.001670109,464.69999999969826,3.07485e-05,464.69999999969826,4.159411e-05
464.71499999969825,9.387411e-05,464.71499999969825,0.002105947,464.71499999969825,2.986585e-05,464.71499999969825,4.205586e-05
464.72999999969824,0.0001050161,464.72999999969824,0.002406167,464.72999999969824,3.407216e-05,464.72999999969824,4.510275e-05
464.7449999996982,0.0001107198,464.7449999996982,0.002424258,464.7449999996982,3.806738e-05,464.7449999996982,4.579055e-05
464.7599999996982,0.0001104559,464.7599999996982,0.002489877,464.7599999996982,3.818303e-05,464.7599999996982,4.58634e-05
464.7749999996982,0.000111758,464.7749999996982,0.002571029,464.7749999996982,4.04903e-05,464.7749999996982,4.605007e-05
464.7899999996982,0.0001127154,464.7899999996982,0.002605747,464.7899999996982,4.207562e-05,464.7899999996982,4.620521e-05
464.80499999969817,0.0001131762,464.80499999969817,0.002622424,464.80499999969817,4.092494e-05,464.80499999969817,4.633429e-05
464.81999999969815,0.0001135125,464.81999999969815,0.002628024,464.81999999969815,3.933299e-05,464.81999999969815,4.638777e-05
464.83499999969814,0.0001133458,464.83499999969814,0.002628463,464.83499999969814,3.890845e-05,464.83499999969814,4.620765e-05
464.8499999996981,0.000113298,464.8499999996981,0.00262843,464.8499999996981,3.926058e-05,464.8499999996981,4.617868e-05
464.8649999996981,0.0001128657,464.8649999996981,0.002631211,464.8649999996981,3.92968e-05,464.8649999996981,4.637259e-05
464.8799999996981,0.0001112949,464.8799999996981,0.002634707,464.8799999996981,3.878807e-05,464.8799999996981,4.618142e-05
464.8949999996981,0.0001115972,464.8949999996981,0.002633144,464.8949999996981,3.838063e-05,464.8949999996981,4.600784e-05
464.9099999996981,0.0001121137,464.9099999996981,0.00262647,464.9099999996981,3.818561e-05,464.9099999996981,4.594381e-05
464.92499999969806,0.0001083856,464.92499999969806,0.002576453,464.92499999969806,3.819299e-05,464.92499999969806,4.373528e-05
464.93999999969805,9.04167e-05,464.93999999969805,0.002207557,464.93999999969805,3.757425e-05,464.93999999969805,3.148281e-05
464.95499999969803,7.512393e-05,464.95499999969803,0.001915173,464.95499999969803,3.690623e-05,464.95499999969803,2.311023e-05
464.969999999698,6.943564e-05,464.969999999698,0.001364486,464.969999999698,3.587147e-05,464.969999999698,1.99119e-05
464.984999999698,5.063959e-05,464.984999999698,0.0007534579,464.984999999698,2.913671e-05,464.984999999698,1.377285e-05
464.999999999698,3.733354e-05,464.999999999698,0.0007202992,464.999999999698,2.272545e-05,464.999999999698,1.118813e-05
465.014999999698,3.682178e-05,465.014999999698,0.0005956891,465.014999999698,2.22791e-05,465.014999999698,1.092568e-05
465.02999999969796,3.519835e-05,465.02999999969796,0.0004051602,465.02999999969796,1.890596e-05,465.02999999969796,1.051439e-05
465.04499999969795,3.252986e-05,465.04499999969795,0.0003008416,465.04499999969795,1.323883e-05,465.04499999969795,1.012953e-05
465.05999999969794,2.94335e-05,465.05999999969794,0.0002339963,465.05999999969794,8.653601e-06,465.05999999969794,9.70337e-06
465.0749999996979,2.683174e-05,465.0749999996979,0.0002139554,465.0749999996979,7.52706e-06,465.0749999996979,9.521654e-06
465.0899999996979,2.660768e-05,465.0899999996979,0.000200688,465.0899999996979,7.22337e-06,465.0899999996979,9.915899e-06
465.1049999996979,2.6294e-05,465.1049999996979,0.0001877472,465.1049999996979,6.711871e-06,465.1049999996979,9.866052e-06
465.1199999996979,2.466984e-05,465.1199999996979,0.000162729,465.1199999996979,6.591156e-06,465.1199999996979,9.176611e-06
465.13499999969787,2.387593e-05,465.13499999969787,0.000136401,465.13499999969787,6.743279e-06,465.13499999969787,9.310717e-06
465.14999999969785,2.037416e-05,465.14999999969785,0.0001342822,465.14999999969785,6.69506e-06,465.14999999969785,9.133529e-06
465.16499999969784,1.790173e-05,465.16499999969784,0.0001343367,465.16499999969784,6.597564e-06,465.16499999969784,9.121181e-06
465.1799999996978,1.780864e-05,465.1799999996978,0.0001323577,465.1799999996978,6.420096e-06,465.1799999996978,9.208791e-06
465.1949999996978,1.639175e-05,465.1949999996978,0.0001159413,465.1949999996978,6.331722e-06,465.1949999996978,9.309204e-06
465.2099999996978,1.819829e-05,465.2099999996978,0.001168228,465.2099999996978,6.221753e-06,465.2099999996978,9.327345e-06
465.2249999996978,2.057711e-05,465.2249999996978,0.001319173,465.2249999996978,6.244353e-06,465.2249999996978,9.153557e-06
465.2399999996978,2.057711e-05,465.2399999996978,0.001561831,465.2399999996978,5.984008e-06,465.2399999996978,9.42201e-06
465.25499999969776,2.112435e-05,465.25499999969776,0.001734492,465.25499999969776,5.905813e-06,465.25499999969776,9.590935e-06
465.26999999969775,2.16883e-05,465.26999999969775,0.001764949,465.26999999969775,6.19907e-06,465.26999999969775,9.732362e-06
465.28499999969773,2.172335e-05,465.28499999969773,0.001770615,465.28499999969773,6.342836e-06,465.28499999969773,9.68448e-06
465.2999999996977,2.140456e-05,465.2999999996977,0.001797993,465.2999999996977,6.325044e-06,465.2999999996977,9.54382e-06
465.3149999996977,2.170843e-05,465.3149999996977,0.00182792,465.3149999996977,6.194524e-06,465.3149999996977,9.601211e-06
465.3299999996977,2.14118e-05,465.3299999996977,0.001843522,465.3299999996977,5.821732e-06,465.3299999996977,9.94427e-06
465.3449999996977,2.126392e-05,465.3449999996977,0.001850418,465.3449999996977,5.824151e-06,465.3449999996977,9.562988e-06
465.35999999969766,2.127783e-05,465.35999999969766,0.001853365,465.35999999969766,5.428567e-06,465.35999999969766,9.722225e-06
465.37499999969765,2.126723e-05,465.37499999969765,0.001854784,465.37499999969765,5.291911e-06,465.37499999969765,9.448883e-06
465.38999999969764,2.122215e-05,465.38999999969764,0.001855977,465.38999999969764,5.074491e-06,465.38999999969764,8.918151e-06
465.4049999996976,2.127783e-05,465.4049999996976,0.001856755,465.4049999996976,4.998978e-06,465.4049999996976,8.946537e-06
465.4199999996976,2.13076e-05,465.4199999996976,0.001857054,465.4199999996976,4.967884e-06,465.4199999996976,8.596438e-06
465.4349999996976,2.122281e-05,465.4349999996976,0.001857026,465.4349999996976,5.00461e-06,465.4349999996976,8.527336e-06
465.4499999996976,2.184492e-05,465.4499999996976,0.001790946,465.4499999996976,4.982041e-06,465.4499999996976,8.335198e-06
465.46499999969757,1.949437e-05,465.46499999969757,0.001351822,465.46499999969757,4.907976e-06,465.46499999969757,8.532291e-06
465.47999999969755,1.721007e-05,465.47999999969755,0.001225084,465.47999999969755,4.768218e-06,465.47999999969755,8.007658e-06
465.49499999969754,1.71896e-05,465.49499999969754,0.0008819492,465.49499999969754,4.66971e-06,465.49499999969754,7.640368e-06
465.5099999996975,1.615979e-05,465.5099999996975,0.0004922494,465.5099999996975,4.651575e-06,465.5099999996975,7.139021e-06
465.5249999996975,1.648943e-05,465.5249999996975,0.0003800524,465.5249999996975,4.118297e-06,465.5249999996975,7.00758e-06
465.5399999996975,1.719861e-05,465.5399999996975,0.0003831858,465.5399999996975,3.745709e-06,465.5399999996975,7.444261e-06
465.5549999996975,1.754326e-05,465.5549999996975,0.0003175259,465.5549999996975,3.801702e-06,465.5549999996975,7.59228e-06
465.5699999996975,1.786392e-05,465.5699999996975,0.0002238585,465.5699999996975,3.730636e-06,465.5699999996975,7.398706e-06
465.58499999969746,1.931579e-05,465.58499999969746,0.0001623692,465.58499999969746,3.627253e-06,465.58499999969746,8.030494e-06
465.59999999969745,2.149716e-05,465.59999999969745,0.0001277137,465.59999999969745,3.615583e-06,465.59999999969745,9.259134e-06
465.61499999969743,2.730841e-05,465.61499999969743,0.0001088343,465.61499999969743,3.730636e-06,465.61499999969743,1.393856e-05
465.6299999996974,2.91135e-05,465.6299999996974,0.0001243625,465.6299999996974,3.867824e-06,465.6299999996974,1.528534e-05
465.6449999996974,3.061397e-05,465.6449999996974,0.0001327845,465.6449999996974,3.871464e-06,465.6449999996974,1.567482e-05
465.6599999996974,3.523835e-05,465.6599999996974,0.0002481197,465.6599999996974,4.01437e-06,465.6599999996974,1.595804e-05
465.6749999996974,3.626359e-05,465.6749999996974,0.000372458,465.6749999996974,4.094283e-06,465.6749999996974,1.64278e-05
465.68999999969736,3.762183e-05,465.68999999969736,0.0007216936,465.68999999969736,4.101159e-06,465.68999999969736,1.803969e-05
465.70499999969735,3.833803e-05,465.70499999969735,0.00109105,465.70499999969735,4.155752e-06,465.70499999969735,1.851599e-05
465.71999999969734,4.060738e-05,465.71999999969734,0.001679229,465.71999999969734,4.145571e-06,465.71999999969734,1.964266e-05
465.7349999996973,4.155108e-05,465.7349999996973,0.001921201,465.7349999996973,4.199587e-06,465.7349999996973,2.046591e-05
465.7499999996973,4.510993e-05,465.7499999996973,0.002067696,465.7499999996973,4.376973e-06,465.7499999996973,2.122015e-05
465.7649999996973,4.667175e-05,465.7649999996973,0.002474344,465.7649999996973,4.605925e-06,465.7649999996973,2.22538e-05
465.7799999996973,4.986959e-05,465.7799999996973,0.00259282,465.7799999996973,5.275916e-06,465.7799999996973,2.387711e-05
465.79499999969727,5.126908e-05,465.79499999969727,0.00260378,465.79499999969727,5.297233e-06,465.79499999969727,2.424361e-05
465.80999999969725,5.483535e-05,465.80999999969725,0.002650429,465.80999999969725,5.394728e-06,465.80999999969725,2.445938e-05
465.82499999969724,5.573429e-05,465.82499999969724,0.002699824,465.82499999969724,5.451871e-06,465.82499999969724,2.537357e-05
465.8399999996972,5.789801e-05,465.8399999996972,0.002709535,465.8399999996972,5.544109e-06,465.8399999996972,2.563756e-05
465.8549999996972,5.848914e-05,465.8549999996972,0.002718372,465.8549999996972,5.48279e-06,465.8549999996972,2.487795e-05
465.8699999996972,5.695162e-05,465.8699999996972,0.002719183,465.8699999996972,5.521194e-06,465.8699999996972,2.255809e-05
465.8849999996972,5.798626e-05,465.8849999996972,0.002794437,465.8849999996972,5.599728e-06,465.8849999996972,2.318143e-05
465.8999999996972,6.940886e-05,465.8999999996972,0.002874967,465.8999999996972,6.089019e-06,465.8999999996972,2.973065e-05
465.91499999969716,7.170247e-05,465.91499999969716,0.003054943,465.91499999969716,6.158032e-06,465.91499999969716,3.066684e-05
465.92999999969715,7.957665e-05,465.92999999969715,0.003211159,465.92999999969715,6.515924e-06,465.92999999969715,3.256664e-05
465.94499999969713,8.08232e-05,465.94499999969713,0.003214475,465.94499999969713,6.612493e-06,465.94499999969713,3.281871e-05
465.9599999996971,8.51416e-05,465.9599999996971,0.003371159,465.9599999996971,6.871577e-06,465.9599999996971,3.425441e-05
465.9749999996971,8.881319e-05,465.9749999996971,0.003262289,465.9749999996971,6.896133e-06,465.9749999996971,3.6111e-05
465.9899999996971,8.889816e-05,465.9899999996971,0.003184444,465.9899999996971,6.918566e-06,465.9899999996971,3.558958e-05
466.0049999996971,8.774535e-05,466.0049999996971,0.003053632,466.0049999996971,6.707672e-06,466.0049999996971,3.556662e-05
466.01999999969706,8.784948e-05,466.01999999969706,0.00299126,466.01999999969706,6.300498e-06,466.01999999969706,3.552302e-05
466.03499999969705,8.72624e-05,466.03499999969705,0.003221457,466.03499999969705,6.269119e-06,466.03499999969705,3.567023e-05
466.04999999969704,8.787721e-05,466.04999999969704,0.00345597,466.04999999969704,6.255622e-06,466.04999999969704,3.637491e-05
466.064999999697,8.725707e-05,466.064999999697,0.003675426,466.064999999697,6.287069e-06,466.064999999697,3.632182e-05
466.079999999697,8.819004e-05,466.079999999697,0.003886816,466.079999999697,6.338393e-06,466.079999999697,3.719707e-05
466.094999999697,8.597405e-05,466.094999999697,0.004060676,466.094999999697,6.528882e-06,466.094999999697,3.72561e-05
466.109999999697,8.576784e-05,466.109999999697,0.00427843,466.109999999697,6.537507e-06,466.109999999697,3.750144e-05
466.12499999969697,8.599141e-05,466.12499999969697,0.004476791,466.12499999969697,6.450741e-06,466.12499999969697,3.775974e-05
466.13999999969695,8.498212e-05,466.13999999969695,0.004555697,466.13999999969695,6.342836e-06,466.13999999969695,3.670875e-05
466.15499999969694,7.475814e-05,466.15499999969694,0.004684232,466.15499999969694,5.770695e-06,466.15499999969694,3.19377e-05
466.1699999996969,6.646851e-05,466.1699999996969,0.004719434,466.1699999996969,5.425972e-06,466.1699999996969,3.09567e-05
466.1849999996969,6.515881e-05,466.1849999996969,0.004718424,466.1849999996969,5.498184e-06,466.1849999996969,2.93765e-05
466.1999999996969,5.804672e-05,466.1999999996969,0.004705615,466.1999999996969,5.110451e-06,466.1999999996969,2.708725e-05
466.2149999996969,5.820764e-05,466.2149999996969,0.004474992,466.2149999996969,5.157098e-06,466.2149999996969,2.648882e-05
466.2299999996969,5.209387e-05,466.2299999996969,0.00451774,466.2299999996969,5.00461e-06,466.2299999996969,2.350908e-05
466.24499999969686,5.158791e-05,466.24499999969686,0.004791962,466.24499999969686,5.241091e-06,466.24499999969686,2.340218e-05
466.25999999969684,5.019394e-05,466.25999999969684,0.005000279,466.25999999969684,5.077266e-06,466.25999999969684,2.276509e-05
466.27499999969683,4.852963e-05,466.27499999969683,0.00501299,466.27499999969683,5.241091e-06,466.27499999969683,2.152662e-05
466.2899999996968,4.767066e-05,466.2899999996968,0.005040921,466.2899999996968,5.168013e-06,466.2899999996968,1.953191e-05
466.3049999996968,4.5089e-05,466.3049999996968,0.005025321,466.3049999996968,5.115961e-06,466.3049999996968,1.86063e-05
466.3199999996968,4.301233e-05,466.3199999996968,0.004991766,466.3199999996968,5.516089e-06,466.3199999996968,1.704806e-05
466.3349999996968,4.021837e-05,466.3349999996968,0.004874972,466.3349999996968,5.170737e-06,466.3349999996968,1.416115e-05
466.34999999969676,3.963233e-05,466.34999999969676,0.004771072,466.34999999969676,5.096651e-06,466.34999999969676,1.344262e-05
466.36499999969675,3.867641e-05,466.36499999969675,0.004594715,466.36499999969675,5.407768e-06,466.36499999969675,1.256405e-05
466.37999999969674,3.846459e-05,466.37999999969674,0.004497771,466.37999999969674,5.642331e-06,466.37999999969674,1.254834e-05
466.3949999996967,3.792353e-05,466.3949999996967,0.004492916,466.3949999996967,5.969867e-06,466.3949999996967,1.236743e-05
466.4099999996967,3.591464e-05,466.4099999996967,0.004495029,466.4099999996967,6.442001e-06,466.4099999996967,1.161924e-05
466.4249999996967,3.397361e-05,466.4249999996967,0.004594058,466.4249999996967,6.378271e-06,466.4249999996967,1.04647e-05
466.4399999996967,3.426962e-05,466.4399999996967,0.004666225,466.4399999996967,7.847737e-06,466.4399999996967,1.069109e-05
466.45499999969667,3.441974e-05,466.45499999969667,0.004718229,466.45499999969667,7.99181e-06,466.45499999969667,1.09231e-05
466.46999999969665,3.187545e-05,466.46999999969665,0.00471862,466.46999999969665,8.770023e-06,466.46999999969665,1.146301e-05
466.48499999969664,3.385024e-05,466.48499999969664,0.004852743,466.48499999969664,8.990517e-06,466.48499999969664,1.316306e-05
466.4999999996966,3.484843e-05,466.4999999996966,0.004883107,466.4999999996966,8.957552e-06,466.4999999996966,1.73584e-05
466.5149999996966,3.621189e-05,466.5149999996966,0.004728013,466.5149999996966,9.216436e-06,466.5149999996966,1.82331e-05
466.5299999996966,3.610632e-05,466.5299999996966,0.004475207,466.5299999996966,1.005135e-05,466.5299999996966,1.904775e-05
466.5449999996966,3.557493e-05,466.5449999996966,0.004269985,466.5449999996966,1.053714e-05,466.5449999996966,1.924566e-05
466.5599999996966,3.652987e-05,466.5599999996966,0.004170924,466.5599999996966,1.16785e-05,466.5599999996966,1.947775e-05
466.57499999969656,4.250399e-05,466.57499999969656,0.004115924,466.57499999969656,1.21572e-05,466.57499999969656,2.000577e-05
466.58999999969654,4.331551e-05,466.58999999969654,0.004229751,466.58999999969654,1.229889e-05,466.58999999969654,2.045145e-05
466.60499999969653,4.945176e-05,466.60499999969653,0.004306531,466.60499999969653,1.242311e-05,466.60499999969653,2.249117e-05
466.6199999996965,5.724028e-05,466.6199999996965,0.004250647,466.6199999996965,1.266678e-05,466.6199999996965,2.461153e-05
466.6349999996965,6.483458e-05,466.6349999996965,0.003980976,466.6349999996965,1.380656e-05,466.6349999996965,2.877232e-05
466.6499999996965,8.169241e-05,466.6499999996965,0.003715339,466.6499999996965,1.388997e-05,466.6499999996965,3.5415e-05
466.6649999996965,0.00010203,466.6649999996965,0.003589678,466.6649999996965,1.387982e-05,466.6649999996965,3.962309e-05
466.67999999969646,0.0002305027,466.67999999969646,0.003674202,466.67999999969646,1.97421e-05,466.67999999969646,0.0001279941
466.69499999969645,0.0002792863,466.69499999969645,0.00369928,466.69499999969645,2.185072e-05,466.69499999969645,0.0001575091
466.70999999969644,0.000361441,466.70999999969644,0.003579896,466.70999999969644,2.381922e-05,466.70999999969644,0.0001812369
466.7249999996964,0.0003873833,466.7249999996964,0.003650715,466.7249999996964,2.540962e-05,466.7249999996964,0.0001944299
466.7399999996964,0.0004354015,466.7399999996964,0.003547782,466.7399999996964,2.882123e-05,466.7399999996964,0.0002112878
466.7549999996964,0.0004742095,466.7549999996964,0.003545082,466.7549999996964,2.95052e-05,466.7549999996964,0.0002152992
466.7699999996964,0.0004844111,466.7699999996964,0.003646124,466.7699999996964,2.95591e-05,466.7699999996964,0.000219089
466.78499999969637,0.000489396,466.78499999969637,0.003754192,466.78499999969637,2.936307e-05,466.78499999969637,0.0002220832
466.79999999969635,0.000495302,466.79999999969635,0.003866887,466.79999999969635,2.91459e-05,466.79999999969635,0.0002275932
466.81499999969634,0.0005737805,466.81499999969634,0.003902359,466.81499999969634,3.263233e-05,466.81499999969634,0.0002764745
466.8299999996963,0.0005804948,466.8299999996963,0.003914638,466.8299999996963,3.327439e-05,466.8299999996963,0.0002799898
466.8449999996963,0.0005845391,466.8449999996963,0.004055677,466.8449999996963,3.348287e-05,466.8449999996963,0.0002867547
466.8599999996963,0.0005929628,466.8599999996963,0.004296366,466.8599999996963,3.415021e-05,466.8599999996963,0.0002919221
466.8749999996963,0.0005933411,466.8749999996963,0.004530507,466.8749999996963,3.412834e-05,466.8749999996963,0.000291995
466.8899999996963,0.0005930294,466.8899999996963,0.004734148,466.8899999996963,3.357069e-05,466.8899999996963,0.0002927801
466.90499999969626,0.0005901736,466.90499999969626,0.004882539,466.90499999969626,3.346057e-05,466.90499999969626,0.0002943739
466.91999999969624,0.0005748154,466.91999999969624,0.004902429,466.91999999969624,3.286418e-05,466.91999999969624,0.000282495
466.93499999969623,0.0005420543,466.93499999969623,0.004775998,466.93499999969623,2.941866e-05,466.93499999969623,0.0002637149
466.9499999996962,0.0005276352,466.9499999996962,0.004667251,466.9499999996962,2.850226e-05,466.9499999996962,0.0002522591
466.9649999996962,0.0004592761,466.9649999996962,0.00449619,466.9649999996962,2.603936e-05,466.9649999996962,0.0002333863
466.9799999996962,0.0004398988,466.9799999996962,0.004374834,466.9799999996962,2.394133e-05,466.9799999996962,0.0002210843
466.9949999996962,0.0003999786,466.9949999996962,0.004286251,466.9949999996962,2.076316e-05,466.9949999996962,0.0002112333
467.00999999969616,0.0003649604,467.00999999969616,0.004084862,467.00999999969616,2.060243e-05,467.00999999969616,0.0002080953
467.02499999969615,0.000355438,467.02499999969615,0.003849337,467.02499999969615,2.041491e-05,467.02499999969615,0.0002037433
467.03999999969614,0.0003488564,467.03999999969614,0.003571393,467.03999999969614,2.029588e-05,467.03999999969614,0.0002005605
467.0549999996961,0.0003131159,467.0549999996961,0.003277241,467.0549999996961,1.933037e-05,467.0549999996961,0.0001702329
467.0699999996961,0.0001794215,467.0699999996961,0.003137234,467.0699999996961,1.117553e-05,467.0699999996961,0.0001150729
467.0849999996961,0.0001742337,467.0849999996961,0.002933537,467.0849999996961,1.028547e-05,467.0849999996961,0.000107136
467.0999999996961,0.0001523865,467.0999999996961,0.002774789,467.0999999996961,9.21338e-06,467.0999999996961,8.699903e-05
467.11499999969607,0.0001255241,467.11499999969607,0.002535469,467.11499999969607,7.061647e-06,467.11499999969607,7.325461e-05
467.12999999969605,0.0001244158,467.12999999969605,0.00221962,467.12999999969605,7.003558e-06,467.12999999969605,7.399601e-05
467.14499999969604,0.0001213548,467.14499999969604,0.001788329,467.14499999969604,6.981399e-06,467.14499999969604,6.543301e-05
467.159999999696,0.0001206775,467.159999999696,0.001221192,467.159999999696,7.268085e-06,467.159999999696,5.702825e-05
467.174999999696,0.0001203323,467.174999999696,0.0006254337,467.174999999696,7.564397e-06,467.174999999696,5.614174e-05
467.189999999696,0.0001192248,467.189999999696,0.0005699166,467.189999999696,8.40923e-06,467.189999999696,5.009393e-05
467.204999999696,0.0001151758,467.204999999696,0.001399821,467.204999999696,8.454338e-06,467.204999999696,4.978392e-05
467.219999999696,0.0001032688,467.219999999696,0.001868194,467.219999999696,8.405879e-06,467.219999999696,4.344767e-05
467.23499999969596,0.0001024274,467.23499999969596,0.002226343,467.23499999969596,8.46433e-06,467.23499999969596,4.232131e-05
467.24999999969594,8.826732e-05,467.24999999969594,0.002550225,467.24999999969594,7.867457e-06,467.24999999969594,3.768393e-05
467.26499999969593,6.707189e-05,467.26499999969593,0.002863446,467.26499999969593,8.419275e-06,467.26499999969593,2.964428e-05
467.2799999996959,6.334724e-05,467.2799999996959,0.003123052,467.2799999996959,8.377342e-06,467.2799999996959,2.983281e-05
467.2949999996959,6.448841e-05,467.2949999996959,0.003335262,467.2949999996959,8.878575e-06,467.2949999996959,2.841267e-05
467.3099999996959,6.024081e-05,467.3099999996959,0.003456721,467.3099999996959,9.517214e-06,467.3099999996959,2.693549e-05
467.3249999996959,6.41878e-05,467.3249999996959,0.003507301,467.3249999996959,9.605612e-06,467.3249999996959,2.73347e-05
467.33999999969586,7.838092e-05,467.33999999969586,0.003518535,467.33999999969586,1.065413e-05,467.33999999969586,2.696424e-05
467.35499999969585,8.050992e-05,467.35499999969585,0.003810945,467.35499999969585,1.088305e-05,467.35499999969585,2.680863e-05
467.36999999969584,8.026529e-05,467.36999999969584,0.004125918,467.36999999969584,1.090633e-05,467.36999999969584,2.63106e-05
467.3849999996958,7.989359e-05,467.3849999996958,0.00423901,467.3849999996958,1.115913e-05,467.3849999996958,2.811162e-05
467.3999999996958,8.318619e-05,467.3999999996958,0.004363194,467.3999999996958,1.218844e-05,467.3999999996958,3.259907e-05
467.4149999996958,8.31845e-05,467.4149999996958,0.004426519,467.4149999996958,1.241404e-05,467.4149999996958,3.461318e-05
467.4299999996958,8.625263e-05,467.4299999996958,0.004435129,467.4299999996958,1.255171e-05,467.4299999996958,3.91384e-05
467.44499999969577,9.245553e-05,467.44499999969577,0.004391025,467.44499999969577,1.210029e-05,467.44499999969577,4.042485e-05
467.45999999969575,9.406659e-05,467.45999999969575,0.004517178,467.45999999969575,1.186873e-05,467.45999999969575,4.026493e-05
467.47499999969574,9.45252e-05,467.47499999969574,0.004581221,467.47499999969574,1.218035e-05,467.47499999969574,4.015633e-05
467.4899999996957,9.453802e-05,467.4899999996957,0.004667943,467.4899999996957,1.222768e-05,467.4899999996957,4.022117e-05
467.5049999996957,9.466027e-05,467.5049999996957,0.004810735,467.5049999996957,1.255171e-05,467.5049999996957,4.01651e-05
467.5199999996957,9.877553e-05,467.5199999996957,0.004830395,467.5199999996957,1.266456e-05,467.5199999996957,4.301593e-05
467.5349999996957,0.0001069074,467.5349999996957,0.00469224,467.5349999996957,1.281493e-05,467.5349999996957,4.677426e-05
467.5499999996957,0.0001058312,467.5499999996957,0.004470024,467.5499999996957,1.241971e-05,467.5499999996957,4.653724e-05
467.56499999969566,0.0001054465,467.56499999969566,0.004319146,467.56499999969566,1.200914e-05,467.56499999969566,4.676582e-05
467.57999999969564,0.0001000066,467.57999999969564,0.00422589,467.57999999969564,1.202321e-05,467.57999999969564,4.660439e-05
467.59499999969563,9.189436e-05,467.59499999969563,0.004178077,467.59499999969563,1.128092e-05,467.59499999969563,4.667748e-05
467.6099999996956,9.028495e-05,467.6099999996956,0.004048396,467.6099999996956,1.130836e-05,467.6099999996956,4.6533e-05
467.6249999996956,8.993102e-05,467.6249999996956,0.003891871,467.6249999996956,1.122333e-05,467.6249999996956,4.649424e-05
467.6399999996956,8.876988e-05,467.6399999996956,0.003682998,467.6399999996956,1.040259e-05,467.6399999996956,4.422501e-05
467.6549999996956,8.391724e-05,467.6549999996956,0.003383066,467.6549999996956,9.43695e-06,467.6549999996956,4.057267e-05
467.66999999969556,8.316824e-05,467.66999999969556,0.003134631,467.66999999969556,9.145859e-06,467.66999999969556,3.932117e-05
467.68499999969555,8.152222e-05,467.68499999969555,0.002989905,467.68499999969555,9.040516e-06,467.68499999969555,3.522195e-05
467.69999999969554,8.032108e-05,467.69999999969554,0.002843104,467.69999999969554,9.021799e-06,467.69999999969554,3.516752e-05
467.7149999996955,8.386669e-05,467.7149999996955,0.002634167,467.7149999996955,8.999913e-06,467.7149999996955,3.642677e-05
467.7299999996955,8.309589e-05,467.7299999996955,0.002358624,467.7299999996955,8.591521e-06,467.7299999996955,3.604658e-05
467.7449999996955,8.347188e-05,467.7449999996955,0.001990268,467.7449999996955,7.945849e-06,467.7449999996955,3.638072e-05
467.7599999996955,8.581299e-05,467.7599999996955,0.001468282,467.7599999996955,6.828391e-06,467.7599999996955,3.92272e-05
467.77499999969547,8.002185e-05,467.77499999969547,0.0008172681,467.77499999969547,6.699267e-06,467.77499999969547,3.570142e-05
467.78999999969545,7.270392e-05,467.78999999969545,0.0005384407,467.78999999969545,6.877724e-06,467.78999999969545,3.317858e-05
467.80499999969544,7.287615e-05,467.80499999969544,0.0005408439,467.80499999969544,6.686639e-06,467.80499999969544,3.356103e-05
467.8199999996954,7.254078e-05,467.8199999996954,0.0004822557,467.8199999996954,7.019631e-06,467.8199999996954,3.361891e-05
467.8349999996954,7.693229e-05,467.8349999996954,0.0003846826,467.8349999996954,7.111343e-06,467.8349999996954,3.445205e-05
467.8499999996954,7.696377e-05,467.8499999996954,0.0002901907,467.8499999996954,7.166593e-06,467.8499999996954,3.451496e-05
467.8649999996954,7.76344e-05,467.8649999996954,0.0002155509,467.8649999996954,7.061647e-06,467.8649999996954,3.410026e-05
467.87999999969537,7.768247e-05,467.87999999969537,0.0001617656,467.87999999969537,7.164627e-06,467.87999999969537,3.408704e-05
467.89499999969536,7.76676e-05,467.89499999969536,0.000124005,467.89499999969536,7.093493e-06,467.89499999969536,3.400677e-05
467.90999999969534,7.758903e-05,467.90999999969534,9.706796e-05,467.90999999969534,6.69506e-06,467.90999999969534,3.369717e-05
467.92499999969533,7.755925e-05,467.92499999969533,7.385958e-05,467.92499999969533,6.787006e-06,467.92499999969533,3.299038e-05
467.9399999996953,7.213301e-05,467.9399999996953,5.501053e-05,467.9399999996953,6.80773e-06,467.9399999996953,3.236793e-05
467.9549999996953,6.583158e-05,467.9549999996953,4.230866e-05,467.9549999996953,7.797315e-06,467.9549999996953,3.111556e-05
467.9699999996953,6.318092e-05,467.9699999996953,3.480637e-05,467.9699999996953,7.811755e-06,467.9699999996953,3.082765e-05
467.9849999996953,6.190247e-05,467.9849999996953,2.975149e-05,467.9849999996953,7.835162e-06,467.9849999996953,3.057852e-05
467.99999999969526,5.567461e-05,467.99999999969526,2.486153e-05,467.99999999969526,7.867457e-06,467.99999999969526,2.84419e-05
468.01499999969525,4.660923e-05,468.01499999969525,1.893723e-05,468.01499999969525,7.854914e-06,468.01499999969525,2.16909e-05
468.02999999969524,4.199285e-05,468.02999999969524,1.452163e-05,468.02999999969524,7.795508e-06,468.02999999969524,2.101001e-05
468.0449999996952,4.008857e-05,468.0449999996952,1.096686e-05,468.0449999996952,7.885342e-06,468.0449999996952,1.835936e-05
468.0599999996952,4.028801e-05,468.0599999996952,9.079387e-06,468.0599999996952,7.804539e-06,468.0599999996952,1.815024e-05
468.0749999996952,3.504313e-05,468.0749999996952,8.407555e-06,468.0749999996952,7.569982e-06,468.0749999996952,1.503821e-05
468.0899999996952,3.012929e-05,468.0899999996952,7.217518e-06,468.0899999996952,7.003558e-06,468.0899999996952,1.329086e-05
468.10499999969517,2.778399e-05,468.10499999969517,6.123622e-06,468.10499999969517,6.955118e-06,468.10499999969517,1.311482e-05
468.11999999969515,2.808304e-05,468.11999999969515,4.93374e-06,468.11999999969515,6.844875e-06,468.11999999969515,1.209214e-05
468.13499999969514,2.609286e-05,468.13499999969514,4.35115e-06,468.13499999969514,6.869526e-06,468.13499999969514,1.2689e-05
468.1499999996951,2.568477e-05,468.1499999996951,4.209638e-06,468.1499999996951,6.644371e-06,468.1499999996951,1.294726e-05
468.1649999996951,2.510399e-05,468.1649999996951,4.155752e-06,468.1649999996951,6.625263e-06,468.1649999996951,1.287744e-05
468.1799999996951,2.477014e-05,468.1799999996951,4.007346e-06,468.1799999996951,6.599699e-06,468.1799999996951,1.246047e-05
468.1949999996951,2.397602e-05,468.1949999996951,3.331712e-06,468.1949999996951,6.496438e-06,468.1949999996951,1.183188e-05
468.20999999969507,2.398542e-05,468.20999999969507,3.206755e-06,468.20999999969507,5.254512e-06,468.20999999969507,1.209447e-05
468.22499999969506,2.370778e-05,468.22499999969506,3.01662e-06,468.22499999969506,5.664756e-06,468.22499999969506,1.180566e-05
468.23999999969504,2.419068e-05,468.23999999969504,2.969556e-06,468.23999999969504,5.679657e-06,468.23999999969504,1.376568e-05
468.25499999969503,2.51869e-05,468.25499999969503,0.001144652,468.25499999969503,5.323759e-06,468.25499999969503,1.473254e-05
468.269999999695,2.583079e-05,468.269999999695,0.001530925,468.269999999695,5.173461e-06,468.269999999695,1.552311e-05
468.284999999695,2.66299e-05,468.284999999695,0.00168526,468.284999999695,5.151632e-06,468.284999999695,1.644494e-05
468.299999999695,2.912849e-05,468.299999999695,0.001745022,468.299999999695,5.386888e-06,468.299999999695,1.741593e-05
468.314999999695,3.035566e-05,468.314999999695,0.002071512,468.314999999695,7.229218e-06,468.314999999695,1.758176e-05
468.32999999969496,2.968607e-05,468.32999999969496,0.002555139,468.32999999969496,7.314453e-06,468.32999999969496,1.803188e-05
468.34499999969495,3.08016e-05,468.34499999969495,0.002923703,468.34499999969495,8.240013e-06,468.34499999969495,1.859948e-05
468.35999999969494,3.326889e-05,468.35999999969494,0.003217011,468.35999999969494,9.555621e-06,468.35999999969494,2.113101e-05
468.3749999996949,4.480694e-05,468.3749999996949,0.003390057,468.3749999996949,1.782919e-05,468.3749999996949,2.730737e-05
468.3899999996949,6.792152e-05,468.3899999996949,0.00361937,468.3899999996949,1.828401e-05,468.3899999996949,3.571483e-05
468.4049999996949,6.998709e-05,468.4049999996949,0.003862947,468.4049999996949,1.828324e-05,468.4049999996949,3.622745e-05
468.4199999996949,8.880986e-05,468.4199999996949,0.003901268,468.4199999996949,1.909944e-05,468.4199999996949,4.012755e-05
468.43499999969487,9.706012e-05,468.43499999969487,0.004007159,468.43499999969487,1.96699e-05,468.43499999969487,4.326052e-05
468.44999999969485,0.0001060276,468.44999999969485,0.004062077,468.44999999969485,1.968994e-05,468.44999999969485,4.413446e-05
468.46499999969484,0.0001066365,468.46499999969484,0.004254715,468.46499999969484,1.965987e-05,468.46499999969484,4.458001e-05
468.4799999996948,0.0001080482,468.4799999996948,0.004381371,468.4799999996948,1.965342e-05,468.4799999996948,4.649757e-05
468.4949999996948,0.0001096623,468.4949999996948,0.004592425,468.4949999996948,1.969638e-05,468.4949999996948,4.874539e-05
468.5099999996948,0.0001130325,468.5099999996948,0.00460094,468.5099999996948,1.978344e-05,468.5099999996948,4.922821e-05
468.5249999996948,0.000113169,468.5249999996948,0.004597897,468.5249999996948,1.983251e-05,468.5249999996948,4.910444e-05
468.53999999969477,0.0001146674,468.53999999969477,0.004566562,468.53999999969477,1.97934e-05,468.53999999969477,4.882249e-05
468.55499999969476,0.0001149607,468.55499999969476,0.004740565,468.55499999969476,1.961109e-05,468.55499999969476,4.971795e-05
468.56999999969474,0.000124471,468.56999999969474,0.004899391,468.56999999969474,1.916277e-05,468.56999999969474,5.293162e-05
468.58499999969473,0.0001306586,468.58499999969473,0.004948316,468.58499999969473,1.916571e-05,468.58499999969473,5.552944e-05
468.5999999996947,0.0001615859,468.5999999996947,0.004908372,468.5999999996947,1.908026e-05,468.5999999996947,7.356988e-05
468.6149999996947,0.0001764259,468.6149999996947,0.004917988,468.6149999996947,1.804282e-05,468.6149999996947,7.901208e-05
468.6299999996947,0.0001695673,468.6299999996947,0.004972898,468.6299999996947,1.036461e-05,468.6299999996947,7.497771e-05
468.6449999996947,0.0001670508,468.6449999996947,0.004973696,468.6449999996947,1.017117e-05,468.6449999996947,7.451844e-05
468.65999999969466,0.0001765636,468.65999999969466,0.00500748,468.65999999969466,1.052242e-05,468.65999999969466,7.815306e-05
468.67499999969465,0.000170208,468.67499999969465,0.00502017,468.67499999969465,8.92131e-06,468.67499999969465,7.712668e-05
468.68999999969463,0.0001667694,468.68999999969463,0.005102585,468.68999999969463,7.867457e-06,468.68999999969463,7.62686e-05
468.7049999996946,0.0001647275,468.7049999996946,0.005131086,468.7049999996946,7.779228e-06,468.7049999996946,7.568977e-05
468.7199999996946,0.0001649512,468.7199999996946,0.00500436,468.7199999996946,8.077717e-06,468.7199999996946,7.562181e-05
468.7349999996946,0.0001662506,468.7349999996946,0.004940922,468.7349999996946,8.260502e-06,468.7349999996946,7.476379e-05
468.7499999996946,0.000166748,468.7499999996946,0.004952377,468.7499999996946,8.246849e-06,468.7499999996946,7.421556e-05
468.76499999969457,0.0001893267,468.76499999969457,0.005056971,468.76499999969457,1.009052e-05,468.76499999969457,9.04061e-05
468.77999999969455,0.0002284302,468.77999999969455,0.005074616,468.77999999969455,1.282702e-05,468.77999999969455,0.0001087593
468.79499999969454,0.0002292679,468.79499999969454,0.005075755,468.79499999969454,1.294508e-05,468.79499999969454,0.0001101367
468.8099999996945,0.0002278456,468.8099999996945,0.005031149,468.8099999996945,1.290694e-05,468.8099999996945,0.0001091767
468.8249999996945,0.0002221481,468.8249999996945,0.005039175,468.8249999996945,1.289165e-05,468.8249999996945,0.0001083333
468.8399999996945,0.0002258003,468.8399999996945,0.004943952,468.8399999996945,1.312126e-05,468.8399999996945,0.0001085841
468.8549999996945,0.0002043295,468.8549999996945,0.004885164,468.8549999996945,1.273776e-05,468.8549999996945,9.786431e-05
468.86999999969447,0.0001953579,468.86999999969447,0.004816721,468.86999999969447,1.252362e-05,468.86999999969447,9.515142e-05
468.88499999969446,0.0001945595,468.88499999969446,0.004691914,468.88499999969446,1.234691e-05,468.88499999969446,9.554279e-05
468.89999999969444,0.0001924726,468.89999999969444,0.004691304,468.89999999969444,1.234234e-05,468.89999999969444,9.445275e-05
468.91499999969443,0.000184881,468.91499999969443,0.004762936,468.91499999969443,1.209214e-05,468.91499999969443,9.252833e-05
468.9299999996944,0.0001821972,468.9299999996944,0.004800037,468.9299999996944,1.193855e-05,468.9299999996944,9.174032e-05
468.9449999996944,0.0001814996,468.9449999996944,0.004750483,468.9449999996944,1.194799e-05,468.9449999996944,9.152387e-05
468.9599999996944,0.0001803779,468.9599999996944,0.004722715,468.9599999996944,1.174225e-05,468.9599999996944,9.126616e-05
468.9749999996944,0.0001783429,468.9749999996944,0.004604041,468.9749999996944,1.143841e-05,468.9749999996944,9.052802e-05
468.98999999969436,0.0001749659,468.98999999969436,0.004558713,468.98999999969436,1.123838e-05,468.98999999969436,8.959361e-05
469.00499999969435,0.0001748378,469.00499999969435,0.004767816,469.00499999969435,1.130088e-05,469.00499999969435,8.944144e-05
469.01999999969433,8.236252e-05,469.01999999969433,0.004854346,469.01999999969433,6.107498e-06,469.01999999969433,4.089601e-05
469.0349999996943,7.324442e-05,469.0349999996943,0.00481143,469.0349999996943,4.82986e-06,469.0349999996943,3.835162e-05
469.0499999996943,7.207948e-05,469.0499999996943,0.00481143,469.0499999996943,4.81818e-06,469.0499999996943,3.735315e-05
469.0649999996943,7.255554e-05,469.0649999996943,0.004879554,469.0649999996943,4.806471e-06,469.0649999996943,3.717586e-05
469.0799999996943,6.003703e-05,469.0799999996943,0.004837004,469.0799999996943,4.587538e-06,469.0799999996943,3.12001e-05
469.09499999969427,3.643759e-05,469.09499999969427,0.00486963,469.09499999969427,4.639445e-06,469.09499999969427,2.095495e-05
469.10999999969425,3.375565e-05,469.10999999969425,0.004835026,469.10999999969425,4.919443e-06,469.10999999969425,1.913113e-05
469.12499999969424,2.955434e-05,469.12499999969424,0.004851403,469.12499999969424,5.227635e-06,469.12499999969424,1.619897e-05
469.1399999996942,3.260555e-05,469.1399999996942,0.004908519,469.1399999996942,5.197909e-06,469.1399999996942,1.56163e-05
469.1549999996942,3.379735e-05,469.1549999996942,0.004782193,469.1549999996942,5.197909e-06,469.1549999996942,1.567572e-05
469.1699999996942,3.401505e-05,469.1699999996942,0.004745431,469.1699999996942,5.195198e-06,469.1699999996942,1.456715e-05
469.1849999996942,3.475939e-05,469.1849999996942,0.004820109,469.1849999996942,5.233022e-06,469.1849999996942,1.459516e-05
469.19999999969417,3.531422e-05,469.19999999969417,0.004831864,469.19999999969417,5.278585e-06,469.19999999969417,1.392744e-05
469.21499999969416,3.614336e-05,469.21499999969416,0.004783319,469.21499999969416,5.584614e-06,469.21499999969416,1.363924e-05
469.22999999969414,3.598869e-05,469.22999999969414,0.004783319,469.22999999969414,5.602244e-06,469.22999999969414,1.359164e-05
469.24499999969413,3.587029e-05,469.24499999969413,0.004751209,469.24499999969413,5.523745e-06,469.24499999969413,1.358853e-05
469.2599999996941,3.495377e-05,469.2599999996941,0.004711101,469.2599999996941,5.363302e-06,469.2599999996941,1.456038e-05
469.2749999996941,3.498479e-05,469.2749999996941,0.004711094,469.2749999996941,5.211442e-06,469.2749999996941,1.434792e-05
469.2899999996941,3.577355e-05,469.2899999996941,0.004784072,469.2899999996941,5.230329e-06,469.2899999996941,1.407834e-05
469.3049999996941,3.592288e-05,469.3049999996941,0.004708971,469.3049999996941,5.574516e-06,469.3049999996941,1.420683e-05
469.31999999969406,3.549565e-05,469.31999999969406,0.004681645,469.31999999969406,5.503306e-06,469.31999999969406,1.355116e-05
469.33499999969405,3.448679e-05,469.33499999969405,0.004586582,469.33499999969405,5.629835e-06,469.33499999969405,1.341954e-05
469.34999999969403,3.446555e-05,469.34999999969403,0.00469032,469.34999999969403,5.436346e-06,469.34999999969403,1.363614e-05
469.364999999694,3.510097e-05,469.364999999694,0.004825969,469.364999999694,5.151632e-06,469.364999999694,1.350222e-05
469.379999999694,3.755399e-05,469.379999999694,0.004831003,469.379999999694,4.993339e-06,469.379999999694,1.349909e-05
469.394999999694,3.898369e-05,469.394999999694,0.004841838,469.394999999694,5.379038e-06,469.394999999694,1.415219e-05
469.409999999694,3.750219e-05,469.409999999694,0.004917331,469.409999999694,6.936866e-06,469.409999999694,1.638401e-05
469.42499999969397,4.03708e-05,469.42499999969397,0.005004605,469.42499999969397,6.97938e-06,469.42499999969397,1.732916e-05
