X[s],a: EMG RMS 1-1,X[s].1,a: EMG RMS 1-2,X[s].2,a: EMG RMS 1-3,X[s].3,a: EMG RMS 1-4
515.0099999996526,4.926883e-05,515.0099999996526,0.004815216,515.0099999996526,8.166172e-06,515.0099999996526,2.152466e-05
515.0249999996526,5.286372e-05,515.0249999996526,0.004726874,515.0249999996526,7.944076e-06,515.0249999996526,2.376119e-05
515.0399999996525,5.125974e-05,515.0399999996525,0.004726943,515.0399999996525,7.166593e-06,515.0399999996525,2.321665e-05
515.0549999996525,5.170846e-05,515.0549999996525,0.004737597,515.0549999996525,7.160693e-06,515.0549999996525,2.370718e-05
515.0699999996525,5.051621e-05,515.0699999996525,0.004417679,515.0699999996525,6.382687e-06,515.0699999996525,2.376179e-05
515.0849999996525,4.803715e-05,515.0849999996525,0.004093189,515.0849999996525,6.075122e-06,515.0849999996525,2.288851e-05
515.0999999996525,4.69348e-05,515.0999999996525,0.003976906,515.0999999996525,6.023894e-06,515.0999999996525,2.123807e-05
515.1149999996525,4.57607e-05,515.1149999996525,0.003900778,515.1149999996525,6.002811e-06,515.1149999996525,2.102408e-05
515.1299999996525,4.41737e-05,515.1299999996525,0.003811994,515.1299999996525,5.584614e-06,515.1299999996525,2.032986e-05
515.1449999996524,4.26839e-05,515.1449999996524,0.003924209,515.1449999996524,5.579567e-06,515.1449999996524,2.013561e-05
515.1599999996524,4.013809e-05,515.1599999996524,0.004160212,515.1599999996524,5.305204e-06,515.1599999996524,1.985381e-05
515.1749999996524,3.678695e-05,515.1749999996524,0.004351533,515.1749999996524,5.165286e-06,515.1749999996524,1.933766e-05
515.1899999996524,3.622434e-05,515.1899999996524,0.004503082,515.1899999996524,4.832776e-06,515.1899999996524,1.866149e-05
515.2049999996524,3.65688e-05,515.2049999996524,0.004570577,515.2049999996524,4.500739e-06,515.2049999996524,1.882832e-05
515.2199999996524,3.855055e-05,515.2199999996524,0.004478294,515.2199999996524,4.68176e-06,515.2199999996524,2.095025e-05
515.2349999996524,3.916826e-05,515.2349999996524,0.004343777,515.2349999996524,6.387099e-06,515.2349999996524,2.271367e-05
515.2499999996523,3.960815e-05,515.2499999996523,0.004183486,515.2499999996523,6.333946e-06,515.2499999996523,2.246297e-05
515.2649999996523,3.753111e-05,515.2649999996523,0.004046854,515.2649999996523,6.228541e-06,515.2649999996523,2.082413e-05
515.2799999996523,3.467337e-05,515.2799999996523,0.003913554,515.2799999996523,6.040241e-06,515.2799999996523,2.061746e-05
515.2949999996523,3.522275e-05,515.2949999996523,0.003749325,515.2949999996523,6.01219e-06,515.2949999996523,2.149519e-05
515.3099999996523,3.571089e-05,515.3099999996523,0.003623403,515.3099999996523,5.991066e-06,515.3099999996523,2.16883e-05
515.3249999996523,3.785401e-05,515.3249999996523,0.003591182,515.3249999996523,6.217223e-06,515.3249999996523,2.256621e-05
515.3399999996523,4.283643e-05,515.3399999996523,0.003474893,515.3399999996523,6.183143e-06,515.3399999996523,2.7006e-05
515.3549999996523,5.286745e-05,515.3549999996523,0.003395107,515.3549999996523,6.75163e-06,515.3549999996523,3.132851e-05
515.3699999996522,5.343303e-05,515.3699999996522,0.003339696,515.3699999996522,6.963215e-06,515.3699999996522,3.209916e-05
515.3849999996522,5.926576e-05,515.3849999996522,0.003300496,515.3849999996522,7.63668e-06,515.3849999996522,3.505317e-05
515.3999999996522,6.097249e-05,515.3999999996522,0.003052903,515.3999999996522,7.708283e-06,515.3999999996522,3.578221e-05
515.4149999996522,6.10143e-05,515.4149999996522,0.002702082,515.4149999996522,7.871038e-06,515.4149999996522,3.626709e-05
515.4299999996522,6.157734e-05,515.4299999996522,0.002244965,515.4299999996522,7.919212e-06,515.4299999996522,3.615506e-05
515.4449999996522,6.090985e-05,515.4449999996522,0.0015948,515.4449999996522,7.908532e-06,515.4449999996522,3.598321e-05
515.4599999996522,6.049329e-05,515.4599999996522,0.001140659,515.4599999996522,7.849532e-06,515.4599999996522,3.581173e-05
515.4749999996521,5.794884e-05,515.4749999996521,0.001153652,515.4749999996521,7.742928e-06,515.4749999996521,3.430044e-05
515.4899999996521,5.69197e-05,515.4899999996521,0.00110687,515.4899999996521,6.466009e-06,515.4899999996521,3.342856e-05
515.5049999996521,5.620143e-05,515.5049999996521,0.0009574752,515.5049999996521,6.404719e-06,515.5049999996521,3.306758e-05
515.5199999996521,5.51195e-05,515.5199999996521,0.000773492,515.5199999996521,6.391509e-06,515.5199999996521,3.205481e-05
515.5349999996521,5.455126e-05,515.5349999996521,0.0006042105,515.5349999996521,6.378271e-06,515.5349999996521,3.169241e-05
515.5499999996521,5.370362e-05,515.5499999996521,0.0004676712,515.5499999996521,6.474718e-06,515.5499999996521,3.078009e-05
515.5649999996521,5.344437e-05,515.5649999996521,0.0003639426,515.5649999996521,6.629514e-06,515.5649999996521,3.0602e-05
515.579999999652,5.139038e-05,515.579999999652,0.000285396,515.579999999652,6.353931e-06,515.579999999652,2.906459e-05
515.594999999652,4.363822e-05,515.594999999652,0.0002261603,515.594999999652,6.160319e-06,515.594999999652,2.330084e-05
515.609999999652,3.489569e-05,515.609999999652,0.0001792693,515.609999999652,5.684616e-06,515.609999999652,1.979483e-05
515.624999999652,3.166528e-05,515.624999999652,0.0001417061,515.624999999652,5.176183e-06,515.624999999652,1.757454e-05
515.639999999652,2.329419e-05,515.639999999652,0.0001125056,515.639999999652,4.354386e-06,515.639999999652,1.388794e-05
515.654999999652,2.059696e-05,515.654999999652,8.938536e-05,515.654999999652,4.236323e-06,515.654999999652,1.155481e-05
515.669999999652,1.938423e-05,515.669999999652,7.044351e-05,515.669999999652,3.986198e-06,515.669999999652,1.130462e-05
515.684999999652,1.779281e-05,515.684999999652,5.544871e-05,515.684999999652,3.90768e-06,515.684999999652,1.121454e-05
515.6999999996519,1.955786e-05,515.6999999996519,4.479626e-05,515.6999999996519,3.745709e-06,515.6999999996519,1.233207e-05
515.7149999996519,2.003251e-05,515.7149999996519,3.67724e-05,515.7149999996519,3.723076e-06,515.7149999996519,1.241631e-05
515.7299999996519,2.054834e-05,515.7299999996519,3.025806e-05,515.7299999996519,3.719291e-06,515.7299999996519,1.243445e-05
515.7449999996519,2.077944e-05,515.7449999996519,2.633308e-05,515.7449999996519,3.692683e-06,515.7449999996519,1.227252e-05
515.7599999996519,2.093209e-05,515.7599999996519,2.32954e-05,515.7599999996519,3.745709e-06,515.7599999996519,1.228973e-05
515.7749999996519,2.028616e-05,515.7749999996519,1.979554e-05,515.7749999996519,4.229668e-06,515.7749999996519,1.239132e-05
515.7899999996519,2.066183e-05,515.7899999996519,1.745551e-05,515.7899999996519,4.93374e-06,515.7899999996519,1.279293e-05
515.8049999996518,2.133403e-05,515.8049999996518,1.586331e-05,515.8049999996518,5.118714e-06,515.8049999996518,1.270343e-05
515.8199999996518,2.090987e-05,515.8199999996518,1.47526e-05,515.8199999996518,5.178904e-06,515.8199999996518,1.212936e-05
515.8349999996518,2.163433e-05,515.8349999996518,1.395775e-05,515.8349999996518,5.444114e-06,515.8349999996518,1.312663e-05
515.8499999996518,2.240332e-05,515.8499999996518,1.349491e-05,515.8499999996518,5.958057e-06,515.8499999996518,1.340484e-05
515.8649999996518,2.79377e-05,515.8649999996518,1.315557e-05,515.8649999996518,6.834577e-06,515.8649999996518,1.60285e-05
515.8799999996518,3.810806e-05,515.8799999996518,2.006904e-05,515.8799999996518,7.410121e-06,515.8799999996518,1.86713e-05
515.8949999996518,4.230167e-05,515.8949999996518,3.030736e-05,515.8949999996518,7.425313e-06,515.8949999996518,1.950738e-05
515.9099999996517,4.519479e-05,515.9099999996517,0.0008552504,515.9099999996517,7.721065e-06,515.9099999996517,2.187907e-05
515.9249999996517,5.5347e-05,515.9249999996517,0.001488245,515.9249999996517,8.656856e-06,515.9249999996517,2.667008e-05
515.9399999996517,6.080731e-05,515.9399999996517,0.002028843,515.9399999996517,9.074732e-06,515.9399999996517,2.770275e-05
515.9549999996517,6.148073e-05,515.9549999996517,0.002367425,515.9549999996517,9.074732e-06,515.9549999996517,2.861768e-05
515.9699999996517,6.285366e-05,515.9699999996517,0.002677984,515.9699999996517,9.062304e-06,515.9699999996517,2.907089e-05
515.9849999996517,6.326158e-05,515.9849999996517,0.002988685,515.9849999996517,9.043632e-06,515.9849999996517,2.950568e-05
515.9999999996517,6.702105e-05,515.9999999996517,0.003210538,515.9999999996517,9.351477e-06,515.9999999996517,3.23466e-05
516.0149999996516,8.704452e-05,516.0149999996516,0.003500085,516.0149999996516,1.026903e-05,516.0149999996516,3.994389e-05
516.0299999996516,9.178254e-05,516.0299999996516,0.003606017,516.0299999996516,1.011979e-05,516.0299999996516,4.075385e-05
516.0449999996516,9.259271e-05,516.0449999996516,0.003659108,516.0449999996516,9.568879e-06,516.0449999996516,4.154701e-05
516.0599999996516,9.82992e-05,516.0599999996516,0.003759815,516.0599999996516,1.016424e-05,516.0599999996516,4.395279e-05
516.0749999996516,0.0001012825,516.0749999996516,0.003954068,516.0749999996516,1.095144e-05,516.0749999996516,4.562598e-05
516.0899999996516,0.0001033927,516.0899999996516,0.004149491,516.0899999996516,1.092568e-05,516.0899999996516,4.594902e-05
516.1049999996516,0.0001030879,516.1049999996516,0.004283796,516.1049999996516,1.07266e-05,516.1049999996516,4.588705e-05
516.1199999996516,0.0001011047,516.1199999996516,0.004517984,516.1199999996516,1.018224e-05,516.1199999996516,4.508338e-05
516.1349999996515,9.727902e-05,516.1349999996515,0.004717243,516.1349999996515,9.833158e-06,516.1349999996515,4.440588e-05
516.1499999996515,9.604248e-05,516.1499999996515,0.004800024,516.1499999996515,9.811646e-06,516.1499999996515,4.470591e-05
516.1649999996515,9.465923e-05,516.1649999996515,0.004674237,516.1649999996515,9.562988e-06,516.1649999996515,4.391656e-05
516.1799999996515,9.219249e-05,516.1799999996515,0.004525736,516.1799999996515,9.191949e-06,516.1799999996515,4.461602e-05
516.1949999996515,9.12569e-05,516.1949999996515,0.004389512,516.1949999996515,9.808774e-06,516.1949999996515,4.47478e-05
516.2099999996515,9.024344e-05,516.2099999996515,0.004244373,516.2099999996515,1.000781e-05,516.2099999996515,4.487826e-05
516.2249999996515,8.924309e-05,516.2249999996515,0.00406919,516.2249999996515,9.964083e-06,516.2249999996515,4.459897e-05
516.2399999996514,8.847136e-05,516.2399999996514,0.003863138,516.2399999996514,1.045796e-05,516.2399999996514,4.418071e-05
516.2549999996514,8.294606e-05,516.2549999996514,0.003679786,516.2549999996514,1.07266e-05,516.2549999996514,4.012123e-05
516.2699999996514,6.782979e-05,516.2699999996514,0.003469417,516.2699999996514,1.072398e-05,516.2699999996514,3.526552e-05
516.2849999996514,6.459143e-05,516.2849999996514,0.00338834,516.2849999996514,1.067394e-05,516.2849999996514,3.476749e-05
516.2999999996514,6.247195e-05,516.2999999996514,0.003268574,516.2999999996514,1.095273e-05,516.2999999996514,3.365953e-05
516.3149999996514,5.324711e-05,516.3149999996514,0.0031532,516.3149999996514,1.019192e-05,516.3149999996514,3.035009e-05
516.3299999996514,4.966522e-05,516.3299999996514,0.002895219,516.3299999996514,9.761266e-06,516.3299999996514,2.837893e-05
516.3449999996513,5.120255e-05,516.3449999996513,0.002594514,516.3449999996513,9.730914e-06,516.3449999996513,2.789228e-05
516.3599999996513,5.287091e-05,516.3599999996513,0.002333704,516.3599999996513,9.690296e-06,516.3599999996513,2.781946e-05
516.3749999996513,5.269183e-05,516.3749999996513,0.001859739,516.3749999996513,9.823125e-06,516.3749999996513,2.730583e-05
516.3899999996513,5.325293e-05,516.3899999996513,0.001163392,516.3899999996513,9.803028e-06,516.3899999996513,2.671863e-05
516.4049999996513,5.17406e-05,516.4049999996513,0.0008224651,516.4049999996513,9.755493e-06,516.4049999996513,2.441615e-05
516.4199999996513,5.07177e-05,516.4199999996513,0.0008252718,516.4199999996513,9.72657e-06,516.4199999996513,2.350069e-05
516.4349999996513,4.451392e-05,516.4349999996513,0.0007764863,516.4349999996513,9.029603e-06,516.4349999996513,1.75296e-05
516.4499999996513,4.238019e-05,516.4499999996513,0.0006491717,516.4499999996513,8.129866e-06,516.4499999996513,1.546401e-05
516.4649999996512,4.239049e-05,516.4649999996512,0.0005068563,516.4649999996512,8.063755e-06,516.4649999996512,1.58482e-05
516.4799999996512,4.262644e-05,516.4799999996512,0.0003841149,516.4799999996512,7.98652e-06,516.4799999996512,1.614235e-05
516.4949999996512,4.284366e-05,516.4949999996512,0.0002885337,516.4949999996512,7.545752e-06,516.4949999996512,1.682934e-05
516.5099999996512,3.92254e-05,516.5099999996512,0.000218739,516.5099999996512,6.300498e-06,516.5099999996512,1.617983e-05
516.5249999996512,3.335896e-05,516.5249999996512,0.0001680225,516.5249999996512,5.208738e-06,516.5249999996512,1.529824e-05
516.5399999996512,3.372308e-05,516.5399999996512,0.000130612,516.5399999996512,5.124215e-06,516.5399999996512,1.613275e-05
516.5549999996512,3.514268e-05,516.5549999996512,0.0001033121,516.5549999996512,4.711753e-06,516.5549999996512,1.662809e-05
516.5699999996511,3.633771e-05,516.5699999996511,8.349534e-05,516.5699999996511,4.690778e-06,516.5699999996511,1.721253e-05
516.5849999996511,4.124688e-05,516.5849999996511,6.74683e-05,516.5849999996511,5.060592e-06,516.5849999996511,2.090043e-05
516.5999999996511,3.814796e-05,516.5999999996511,5.56999e-05,516.5999999996511,5.118714e-06,516.5999999996511,2.187392e-05
516.6149999996511,3.805295e-05,516.6149999996511,4.737216e-05,516.6149999996511,4.777073e-06,516.6149999996511,2.282564e-05
516.6299999996511,4.100781e-05,516.6299999996511,4.127249e-05,516.6299999996511,5.219545e-06,516.6299999996511,2.456455e-05
516.6449999996511,4.387709e-05,516.6449999996511,3.524994e-05,516.6449999996511,5.438937e-06,516.6449999996511,2.721695e-05
516.6599999996511,5.249846e-05,516.6599999996511,0.0002802926,516.6599999996511,6.13052e-06,516.6599999996511,3.068842e-05
516.674999999651,5.465471e-05,516.674999999651,0.001044925,516.674999999651,6.663425e-06,516.674999999651,3.162834e-05
516.689999999651,5.592151e-05,516.689999999651,0.001419438,516.689999999651,6.652846e-06,516.689999999651,3.286632e-05
516.704999999651,5.665776e-05,516.704999999651,0.001647335,516.704999999651,6.610363e-06,516.704999999651,3.353248e-05
516.719999999651,5.884163e-05,516.719999999651,0.00197496,516.719999999651,6.650728e-06,516.719999999651,3.40018e-05
516.734999999651,5.896742e-05,516.734999999651,0.002156927,516.734999999651,6.635885e-06,516.734999999651,3.354172e-05
516.749999999651,6.002623e-05,516.749999999651,0.002482072,516.749999999651,6.665538e-06,516.749999999651,3.416835e-05
516.764999999651,6.125923e-05,516.764999999651,0.002729384,516.764999999651,6.848989e-06,516.764999999651,3.437305e-05
516.779999999651,6.088464e-05,516.779999999651,0.002900787,516.779999999651,6.855157e-06,516.779999999651,3.426057e-05
516.7949999996509,6.096394e-05,516.7949999996509,0.003038483,516.7949999996509,6.780777e-06,516.7949999996509,3.448802e-05
516.8099999996509,6.04115e-05,516.8099999996509,0.003428672,516.8099999996509,6.784931e-06,516.8099999996509,3.4284e-05
516.8249999996509,5.876977e-05,516.8249999996509,0.003750605,516.8249999996509,6.74119e-06,516.8249999996509,3.291472e-05
516.8399999996509,5.654103e-05,516.8399999996509,0.004020276,516.8399999996509,6.463831e-06,516.8399999996509,3.202623e-05
516.8549999996509,5.551777e-05,516.8549999996509,0.00423622,516.8549999996509,6.539662e-06,516.8549999996509,3.102488e-05
516.8699999996509,5.332774e-05,516.8699999996509,0.004358379,516.8699999996509,6.450741e-06,516.8699999996509,2.948276e-05
516.8849999996509,5.061093e-05,516.8849999996509,0.004421622,516.8849999996509,1.010447e-05,516.8849999996509,2.773629e-05
516.8999999996508,4.736472e-05,516.8999999996508,0.004634412,516.8999999996508,1.252925e-05,516.8999999996508,2.530073e-05
516.9149999996508,3.761471e-05,516.9149999996508,0.004807325,516.9149999996508,1.293638e-05,516.9149999996508,2.098048e-05
516.9299999996508,3.659768e-05,516.9299999996508,0.004835866,516.9299999996508,1.307717e-05,516.9299999996508,1.938859e-05
516.9449999996508,3.596873e-05,516.9449999996508,0.004959601,516.9449999996508,1.308148e-05,516.9449999996508,1.802094e-05
516.9599999996508,3.426756e-05,516.9599999996508,0.004870949,516.9599999996508,1.324734e-05,516.9599999996508,1.733648e-05
516.9749999996508,2.992522e-05,516.9749999996508,0.004823387,516.9749999996508,1.347088e-05,516.9749999996508,1.705302e-05
516.9899999996508,2.901123e-05,516.9899999996508,0.004803805,516.9899999996508,1.348656e-05,516.9899999996508,1.692783e-05
517.0049999996507,2.576582e-05,517.0049999996507,0.004697799,517.0049999996507,1.346042e-05,517.0049999996507,1.508964e-05
517.0199999996507,2.482694e-05,517.0199999996507,0.004503687,517.0199999996507,1.340799e-05,517.0199999996507,1.55494e-05
517.0349999996507,2.52779e-05,517.0349999996507,0.004281581,517.0349999996507,1.37134e-05,517.0349999996507,1.506535e-05
517.0499999996507,2.560182e-05,517.0499999996507,0.004210621,517.0499999996507,1.405932e-05,517.0499999996507,1.380043e-05
517.0649999996507,2.533078e-05,517.0649999996507,0.00407504,517.0649999996507,1.408534e-05,517.0649999996507,1.381064e-05
517.0799999996507,2.599605e-05,517.0799999996507,0.003917221,517.0799999996507,1.413326e-05,517.0799999996507,1.379533e-05
517.0949999996507,2.771445e-05,517.0949999996507,0.003732634,517.0949999996507,1.416612e-05,517.0949999996507,1.382185e-05
517.1099999996507,3.129207e-05,517.1099999996507,0.003550273,517.1099999996507,1.41691e-05,517.1099999996507,1.461445e-05
517.1249999996506,4.241807e-05,517.1249999996506,0.003420609,517.1249999996506,1.367946e-05,517.1249999996506,1.950665e-05
517.1399999996506,4.341978e-05,517.1399999996506,0.003281053,517.1399999996506,8.940237e-06,517.1399999996506,1.95182e-05
517.1549999996506,4.349887e-05,517.1549999996506,0.002973459,517.1549999996506,8.294538e-06,517.1549999996506,1.967348e-05
517.1699999996506,4.378935e-05,517.1699999996506,0.002583045,517.1699999996506,7.651422e-06,517.1699999996506,1.975565e-05
517.1849999996506,4.381058e-05,517.1849999996506,0.002065339,517.1849999996506,7.536412e-06,517.1849999996506,1.981048e-05
517.1999999996506,4.357523e-05,517.1999999996506,0.001374688,517.1999999996506,7.513949e-06,517.1999999996506,1.980336e-05
517.2149999996506,4.548064e-05,517.2149999996506,0.001252102,517.2149999996506,7.053663e-06,517.2149999996506,1.918261e-05
517.2299999996505,4.943267e-05,517.2299999996505,0.001246137,517.2299999996505,6.565459e-06,517.2299999996505,1.845655e-05
517.2449999996505,5.062457e-05,517.2449999996505,0.001101328,517.2449999996505,6.472542e-06,517.2449999996505,1.855475e-05
517.2599999996505,5.152097e-05,517.2599999996505,0.0008872765,517.2599999996505,6.597564e-06,517.2599999996505,1.838773e-05
517.2749999996505,5.427244e-05,517.2749999996505,0.0006807467,517.2749999996505,6.507271e-06,517.2749999996505,1.8484e-05
517.2899999996505,5.354417e-05,517.2899999996505,0.0005152086,517.2899999996505,5.602244e-06,517.2899999996505,1.845731e-05
517.3049999996505,5.311281e-05,517.3049999996505,0.0003928579,517.3049999996505,4.873412e-06,517.3049999996505,1.853955e-05
517.3199999996505,5.430254e-05,517.3199999996505,0.00030456,517.3199999996505,5.068936e-06,517.3199999996505,1.919655e-05
517.3349999996504,5.439999e-05,517.3349999996504,0.0002395627,517.3349999996504,5.230329e-06,517.3349999996504,2.005359e-05
517.3499999996504,5.290793e-05,517.3499999996504,0.0001900206,517.3499999996504,5.746233e-06,517.3499999996504,2.032155e-05
517.3649999996504,5.163213e-05,517.3649999996504,0.0001513298,517.3649999996504,5.773135e-06,517.3649999996504,1.895879e-05
517.3799999996504,4.657386e-05,517.3799999996504,0.0001203947,517.3799999996504,6.002811e-06,517.3799999996504,1.681092e-05
517.3949999996504,5.051258e-05,517.3949999996504,9.568688e-05,517.3949999996504,6.720261e-06,517.3949999996504,1.710169e-05
517.4099999996504,5.105708e-05,517.4099999996504,7.596119e-05,517.4099999996504,6.983416e-06,517.4099999996504,1.746197e-05
517.4249999996504,5.200402e-05,517.4249999996504,6.028522e-05,517.4249999996504,9.38606e-06,517.4249999996504,1.743937e-05
517.4399999996504,5.225155e-05,517.4399999996504,4.787765e-05,517.4399999996504,1.077508e-05,517.4399999996504,1.753362e-05
517.4549999996503,5.207278e-05,517.4549999996503,3.799886e-05,517.4549999996503,1.082855e-05,517.4549999996503,1.746842e-05
517.4699999996503,4.968621e-05,517.4699999996503,3.025573e-05,517.4699999996503,1.106151e-05,517.4699999996503,1.733973e-05
517.4849999996503,4.662978e-05,517.4849999996503,2.424942e-05,517.4849999996503,1.130088e-05,517.4849999996503,1.747971e-05
517.4999999996503,4.475064e-05,517.4999999996503,1.953335e-05,517.4999999996503,1.13878e-05,517.4999999996503,1.711898e-05
517.5149999996503,4.430902e-05,517.5149999996503,1.771346e-05,517.5149999996503,1.139893e-05,517.5149999996503,1.750065e-05
517.5299999996503,4.276336e-05,517.5299999996503,1.572238e-05,517.5299999996503,1.146915e-05,517.5299999996503,1.796693e-05
517.5449999996503,4.395952e-05,517.5449999996503,1.581172e-05,517.5449999996503,1.158038e-05,517.5449999996503,1.867356e-05
517.5599999996502,4.363628e-05,517.5599999996502,1.602587e-05,517.5599999996502,1.188534e-05,517.5599999996502,1.867582e-05
517.5749999996502,4.271689e-05,517.5749999996502,1.669742e-05,517.5749999996502,1.224954e-05,517.5749999996502,1.843975e-05
517.5899999996502,4.208031e-05,517.5899999996502,1.728929e-05,517.5899999996502,1.220808e-05,517.5899999996502,1.680086e-05
517.6049999996502,4.220999e-05,517.6049999996502,1.889106e-05,517.6049999996502,1.206181e-05,517.6049999996502,1.610916e-05
517.6199999996502,3.858854e-05,517.6199999996502,2.222403e-05,517.6199999996502,1.239587e-05,517.6199999996502,1.581172e-05
517.6349999996502,3.672525e-05,517.6349999996502,2.331897e-05,517.6349999996502,1.237312e-05,517.6349999996502,1.543574e-05
517.6499999996502,3.343741e-05,517.6499999996502,2.361073e-05,517.6499999996502,1.35522e-05,517.6499999996502,1.616677e-05
517.6649999996501,3.231436e-05,517.6649999996501,2.678287e-05,517.6649999996501,1.525213e-05,517.6649999996501,1.537631e-05
517.6799999996501,2.945455e-05,517.6799999996501,2.925107e-05,517.6799999996501,1.437048e-05,517.6799999996501,1.528626e-05
517.6949999996501,2.901074e-05,517.6949999996501,3.011058e-05,517.6949999996501,1.355532e-05,517.6949999996501,1.532584e-05
517.7099999996501,3.362771e-05,517.7099999996501,3.014238e-05,517.7099999996501,1.611702e-05,517.7099999996501,1.563703e-05
517.7249999996501,4.636864e-05,517.7249999996501,3.017974e-05,517.7249999996501,3.347446e-05,517.7249999996501,1.540102e-05
517.7399999996501,5.417814e-05,517.7399999996501,3.028691e-05,517.7399999996501,4.861286e-05,517.7399999996501,1.480978e-05
517.7549999996501,5.502691e-05,517.7549999996501,2.923325e-05,517.7549999996501,4.98758e-05,517.7549999996501,1.534421e-05
517.76999999965,6.1051e-05,517.76999999965,2.681126e-05,517.76999999965,5.30316e-05,517.76999999965,1.52752e-05
517.78499999965,6.847735e-05,517.78499999965,2.670597e-05,517.78499999965,6.021134e-05,517.78499999965,1.515949e-05
517.79999999965,6.981661e-05,517.79999999965,2.651912e-05,517.79999999965,6.403091e-05,517.79999999965,1.395977e-05
517.81499999965,6.980389e-05,517.81499999965,2.642173e-05,517.81499999965,6.469124e-05,517.81499999965,1.37411e-05
517.82999999965,6.984848e-05,517.82999999965,2.600255e-05,517.82999999965,6.470496e-05,517.82999999965,1.331204e-05
517.84499999965,7.012624e-05,517.84499999965,2.574503e-05,517.84499999965,6.483089e-05,517.84499999965,1.357816e-05
517.85999999965,6.978977e-05,517.85999999965,2.381981e-05,517.85999999965,6.491535e-05,517.85999999965,1.35418e-05
517.87499999965,6.964267e-05,517.87499999965,2.029657e-05,517.87499999965,6.488909e-05,517.87499999965,1.240496e-05
517.88999999965,6.908867e-05,517.88999999965,1.907213e-05,517.88999999965,6.486564e-05,517.88999999965,1.173265e-05
517.9049999996499,6.944558e-05,517.9049999996499,1.805765e-05,517.9049999996499,6.445127e-05,517.9049999996499,1.166281e-05
517.9199999996499,6.966107e-05,517.9199999996499,1.296031e-05,517.9199999996499,6.372306e-05,517.9199999996499,1.164225e-05
517.9349999996499,6.972272e-05,517.9349999996499,7.099447e-06,517.9349999996499,6.334324e-05,517.9349999996499,1.208631e-05
517.9499999996499,7.013408e-05,517.9499999996499,3.211145e-06,517.9499999996499,6.327115e-05,517.9499999996499,1.273001e-05
517.9649999996499,6.749919e-05,517.9649999996499,2.848496e-06,517.9649999996499,6.218854e-05,517.9649999996499,1.264675e-05
517.9799999996499,5.650166e-05,517.9799999996499,2.813666e-06,517.9799999996499,5.083339e-05,517.9799999996499,1.274328e-05
517.9949999996498,5.043528e-05,517.9949999996498,2.379674e-06,517.9949999996498,3.835603e-05,517.9949999996498,1.254834e-05
518.0099999996498,4.926282e-05,518.0099999996498,2.207712e-06,518.0099999996498,3.750369e-05,518.0099999996498,1.141498e-05
518.0249999996498,4.221033e-05,518.0249999996498,5.082812e-06,518.0249999996498,3.29545e-05,518.0249999996498,1.178416e-05
518.0399999996498,3.233876e-05,518.0399999996498,6.782854e-06,518.0399999996498,2.072038e-05,518.0399999996498,1.177819e-05
518.0549999996498,2.939806e-05,518.0549999996498,1.032102e-05,518.0549999996498,1.007235e-05,518.0549999996498,1.226104e-05
518.0699999996498,2.944786e-05,518.0699999996498,1.130462e-05,518.0699999996498,7.36818e-06,518.0699999996498,1.237653e-05
518.0849999996498,2.89081e-05,518.0849999996498,1.145194e-05,518.0849999996498,6.977362e-06,518.0849999996498,1.224954e-05
518.0999999996498,2.849386e-05,518.0999999996498,1.172665e-05,518.0999999996498,6.487759e-06,518.0999999996498,1.210494e-05
518.1149999996497,3.107524e-05,518.1149999996497,1.188652e-05,518.1149999996497,5.629835e-06,518.1149999996497,1.262668e-05
518.1299999996497,3.310377e-05,518.1299999996497,1.19527e-05,518.1299999996497,5.068936e-06,518.1299999996497,1.309116e-05
518.1449999996497,3.568563e-05,518.1449999996497,1.201383e-05,518.1449999996497,4.788854e-06,518.1449999996497,1.382491e-05
518.1599999996497,3.555552e-05,518.1599999996497,1.211658e-05,518.1599999996497,4.990517e-06,518.1599999996497,1.374213e-05
518.1749999996497,3.774145e-05,518.1749999996497,1.21189e-05,518.1749999996497,4.902232e-06,518.1749999996497,1.449444e-05
518.1899999996497,3.802035e-05,518.1899999996497,1.215024e-05,518.1899999996497,4.83569e-06,518.1899999996497,1.5324e-05
518.2049999996497,3.68367e-05,518.2049999996497,1.355116e-05,518.2049999996497,4.832776e-06,518.2049999996497,1.517157e-05
518.2199999996496,3.631095e-05,518.2199999996496,1.482784e-05,518.2199999996496,4.747494e-06,518.2199999996496,1.516599e-05
518.2349999996496,3.767384e-05,518.2349999996496,1.506067e-05,518.2349999996496,4.864733e-06,518.2349999996496,1.736895e-05
518.2499999996496,3.792427e-05,518.2499999996496,1.690784e-05,518.2499999996496,4.720713e-06,518.2499999996496,1.870295e-05
518.2649999996496,4.109737e-05,518.2649999996496,2.103547e-05,518.2649999996496,4.596741e-06,518.2649999996496,1.937769e-05
518.2799999996496,4.389635e-05,518.2799999996496,0.0007627695,518.2799999996496,4.39624e-06,518.2799999996496,2.105019e-05
518.2949999996496,4.511774e-05,518.2949999996496,0.001489145,518.2949999996496,4.434525e-06,518.2949999996496,2.185395e-05
518.3099999996496,4.941471e-05,518.3099999996496,0.001907291,518.3099999996496,4.35762e-06,518.3099999996496,2.284785e-05
518.3249999996495,5.100767e-05,518.3249999996495,0.002189253,518.3249999996495,4.402644e-06,518.3249999996495,2.290635e-05
518.3399999996495,5.120062e-05,518.3399999996495,0.002596984,518.3399999996495,4.887844e-06,518.3399999996495,2.302228e-05
518.3549999996495,5.111747e-05,518.3549999996495,0.003003512,518.3549999996495,4.973552e-06,518.3549999996495,2.345449e-05
518.3699999996495,5.01712e-05,518.3699999996495,0.003329114,518.3699999996495,5.057808e-06,518.3699999996495,2.29604e-05
518.3849999996495,4.975392e-05,518.3849999996495,0.003590647,518.3849999996495,5.038274e-06,518.3849999996495,2.270126e-05
518.3999999996495,4.891762e-05,518.3999999996495,0.003742866,518.3999999996495,4.984868e-06,518.3999999996495,2.291803e-05
518.4149999996495,4.815197e-05,518.4149999996495,0.003819369,518.4149999996495,4.794733e-06,518.4149999996495,2.296838e-05
518.4299999996495,4.659563e-05,518.4299999996495,0.003836414,518.4299999996495,4.962209e-06,518.4299999996495,2.237878e-05
518.4449999996494,4.717609e-05,518.4449999996494,0.0038573,518.4449999996494,5.032679e-06,518.4449999996494,2.204008e-05
518.4599999996494,4.778312e-05,518.4599999996494,0.003863267,518.4599999996494,5.049445e-06,518.4599999996494,2.219421e-05
518.4749999996494,4.678118e-05,518.4749999996494,0.003859369,518.4749999996494,5.508422e-06,518.4749999996494,2.186554e-05
518.4899999996494,4.582991e-05,518.4899999996494,0.003850994,518.4899999996494,5.792623e-06,518.4899999996494,1.994865e-05
518.5049999996494,4.636712e-05,518.5049999996494,0.003888861,518.5049999996494,6.275856e-06,518.5049999996494,1.913997e-05
518.5199999996494,4.168849e-05,518.5199999996494,0.004169001,518.5199999996494,6.457289e-06,518.5199999996494,1.770551e-05
518.5349999996494,4.060148e-05,518.5349999996494,0.004260522,518.5349999996494,6.678206e-06,518.5349999996494,1.525121e-05
518.5499999996493,4.100368e-05,518.5499999996493,0.004256138,518.5499999996493,6.646491e-06,518.5499999996493,1.446818e-05
518.5649999996493,3.699124e-05,518.5649999996493,0.004072601,518.5649999996493,6.705572e-06,518.5649999996493,1.366503e-05
518.5799999996493,3.776496e-05,518.5799999996493,0.003918752,518.5799999996493,6.665538e-06,518.5799999996493,1.36289e-05
518.5949999996493,4.061744e-05,518.5949999996493,0.003902854,518.5949999996493,6.417902e-06,518.5949999996493,1.335536e-05
518.6099999996493,4.085672e-05,518.6099999996493,0.003946012,518.6099999996493,6.468188e-06,518.6099999996493,1.361649e-05
518.6249999996493,4.063339e-05,518.6249999996493,0.004116244,518.6249999996493,6.420096e-06,518.6249999996493,1.365369e-05
518.6399999996493,4.259768e-05,518.6399999996493,0.004195853,518.6399999996493,6.522406e-06,518.6399999996493,1.303725e-05
518.6549999996492,4.420175e-05,518.6549999996492,0.00425311,518.6549999996492,6.857212e-06,518.6549999996492,1.300588e-05
518.6699999996492,4.969273e-05,518.6699999996492,0.004278263,518.6699999996492,7.36818e-06,518.6699999996492,1.422863e-05
518.6849999996492,5.042466e-05,518.6849999996492,0.004250625,518.6849999996492,7.429107e-06,518.6849999996492,1.445356e-05
518.6999999996492,5.355206e-05,518.6999999996492,0.004182146,518.6999999996492,7.8585e-06,518.6999999996492,1.706788e-05
518.7149999996492,5.999572e-05,518.7149999996492,0.004103698,518.7149999996492,8.653601e-06,518.7149999996492,1.892905e-05
518.7299999996492,6.17286e-05,518.7299999996492,0.00439644,518.7299999996492,8.922889e-06,518.7299999996492,2.082413e-05
518.7449999996492,6.222047e-05,518.7449999996492,0.004670934,518.7449999996492,8.617714e-06,518.7449999996492,2.302718e-05
518.7599999996492,6.301281e-05,518.7599999996492,0.004912117,518.7599999996492,8.669864e-06,518.7599999996492,2.588962e-05
518.7749999996491,6.305191e-05,518.7749999996491,0.004998241,518.7749999996491,9.539391e-06,518.7749999996491,2.608315e-05
518.7899999996491,6.242322e-05,518.7899999996491,0.004968415,518.7899999996491,1.047681e-05,518.7899999996491,2.624198e-05
518.8049999996491,6.120816e-05,518.8049999996491,0.004917441,518.8049999996491,1.071609e-05,518.8049999996491,2.617802e-05
518.8199999996491,6.140163e-05,518.8199999996491,0.00500524,518.8199999996491,1.077901e-05,518.8199999996491,2.639933e-05
518.8349999996491,6.29967e-05,518.8349999996491,0.004974956,518.8349999996491,1.081423e-05,518.8349999996491,2.768291e-05
518.8499999996491,6.28476e-05,518.8499999996491,0.004904643,518.8499999996491,1.082205e-05,518.8499999996491,2.773477e-05
518.8649999996491,6.341903e-05,518.8649999996491,0.004870562,518.8649999996491,1.096686e-05,518.8649999996491,2.764727e-05
518.879999999649,6.198775e-05,518.879999999649,0.004771082,518.879999999649,1.122584e-05,518.879999999649,2.770733e-05
518.894999999649,6.238507e-05,518.894999999649,0.004712446,518.894999999649,1.28358e-05,518.894999999649,2.856989e-05
518.909999999649,5.896145e-05,518.909999999649,0.00464065,518.909999999649,1.261105e-05,518.909999999649,2.762433e-05
518.924999999649,5.572949e-05,518.924999999649,0.004726144,518.924999999649,1.231149e-05,518.924999999649,2.738053e-05
518.939999999649,5.646624e-05,518.939999999649,0.00485513,518.939999999649,1.223459e-05,518.939999999649,2.765288e-05
518.954999999649,5.385921e-05,518.954999999649,0.004897293,518.954999999649,1.245482e-05,518.954999999649,2.663625e-05
518.969999999649,5.276022e-05,518.969999999649,0.004948323,518.969999999649,1.381676e-05,518.969999999649,2.636195e-05
518.984999999649,4.975817e-05,518.984999999649,0.004986155,518.984999999649,1.367431e-05,518.984999999649,2.319298e-05
518.9999999996489,4.989641e-05,518.9999999996489,0.004878242,518.9999999996489,1.420485e-05,518.9999999996489,2.087008e-05
519.0149999996489,4.922449e-05,519.0149999996489,0.004632412,519.0149999996489,1.416115e-05,519.0149999996489,1.985026e-05
519.0299999996489,4.955846e-05,519.0299999996489,0.004397771,519.0299999996489,1.301454e-05,519.0299999996489,1.956866e-05
519.0449999996489,5.192975e-05,519.0449999996489,0.004267429,519.0449999996489,1.285554e-05,519.0449999996489,1.925517e-05
519.0599999996489,5.222917e-05,519.0599999996489,0.00424243,519.0599999996489,1.560818e-05,519.0599999996489,1.938568e-05
519.0749999996489,5.051955e-05,519.0749999996489,0.004165933,519.0749999996489,1.679164e-05,519.0749999996489,1.841529e-05
519.0899999996489,5.082258e-05,519.0899999996489,0.004013267,519.0899999996489,1.762896e-05,519.0899999996489,1.881484e-05
519.1049999996488,5.160047e-05,519.1049999996488,0.003789135,519.1049999996488,1.860706e-05,519.1049999996488,1.846037e-05
519.1199999996488,5.215279e-05,519.1199999996488,0.003590872,519.1199999996488,2.23857e-05,519.1199999996488,1.848324e-05
519.1349999996488,5.492211e-05,519.1349999996488,0.003578904,519.1349999996488,2.231764e-05,519.1349999996488,1.878712e-05
519.1499999996488,5.428386e-05,519.1499999996488,0.00338174,519.1499999996488,2.418427e-05,519.1499999996488,1.796693e-05
519.1649999996488,5.441708e-05,519.1649999996488,0.003183202,519.1649999996488,2.520758e-05,519.1649999996488,1.776825e-05
519.1799999996488,5.189827e-05,519.1799999996488,0.00297588,519.1799999996488,2.520367e-05,519.1799999996488,1.627878e-05
519.1949999996488,5.492313e-05,519.1949999996488,0.0027199,519.1949999996488,2.585369e-05,519.1949999996488,1.688533e-05
519.2099999996487,5.929712e-05,519.2099999996487,0.002496128,519.2099999996487,2.854128e-05,519.2099999996487,1.74926e-05
519.2249999996487,5.97225e-05,519.2249999996487,0.002066475,519.2249999996487,3.474925e-05,519.2249999996487,1.834785e-05
519.2399999996487,6.420206e-05,519.2399999996487,0.001403279,519.2399999996487,3.628922e-05,519.2399999996487,1.999098e-05
519.2549999996487,6.955969e-05,519.2549999996487,0.0009703674,519.2549999996487,3.656148e-05,519.2549999996487,2.282873e-05
519.2699999996487,7.246889e-05,519.2699999996487,0.0009551274,519.2699999996487,3.658844e-05,519.2699999996487,2.47599e-05
519.2849999996487,7.406014e-05,519.2849999996487,0.0009433464,519.2849999996487,3.660922e-05,519.2849999996487,2.684434e-05
519.2999999996487,7.487337e-05,519.2999999996487,0.0008376266,519.2999999996487,3.651637e-05,519.2999999996487,2.822863e-05
519.3149999996486,7.5044e-05,519.3149999996486,0.0006858798,519.3149999996486,3.512143e-05,519.3149999996486,2.971927e-05
519.3299999996486,7.658746e-05,519.3299999996486,0.0005367987,519.3299999996486,3.470626e-05,519.3299999996486,3.175945e-05
519.3449999996486,7.558529e-05,519.3449999996486,0.0004133903,519.3449999996486,3.406306e-05,519.3449999996486,3.156726e-05
519.3599999996486,7.644607e-05,519.3599999996486,0.0003207192,519.3599999996486,3.375398e-05,519.3599999996486,3.212198e-05
519.3749999996486,7.500777e-05,519.3749999996486,0.0002474733,519.3749999996486,3.153377e-05,519.3749999996486,3.198178e-05
519.3899999996486,7.354134e-05,519.3899999996486,0.0001910265,519.3899999996486,3.092574e-05,519.3899999996486,3.16933e-05
519.4049999996486,7.337143e-05,519.4049999996486,0.0001490505,519.4049999996486,2.934195e-05,519.4049999996486,3.18971e-05
519.4199999996486,7.275389e-05,519.4199999996486,0.0001172698,519.4199999996486,2.870516e-05,519.4199999996486,3.197121e-05
519.4349999996485,7.168637e-05,519.4349999996485,9.28308e-05,519.4349999996485,2.857187e-05,519.4349999996485,3.206448e-05
519.4499999996485,7.859629e-05,519.4499999996485,7.492903e-05,519.4499999996485,2.904228e-05,519.4499999996485,3.271726e-05
519.4649999996485,8.17667e-05,519.4649999996485,6.141149e-05,519.4649999996485,2.186297e-05,519.4649999996485,3.538794e-05
519.4799999996485,7.970507e-05,519.4799999996485,5.093775e-05,519.4799999996485,1.59651e-05,519.4799999996485,3.487066e-05
519.4949999996485,7.768429e-05,519.4949999996485,3.959072e-05,519.4949999996485,1.613187e-05,519.4949999996485,3.531861e-05
519.5099999996485,7.346641e-05,519.5099999996485,2.915508e-05,519.5099999996485,1.740703e-05,519.5099999996485,3.307652e-05
519.5249999996485,7.235977e-05,519.5249999996485,2.321058e-05,519.5249999996485,2.095227e-05,519.5249999996485,3.229822e-05
519.5399999996484,6.997924e-05,519.5399999996484,2.088358e-05,519.5399999996484,2.285587e-05,519.5399999996484,3.002391e-05
519.5549999996484,6.957569e-05,519.5549999996484,1.91613e-05,519.5549999996484,2.287435e-05,519.5549999996484,2.94818e-05
519.5699999996484,6.842116e-05,519.5699999996484,1.616764e-05,519.5699999996484,2.280959e-05,519.5699999996484,2.693758e-05
519.5849999996484,6.728913e-05,519.5849999996484,1.356155e-05,519.5849999996484,2.277003e-05,519.5849999996484,2.540685e-05
519.5999999996484,6.712312e-05,519.5999999996484,1.273997e-05,519.5999999996484,2.283243e-05,519.5999999996484,2.485926e-05
519.6149999996484,6.555926e-05,519.6149999996484,1.379227e-05,519.6149999996484,2.310779e-05,519.6149999996484,2.448759e-05
519.6299999996484,6.548595e-05,519.6299999996484,1.548949e-05,519.6299999996484,2.326453e-05,519.6299999996484,2.437226e-05
519.6449999996483,6.542741e-05,519.6449999996483,1.633579e-05,519.6449999996483,2.328693e-05,519.6449999996483,2.408564e-05
519.6599999996483,6.547885e-05,519.6599999996483,0.0002409439,519.6599999996483,2.317171e-05,519.6599999996483,2.407686e-05
519.6749999996483,6.56694e-05,519.6749999996483,0.0003615088,519.6749999996483,2.303207e-05,519.6749999996483,2.423315e-05
519.6899999996483,6.397567e-05,519.6899999996483,0.0003740797,519.6899999996483,2.258617e-05,519.6899999996483,2.339134e-05
519.7049999996483,5.168339e-05,519.7049999996483,0.000374871,519.7049999996483,2.173307e-05,519.7049999996483,1.992958e-05
519.7199999996483,4.033973e-05,519.7199999996483,0.0004032022,519.7199999996483,2.139535e-05,519.7199999996483,1.603817e-05
519.7349999996483,3.883598e-05,519.7349999996483,0.001311502,519.7349999996483,2.172011e-05,519.7349999996483,1.343423e-05
519.7499999996483,3.738934e-05,519.7499999996483,0.001795138,519.7499999996483,1.979127e-05,519.7499999996483,1.176502e-05
519.7649999996482,3.836081e-05,519.7649999996482,0.002122728,519.7649999996482,1.672776e-05,519.7649999996482,1.204077e-05
519.7799999996482,3.861627e-05,519.7799999996482,0.002395149,519.7799999996482,1.281164e-05,519.7799999996482,1.222883e-05
519.7949999996482,3.598008e-05,519.7949999996482,0.002846517,519.7949999996482,1.667293e-05,519.7949999996482,1.193501e-05
519.8099999996482,3.88396e-05,519.8099999996482,0.003202396,519.8099999996482,1.687949e-05,519.8099999996482,1.16797e-05
519.8249999996482,4.425844e-05,519.8249999996482,0.003492027,519.8249999996482,1.703153e-05,519.8249999996482,1.091794e-05
519.8399999996482,4.523436e-05,519.8399999996482,0.003690743,519.8399999996482,1.707943e-05,519.8399999996482,1.13096e-05
519.8549999996482,5.731677e-05,519.8549999996482,0.003877784,519.8549999996482,1.682097e-05,519.8549999996482,1.223228e-05
519.8699999996481,6.634951e-05,519.8699999996481,0.004086025,519.8699999996481,1.671849e-05,519.8699999996481,1.233549e-05
519.8849999996481,7.029156e-05,519.8849999996481,0.004258817,519.8849999996481,1.656443e-05,519.8849999996481,1.362477e-05
519.8999999996481,7.305184e-05,519.8999999996481,0.004321735,519.8999999996481,1.659587e-05,519.8999999996481,1.358335e-05
519.9149999996481,8.562615e-05,519.9149999996481,0.004534377,519.9149999996481,1.658143e-05,519.9149999996481,1.446233e-05
519.9299999996481,9.309098e-05,519.9299999996481,0.004746037,519.9299999996481,1.661284e-05,519.9299999996481,1.455554e-05
519.9449999996481,0.0001145953,519.9449999996481,0.004929857,519.9449999996481,1.891714e-05,519.9449999996481,1.483449e-05
519.9599999996481,0.0001225984,519.9599999996481,0.004983811,519.9599999996481,1.99119e-05,519.9599999996481,1.603466e-05
519.974999999648,0.000127653,519.974999999648,0.004933968,519.974999999648,1.966202e-05,519.974999999648,1.679248e-05
519.989999999648,0.0001293557,519.989999999648,0.004776965,519.989999999648,2.017545e-05,519.989999999648,1.718796e-05
520.004999999648,0.000129258,520.004999999648,0.004690877,520.004999999648,1.81611e-05,520.004999999648,1.87556e-05
520.019999999648,0.0001308149,520.019999999648,0.004465393,520.019999999648,1.828787e-05,520.019999999648,1.924419e-05
520.034999999648,0.0001321067,520.034999999648,0.004473427,520.034999999648,1.686196e-05,520.034999999648,2.206436e-05
520.049999999648,0.0001335582,520.049999999648,0.004445076,520.049999999648,1.612926e-05,520.049999999648,2.386472e-05
520.064999999648,0.0001339069,520.064999999648,0.004367544,520.064999999648,1.629867e-05,520.064999999648,2.55754e-05
520.079999999648,0.0001339908,520.079999999648,0.004428904,520.079999999648,1.711733e-05,520.079999999648,2.6902e-05
520.0949999996479,0.0001302684,520.0949999996479,0.004532047,520.0949999996479,1.710828e-05,520.0949999996479,2.654089e-05
520.1099999996479,0.0001284323,520.1099999996479,0.004532584,520.1099999996479,1.712145e-05,520.1099999996479,2.653664e-05
520.1249999996479,0.0001280953,520.1249999996479,0.004409098,520.1249999996479,1.709592e-05,520.1249999996479,2.793366e-05
520.1399999996479,0.0001268891,520.1399999996479,0.004181576,520.1399999996479,1.722725e-05,520.1399999996479,2.788319e-05
520.1549999996479,0.000129833,520.1549999996479,0.004145174,520.1549999996479,1.767047e-05,520.1549999996479,2.844339e-05
520.1699999996479,0.0001215088,520.1699999996479,0.003998366,520.1699999996479,1.767047e-05,520.1699999996479,2.774899e-05
520.1849999996479,0.0001125777,520.1849999996479,0.003829298,520.1849999996479,1.752076e-05,520.1849999996479,2.770123e-05
520.1999999996478,9.295151e-05,520.1999999996478,0.003679867,520.1999999996478,1.500069e-05,520.1999999996478,2.801423e-05
520.2149999996478,8.710066e-05,520.2149999996478,0.00366313,520.2149999996478,1.378307e-05,520.2149999996478,2.779261e-05
520.2299999996478,8.1554e-05,520.2299999996478,0.003665422,520.2299999996478,1.316734e-05,520.2299999996478,2.749348e-05
520.2449999996478,8.151652e-05,520.2449999996478,0.003534316,520.2449999996478,1.417506e-05,520.2449999996478,2.621137e-05
520.2599999996478,8.116045e-05,520.2599999996478,0.003395421,520.2599999996478,1.420286e-05,520.2599999996478,2.608369e-05
520.2749999996478,8.270506e-05,520.2749999996478,0.003308534,520.2749999996478,1.37892e-05,520.2749999996478,2.540962e-05
520.2899999996478,8.303687e-05,520.2899999996478,0.003067136,520.2899999996478,1.356986e-05,520.2899999996478,2.217707e-05
520.3049999996477,9.101454e-05,520.3049999996477,0.002863442,520.3049999996477,1.2601e-05,520.3049999996477,2.099793e-05
520.3199999996477,8.951795e-05,520.3199999996477,0.002700251,520.3199999996477,1.439301e-05,520.3199999996477,1.830634e-05
520.3349999996477,8.983102e-05,520.3349999996477,0.002337734,520.3349999996477,1.358335e-05,520.3349999996477,1.721007e-05
520.3499999996477,8.947624e-05,520.3499999996477,0.001843755,520.3499999996477,1.37892e-05,520.3499999996477,1.719861e-05
520.3649999996477,8.776333e-05,520.3649999996477,0.001136486,520.3649999996477,1.436362e-05,520.3649999996477,1.774683e-05
520.3799999996477,8.641824e-05,520.3799999996477,0.0008789594,520.3799999996477,1.457295e-05,520.3799999996477,1.557113e-05
520.3949999996477,8.533116e-05,520.3949999996477,0.000891305,520.3949999996477,1.590145e-05,520.3949999996477,1.377694e-05
520.4099999996477,8.351626e-05,520.4099999996477,0.0008244417,520.4099999996477,1.537723e-05,520.4099999996477,1.338907e-05
520.4249999996476,8.308775e-05,520.4249999996476,0.0006835855,520.4249999996476,1.649626e-05,520.4249999996476,1.282922e-05
520.4399999996476,8.492359e-05,520.4399999996476,0.0005319075,520.4399999996476,1.659332e-05,520.4399999996476,1.257526e-05
520.4549999996476,8.428573e-05,520.4549999996476,0.000400405,520.4549999996476,1.694612e-05,520.4549999996476,1.154017e-05
520.4699999996476,8.234592e-05,520.4699999996476,0.001006131,520.4699999996476,1.696025e-05,520.4699999996476,1.052376e-05
520.4849999996476,8.103139e-05,520.4849999996476,0.001641848,520.4849999996476,1.652782e-05,520.4849999996476,1.038497e-05
520.4999999996476,8.032231e-05,520.4999999996476,0.00191807,520.4999999996476,1.675805e-05,520.4999999996476,1.03333e-05
520.5149999996476,7.948224e-05,520.5149999996476,0.00199037,520.5149999996476,1.684859e-05,520.5149999996476,1.03019e-05
520.5299999996475,7.453206e-05,520.5299999996475,0.002372725,520.5299999996475,1.726809e-05,520.5299999996475,1.039853e-05
520.5449999996475,7.352755e-05,520.5449999996475,0.002671055,520.5449999996475,1.703484e-05,520.5449999996475,1.040801e-05
520.5599999996475,5.736001e-05,520.5599999996475,0.002727417,520.5599999996475,1.680757e-05,520.5599999996475,1.059048e-05
520.5749999996475,5.683228e-05,520.5749999996475,0.002992956,520.5749999996475,1.489892e-05,520.5749999996475,1.059447e-05
520.5899999996475,5.461475e-05,520.5899999996475,0.003165645,520.5899999996475,1.475451e-05,520.5899999996475,1.078423e-05
520.6049999996475,5.508729e-05,520.6049999996475,0.003479302,520.6049999996475,1.581261e-05,520.6049999996475,1.124089e-05
520.6199999996475,5.281227e-05,520.6199999996475,0.003744869,520.6199999996475,1.556027e-05,520.6199999996475,1.099765e-05
520.6349999996474,4.808844e-05,520.6349999996474,0.003966333,520.6349999996474,1.430859e-05,520.6349999996474,1.203726e-05
520.6499999996474,4.766534e-05,520.6499999996474,0.004109971,520.6499999996474,1.399907e-05,520.6499999996474,1.246839e-05
520.6649999996474,4.59254e-05,520.6649999996474,0.004126126,520.6649999996474,1.473062e-05,520.6649999996474,1.399404e-05
520.6799999996474,5.080622e-05,520.6799999996474,0.004346689,520.6799999996474,1.42108e-05,520.6799999996474,1.878862e-05
520.6949999996474,4.557316e-05,520.6949999996474,0.00451696,520.6949999996474,1.525859e-05,520.6949999996474,1.866526e-05
520.7099999996474,5.668137e-05,520.7099999996474,0.004689088,520.7099999996474,1.685109e-05,520.7099999996474,2.390894e-05
520.7249999996474,7.532467e-05,520.7249999996474,0.004612681,520.7249999996474,1.839003e-05,520.7249999996474,3.402954e-05
520.7399999996474,7.630295e-05,520.7399999996474,0.004352213,520.7399999996474,1.875034e-05,520.7399999996474,3.58475e-05
520.7549999996473,8.404187e-05,520.7549999996473,0.0041871,520.7549999996473,1.91613e-05,520.7549999996473,3.894464e-05
520.7699999996473,9.614407e-05,520.7699999996473,0.004174059,520.7699999996473,1.933693e-05,520.7699999996473,4.441444e-05
520.7849999996473,9.709248e-05,520.7849999996473,0.004120363,520.7849999996473,1.947051e-05,520.7849999996473,4.532365e-05
520.7999999996473,9.805628e-05,520.7999999996473,0.004155265,520.7999999996473,1.945748e-05,520.7999999996473,4.597047e-05
520.8149999996473,9.900331e-05,520.8149999996473,0.004084914,520.8149999996473,1.957873e-05,520.8149999996473,4.716056e-05
520.8299999996473,0.0001000576,520.8299999996473,0.00381363,520.8299999996473,1.957154e-05,520.8299999996473,4.797054e-05
520.8449999996473,0.0001013297,520.8449999996473,0.003717003,520.8449999996473,1.960749e-05,520.8449999996473,4.852963e-05
520.8599999996472,0.0001027387,520.8599999996472,0.003638151,520.8599999996472,1.852891e-05,520.8599999996472,4.980486e-05
520.8749999996472,0.0001028753,520.8749999996472,0.00350846,520.8749999996472,1.849772e-05,520.8749999996472,4.949532e-05
520.8899999996472,0.0001032061,520.8899999996472,0.003436343,520.8899999996472,1.827245e-05,520.8899999996472,4.946372e-05
520.9049999996472,0.0001038214,520.9049999996472,0.003388625,520.9049999996472,1.831942e-05,520.9049999996472,4.933255e-05
520.9199999996472,0.0001045782,520.9199999996472,0.003368969,520.9199999996472,1.78442e-05,520.9199999996472,4.909612e-05
520.9349999996472,0.0001036028,520.9349999996472,0.003349215,520.9349999996472,1.756091e-05,520.9349999996472,4.83435e-05
520.9499999996472,0.0001032985,520.9499999996472,0.003481352,520.9499999996472,1.648772e-05,520.9499999996472,4.855632e-05
520.9649999996471,9.064667e-05,520.9649999996471,0.003518705,520.9649999996471,1.417208e-05,520.9649999996471,4.506463e-05
520.9799999996471,8.36893e-05,520.9799999996471,0.00353095,520.9799999996471,1.238791e-05,520.9799999996471,3.892764e-05
520.9949999996471,8.342394e-05,520.9949999996471,0.003652423,520.9949999996471,1.183664e-05,520.9949999996471,3.807145e-05
521.0099999996471,7.27105e-05,521.0099999996471,0.003798125,521.0099999996471,8.935509e-06,521.0099999996471,3.456879e-05
521.0249999996471,6.280074e-05,521.0249999996471,0.003935365,521.0249999996471,8.260502e-06,521.0249999996471,2.947702e-05
521.0399999996471,6.491362e-05,521.0399999996471,0.004122336,521.0399999996471,9.155096e-06,521.0399999996471,2.912172e-05
521.0549999996471,6.975242e-05,521.0549999996471,0.00436558,521.0549999996471,1.061306e-05,521.0549999996471,2.960625e-05
521.069999999647,7.04015e-05,521.069999999647,0.00454399,521.069999999647,1.310837e-05,521.069999999647,2.856151e-05
521.084999999647,7.570317e-05,521.084999999647,0.00465738,521.084999999647,1.410932e-05,521.084999999647,2.792358e-05
521.099999999647,7.821091e-05,521.099999999647,0.004642157,521.099999999647,1.407734e-05,521.099999999647,2.594398e-05
521.114999999647,8.114708e-05,521.114999999647,0.004723347,521.114999999647,1.402521e-05,521.114999999647,2.378786e-05
521.129999999647,8.225127e-05,521.129999999647,0.004811335,521.129999999647,1.412928e-05,521.129999999647,2.485643e-05
521.144999999647,9.245477e-05,521.144999999647,0.004732637,521.144999999647,1.48819e-05,521.144999999647,2.662938e-05
521.159999999647,9.216345e-05,521.159999999647,0.004704797,521.159999999647,1.480693e-05,521.159999999647,2.616618e-05
521.174999999647,9.008611e-05,521.174999999647,0.00477178,521.174999999647,1.458454e-05,521.174999999647,2.427845e-05
521.189999999647,9.308599e-05,521.189999999647,0.004771797,521.189999999647,1.472201e-05,521.189999999647,2.387711e-05
521.2049999996469,9.578046e-05,521.2049999996469,0.004670714,521.2049999996469,1.466161e-05,521.2049999996469,2.470009e-05
521.2199999996469,9.647843e-05,521.2199999996469,0.004691064,521.2199999996469,1.469232e-05,521.2199999996469,2.423199e-05
521.2349999996469,9.870106e-05,521.2349999996469,0.004691064,521.2349999996469,1.468081e-05,521.2349999996469,2.429991e-05
521.2499999996469,0.0001001741,521.2499999996469,0.004647807,521.2499999996469,1.466545e-05,521.2499999996469,2.689467e-05
521.2649999996469,0.0001032401,521.2649999996469,0.004495992,521.2649999996469,1.468081e-05,521.2649999996469,2.766714e-05
521.2799999996469,0.0001032947,521.2799999996469,0.004363716,521.2799999996469,1.462602e-05,521.2799999996469,2.796642e-05
521.2949999996468,0.0001016682,521.2949999996468,0.00420439,521.2949999996468,1.415318e-05,521.2949999996468,2.772105e-05
521.3099999996468,9.862368e-05,521.3099999996468,0.003960181,521.3099999996468,1.118939e-05,521.3099999996468,2.573901e-05
521.3249999996468,9.707057e-05,521.3249999996468,0.003679968,521.3249999996468,1.078293e-05,521.3249999996468,2.508995e-05
521.3399999996468,9.199011e-05,521.3399999996468,0.003467088,521.3399999996468,9.661178e-06,521.3399999996468,2.526229e-05
521.3549999996468,8.62763e-05,521.3549999996468,0.003482615,521.3549999996468,9.704822e-06,521.3549999996468,2.53891e-05
521.3699999996468,8.621799e-05,521.3699999996468,0.003384223,521.3699999996468,9.712076e-06,521.3699999996468,2.550977e-05
521.3849999996468,8.367399e-05,521.3849999996468,0.003307687,521.3849999996468,9.620266e-06,521.3849999996468,2.402004e-05
521.3999999996468,7.407668e-05,521.3999999996468,0.0033033,521.3999999996468,9.187351e-06,521.3999999996468,2.325424e-05
521.4149999996467,7.495197e-05,521.4149999996467,0.003145897,521.4149999996467,9.730914e-06,521.4149999996467,2.28386e-05
521.4299999996467,7.630793e-05,521.4299999996467,0.002813004,521.4299999996467,9.552672e-06,521.4299999996467,2.263415e-05
521.4449999996467,6.984485e-05,521.4449999996467,0.002417714,521.4449999996467,8.58824e-06,521.4449999996467,2.209115e-05
521.4599999996467,6.940804e-05,521.4599999996467,0.002327136,521.4599999996467,8.596438e-06,521.4599999996467,2.147683e-05
521.4749999996467,6.815589e-05,521.4749999996467,0.00199706,521.4749999996467,8.625883e-06,521.4749999996467,2.056753e-05
521.4899999996467,6.553927e-05,521.4899999996467,0.001536036,521.4899999996467,8.550433e-06,521.4899999996467,2.068363e-05
521.5049999996467,6.292533e-05,521.5049999996467,0.00124061,521.5049999996467,8.470984e-06,521.5049999996467,1.751835e-05
521.5199999996466,5.767863e-05,521.5199999996466,0.0009309006,521.5199999996466,8.905506e-06,521.5199999996466,1.531481e-05
521.5349999996466,6.010058e-05,521.5349999996466,0.0005247305,521.5349999996466,9.230183e-06,521.5349999996466,1.68653e-05
521.5499999996466,6.014556e-05,521.5499999996466,0.0003426748,521.5499999996466,8.200599e-06,521.5499999996466,1.718468e-05
521.5649999996466,5.867069e-05,521.5649999996466,0.000335613,521.5649999996466,8.197163e-06,521.5649999996466,1.727869e-05
521.5799999996466,6.018443e-05,521.5799999996466,0.0003341919,521.5799999996466,8.107309e-06,521.5799999996466,1.739083e-05
521.5949999996466,5.960799e-05,521.5949999996466,0.0003024639,521.5949999996466,8.041013e-06,521.5949999996466,1.725993e-05
521.6099999996466,6.044368e-05,521.6099999996466,0.0002552105,521.6099999996466,7.746566e-06,521.6099999996466,1.74539e-05
521.6249999996465,5.813426e-05,521.6249999996465,0.0002067831,521.6249999996465,7.724713e-06,521.6249999996465,1.737219e-05
521.6399999996465,5.707269e-05,521.6399999996465,0.0001644607,521.6399999996465,7.387274e-06,521.6399999996465,1.721826e-05
521.6549999996465,5.651088e-05,521.6549999996465,0.0001323865,521.6549999996465,6.070483e-06,521.6549999996465,1.743775e-05
521.6699999996465,5.450398e-05,521.6699999996465,0.0001082604,521.6699999996465,5.972226e-06,521.6699999996465,1.812461e-05
521.6849999996465,5.341932e-05,521.6849999996465,8.510453e-05,521.6849999996465,6.05887e-06,521.6849999996465,1.97478e-05
521.6999999996465,5.233963e-05,521.6999999996465,6.306599e-05,521.6999999996465,6.11211e-06,521.6999999996465,1.977204e-05
521.7149999996465,5.093858e-05,521.7149999996465,4.628593e-05,521.7149999996465,6.070483e-06,521.7149999996465,1.909281e-05
521.7299999996465,4.90944e-05,521.7299999996465,3.574992e-05,521.7299999996465,5.969867e-06,521.7299999996465,1.896102e-05
521.7449999996464,4.851424e-05,521.7449999996464,2.795534e-05,521.7449999996464,5.896265e-06,521.7449999996464,1.819365e-05
521.7599999996464,4.950357e-05,521.7599999996464,2.135976e-05,521.7599999996464,5.294573e-06,521.7599999996464,1.744421e-05
521.7749999996464,4.950671e-05,521.7749999996464,1.703484e-05,521.7749999996464,4.930884e-06,521.7749999996464,1.704641e-05
521.7899999996464,4.71949e-05,521.7899999996464,1.414821e-05,521.7899999996464,4.182782e-06,521.7899999996464,1.588815e-05
521.8049999996464,4.777309e-05,521.8049999996464,1.178416e-05,521.8049999996464,4.199587e-06,521.8049999996464,1.575192e-05
521.8199999996464,4.425717e-05,521.8199999996464,9.745379e-06,521.8199999996464,4.867628e-06,521.8199999996464,1.566133e-05
521.8349999996464,4.351182e-05,521.8349999996464,8.193725e-06,521.8349999996464,5.230329e-06,521.8349999996464,1.545581e-05
521.8499999996463,4.397906e-05,521.8499999996463,7.196016e-06,521.8499999996463,5.302549e-06,521.8499999996463,1.530008e-05
521.8649999996463,4.198446e-05,521.8649999996463,6.382687e-06,521.8649999996463,5.259872e-06,521.8649999996463,1.48639e-05
521.8799999996463,4.751557e-05,521.8799999996463,5.711809e-06,521.8799999996463,5.2679e-06,521.8799999996463,1.492915e-05
521.8949999996463,4.958006e-05,521.8949999996463,5.173461e-06,521.8949999996463,5.2679e-06,521.8949999996463,1.485252e-05
521.9099999996463,5.087964e-05,521.9099999996463,5.077266e-06,521.9099999996463,5.281253e-06,521.9099999996463,1.441746e-05
521.9249999996463,5.04336e-05,521.9249999996463,4.812329e-06,521.9249999996463,5.281253e-06,521.9249999996463,1.362373e-05
521.9399999996463,4.922277e-05,521.9399999996463,4.547444e-06,521.9399999996463,5.246463e-06,521.9399999996463,1.188178e-05
521.9549999996462,5.301565e-05,521.9549999996462,4.497608e-06,521.9549999996462,5.684616e-06,521.9549999996462,1.148511e-05
521.9699999996462,5.374191e-05,521.9699999996462,4.821102e-06,521.9699999996462,5.721665e-06,521.9699999996462,1.189718e-05
521.9849999996462,5.699637e-05,521.9849999996462,4.605925e-06,521.9849999996462,6.107498e-06,521.9849999996462,1.337854e-05
521.9999999996462,6.323218e-05,521.9999999996462,4.684768e-06,521.9999999996462,6.13052e-06,521.9999999996462,1.346147e-05
522.0149999996462,6.298709e-05,522.0149999996462,4.803539e-06,522.0149999996462,6.217223e-06,522.0149999996462,1.368152e-05
522.0299999996462,6.421215e-05,522.0299999996462,4.838602e-06,522.0299999996462,6.393712e-06,522.0299999996462,1.366194e-05
522.0449999996462,6.459274e-05,522.0449999996462,5.029879e-06,522.0449999996462,6.426676e-06,522.0449999996462,1.361546e-05
522.0599999996462,6.458838e-05,522.0599999996462,4.973552e-06,522.0599999996462,6.455107e-06,522.0599999996462,1.359061e-05
522.0749999996461,6.43675e-05,522.0749999996461,5.027078e-06,522.0749999996461,5.972226e-06,522.0749999996461,1.348551e-05
522.0899999996461,6.582387e-05,522.0899999996461,5.038274e-06,522.0899999996461,5.785323e-06,522.0899999996461,1.350535e-05
522.1049999996461,6.768738e-05,522.1049999996461,4.996159e-06,522.1049999996461,5.795054e-06,522.1049999996461,1.30804e-05
522.1199999996461,6.930446e-05,522.1199999996461,5.203327e-06,522.1199999996461,5.807196e-06,522.1199999996461,1.323563e-05
522.1349999996461,6.763804e-05,522.1349999996461,5.901041e-06,522.1349999996461,5.884307e-06,522.1349999996461,1.342899e-05
522.1499999996461,6.655429e-05,522.1499999996461,0.000566504,522.1499999996461,5.850696e-06,522.1499999996461,1.343633e-05
522.164999999646,6.777265e-05,522.164999999646,0.001347977,522.164999999646,5.93674e-06,522.164999999646,1.351473e-05
522.179999999646,6.851395e-05,522.179999999646,0.001616982,522.179999999646,5.986361e-06,522.179999999646,1.344367e-05
522.194999999646,7.027954e-05,522.194999999646,0.001734274,522.194999999646,5.976941e-06,522.194999999646,1.272005e-05
522.209999999646,6.990573e-05,522.209999999646,0.00200809,522.209999999646,5.659781e-06,522.209999999646,1.231378e-05
522.224999999646,7.04593e-05,522.224999999646,0.002040982,522.224999999646,5.724127e-06,522.224999999646,1.130213e-05
522.239999999646,6.801457e-05,522.239999999646,0.002072346,522.239999999646,5.457037e-06,522.239999999646,9.817387e-06
522.254999999646,6.141402e-05,522.254999999646,0.002292436,522.254999999646,5.467352e-06,522.254999999646,9.78289e-06
522.269999999646,6.137042e-05,522.269999999646,0.002661749,522.269999999646,5.828986e-06,522.269999999646,1.316734e-05
522.284999999646,6.493054e-05,522.284999999646,0.002948906,522.284999999646,6.33617e-06,522.284999999646,1.472488e-05
522.2999999996459,6.582045e-05,522.2999999996459,0.003176234,522.2999999996459,6.673986e-06,522.2999999996459,1.474974e-05
522.3149999996459,6.738431e-05,522.3149999996459,0.003330664,522.3149999996459,6.345057e-06,522.3149999996459,1.478027e-05
522.3299999996459,6.863104e-05,522.3299999996459,0.003437163,522.3299999996459,6.48993e-06,522.3299999996459,1.448569e-05
522.3449999996459,6.808454e-05,522.3449999996459,0.003773368,522.3449999996459,6.697164e-06,522.3449999996459,1.415119e-05
522.3599999996459,6.440929e-05,522.3599999996459,0.004055485,522.3599999996459,6.75163e-06,522.3599999996459,1.419294e-05
522.3749999996459,6.255757e-05,522.3749999996459,0.004294168,522.3749999996459,6.842817e-06,522.3749999996459,1.39749e-05
522.3899999996459,6.243789e-05,522.3899999996459,0.004490878,522.3899999996459,6.832516e-06,522.3899999996459,1.386459e-05
522.4049999996458,6.132082e-05,522.4049999996458,0.004514404,522.4049999996458,6.853102e-06,522.4049999996458,1.449347e-05
522.4199999996458,6.063727e-05,522.4199999996458,0.00451583,522.4199999996458,6.871577e-06,522.4199999996458,1.510084e-05
522.4349999996458,5.995696e-05,522.4349999996458,0.00453155,522.4349999996458,6.873626e-06,522.4349999996458,1.528074e-05
522.4499999996458,5.568144e-05,522.4499999996458,0.004586798,522.4499999996458,6.867475e-06,522.4499999996458,1.537356e-05
522.4649999996458,5.892704e-05,522.4649999996458,0.004741908,522.4649999996458,6.922637e-06,522.4649999996458,1.656783e-05
522.4799999996458,5.878774e-05,522.4799999996458,0.00496695,522.4799999996458,6.772462e-06,522.4799999996458,1.645008e-05
522.4949999996458,6.014861e-05,522.4949999996458,0.005100789,522.4949999996458,6.832516e-06,522.4949999996458,1.647404e-05
522.5099999996457,6.383856e-05,522.5099999996457,0.004989401,522.5099999996457,6.757886e-06,522.5099999996457,1.474974e-05
522.5249999996457,6.733768e-05,522.5249999996457,0.004761924,522.5249999996457,6.224016e-06,522.5249999996457,1.322818e-05
522.5399999996457,7.185516e-05,522.5399999996457,0.004502162,522.5399999996457,6.863372e-06,522.5399999996457,1.199271e-05
522.5549999996457,7.6611e-05,522.5549999996457,0.004211462,522.5549999996457,6.869526e-06,522.5549999996457,1.236743e-05
522.5699999996457,7.885932e-05,522.5699999996457,0.003963199,522.5699999996457,6.916529e-06,522.5699999996457,1.372572e-05
522.5849999996457,8.220467e-05,522.5849999996457,0.003924667,522.5849999996457,6.768301e-06,522.5849999996457,1.377285e-05
522.5999999996457,8.290427e-05,522.5999999996457,0.00380578,522.5999999996457,6.584741e-06,522.5999999996457,1.488758e-05
522.6149999996456,8.570228e-05,522.6149999996456,0.003647314,522.6149999996456,6.732826e-06,522.6149999996456,1.590145e-05
522.6299999996456,8.578e-05,522.6299999996456,0.003445887,522.6299999996456,6.561167e-06,522.6299999996456,1.597039e-05
522.6449999996456,8.777472e-05,522.6449999996456,0.003223482,522.6449999996456,6.616753e-06,522.6449999996456,1.606713e-05
522.6599999996456,8.842422e-05,522.6599999996456,0.003056389,522.6599999996456,6.582601e-06,522.6599999996456,1.547494e-05
522.6749999996456,9.049004e-05,522.6749999996456,0.002721083,522.6749999996456,6.580461e-06,522.6749999996456,1.61179e-05
522.6899999996456,9.023142e-05,522.6899999996456,0.002292395,522.6899999996456,6.571893e-06,522.6899999996456,1.600036e-05
522.7049999996456,8.905537e-05,522.7049999996456,0.002030118,522.7049999996456,6.569749e-06,522.7049999996456,1.5301e-05
522.7199999996456,8.84798e-05,522.7199999996456,0.001683498,522.7199999996456,6.316129e-06,522.7199999996456,1.459516e-05
522.7349999996455,8.903528e-05,522.7349999996455,0.001114541,522.7349999996455,6.269119e-06,522.7349999996455,1.486959e-05
