X[s],a: EMG RMS 1-1,X[s].1,a: EMG RMS 1-2,X[s].2,a: EMG RMS 1-3,X[s].3,a: EMG RMS 1-4
280.00499999986624,1.032921e-05,280.00499999986624,6.797376e-06,280.00499999986624,3.83123e-06,280.00499999986624,5.082812e-06
280.01999999986623,1.048084e-05,280.01999999986623,6.846933e-06,280.01999999986623,3.745709e-06,280.01999999986623,5.170737e-06
280.0349999998662,1.061837e-05,280.0349999998662,6.569749e-06,280.0349999998662,3.524834e-06,280.0349999998662,5.118714e-06
280.0499999998662,1.073317e-05,280.0499999998662,6.567604e-06,280.0499999998662,3.398688e-06,280.0499999998662,5.162558e-06
280.0649999998662,1.081163e-05,280.0649999998662,6.631638e-06,280.0649999998662,3.250386e-06,280.0649999998662,5.132455e-06
280.0799999998662,1.133448e-05,280.0799999998662,6.759971e-06,280.0799999998662,3.301983e-06,280.0799999998662,5.241091e-06
280.09499999986616,1.119442e-05,280.09499999986616,6.718165e-06,280.09499999986616,3.348582e-06,280.09499999986616,5.249148e-06
280.10999999986615,1.078554e-05,280.10999999986615,6.855157e-06,280.10999999986615,3.301983e-06,280.10999999986615,5.168013e-06
280.12499999986613,1.072923e-05,280.12499999986613,6.892046e-06,280.12499999986613,3.19355e-06,280.12499999986613,5.074491e-06
280.1399999998661,1.082465e-05,280.1399999998661,6.809799e-06,280.1399999998661,3.233005e-06,280.1399999998661,5.088352e-06
280.1549999998661,1.11174e-05,280.1549999998661,6.627389e-06,280.1549999998661,3.280583e-06,280.1549999998661,4.648545e-06
280.1699999998661,1.094758e-05,280.1699999998661,6.582601e-06,280.1699999998661,3.149131e-06,280.1699999998661,4.800605e-06
280.1849999998661,1.094372e-05,280.1849999998661,6.569749e-06,280.1849999998661,3.166973e-06,280.1849999998661,4.788854e-06
280.19999999986607,1.031283e-05,280.19999999986607,6.623136e-06,280.19999999986607,3.149131e-06,280.19999999986607,4.81818e-06
280.21499999986605,1.045796e-05,280.21499999986605,6.561167e-06,280.21499999986605,3.306247e-06,280.21499999986605,4.800605e-06
280.22999999986604,1.001907e-05,280.22999999986604,6.393712e-06,280.22999999986604,3.331712e-06,280.22999999986604,4.812329e-06
280.244999999866,1.005416e-05,280.244999999866,6.53104e-06,280.244999999866,3.344373e-06,280.244999999866,4.657627e-06
280.259999999866,9.989498e-06,280.259999999866,6.610363e-06,280.259999999866,3.390388e-06,280.259999999866,4.602866e-06
280.274999999866,9.864624e-06,280.274999999866,6.608231e-06,280.274999999866,3.584279e-06,280.274999999866,4.547444e-06
280.289999999866,9.814517e-06,280.289999999866,6.79323e-06,280.289999999866,3.623367e-06,280.289999999866,4.562907e-06
280.30499999986597,9.701918e-06,280.30499999986597,6.902258e-06,280.30499999986597,3.696496e-06,280.30499999986597,4.463023e-06
280.31999999986596,9.570351e-06,280.31999999986596,6.838698e-06,280.31999999986596,3.627253e-06,280.31999999986596,4.48192e-06
280.33499999986594,8.938661e-06,280.33499999986594,6.947012e-06,280.33499999986594,3.592131e-06,280.33499999986594,4.308857e-06
280.34999999986593,9.121181e-06,280.34999999986593,7.093493e-06,280.34999999986593,3.564574e-06,280.34999999986593,4.282623e-06
280.3649999998659,9.310717e-06,280.3649999998659,6.916529e-06,280.3649999998659,3.607783e-06,280.3649999998659,4.229668e-06
280.3799999998659,9.236285e-06,280.3799999998659,6.869526e-06,280.3799999998659,3.623367e-06,280.3799999998659,4.272744e-06
280.3949999998659,8.963841e-06,280.3949999998659,6.910417e-06,280.3949999998659,3.592131e-06,280.3949999998659,4.36408e-06
280.4099999998659,9.121181e-06,280.4099999998659,6.995509e-06,280.4099999998659,3.536803e-06,280.4099999998659,4.338181e-06
280.42499999986586,9.042074e-06,280.42499999986586,6.942956e-06,280.42499999986586,3.627253e-06,280.42499999986586,4.138769e-06
280.43999999986585,9.05764e-06,280.43999999986585,6.940926e-06,280.43999999986585,3.635012e-06,280.43999999986585,4.11145e-06
280.45499999986583,9.246955e-06,280.45499999986583,6.910417e-06,280.45499999986583,3.504795e-06,280.45499999986583,4.169289e-06
280.4699999998658,9.172005e-06,280.4699999998658,7.019631e-06,280.4699999998658,3.540784e-06,280.4699999998658,4.209638e-06
280.4849999998658,9.349971e-06,280.4849999998658,6.813935e-06,280.4849999998658,3.584279e-06,280.4849999998658,4.114875e-06
280.4999999998658,9.497953e-06,280.4999999998658,6.724452e-06,280.4999999998658,3.692683e-06,280.4999999998658,4.279333e-06
280.5149999998658,9.607078e-06,280.5149999998658,6.853102e-06,280.5149999998658,3.635012e-06,280.5149999998658,4.312125e-06
280.52999999986577,9.441426e-06,280.52999999986577,6.591156e-06,280.52999999986577,3.456227e-06,280.52999999986577,4.418613e-06
280.54499999986575,9.359006e-06,280.54499999986575,6.513761e-06,280.54499999986575,3.460301e-06,280.54499999986575,4.478776e-06
280.55999999986574,9.460803e-06,280.55999999986574,6.411314e-06,280.55999999986574,3.484641e-06,280.55999999986574,4.593675e-06
280.5749999998657,9.362016e-06,280.5749999998657,6.509435e-06,280.5749999998657,3.548731e-06,280.5749999998657,4.708762e-06
280.5899999998657,9.257612e-06,280.5899999998657,6.077441e-06,280.5899999998657,3.580347e-06,280.5899999998657,4.684768e-06
280.6049999998657,9.046747e-06,280.6049999998657,5.988714e-06,280.6049999998657,3.642754e-06,280.6049999998657,4.608983e-06
280.6199999998657,8.884918e-06,280.6199999998657,5.95096e-06,280.6199999998657,3.548731e-06,280.6199999998657,4.503868e-06
280.63499999986567,8.829253e-06,280.63499999986567,6.428867e-06,280.63499999986567,3.642754e-06,280.63499999986567,4.47563e-06
280.64999999986566,8.611173e-06,280.64999999986566,6.322817e-06,280.64999999986566,3.681221e-06,280.64999999986566,4.466178e-06
280.66499999986564,8.456004e-06,280.66499999986564,6.21269e-06,280.66499999986564,3.642754e-06,280.66499999986564,4.48192e-06
280.67999999986563,8.643829e-06,280.67999999986563,6.311667e-06,280.67999999986563,3.588207e-06,280.67999999986563,4.478776e-06
280.6949999998656,8.650345e-06,280.6949999998656,6.442001e-06,280.6949999998656,3.536803e-06,280.6949999998656,4.581393e-06
280.7099999998656,8.475971e-06,280.7099999998656,6.420096e-06,280.7099999998656,3.56062e-06,280.7099999998656,4.605925e-06
280.7249999998656,8.2229e-06,280.7249999998656,6.601833e-06,280.7249999998656,3.552699e-06,280.7249999998656,4.618143e-06
280.7399999998656,8.131598e-06,280.7399999998656,6.737009e-06,280.7399999998656,3.415227e-06,280.7399999998656,4.596741e-06
280.75499999986556,7.862084e-06,280.75499999986556,6.614623e-06,280.75499999986556,3.310505e-06,280.75499999986556,4.500739e-06
280.76999999986555,8.109047e-06,280.76999999986555,6.621009e-06,280.76999999986555,3.4111e-06,280.76999999986555,4.35115e-06
280.78499999986553,8.17996e-06,280.78499999986553,6.629514e-06,280.78499999986553,3.452149e-06,280.78499999986553,4.447213e-06
280.7999999998655,8.135063e-06,280.7999999998655,6.571893e-06,280.7999999998655,3.492716e-06,280.7999999998655,4.4218e-06
280.8149999998655,8.192006e-06,280.8149999998655,6.487759e-06,280.8149999998655,3.536803e-06,280.8149999998655,4.428167e-06
280.8299999998655,8.051516e-06,280.8299999998655,6.4921e-06,280.8299999998655,3.540784e-06,280.8299999998655,4.497608e-06
280.8449999998655,7.949394e-06,280.8449999998655,6.565459e-06,280.8449999998655,3.623367e-06,280.8449999998655,4.444044e-06
280.85999999986547,8.091657e-06,280.85999999986547,6.75163e-06,280.85999999986547,3.580347e-06,280.85999999986547,4.453544e-06
280.87499999986545,8.192006e-06,280.87499999986545,6.603967e-06,280.87499999986545,3.520835e-06,280.87499999986545,4.500739e-06
280.88999999986544,8.221186e-06,280.88999999986544,6.333946e-06,280.88999999986544,3.488681e-06,280.88999999986544,4.581393e-06
280.9049999998654,8.452672e-06,280.9049999998654,6.313899e-06,280.9049999998654,3.419349e-06,280.9049999998654,4.812329e-06
280.9199999998654,8.446003e-06,280.9199999998654,6.340615e-06,280.9199999998654,3.40283e-06,280.9199999998654,4.884961e-06
280.9349999998654,8.560311e-06,280.9349999998654,6.318359e-06,280.9349999998654,3.4111e-06,280.9349999998654,4.947995e-06
280.9499999998654,8.655229e-06,280.9499999998654,6.132817e-06,280.9499999998654,3.448066e-06,280.9499999998654,4.838602e-06
280.96499999986537,8.710389e-06,280.96499999986537,6.189974e-06,280.96499999986537,3.431686e-06,280.96499999986537,5.085583e-06
280.97999999986536,9.031162e-06,280.97999999986536,6.426676e-06,280.97999999986536,3.472492e-06,280.97999999986536,5.060592e-06
280.99499999986534,8.794083e-06,280.99499999986534,6.248863e-06,280.99499999986534,3.448066e-06,280.99499999986534,5.046655e-06
281.00999999986533,8.987383e-06,281.00999999986533,6.608231e-06,281.00999999986533,3.556662e-06,281.00999999986533,5.074491e-06
281.0249999998653,8.716856e-06,281.0249999998653,6.7391e-06,281.0249999998653,3.468433e-06,281.0249999998653,5.124215e-06
281.0399999998653,8.522379e-06,281.0399999998653,6.791156e-06,281.0399999998653,3.572469e-06,281.0399999998653,5.192486e-06
281.0549999998653,8.524032e-06,281.0549999998653,7.144938e-06,281.0549999998653,3.572469e-06,281.0549999998653,5.273245e-06
281.0699999998653,8.655229e-06,281.0699999998653,7.158726e-06,281.0699999998653,3.588207e-06,281.0699999998653,5.2679e-06
281.08499999986526,8.712006e-06,281.08499999986526,7.172487e-06,281.08499999986526,3.56062e-06,281.08499999986526,5.12971e-06
281.09999999986525,8.558665e-06,281.09999999986525,7.131124e-06,281.09999999986525,3.54476e-06,281.09999999986525,5.168013e-06
281.11499999986523,9.105725e-06,281.11499999986523,7.205797e-06,281.11499999986523,3.59605e-06,281.11499999986523,5.241091e-06
281.1299999998652,9.295575e-06,281.1299999998652,7.466933e-06,281.1299999998652,3.619477e-06,281.1299999998652,5.238403e-06
281.1449999998652,9.328855e-06,281.1449999998652,7.370092e-06,281.1449999998652,3.677393e-06,281.1449999998652,5.029879e-06
281.1599999998652,9.416029e-06,281.1599999998652,7.333686e-06,281.1599999998652,3.726858e-06,281.1599999998652,4.861837e-06
281.1749999998652,1.021539e-05,281.1749999998652,7.34712e-06,281.1749999998652,3.96849e-06,281.1749999998652,4.864733e-06
281.18999999986517,9.961255e-06,281.18999999986517,7.362442e-06,281.18999999986517,4.024883e-06,281.18999999986517,4.861837e-06
281.20499999986515,9.897414e-06,281.20499999986515,7.246734e-06,281.20499999986515,4.024883e-06,281.20499999986515,4.738583e-06
281.21999999986514,9.733809e-06,281.21999999986514,7.287441e-06,281.21999999986514,3.986198e-06,281.21999999986514,4.556728e-06
281.2349999998651,9.480139e-06,281.2349999998651,6.942956e-06,281.2349999998651,4.094283e-06,281.2349999998651,4.547444e-06
281.2499999998651,9.72657e-06,281.2499999998651,7.003558e-06,281.2499999998651,4.35115e-06,281.2499999998651,4.556728e-06
281.2649999998651,9.634898e-06,281.2649999998651,6.513761e-06,281.2649999998651,4.20294e-06,281.2649999998651,4.651575e-06
281.2799999998651,9.999364e-06,281.2799999998651,6.448557e-06,281.2799999998651,4.262842e-06,281.2799999998651,4.572159e-06
281.29499999986507,1.003171e-05,281.29499999986507,6.448557e-06,281.29499999986507,4.182782e-06,281.29499999986507,4.510119e-06
281.30999999986506,9.937185e-06,281.30999999986506,6.093644e-06,281.30999999986506,4.142171e-06,281.30999999986506,4.428167e-06
281.32499999986504,9.780009e-06,281.32499999986504,6.378271e-06,281.32499999986504,4.142171e-06,281.32499999986504,4.373753e-06
281.33999999986503,9.818822e-06,281.33999999986503,6.365006e-06,281.33999999986503,4.196231e-06,281.33999999986503,4.4218e-06
281.354999999865,9.877468e-06,281.354999999865,6.205884e-06,281.354999999865,4.125132e-06,281.354999999865,4.386617e-06
281.369999999865,9.63051e-06,281.369999999865,5.976941e-06,281.369999999865,4.077044e-06,281.369999999865,4.279333e-06
281.384999999865,9.292544e-06,281.384999999865,5.714275e-06,281.384999999865,4.042345e-06,281.384999999865,4.347911e-06
281.399999999865,9.028043e-06,281.399999999865,5.790191e-06,281.399999999865,4.01437e-06,281.399999999865,4.450379e-06
281.41499999986496,8.607901e-06,281.41499999986496,5.659781e-06,281.41499999986496,4.003829e-06,281.41499999986496,4.405843e-06
281.42999999986495,8.145445e-06,281.42999999986495,5.782887e-06,281.42999999986495,3.90768e-06,281.42999999986495,4.35115e-06
281.44499999986493,8.262207e-06,281.44499999986493,5.577042e-06,281.44499999986493,3.867824e-06,281.44499999986493,4.386617e-06
281.4599999998649,8.400851e-06,281.4599999998649,5.441526e-06,281.4599999998649,3.794284e-06,281.4599999998649,4.354386e-06
281.4749999998649,8.43766e-06,281.4749999998649,5.652309e-06,281.4749999998649,3.805405e-06,281.4749999998649,4.259536e-06
281.4899999998649,8.622616e-06,281.4899999998649,5.56946e-06,281.4899999998649,3.398688e-06,281.4899999998649,4.229668e-06
281.5049999998649,8.555373e-06,281.5049999998649,5.467352e-06,281.5049999998649,3.36955e-06,281.5049999998649,4.138769e-06
281.51999999986487,8.504177e-06,281.51999999986487,5.454455e-06,281.51999999986487,3.267676e-06,281.51999999986487,4.135364e-06
281.53499999986485,8.190286e-06,281.53499999986485,5.402556e-06,281.53499999986485,3.237359e-06,281.53499999986485,4.097722e-06
281.54999999986484,8.209184e-06,281.54999999986484,5.48279e-06,281.54999999986484,3.259043e-06,281.54999999986484,4.226336e-06
281.5649999998648,8.380704e-06,281.5649999998648,5.433755e-06,281.5649999998648,3.254718e-06,281.5649999998648,4.318654e-06
281.5799999998648,8.404203e-06,281.5799999998648,5.176183e-06,281.5799999998648,3.310505e-06,281.5799999998648,4.4377e-06
281.5949999998648,8.472646e-06,281.5949999998648,5.286585e-06,281.5949999998648,3.263362e-06,281.5949999998648,4.39624e-06
281.6099999998648,8.397496e-06,281.6099999998648,5.556798e-06,281.6099999998648,3.259043e-06,281.6099999998648,4.463023e-06
281.62499999986477,8.014691e-06,281.62499999986477,5.56946e-06,281.62499999986477,3.297714e-06,281.62499999986477,4.466178e-06
281.63999999986476,8.272431e-06,281.63999999986476,5.765811e-06,281.63999999986476,3.361178e-06,281.63999999986476,4.466178e-06
281.65499999986474,8.650345e-06,281.65499999986474,5.711809e-06,281.65499999986474,3.29344e-06,281.65499999986474,4.367307e-06
281.66999999986473,8.760379e-06,281.66999999986473,5.753582e-06,281.66999999986473,3.254718e-06,281.66999999986473,4.38019e-06
281.6849999998647,8.494233e-06,281.6849999998647,5.682137e-06,281.6849999998647,3.158065e-06,281.6849999998647,4.360851e-06
281.6999999998647,8.505834e-06,281.6999999998647,5.778013e-06,281.6999999998647,3.215529e-06,281.6999999998647,4.31539e-06
281.7149999998647,8.373978e-06,281.7149999998647,5.662269e-06,281.7149999998647,3.211145e-06,281.7149999998647,4.405843e-06
281.7299999998647,8.927624e-06,281.7299999998647,5.469929e-06,281.7299999998647,3.175857e-06,281.7299999998647,4.513241e-06
281.74499999986466,9.029603e-06,281.74499999986466,5.418178e-06,281.74499999986466,3.24605e-06,281.74499999986466,4.584466e-06
281.75999999986465,9.032722e-06,281.75999999986465,5.493057e-06,281.75999999986465,3.488681e-06,281.75999999986465,4.627284e-06
281.77499999986463,9.147398e-06,281.77499999986463,5.848288e-06,281.77499999986463,3.452149e-06,281.77499999986463,4.608983e-06
281.7899999998646,9.116548e-06,281.7899999998646,5.848288e-06,281.7899999998646,3.688867e-06,281.7899999998646,4.587538e-06
281.8049999998646,9.139696e-06,281.8049999998646,6.007502e-06,281.8049999998646,3.70411e-06,281.8049999998646,4.538142e-06
281.8199999998646,8.974835e-06,281.8199999998646,6.019215e-06,281.8199999998646,3.568524e-06,281.8199999998646,4.444044e-06
281.8349999998646,9.085591e-06,281.8349999998646,6.109804e-06,281.8349999998646,3.56062e-06,281.8349999998646,4.360851e-06
281.84999999986456,9.251524e-06,281.84999999986456,6.095956e-06,281.84999999986456,3.65048e-06,281.84999999986456,4.418613e-06
281.86499999986455,9.496471e-06,281.86499999986455,5.988714e-06,281.86499999986455,3.662038e-06,281.86499999986455,4.31539e-06
281.87999999986454,9.489051e-06,281.87999999986454,5.981653e-06,281.87999999986454,3.73818e-06,281.87999999986454,4.328428e-06
281.8949999998645,9.907371e-06,281.8949999998645,5.807196e-06,281.8949999998645,3.707911e-06,281.8949999998645,4.282623e-06
281.9099999998645,9.722225e-06,281.9099999998645,5.731505e-06,281.9099999998645,3.696496e-06,281.9099999998645,4.35115e-06
281.9249999998645,1.002188e-05,281.9249999998645,6.266871e-06,281.9249999998645,3.764466e-06,281.9249999998645,4.389827e-06
281.9399999998645,1.024431e-05,281.9399999998645,6.367219e-06,281.9399999998645,3.723076e-06,281.9399999998645,4.409039e-06
281.95499999986447,1.031146e-05,281.95499999986447,6.356147e-06,281.95499999986447,3.809105e-06,281.95499999986447,4.513241e-06
281.96999999986446,1.051305e-05,281.96999999986446,6.487759e-06,281.96999999986446,3.801702e-06,281.96999999986446,4.453544e-06
281.98499999986444,9.749715e-06,281.98499999986444,6.571893e-06,281.98499999986444,3.812802e-06,281.98499999986444,4.463023e-06
281.99999999986443,9.846043e-06,281.99999999986443,6.559019e-06,281.99999999986443,3.801702e-06,281.99999999986443,4.305587e-06
282.0149999998644,9.971149e-06,282.0149999998644,6.474718e-06,282.0149999998644,3.658189e-06,282.0149999998644,4.269446e-06
282.0299999998644,9.951351e-06,282.0299999998644,6.275856e-06,282.0299999998644,3.57641e-06,282.0299999998644,4.145571e-06
282.0449999998644,9.847473e-06,282.0449999998644,6.237581e-06,282.0449999998644,3.472492e-06,282.0449999998644,4.189512e-06
282.0599999998644,9.825992e-06,282.0599999998644,6.063518e-06,282.0599999998644,3.516832e-06,282.0599999998644,4.325173e-06
282.07499999986436,9.808774e-06,282.07499999986436,5.941484e-06,282.07499999986436,3.472492e-06,282.07499999986436,4.469331e-06
282.08999999986435,9.74827e-06,282.08999999986435,5.912964e-06,282.08999999986435,3.452149e-06,282.08999999986435,4.47563e-06
282.10499999986433,9.801591e-06,282.10499999986433,5.984008e-06,282.10499999986433,3.267676e-06,282.10499999986433,4.624239e-06
282.1199999998643,9.611476e-06,282.1199999998643,6.007502e-06,282.1199999998643,3.344373e-06,282.1199999998643,4.624239e-06
282.1349999998643,9.450374e-06,282.1349999998643,5.962784e-06,282.1349999998643,3.24605e-06,282.1349999998643,4.618143e-06
282.1499999998643,8.811686e-06,282.1499999998643,6.269119e-06,282.1499999998643,3.24605e-06,282.1499999998643,4.663672e-06
282.1649999998643,8.977973e-06,282.1649999998643,5.986361e-06,282.1649999998643,3.276286e-06,282.1649999998643,4.663672e-06
282.17999999986426,8.581677e-06,282.17999999986426,5.438937e-06,282.17999999986426,3.197958e-06,282.17999999986426,4.66971e-06
282.19499999986425,8.515764e-06,282.19499999986425,5.428567e-06,282.19499999986425,3.197958e-06,282.19499999986425,4.788854e-06
282.20999999986424,8.373978e-06,282.20999999986424,5.415577e-06,282.20999999986424,3.189136e-06,282.20999999986424,4.714741e-06
282.2249999998642,8.358825e-06,282.2249999998642,5.323759e-06,282.2249999998642,3.202359e-06,282.2249999998642,4.687774e-06
282.2399999998642,8.699061e-06,282.2399999998642,5.365928e-06,282.2399999998642,3.076727e-06,282.2399999998642,4.699779e-06
282.2549999998642,8.886504e-06,282.2549999998642,5.381656e-06,282.2549999998642,3.039879e-06,282.2549999998642,4.794733e-06
282.2699999998642,8.979542e-06,282.2699999998642,5.28392e-06,282.2699999998642,3.314757e-06,282.2699999998642,4.876302e-06
282.28499999986417,9.018676e-06,282.28499999986417,5.743781e-06,282.28499999986417,3.382069e-06,282.28499999986417,4.861837e-06
282.29999999986416,8.996782e-06,282.29999999986416,5.782887e-06,282.29999999986416,3.40283e-06,282.29999999986416,4.82986e-06
282.31499999986414,9.172005e-06,282.31499999986414,5.95096e-06,282.31499999986414,3.340158e-06,282.31499999986414,4.794733e-06
282.3299999998641,9.322813e-06,282.3299999998641,5.826569e-06,282.3299999998641,3.431686e-06,282.3299999998641,4.726678e-06
282.3449999998641,9.23476e-06,282.3449999998641,5.741327e-06,282.3449999998641,3.512824e-06,282.3449999998641,4.547444e-06
282.3599999998641,9.119637e-06,282.3599999998641,5.674694e-06,282.3599999998641,3.520835e-06,282.3599999998641,4.447213e-06
282.3749999998641,9.257612e-06,282.3749999998641,5.701935e-06,282.3749999998641,3.584279e-06,282.3749999998641,4.531929e-06
282.3899999998641,9.298606e-06,282.3899999998641,5.674694e-06,282.3899999998641,3.564574e-06,282.3899999998641,4.48192e-06
282.40499999986406,9.087142e-06,282.40499999986406,5.454455e-06,282.40499999986406,3.580347e-06,282.40499999986406,4.651575e-06
282.41999999986405,9.333384e-06,282.41999999986405,5.459618e-06,282.41999999986405,3.572469e-06,282.41999999986405,4.841512e-06
282.43499999986403,9.518695e-06,282.43499999986403,5.632336e-06,282.43499999986403,3.646619e-06,282.43499999986403,4.621192e-06
282.449999999864,9.690296e-06,282.449999999864,5.674694e-06,282.449999999864,3.619477e-06,282.449999999864,4.593675e-06
282.464999999864,9.664094e-06,282.464999999864,5.642331e-06,282.464999999864,3.548731e-06,282.464999999864,4.841512e-06
282.479999999864,9.733809e-06,282.479999999864,5.495621e-06,282.479999999864,3.556662e-06,282.479999999864,4.95937e-06
282.494999999864,9.250001e-06,282.494999999864,5.451871e-06,282.494999999864,3.548731e-06,282.494999999864,5.184341e-06
282.50999999986396,9.139696e-06,282.50999999986396,5.402556e-06,282.50999999986396,3.588207e-06,282.50999999986396,5.104936e-06
282.52499999986395,9.045189e-06,282.52499999986395,5.165286e-06,282.52499999986395,3.267676e-06,282.52499999986395,5.102175e-06
282.53999999986394,9.010862e-06,282.53999999986394,5.038274e-06,282.53999999986394,3.310505e-06,282.53999999986394,5.124215e-06
282.5549999998639,9.259134e-06,282.5549999998639,5.071714e-06,282.5549999998639,3.335938e-06,282.5549999998639,5.071714e-06
282.5699999998639,8.962269e-06,282.5699999998639,5.176183e-06,282.5699999998639,3.352786e-06,282.5699999998639,5.00461e-06
282.5849999998639,8.883333e-06,282.5849999998639,5.143422e-06,282.5849999998639,3.390388e-06,282.5849999998639,5.018664e-06
282.5999999998639,9.065413e-06,282.5999999998639,5.243778e-06,282.5999999998639,3.508812e-06,282.5999999998639,5.029879e-06
282.61499999986387,9.181215e-06,282.61499999986387,5.222243e-06,282.61499999986387,3.504795e-06,282.61499999986387,5.024275e-06
282.62999999986386,9.233234e-06,282.62999999986386,5.289249e-06,282.62999999986386,3.520835e-06,282.62999999986386,4.976383e-06
282.64499999986384,9.198077e-06,282.64499999986384,5.334332e-06,282.64499999986384,3.512824e-06,282.64499999986384,4.965048e-06
282.6599999998638,9.099535e-06,282.6599999998638,5.389503e-06,282.6599999998638,3.508812e-06,282.6599999998638,4.741556e-06
282.6749999998638,9.012426e-06,282.6749999998638,5.472503e-06,282.6749999998638,3.528828e-06,282.6749999998638,4.608983e-06
282.6899999998638,9.021799e-06,282.6899999998638,5.275916e-06,282.6899999998638,3.452149e-06,282.6899999998638,4.861837e-06
282.7049999998638,8.77805e-06,282.7049999998638,5.584614e-06,282.7049999998638,3.456227e-06,282.7049999998638,4.950841e-06
282.7199999998638,8.929201e-06,282.7199999998638,5.795054e-06,282.7199999998638,3.57641e-06,282.7199999998638,4.774123e-06
282.73499999986376,8.938661e-06,282.73499999986376,5.927241e-06,282.73499999986376,3.57641e-06,282.73499999986376,4.47563e-06
282.74999999986375,9.073179e-06,282.74999999986375,6.214957e-06,282.74999999986375,3.548731e-06,282.74999999986375,4.547444e-06
282.76499999986373,9.196546e-06,282.76499999986373,6.298262e-06,282.76499999986373,3.552699e-06,282.76499999986373,4.538142e-06
282.7799999998637,9.413036e-06,282.7799999998637,6.266871e-06,282.7799999998637,3.572469e-06,282.7799999998637,4.562907e-06
282.7949999998637,9.289512e-06,282.7949999998637,6.481242e-06,282.7949999998637,3.592131e-06,282.7949999998637,4.553636e-06
282.8099999998637,9.23476e-06,282.8099999998637,6.244353e-06,282.8099999998637,3.57641e-06,282.8099999998637,4.708762e-06
282.8249999998637,9.245431e-06,282.8249999998637,6.187698e-06,282.8249999998637,3.520835e-06,282.8249999998637,4.690778e-06
282.83999999986366,9.239335e-06,282.83999999986366,6.224016e-06,282.83999999986366,3.500774e-06,282.83999999986366,4.777073e-06
282.85499999986365,9.287995e-06,282.85499999986365,6.280343e-06,282.85499999986365,3.280583e-06,282.85499999986365,4.853136e-06
282.86999999986364,9.12427e-06,282.86999999986364,6.50294e-06,282.86999999986364,3.180289e-06,282.86999999986364,4.844421e-06
282.8849999998636,8.891258e-06,282.8849999998636,6.625263e-06,282.8849999998636,3.189136e-06,282.8849999998636,4.791795e-06
282.8999999998636,9.076284e-06,282.8999999998636,6.774542e-06,282.8999999998636,3.180289e-06,282.8999999998636,4.809401e-06
282.9149999998636,9.259134e-06,282.9149999998636,6.844875e-06,282.9149999998636,3.149131e-06,282.9149999998636,4.890725e-06
282.9299999998636,9.131986e-06,282.9299999998636,6.791156e-06,282.9299999998636,3.158065e-06,282.9299999998636,4.815255e-06
282.94499999986357,9.35449e-06,282.94499999986357,6.813935e-06,282.94499999986357,3.197958e-06,282.94499999986357,4.615091e-06
282.95999999986356,9.207261e-06,282.95999999986356,6.524566e-06,282.95999999986356,3.108612e-06,282.95999999986356,4.708762e-06
282.97499999986354,9.068521e-06,282.97499999986354,6.284828e-06,282.97499999986354,3.085871e-06,282.97499999986354,4.639445e-06
282.9899999998635,8.519072e-06,282.9899999998635,6.221753e-06,282.9899999998635,3.140172e-06,282.9899999998635,4.578317e-06
283.0049999998635,8.753946e-06,283.0049999998635,6.141998e-06,283.0049999998635,3.153601e-06,283.0049999998635,4.550541e-06
283.0199999998635,8.5866e-06,283.0199999998635,6.144291e-06,283.0199999998635,3.104077e-06,283.0199999998635,4.541245e-06
283.0349999998635,8.2229e-06,283.0349999998635,6.384893e-06,283.0349999998635,3.162522e-06,283.0349999998635,4.519479e-06
283.0499999998635,8.37566e-06,283.0499999998635,6.224016e-06,283.0499999998635,3.19355e-06,283.0499999998635,4.559819e-06
283.06499999986346,8.103833e-06,283.06499999986346,6.148874e-06,283.06499999986346,3.189136e-06,283.06499999986346,4.39624e-06
283.07999999986345,8.004139e-06,283.07999999986345,6.148874e-06,283.07999999986345,3.241707e-06,283.07999999986345,4.503868e-06
283.09499999986343,7.967094e-06,283.09499999986343,6.16489e-06,283.09499999986343,3.28916e-06,283.09499999986343,4.68176e-06
283.1099999998634,7.940529e-06,283.1099999998634,6.167175e-06,283.1099999998634,3.331712e-06,283.1099999998634,4.714741e-06
283.1249999998634,8.326743e-06,283.1249999998634,5.773135e-06,283.1249999998634,3.276286e-06,283.1249999998634,4.82986e-06
283.1399999998634,8.43766e-06,283.1399999998634,5.634837e-06,283.1399999998634,3.344373e-06,283.1399999998634,4.794733e-06
283.1549999998634,8.42262e-06,283.1549999998634,5.289249e-06,283.1549999998634,3.382069e-06,283.1549999998634,4.73561e-06
283.16999999986336,8.645458e-06,283.16999999986336,5.344885e-06,283.16999999986336,3.406967e-06,283.16999999986336,4.672725e-06
283.18499999986335,8.444335e-06,283.18499999986335,5.582091e-06,283.18499999986335,3.512824e-06,283.18499999986335,4.777073e-06
283.19999999986334,8.36051e-06,283.19999999986334,6.03324e-06,283.19999999986334,3.520835e-06,283.19999999986334,4.844421e-06
283.2149999998633,8.340267e-06,283.2149999998633,6.095956e-06,283.2149999998633,3.607783e-06,283.2149999998633,4.905105e-06
283.2299999998633,8.389105e-06,283.2299999998633,6.141998e-06,283.2299999998633,3.588207e-06,283.2299999998633,4.950841e-06
283.2449999998633,8.402527e-06,283.2449999998633,6.023894e-06,283.2449999998633,3.56062e-06,283.2449999998633,4.925167e-06
283.2599999998633,8.389105e-06,283.2599999998633,5.986361e-06,283.2599999998633,3.512824e-06,283.2599999998633,4.867628e-06
283.27499999986327,8.43599e-06,283.27499999986327,5.780451e-06,283.27499999986327,3.654337e-06,283.27499999986327,4.876302e-06
283.28999999986326,8.355453e-06,283.28999999986326,5.579567e-06,283.28999999986326,3.599965e-06,283.28999999986326,4.803539e-06
283.30499999986324,8.250264e-06,283.30499999986324,5.587136e-06,283.30499999986324,3.611685e-06,283.30499999986324,4.81818e-06
283.3199999998632,8.410905e-06,283.3199999998632,5.795054e-06,283.3199999998632,3.588207e-06,283.3199999998632,4.832776e-06
283.3349999998632,8.581677e-06,283.3349999998632,5.821732e-06,283.3349999998632,3.56062e-06,283.3349999998632,4.663672e-06
283.3499999998632,8.687718e-06,283.3499999998632,5.726587e-06,283.3499999998632,3.615583e-06,283.3499999998632,4.608983e-06
283.3649999998632,8.854743e-06,283.3649999998632,5.910582e-06,283.3649999998632,3.65048e-06,283.3649999998632,4.535037e-06
283.3799999998632,8.601352e-06,283.3799999998632,6.075122e-06,283.3799999998632,3.688867e-06,283.3799999998632,4.559819e-06
283.39499999986316,8.499207e-06,283.39499999986316,6.257873e-06,283.39499999986316,3.685046e-06,283.39499999986316,4.544346e-06
283.40999999986315,8.15236e-06,283.40999999986315,6.642251e-06,283.40999999986315,3.834905e-06,283.40999999986315,4.541245e-06
283.42499999986313,7.748384e-06,283.42499999986313,6.799448e-06,283.42499999986313,3.82387e-06,283.42499999986313,4.780021e-06
283.4399999998631,8.103833e-06,283.4399999998631,6.474718e-06,283.4399999998631,3.797995e-06,283.4399999998631,4.651575e-06
283.4549999998631,8.31828e-06,283.4549999998631,6.384893e-06,283.4549999998631,3.73441e-06,283.4549999998631,4.627284e-06
283.4699999998631,8.294538e-06,283.4699999998631,6.316129e-06,283.4699999998631,3.719291e-06,283.4699999998631,4.612038e-06
283.4849999998631,8.616079e-06,283.4849999998631,6.415707e-06,283.4849999998631,3.771943e-06,283.4849999998631,4.648545e-06
283.49999999986306,8.515764e-06,283.49999999986306,6.387099e-06,283.49999999986306,3.745709e-06,283.49999999986306,4.648545e-06
283.51499999986305,8.462665e-06,283.51499999986305,6.926705e-06,283.51499999986305,3.801702e-06,283.51499999986305,4.768218e-06
283.52999999986304,8.462665e-06,283.52999999986304,7.266147e-06,283.52999999986304,3.771943e-06,283.52999999986304,4.738583e-06
283.544999999863,8.583318e-06,283.544999999863,7.229218e-06,283.544999999863,3.764466e-06,283.544999999863,4.782967e-06
283.559999999863,8.929201e-06,283.559999999863,7.15282e-06,283.559999999863,3.723076e-06,283.559999999863,4.771172e-06
283.574999999863,9.065413e-06,283.574999999863,7.158726e-06,283.574999999863,3.692683e-06,283.574999999863,4.75046e-06
283.589999999863,9.024921e-06,283.589999999863,7.21166e-06,283.589999999863,3.771943e-06,283.589999999863,4.602866e-06
283.60499999986297,8.824465e-06,283.60499999986297,7.325999e-06,283.60499999986297,3.764466e-06,283.60499999986297,4.596741e-06
283.61999999986296,8.864284e-06,283.61999999986296,7.22337e-06,283.61999999986296,3.67356e-06,283.61999999986296,4.621192e-06
283.63499999986294,8.940237e-06,283.63499999986294,7.14888e-06,283.63499999986294,3.753223e-06,283.63499999986294,4.70577e-06
283.6499999998629,8.954407e-06,283.6499999998629,6.772462e-06,283.6499999998629,3.838577e-06,283.6499999998629,4.782967e-06
283.6649999998629,9.010862e-06,283.6649999998629,6.591156e-06,283.6649999998629,3.860533e-06,283.6649999998629,4.782967e-06
283.6799999998629,9.131986e-06,283.6799999998629,6.266871e-06,283.6799999998629,3.805405e-06,283.6799999998629,4.729657e-06
283.6949999998629,8.806888e-06,283.6949999998629,6.287069e-06,283.6949999998629,3.816494e-06,283.6949999998629,4.75046e-06
283.7099999998629,8.757163e-06,283.7099999998629,6.431058e-06,283.7099999998629,3.853228e-06,283.7099999998629,4.70577e-06
283.72499999986286,8.736227e-06,283.72499999986286,6.450741e-06,283.72499999986286,3.73441e-06,283.72499999986286,4.654602e-06
283.73999999986285,8.835633e-06,283.73999999986285,6.351713e-06,283.73999999986285,3.665883e-06,283.73999999986285,4.699779e-06
283.75499999986283,9.139696e-06,283.75499999986283,6.13052e-06,283.75499999986283,3.692683e-06,283.75499999986283,4.593675e-06
283.7699999998628,9.187351e-06,283.7699999998628,5.667242e-06,283.7699999998628,3.642754e-06,283.7699999998628,4.636408e-06
283.7849999998628,9.39506e-06,283.7849999998628,5.389503e-06,283.7849999998628,3.638885e-06,283.7849999998628,4.687774e-06
283.7999999998628,9.298606e-06,283.7999999998628,5.652309e-06,283.7999999998628,3.65048e-06,283.7999999998628,4.612038e-06
283.8149999998628,8.881747e-06,283.8149999998628,5.546649e-06,283.8149999998628,3.79057e-06,283.8149999998628,4.714741e-06
283.82999999986276,9.009299e-06,283.82999999986276,5.516089e-06,283.82999999986276,3.779404e-06,283.82999999986276,4.896482e-06
283.84499999986275,9.051417e-06,283.84499999986275,5.604757e-06,283.84499999986275,3.692683e-06,283.84499999986275,4.93374e-06
283.85999999986274,9.003043e-06,283.85999999986274,5.500745e-06,283.85999999986274,3.760722e-06,283.85999999986274,4.771172e-06
283.8749999998627,8.886504e-06,283.8749999998627,5.604757e-06,283.8749999998627,3.786851e-06,283.8749999998627,4.73561e-06
283.8899999998627,8.864284e-06,283.8899999998627,5.782887e-06,283.8899999998627,3.4111e-06,283.8899999998627,4.756387e-06
283.9049999998627,9.046747e-06,283.9049999998627,5.768253e-06,283.9049999998627,3.335938e-06,283.9049999998627,4.907976e-06
283.9199999998627,9.283444e-06,283.9199999998627,5.872325e-06,283.9199999998627,3.259043e-06,283.9199999998627,4.771172e-06
283.93499999986267,9.304663e-06,283.93499999986267,5.931993e-06,283.93499999986267,3.271984e-06,283.93499999986267,4.794733e-06
283.94999999986265,9.736703e-06,283.94999999986265,5.879517e-06,283.94999999986265,3.382069e-06,283.94999999986265,4.890725e-06
283.96499999986264,9.303149e-06,283.96499999986264,5.8867e-06,283.96499999986264,3.492716e-06,283.96499999986264,4.782967e-06
283.9799999998626,9.251524e-06,283.9799999998626,5.922486e-06,283.9799999998626,3.588207e-06,283.9799999998626,4.922306e-06
283.9949999998626,9.167396e-06,283.9949999998626,6.114414e-06,283.9949999998626,3.611685e-06,283.9949999998626,4.902232e-06
284.0099999998626,9.675749e-06,284.0099999998626,6.201342e-06,284.0099999998626,3.619477e-06,284.0099999998626,5.015856e-06
284.0249999998626,9.807338e-06,284.0249999998626,6.369431e-06,284.0249999998626,3.580347e-06,284.0249999998626,5.00461e-06
284.0399999998626,9.878894e-06,284.0399999998626,6.576178e-06,284.0399999998626,3.711708e-06,284.0399999998626,5.214144e-06
284.05499999986256,1.019468e-05,284.05499999986256,6.463831e-06,284.05499999986256,3.638885e-06,284.05499999986256,5.187057e-06
284.06999999986255,1.004855e-05,284.06999999986255,6.472542e-06,284.06999999986255,3.54476e-06,284.06999999986255,5.08004e-06
284.08499999986253,1.005275e-05,284.08499999986253,6.65708e-06,284.08499999986253,3.592131e-06,284.08499999986253,5.029879e-06
284.0999999998625,1.042424e-05,284.0999999998625,6.64861e-06,284.0999999998625,3.592131e-06,284.0999999998625,5.176183e-06
284.1149999998625,1.07999e-05,284.1149999998625,6.699267e-06,284.1149999998625,3.572469e-06,284.1149999998625,5.214144e-06
284.1299999998625,1.106787e-05,284.1299999998625,7.318304e-06,284.1299999998625,3.599965e-06,284.1299999998625,5.637336e-06
284.1449999998625,1.112373e-05,284.1449999998625,7.238955e-06,284.1449999998625,3.638885e-06,284.1449999998625,5.741327e-06
284.15999999986246,1.08025e-05,284.15999999986246,7.3567e-06,284.15999999986246,3.719291e-06,284.15999999986246,5.518642e-06
284.17499999986245,1.081554e-05,284.17499999986245,7.325999e-06,284.17499999986245,3.786851e-06,284.17499999986245,5.510979e-06
284.18999999986244,1.103856e-05,284.18999999986244,7.302889e-06,284.18999999986244,3.768206e-06,284.18999999986244,5.415577e-06
284.2049999998624,1.107042e-05,284.2049999998624,7.534543e-06,284.2049999998624,3.711708e-06,284.2049999998624,5.412975e-06
284.2199999998624,1.119065e-05,284.2199999998624,7.500814e-06,284.2199999998624,3.592131e-06,284.2199999998624,5.464775e-06
284.2349999998624,1.120071e-05,284.2349999998624,7.713764e-06,284.2349999998624,3.520835e-06,284.2349999998624,5.425972e-06
284.2499999998624,1.126217e-05,284.2499999998624,7.71559e-06,284.2499999998624,3.520835e-06,284.2499999998624,5.410373e-06
284.26499999986237,1.071478e-05,284.26499999986237,7.575563e-06,284.26499999986237,3.56062e-06,284.26499999986237,5.513535e-06
284.27999999986235,1.063825e-05,284.27999999986235,7.737468e-06,284.27999999986235,3.654337e-06,284.27999999986235,5.431162e-06
284.29499999986234,1.070426e-05,284.29499999986234,7.50457e-06,284.29499999986234,3.599965e-06,284.29499999986234,5.28392e-06
284.3099999998623,1.052644e-05,284.3099999998623,7.547619e-06,284.3099999998623,3.580347e-06,284.3099999998623,5.246463e-06
284.3249999998623,1.062898e-05,284.3249999998623,7.530803e-06,284.3249999998623,3.584279e-06,284.3249999998623,5.2679e-06
284.3399999998623,1.044988e-05,284.3399999998623,7.350954e-06,284.3399999998623,3.603876e-06,284.3399999998623,5.259872e-06
284.3549999998623,9.990908e-06,284.3549999998623,7.436688e-06,284.3549999998623,3.669723e-06,284.3549999998623,5.189773e-06
284.3699999998623,9.836022e-06,284.3699999998623,7.266147e-06,284.3699999998623,3.719291e-06,284.3699999998623,5.270573e-06
284.38499999986226,9.665551e-06,284.38499999986226,7.3106e-06,284.38499999986226,3.730636e-06,284.38499999986226,4.945147e-06
284.39999999986225,9.623194e-06,284.39999999986225,7.404416e-06,284.39999999986225,3.726858e-06,284.39999999986225,4.841512e-06
284.41499999986223,9.624658e-06,284.41499999986223,7.719241e-06,284.41499999986223,3.642754e-06,284.41499999986223,4.95937e-06
284.4299999998622,9.430977e-06,284.4299999998622,7.721065e-06,284.4299999998622,3.753223e-06,284.4299999998622,5.029879e-06
284.4449999998622,9.683024e-06,284.4449999998622,7.579281e-06,284.4449999998622,3.775675e-06,284.4449999998622,5.035477e-06
284.4599999998622,9.47122e-06,284.4599999998622,7.590424e-06,284.4599999998622,3.794284e-06,284.4599999998622,5.099414e-06
284.4749999998622,9.612942e-06,284.4749999998622,7.632989e-06,284.4749999998622,3.775675e-06,284.4749999998622,5.12971e-06
284.48999999986216,9.790087e-06,284.48999999986216,7.40822e-06,284.48999999986216,3.79057e-06,284.48999999986216,5.102175e-06
284.50499999986215,9.524612e-06,284.50499999986215,7.404416e-06,284.50499999986215,3.83123e-06,284.50499999986215,5.055022e-06
284.51999999986214,9.360511e-06,284.51999999986214,7.135074e-06,284.51999999986214,3.73818e-06,284.51999999986214,4.873412e-06
284.5349999998621,9.230183e-06,284.5349999998621,7.135074e-06,284.5349999998621,3.78313e-06,284.5349999998621,4.945147e-06
284.5499999998621,9.348464e-06,284.5499999998621,7.146909e-06,284.5499999998621,3.615583e-06,284.5499999998621,4.990517e-06
284.5649999998621,9.639282e-06,284.5649999998621,7.184261e-06,284.5649999998621,3.642754e-06,284.5649999998621,5.088352e-06
284.5799999998621,1.010029e-05,284.5799999998621,7.446153e-06,284.5799999998621,3.654337e-06,284.5799999998621,5.132455e-06
284.59499999986207,1.039582e-05,284.59499999986207,7.584854e-06,284.59499999986207,3.564574e-06,284.59499999986207,5.091119e-06
284.60999999986205,1.054382e-05,284.60999999986205,7.675319e-06,284.60999999986205,3.548731e-06,284.60999999986205,5.015856e-06
284.62499999986204,1.070689e-05,284.62499999986204,7.137048e-06,284.62499999986204,3.528828e-06,284.62499999986204,4.996159e-06
284.639999999862,1.073973e-05,284.639999999862,7.079578e-06,284.639999999862,3.460301e-06,284.639999999862,4.83569e-06
284.654999999862,1.07082e-05,284.654999999862,6.789081e-06,284.654999999862,3.435788e-06,284.654999999862,4.794733e-06
284.669999999862,1.080381e-05,284.669999999862,6.851046e-06,284.669999999862,3.448066e-06,284.669999999862,4.717728e-06
284.684999999862,1.074366e-05,284.684999999862,6.916529e-06,284.684999999862,3.259043e-06,284.684999999862,4.636408e-06
284.699999999862,1.036189e-05,284.699999999862,6.7391e-06,284.699999999862,3.237359e-06,284.699999999862,4.720713e-06
284.71499999986196,1.010865e-05,284.71499999986196,6.776621e-06,284.71499999986196,3.271984e-06,284.71499999986196,4.717728e-06
284.72999999986195,9.982445e-06,284.72999999986195,6.711871e-06,284.72999999986195,3.276286e-06,284.72999999986195,4.723696e-06
284.74499999986193,9.932932e-06,284.74499999986193,6.877724e-06,284.74499999986193,3.284874e-06,284.74499999986193,4.654602e-06
284.7599999998619,9.856052e-06,284.7599999998619,7.083556e-06,284.7599999998619,3.394541e-06,284.7599999998619,4.708762e-06
284.7749999998619,1.043909e-05,284.7749999998619,7.237009e-06,284.7749999998619,3.419349e-06,284.7749999998619,4.913713e-06
284.7899999998619,1.047681e-05,284.7899999998619,7.306746e-06,284.7899999998619,3.452149e-06,284.7899999998619,4.867628e-06
284.8049999998619,1.034147e-05,284.8049999998619,7.337527e-06,284.8049999998619,3.536803e-06,284.8049999998619,4.858938e-06
284.81999999986186,9.536437e-06,284.81999999986186,6.947012e-06,284.81999999986186,3.508812e-06,284.81999999986186,4.794733e-06
284.83499999986185,9.284961e-06,284.83499999986185,6.965238e-06,284.83499999986185,3.592131e-06,284.83499999986185,4.987693e-06
284.84999999986184,9.284961e-06,284.84999999986184,6.764137e-06,284.84999999986184,3.603876e-06,284.84999999986184,4.990517e-06
284.8649999998618,9.466757e-06,284.8649999998618,6.667651e-06,284.8649999998618,3.516832e-06,284.8649999998618,4.93374e-06
284.8799999998618,9.94002e-06,284.8799999998618,6.528882e-06,284.8799999998618,3.611685e-06,284.8799999998618,4.884961e-06
284.8949999998618,1.025667e-05,284.8949999998618,6.959168e-06,284.8949999998618,3.646619e-06,284.8949999998618,4.990517e-06
284.9099999998618,1.051974e-05,284.9099999998618,6.844875e-06,284.9099999998618,3.669723e-06,284.9099999998618,5.113207e-06
284.92499999986177,1.046873e-05,284.92499999986177,6.809799e-06,284.92499999986177,3.70411e-06,284.92499999986177,5.110451e-06
284.93999999986175,1.060908e-05,284.93999999986175,6.842817e-06,284.93999999986175,3.753223e-06,284.93999999986175,5.032679e-06
284.95499999986174,1.063031e-05,284.95499999986174,6.938897e-06,284.95499999986174,3.723076e-06,284.95499999986174,4.984868e-06
284.9699999998617,1.064752e-05,284.9699999998617,7.00557e-06,284.9699999998617,3.78313e-06,284.9699999998617,5.027078e-06
284.9849999998617,1.067658e-05,284.9849999998617,6.757886e-06,284.9849999998617,3.867824e-06,284.9849999998617,4.976383e-06
284.9999999998617,1.064884e-05,284.9999999998617,6.567604e-06,284.9999999998617,3.838577e-06,284.9999999998617,4.998978e-06
285.0149999998617,1.059048e-05,285.0149999998617,6.426676e-06,285.0149999998617,3.730636e-06,285.0149999998617,4.887844e-06
285.0299999998617,1.024293e-05,285.0299999998617,6.437625e-06,285.0299999998617,3.871464e-06,285.0299999998617,4.867628e-06
285.04499999986166,1.038362e-05,285.04499999986166,6.569749e-06,285.04499999986166,3.882364e-06,285.04499999986166,4.856038e-06
285.05999999986165,1.039175e-05,285.05999999986165,6.711871e-06,285.05999999986165,3.84957e-06,285.05999999986165,4.841512e-06
285.07499999986163,1.030053e-05,285.07499999986163,6.890002e-06,285.07499999986163,3.842245e-06,285.07499999986163,4.984868e-06
285.0899999998616,1.032921e-05,285.0899999998616,6.983416e-06,285.0899999998616,3.882364e-06,285.0899999998616,4.887844e-06
285.1049999998616,9.961255e-06,285.1049999998616,7.160693e-06,285.1049999998616,3.922073e-06,285.1049999998616,4.902232e-06
285.1199999998616,9.78289e-06,285.1199999998616,7.205797e-06,285.1199999998616,3.972038e-06,285.1199999998616,4.873412e-06
285.1349999998616,8.634045e-06,285.1349999998616,6.914493e-06,285.1349999998616,3.943564e-06,285.1349999998616,4.942298e-06
285.14999999986156,8.365563e-06,285.14999999986156,6.709772e-06,285.14999999986156,3.943564e-06,285.14999999986156,4.844421e-06
285.16499999986155,8.131598e-06,285.16499999986155,7.172487e-06,285.16499999986155,3.904074e-06,285.16499999986155,4.768218e-06
285.17999999986154,7.990047e-06,285.17999999986154,7.22337e-06,285.17999999986154,3.84957e-06,285.17999999986154,4.815255e-06
285.1949999998615,8.105571e-06,285.1949999998615,7.498936e-06,285.1949999998615,3.900464e-06,285.1949999998615,4.853136e-06
285.2099999998615,8.205751e-06,285.2099999998615,7.502692e-06,285.2099999998615,3.83123e-06,285.2099999998615,4.893604e-06
285.2249999998615,8.316587e-06,285.2249999998615,7.470705e-06,285.2249999998615,3.711708e-06,285.2249999998615,4.771172e-06
285.2399999998615,8.188566e-06,285.2399999998615,7.500814e-06,285.2399999998615,3.603876e-06,285.2399999998615,4.768218e-06
285.25499999986147,8.36893e-06,285.25499999986147,7.47636e-06,285.25499999986147,3.572469e-06,285.25499999986147,4.838602e-06
285.26999999986145,8.810087e-06,285.26999999986145,7.381551e-06,285.26999999986145,3.572469e-06,285.26999999986145,4.887844e-06
285.28499999986144,8.878575e-06,285.28499999986144,7.46882e-06,285.28499999986144,3.406967e-06,285.28499999986144,4.973552e-06
285.2999999998614,8.724932e-06,285.2999999998614,7.339447e-06,285.2999999998614,3.394541e-06,285.2999999998614,4.998978e-06
285.3149999998614,9.021799e-06,285.3149999998614,7.254505e-06,285.3149999998614,3.306247e-06,285.3149999998614,4.899358e-06
285.3299999998614,1.03809e-05,285.3299999998614,7.398706e-06,285.3299999998614,3.306247e-06,285.3299999998614,4.756387e-06
285.3449999998614,1.099893e-05,285.3449999998614,7.217518e-06,285.3449999998614,3.144655e-06,285.3449999998614,4.884961e-06
285.3599999998614,1.206415e-05,285.3599999998614,7.972397e-06,285.3599999998614,3.241707e-06,285.3599999998614,4.976383e-06
285.37499999986136,1.210262e-05,285.37499999986136,8.176516e-06,285.37499999986136,3.202359e-06,285.37499999986136,5.102175e-06
285.38999999986135,1.248306e-05,285.38999999986135,8.326743e-06,285.38999999986135,3.131187e-06,285.38999999986135,5.102175e-06
285.40499999986133,1.308471e-05,285.40499999986133,8.666614e-06,285.40499999986133,3.104077e-06,285.40499999986133,5.275916e-06
285.4199999998613,1.51994e-05,285.4199999998613,1.023192e-05,285.4199999998613,3.053749e-06,285.4199999998613,5.485359e-06
285.4349999998613,1.668138e-05,285.4349999998613,1.104621e-05,285.4349999998613,2.993181e-06,285.4349999998613,5.61731e-06
285.4499999998613,1.755369e-05,285.4499999998613,1.250111e-05,285.4499999998613,2.964809e-06,285.4499999998613,5.860319e-06
285.4649999998613,1.868713e-05,285.4649999998613,1.314593e-05,285.4649999998613,3.067557e-06,285.4649999998613,5.95096e-06
285.47999999986126,1.870145e-05,285.47999999986126,1.362684e-05,285.47999999986126,3.259043e-06,285.47999999986126,5.969867e-06
285.49499999986125,1.91407e-05,285.49499999986125,1.396481e-05,285.49499999986125,3.439886e-06,285.49499999986125,6.13052e-06
285.50999999986124,1.937769e-05,285.50999999986124,1.401315e-05,285.50999999986124,3.394541e-06,285.50999999986124,6.107498e-06
285.5249999998612,1.954849e-05,285.5249999998612,1.402621e-05,285.5249999998612,3.427579e-06,285.5249999998612,6.007502e-06
285.5399999998612,1.999098e-05,285.5399999998612,1.429776e-05,285.5399999998612,3.496747e-06,285.5399999998612,6.01219e-06
285.5549999998612,2.02166e-05,285.5549999998612,1.432532e-05,285.5549999998612,3.588207e-06,285.5549999998612,5.93674e-06
285.5699999998612,1.984529e-05,285.5699999998612,1.45478e-05,285.5699999998612,3.753223e-06,285.5699999998612,5.955692e-06
285.58499999986117,1.965342e-05,285.58499999986117,1.444284e-05,285.58499999986117,3.719291e-06,285.58499999986117,6.075122e-06
285.59999999986115,1.945531e-05,285.59999999986115,1.49216e-05,285.59999999986115,3.646619e-06,285.59999999986115,6.309435e-06
285.61499999986114,1.949365e-05,285.61499999986114,1.494895e-05,285.61499999986114,3.520835e-06,285.61499999986114,6.411314e-06
285.6299999998611,1.962042e-05,285.6299999998611,1.532952e-05,285.6299999998611,3.564574e-06,285.6299999998611,6.387099e-06
285.6449999998611,1.913408e-05,285.6449999998611,1.504944e-05,285.6449999998611,3.662038e-06,285.6449999998611,6.205884e-06
285.6599999998611,1.92376e-05,285.6599999998611,1.546036e-05,285.6599999998611,3.685046e-06,285.6599999998611,6.293787e-06
285.6749999998611,1.693947e-05,285.6749999998611,1.431155e-05,285.6749999998611,3.871464e-06,285.6749999998611,6.049562e-06
285.6899999998611,1.935877e-05,285.6899999998611,1.595804e-05,285.6899999998611,3.936414e-06,285.6899999998611,6.452925e-06
285.70499999986106,1.85866e-05,285.70499999986106,1.487432e-05,285.70499999986106,4.090841e-06,285.70499999986106,6.300498e-06
285.71999999986105,1.912303e-05,285.71999999986105,1.569368e-05,285.71999999986105,4.131956e-06,285.71999999986105,6.507271e-06
285.73499999986103,1.915027e-05,285.73499999986103,1.54476e-05,285.73499999986103,4.007346e-06,285.73499999986103,6.378271e-06
285.749999999861,1.962401e-05,285.749999999861,1.598362e-05,285.749999999861,3.90768e-06,285.749999999861,6.669763e-06
285.764999999861,2.038107e-05,285.764999999861,1.616938e-05,285.764999999861,3.92925e-06,285.764999999861,6.789081e-06
285.779999999861,2.017545e-05,285.779999999861,1.629608e-05,285.779999999861,4.045829e-06,285.779999999861,6.851046e-06
285.794999999861,2.051884e-05,285.794999999861,1.612489e-05,285.794999999861,4.138769e-06,285.794999999861,6.957143e-06
285.80999999986096,2.016288e-05,285.80999999986096,1.610391e-05,285.80999999986096,3.99326e-06,285.80999999986096,7.019631e-06
285.82499999986095,2.008799e-05,285.82499999986095,1.624326e-05,285.82499999986095,4.024883e-06,285.82499999986095,6.896133e-06
285.83999999986094,2.00564e-05,285.83999999986094,1.587485e-05,285.83999999986094,4.125132e-06,285.83999999986094,6.910417e-06
285.8549999998609,1.991827e-05,285.8549999998609,1.567302e-05,285.8549999998609,4.186148e-06,285.8549999998609,6.561167e-06
285.8699999998609,1.955786e-05,285.8699999998609,1.560456e-05,285.8699999998609,4.232997e-06,285.8699999998609,6.601833e-06
285.8849999998609,1.965557e-05,285.8849999998609,1.578675e-05,285.8849999998609,4.199587e-06,285.8849999998609,6.520246e-06
285.8999999998609,1.966345e-05,285.8999999998609,1.611527e-05,285.8999999998609,4.687774e-06,285.8999999998609,6.597564e-06
285.91499999986087,1.946545e-05,285.91499999986087,1.551312e-05,285.91499999986087,4.919443e-06,285.91499999986087,6.582601e-06
285.92999999986085,1.877662e-05,285.92999999986085,1.485537e-05,285.92999999986085,4.841512e-06,285.92999999986085,6.466009e-06
285.94499999986084,1.618767e-05,285.94499999986084,1.326434e-05,285.94499999986084,4.890725e-06,285.94499999986084,6.070483e-06
285.9599999998608,1.656018e-05,285.9599999998608,1.315664e-05,285.9599999998608,5.307859e-06,285.9599999998608,5.979298e-06
285.9749999998608,1.549858e-05,285.9749999998608,1.192202e-05,285.9749999998608,6.629514e-06,285.9749999998608,5.787757e-06
285.9899999998608,1.599243e-05,285.9899999998608,1.217341e-05,285.9899999998608,9.90026e-06,285.9899999998608,6.026232e-06
286.0049999998608,1.409334e-05,286.0049999998608,1.128466e-05,286.0049999998608,1.286759e-05,286.0049999998608,5.384273e-06
286.0199999998608,1.369489e-05,286.0199999998608,1.127967e-05,286.0199999998608,1.450318e-05,286.0199999998608,5.384273e-06
286.03499999986076,1.34667e-05,286.03499999986076,1.135931e-05,286.03499999986076,1.634355e-05,286.03499999986076,5.227635e-06
286.04999999986074,1.336801e-05,286.04999999986074,1.172184e-05,286.04999999986074,1.697851e-05,286.04999999986074,5.187057e-06
286.06499999986073,1.377387e-05,286.06499999986073,1.171583e-05,286.06499999986073,2.060858e-05,286.06499999986073,5.184341e-06
286.0799999998607,1.375237e-05,286.0799999998607,1.121705e-05,286.0799999998607,2.283614e-05,286.0799999998607,5.420777e-06
286.0949999998607,1.488758e-05,286.0949999998607,1.160833e-05,286.0949999998607,2.87189e-05,286.0949999998607,6.589018e-06
286.1099999998607,1.568021e-05,286.1099999998607,1.136551e-05,286.1099999998607,3.71876e-05,286.1099999998607,7.358615e-06
286.1249999998607,1.64338e-05,286.1249999998607,1.194799e-05,286.1249999998607,4.336524e-05,286.1249999998607,7.649581e-06
286.13999999986066,1.762257e-05,286.13999999986066,1.253487e-05,286.13999999986066,4.4005e-05,286.13999999986066,8.58824e-06
286.15499999986065,1.966632e-05,286.15499999986065,1.323883e-05,286.15499999986065,4.704512e-05,286.15499999986065,8.870637e-06
286.16999999986064,2.724954e-05,286.16999999986064,1.673618e-05,286.16999999986064,5.011614e-05,286.16999999986064,9.61001e-06
286.1849999998606,3.003564e-05,286.1849999998606,1.719206e-05,286.1849999998606,6.038841e-05,286.1849999998606,9.982445e-06
286.1999999998606,3.111465e-05,286.1999999998606,1.738759e-05,286.1999999998606,6.44012e-05,286.1999999998606,1.014343e-05
286.2149999998606,3.283502e-05,286.2149999998606,2.026323e-05,286.2149999998606,7.427286e-05,286.2149999998606,1.124339e-05
286.2299999998606,3.465182e-05,286.2299999998606,2.287312e-05,286.2299999998606,7.862048e-05,286.2299999998606,1.182474e-05
286.24499999986057,3.545872e-05,286.24499999986057,2.447205e-05,286.24499999986057,8.276806e-05,286.24499999986057,1.221269e-05
286.25999999986055,3.600043e-05,286.25999999986055,2.599388e-05,286.25999999986055,8.586338e-05,286.25999999986055,1.245934e-05
286.27499999986054,3.658266e-05,286.27499999986054,2.602421e-05,286.27499999986054,8.593242e-05,286.27499999986054,1.251575e-05
286.2899999998605,3.668264e-05,286.2899999998605,2.618556e-05,286.2899999998605,8.812421e-05,286.2899999998605,1.266122e-05
286.3049999998605,3.782497e-05,286.3049999998605,2.606586e-05,286.3049999998605,8.859292e-05,286.3049999998605,1.271894e-05
286.3199999998605,3.859e-05,286.3199999998605,2.638545e-05,286.3199999998605,8.865284e-05,286.3199999998605,1.2689e-05
286.3349999998605,4.200761e-05,286.3349999998605,2.644678e-05,286.3349999998605,8.839076e-05,286.3349999998605,1.24095e-05
286.3499999998605,4.312288e-05,286.3499999998605,2.639933e-05,286.3499999998605,8.739451e-05,286.3499999998605,1.204896e-05
286.36499999986046,4.546949e-05,286.36499999986046,2.68018e-05,286.36499999986046,8.470967e-05,286.36499999986046,1.172665e-05
286.37999999986044,4.966778e-05,286.37999999986044,2.672706e-05,286.37999999986044,8.432833e-05,286.37999999986044,1.126092e-05
286.39499999986043,5.195225e-05,286.39499999986043,2.753393e-05,286.39499999986043,8.376989e-05,286.39499999986043,1.128841e-05
286.4099999998604,5.400026e-05,286.4099999998604,2.774746e-05,286.4099999998604,8.19455e-05,286.4099999998604,1.084415e-05
286.4249999998604,5.510775e-05,286.4249999998604,2.699922e-05,286.4249999998604,7.876584e-05,286.4249999998604,1.070031e-05
286.4399999998604,5.518259e-05,286.4399999998604,2.697207e-05,286.4399999998604,7.357237e-05,286.4399999998604,1.010726e-05
286.4549999998604,5.792453e-05,286.4549999998604,2.770835e-05,286.4549999998604,6.986401e-05,286.4549999998604,1.008074e-05
286.46999999986036,5.797509e-05,286.46999999986036,2.486153e-05,286.46999999986036,5.866205e-05,286.46999999986036,8.800488e-06
286.48499999986035,5.878655e-05,286.48499999986035,2.698826e-05,286.48499999986035,5.355127e-05,286.48499999986035,8.819675e-06
286.49999999986034,6.311444e-05,286.49999999986034,3.046498e-05,286.49999999986034,4.142511e-05,286.49999999986034,1.006956e-05
286.5149999998603,6.458794e-05,286.5149999998603,3.582077e-05,286.5149999998603,4.040602e-05,286.5149999998603,1.146178e-05
286.5299999998603,6.543085e-05,286.5299999998603,3.638382e-05,286.5299999998603,3.807922e-05,286.5299999998603,1.156699e-05
286.5449999998603,6.800049e-05,286.5449999998603,4.003161e-05,286.5449999998603,3.320065e-05,286.5449999998603,1.255732e-05
286.5599999998603,7.175864e-05,286.5599999998603,4.541865e-05,286.5599999998603,3.062087e-05,286.5599999998603,1.493292e-05
286.57499999986027,8.090682e-05,286.57499999986027,4.713307e-05,286.57499999986027,2.885738e-05,286.57499999986027,1.56829e-05
286.58999999986025,8.227233e-05,286.58999999986025,5.315285e-05,286.58999999986025,2.843497e-05,286.58999999986025,1.677317e-05
286.60499999986024,8.761714e-05,286.60499999986024,6.22422e-05,286.60499999986024,1.417308e-05,286.60499999986024,1.909133e-05
286.6199999998602,9.072263e-05,286.6199999998602,6.707358e-05,286.6199999998602,1.400108e-05,286.6199999998602,2.053394e-05
286.6349999998602,9.453236e-05,286.6349999998602,7.589886e-05,286.6349999998602,1.375954e-05,286.6349999998602,2.264223e-05
286.6499999998602,9.434411e-05,286.6499999998602,7.569684e-05,286.6499999998602,7.172487e-06,286.6499999998602,2.2664e-05
286.6649999998602,9.186246e-05,286.6649999998602,7.572773e-05,286.6649999998602,7.474476e-06,286.6649999998602,2.295488e-05
286.6799999998602,9.003559e-05,286.6799999998602,7.613938e-05,286.6799999998602,7.538281e-06,286.6799999998602,2.326272e-05
286.69499999986016,8.910993e-05,286.69499999986016,7.651275e-05,286.69499999986016,7.406318e-06,286.69499999986016,2.407511e-05
286.70999999986014,9.153926e-05,286.70999999986014,7.649397e-05,286.70999999986014,7.293238e-06,286.70999999986014,2.419243e-05
286.72499999986013,9.091372e-05,286.72499999986013,7.734299e-05,286.72499999986013,7.327922e-06,286.72499999986013,2.583079e-05
286.7399999998601,9.060471e-05,286.7399999998601,7.878587e-05,286.7399999998601,7.455606e-06,286.7399999998601,2.711688e-05
286.7549999998601,8.667525e-05,286.7549999998601,7.776819e-05,286.7549999998601,7.043671e-06,286.7549999998601,2.68018e-05
286.7699999998601,8.593078e-05,286.7699999998601,7.877192e-05,286.7699999998601,6.667651e-06,286.7699999998601,2.780325e-05
286.7849999998601,8.688562e-05,286.7849999998601,7.949163e-05,286.7849999998601,6.556871e-06,286.7849999998601,2.805945e-05
286.79999999986006,8.469603e-05,286.79999999986006,7.708229e-05,286.79999999986006,6.680315e-06,286.79999999986006,2.743141e-05
286.81499999986005,7.970347e-05,286.81499999986005,7.547675e-05,286.81499999986005,6.718165e-06,286.81499999986005,2.632077e-05
286.82999999986004,7.426982e-05,286.82999999986004,7.490083e-05,286.82999999986004,6.778699e-06,286.82999999986004,2.667536e-05
286.84499999986,7.141547e-05,286.84499999986,7.073984e-05,286.84499999986,6.697164e-06,286.84499999986,2.618771e-05
286.85999999986,5.814759e-05,286.85999999986,6.137272e-05,286.85999999986,6.331722e-06,286.85999999986,2.380739e-05
286.87499999986,5.501641e-05,286.87499999986,5.756128e-05,286.87499999986,6.275856e-06,286.87499999986,2.305102e-05
286.88999999986,4.823819e-05,286.88999999986,4.814377e-05,286.88999999986,5.922486e-06,286.88999999986,2.167336e-05
286.90499999985997,4.777663e-05,286.90499999985997,4.809137e-05,286.90499999985997,5.809621e-06,286.90499999985997,2.171686e-05
286.91999999985995,5.271588e-05,286.91999999985995,5.047102e-05,286.91999999985995,5.438937e-06,286.91999999985995,2.251996e-05
286.93499999985994,5.657964e-05,286.93499999985994,5.200402e-05,286.93499999985994,5.360675e-06,286.93499999985994,2.289897e-05
286.9499999998599,5.895165e-05,286.9499999998599,5.538415e-05,286.9499999998599,5.344885e-06,286.9499999998599,2.26845e-05
286.9649999998599,5.607848e-05,286.9649999998599,5.575021e-05,286.9649999998599,5.2679e-06,286.9649999998599,2.298309e-05
286.9799999998599,5.615906e-05,286.9799999998599,5.147529e-05,286.9799999998599,5.015856e-06,286.9799999998599,2.024863e-05
286.9949999998599,5.609681e-05,286.9949999998599,5.199806e-05,286.9949999998599,4.945147e-06,286.9949999998599,1.946834e-05
287.0099999998599,5.607622e-05,287.0099999998599,4.81546e-05,287.0099999998599,4.907976e-06,287.0099999998599,1.781497e-05
287.02499999985986,5.48731e-05,287.02499999985986,4.618478e-05,287.02499999985986,4.916579e-06,287.02499999985986,1.684608e-05
287.03999999985984,5.418801e-05,287.03999999985984,4.515363e-05,287.03999999985984,4.890725e-06,287.03999999985984,1.630645e-05
287.05499999985983,5.473378e-05,287.05499999985983,4.420048e-05,287.05499999985983,4.66971e-06,287.05499999985983,1.630472e-05
287.0699999998598,5.501283e-05,287.0699999998598,4.470339e-05,287.0699999998598,4.615091e-06,287.0699999998598,1.541931e-05
287.0849999998598,5.65998e-05,287.0849999998598,4.658776e-05,287.0849999998598,4.553636e-06,287.0849999998598,1.608553e-05
287.0999999998598,5.770231e-05,287.0999999998598,4.64706e-05,287.0999999998598,4.559819e-06,287.0999999998598,1.614671e-05
287.1149999998598,5.760996e-05,287.1149999998598,4.6978e-05,287.1149999998598,4.285911e-06,287.1149999998598,1.630213e-05
287.12999999985976,6.041384e-05,287.12999999985976,4.812768e-05,287.12999999985976,4.4218e-06,287.12999999985976,1.624673e-05
287.14499999985975,6.018841e-05,287.14499999985975,4.792e-05,287.14499999985975,4.756387e-06,287.14499999985975,1.61807e-05
287.15999999985974,5.96387e-05,287.15999999985974,4.744555e-05,287.15999999985974,5.052234e-06,287.15999999985974,1.579211e-05
287.1749999998597,5.19753e-05,287.1749999998597,4.297596e-05,287.1749999998597,5.170737e-06,287.1749999998597,1.316627e-05
287.1899999998597,5.109542e-05,287.1899999998597,4.035858e-05,287.1899999998597,5.187057e-06,287.1899999998597,1.315129e-05
287.2049999998597,4.957126e-05,287.2049999998597,4.531774e-05,287.2049999998597,5.924864e-06,287.2049999998597,1.234805e-05
287.2199999998597,4.785617e-05,287.2199999998597,5.812821e-05,287.2199999998597,6.437625e-06,287.2199999998597,1.236173e-05
287.23499999985967,5.13849e-05,287.23499999985967,6.642951e-05,287.23499999985967,6.539662e-06,287.23499999985967,1.26144e-05
287.24999999985965,5.482867e-05,287.24999999985965,6.584035e-05,287.24999999985965,6.834577e-06,287.24999999985965,1.409434e-05
287.26499999985964,5.886054e-05,287.26499999985964,6.800608e-05,287.26499999985964,6.881819e-06,287.26499999985964,1.451095e-05
287.2799999998596,6.295801e-05,287.2799999998596,7.287286e-05,287.2799999998596,7.04567e-06,287.2799999998596,1.526782e-05
287.2949999998596,6.41228e-05,287.2949999998596,7.328864e-05,287.2949999998596,7.291306e-06,287.2949999998596,1.519847e-05
287.3099999998596,6.51534e-05,287.3099999998596,7.630295e-05,287.3099999998596,9.204201e-06,287.3099999998596,1.579032e-05
287.3249999998596,6.530479e-05,287.3249999998596,8.067823e-05,287.3249999998596,1.146178e-05,287.3249999998596,1.64218e-05
287.3399999998596,6.353421e-05,287.3399999998596,8.082599e-05,287.3399999998596,1.413625e-05,287.3399999998596,1.675805e-05
287.35499999985956,6.31372e-05,287.35499999985956,8.144286e-05,287.35499999985956,1.629089e-05,287.35499999985956,1.695111e-05
287.36999999985954,6.337215e-05,287.36999999985954,8.207605e-05,287.36999999985954,1.686864e-05,287.36999999985954,1.781022e-05
287.38499999985953,6.421544e-05,287.38499999985953,8.277793e-05,287.38499999985953,1.733485e-05,287.38499999985953,1.809972e-05
287.3999999998595,6.484718e-05,287.3999999998595,8.484177e-05,287.3999999998595,1.999521e-05,287.3999999998595,1.880286e-05
287.4149999998595,6.578876e-05,287.4149999998595,8.509427e-05,287.4149999998595,2.279106e-05,287.4149999998595,1.888285e-05
287.4299999998595,6.784037e-05,287.4299999998595,8.526378e-05,287.4299999998595,2.472232e-05,287.4299999998595,1.878262e-05
287.4449999998595,6.750983e-05,287.4449999998595,8.617861e-05,287.4449999998595,2.55484e-05,287.4449999998595,1.870371e-05
287.45999999985946,6.603113e-05,287.45999999985946,7.572569e-05,287.45999999985946,2.572313e-05,287.45999999985946,1.879612e-05
287.47499999985945,6.555861e-05,287.47499999985945,7.309849e-05,287.47499999985945,2.566118e-05,287.47499999985945,1.877887e-05
287.48999999985944,5.896217e-05,287.48999999985944,6.496395e-05,287.48999999985944,2.566173e-05,287.48999999985944,1.798808e-05
287.5049999998594,6.217608e-05,287.5049999998594,6.591305e-05,287.5049999998594,2.571711e-05,287.5049999998594,1.858585e-05
287.5199999998594,5.645526e-05,287.5199999998594,6.134631e-05,287.5199999998594,2.583297e-05,287.5199999998594,1.961396e-05
287.5349999998594,5.554187e-05,287.5349999998594,5.815558e-05,287.5349999998594,2.651646e-05,287.5349999998594,1.930047e-05
287.5499999998594,5.512359e-05,287.5499999998594,5.686845e-05,287.5499999998594,2.759321e-05,287.5499999998594,1.908543e-05
287.56499999985937,5.601162e-05,287.56499999985937,5.540881e-05,287.56499999985937,2.704561e-05,287.56499999985937,1.904109e-05
287.57999999985935,5.509266e-05,287.57999999985935,4.69825e-05,287.57999999985935,2.590649e-05,287.57999999985935,2.037762e-05
287.59499999985934,5.475951e-05,287.59499999985934,4.665756e-05,287.59499999985934,2.411953e-05,287.59499999985934,2.008939e-05
287.6099999998593,5.463667e-05,287.6099999998593,4.718922e-05,287.6099999998593,2.216881e-05,287.6099999998593,2.03049e-05
287.6249999998593,5.25057e-05,287.6249999998593,4.965899e-05,287.6249999998593,2.168051e-05,287.6249999998593,1.93973e-05
287.6399999998593,5.32323e-05,287.6399999998593,5.558852e-05,287.6399999998593,2.22069e-05,287.6399999998593,1.936823e-05
287.6549999998593,5.472554e-05,287.6549999998593,5.511158e-05,287.6549999998593,2.103145e-05,287.6549999998593,1.880211e-05
287.6699999998593,5.542838e-05,287.6699999998593,5.5992e-05,287.6699999998593,1.868939e-05,287.6699999998593,1.876912e-05
287.68499999985926,6.119825e-05,287.68499999985926,6.288996e-05,287.68499999985926,1.613886e-05,287.68499999985926,1.913776e-05
287.69999999985924,7.140284e-05,287.69999999985924,6.288727e-05,287.69999999985924,1.517435e-05,287.69999999985924,1.919802e-05
287.71499999985923,7.219781e-05,287.71499999985923,6.80388e-05,287.71499999985923,1.444479e-05,287.71499999985923,1.907657e-05
287.7299999998592,7.851308e-05,287.7299999998592,7.330978e-05,287.7299999998592,1.451484e-05,287.7299999998592,1.915247e-05
287.7449999998592,8.866111e-05,287.7449999998592,7.486885e-05,287.7449999998592,1.463083e-05,287.7449999998592,1.929536e-05
287.7599999998592,8.606248e-05,287.7599999998592,7.446606e-05,287.7599999998592,1.488947e-05,287.7599999998592,1.738111e-05
287.7749999998592,8.626733e-05,287.7749999998592,8.273912e-05,287.7749999998592,1.496779e-05,287.7749999998592,1.623025e-05
287.78999999985916,8.762341e-05,287.78999999985916,8.511843e-05,287.78999999985916,1.351265e-05,287.78999999985916,1.634355e-05
287.80499999985915,8.843776e-05,287.80499999985915,8.647217e-05,287.80499999985915,1.103728e-05,287.80499999985915,1.642694e-05
287.81999999985914,8.815505e-05,287.81999999985914,8.670157e-05,287.81999999985914,1.103984e-05,287.81999999985914,1.607063e-05
287.8349999998591,9.273454e-05,287.8349999998591,8.83273e-05,287.8349999998591,1.081944e-05,287.8349999998591,1.282373e-05
287.8499999998591,9.725484e-05,287.8499999998591,9.044661e-05,287.8499999998591,1.091149e-05,287.8499999998591,1.267567e-05
287.8649999998591,9.862325e-05,287.8649999998591,9.153033e-05,287.8649999998591,1.09874e-05,287.8649999998591,1.225644e-05
287.8799999998591,9.964521e-05,287.8799999998591,8.835377e-05,287.8799999998591,1.079207e-05,287.8799999998591,1.216067e-05
287.89499999985907,0.0001053778,287.89499999985907,8.992005e-05,287.89499999985907,7.178377e-06,287.89499999985907,1.248194e-05
287.90999999985905,0.0001107085,287.90999999985905,9.332493e-05,287.90999999985905,6.908378e-06,287.90999999985905,1.292439e-05
287.92499999985904,0.0001104778,287.92499999985904,9.464644e-05,287.92499999985904,6.855157e-06,287.92499999985904,1.275875e-05
287.939999999859,0.000105395,287.939999999859,9.102259e-05,287.939999999859,6.838698e-06,287.939999999859,1.174225e-05
287.954999999859,0.0001017806,287.954999999859,9.109421e-05,287.954999999859,6.820134e-06,287.954999999859,1.214213e-05
287.969999999859,0.0001015631,287.969999999859,9.067402e-05,287.969999999859,6.813935e-06,287.969999999859,1.19173e-05
287.984999999859,9.316918e-05,287.984999999859,8.776477e-05,287.984999999859,6.778699e-06,287.984999999859,1.135931e-05
287.99999999985897,8.810998e-05,287.99999999985897,8.718972e-05,287.99999999985897,6.417902e-06,287.99999999985897,1.136179e-05
288.01499999985896,8.752417e-05,288.01499999985896,8.924214e-05,288.01499999985896,5.855509e-06,288.01499999985896,1.125216e-05
288.02999999985894,8.75203e-05,288.02999999985894,8.219936e-05,288.02999999985894,5.462197e-06,288.02999999985894,1.09874e-05
288.04499999985893,8.602908e-05,288.04499999985893,8.202196e-05,288.04499999985893,5.326404e-06,288.04499999985893,1.103728e-05
288.0599999998589,8.600091e-05,288.0599999998589,8.334065e-05,288.0599999998589,4.945147e-06,288.0599999998589,1.090504e-05
288.0749999998589,8.761248e-05,288.0749999998589,8.338459e-05,288.0749999998589,4.930884e-06,288.0749999998589,1.108949e-05
288.0899999998589,8.232522e-05,288.0899999998589,8.351929e-05,288.0899999998589,4.962209e-06,288.0899999998589,1.116544e-05
288.1049999998589,7.700147e-05,288.1049999998589,7.915013e-05,288.1049999998589,4.717728e-06,288.1049999998589,1.075677e-05
288.11999999985886,7.568382e-05,288.11999999985886,8.001111e-05,288.11999999985886,4.621192e-06,288.11999999985886,1.099765e-05
288.13499999985885,7.168735e-05,288.13499999985885,7.851614e-05,288.13499999985885,4.642481e-06,288.13499999985885,1.036461e-05
288.14999999985884,5.875323e-05,288.14999999985884,7.638893e-05,288.14999999985884,4.415424e-06,288.14999999985884,9.281926e-06
288.1649999998588,5.071436e-05,288.1649999998588,7.441441e-05,288.1649999998588,4.212983e-06,288.1649999998588,9.010862e-06
288.1799999998588,5.001485e-05,288.1799999998588,7.280402e-05,288.1799999998588,4.142171e-06,288.1799999998588,9.071627e-06
288.1949999998588,5.295823e-05,288.1949999998588,7.31351e-05,288.1949999998588,4.226336e-06,288.1949999998588,9.617337e-06
288.2099999998588,5.141286e-05,288.2099999998588,7.210605e-05,288.2099999998588,4.169289e-06,288.2099999998588,8.795684e-06
288.22499999985877,5.102092e-05,288.22499999985877,6.843084e-05,288.22499999985877,4.35115e-06,288.22499999985877,8.932356e-06
288.23999999985875,5.238268e-05,288.23999999985875,6.956941e-05,288.23999999985875,4.402644e-06,288.23999999985875,8.784466e-06
288.25499999985874,5.150894e-05,288.25499999985874,6.653333e-05,288.25499999985874,4.34467e-06,288.25499999985874,8.419275e-06
288.2699999998587,5.170274e-05,288.2699999998587,6.448164e-05,288.2699999998587,4.434525e-06,288.2699999998587,8.265616e-06
288.2849999998587,5.017794e-05,288.2849999998587,6.366865e-05,288.2849999998587,4.386617e-06,288.2849999998587,8.159269e-06
288.2999999998587,5.030719e-05,288.2999999998587,5.988409e-05,288.2999999998587,4.562907e-06,288.2999999998587,7.881768e-06
288.3149999998587,4.581301e-05,288.3149999998587,5.47083e-05,288.3149999998587,4.472482e-06,288.3149999998587,8.044515e-06
288.32999999985867,4.204481e-05,288.32999999985867,5.239747e-05,288.32999999985867,4.472482e-06,288.32999999985867,7.773794e-06
288.34499999985866,4.207964e-05,288.34499999985866,5.268782e-05,288.34499999985866,4.118297e-06,288.34499999985866,7.802733e-06
288.35999999985864,4.006959e-05,288.35999999985864,5.273112e-05,288.35999999985864,4.042345e-06,288.35999999985864,7.827967e-06
288.37499999985863,3.921606e-05,288.37499999985863,5.186976e-05,288.37499999985863,4.199587e-06,288.37499999985863,7.664298e-06
288.3899999998586,3.867386e-05,288.3899999998586,5.11976e-05,288.3899999998586,4.121716e-06,288.3899999998586,7.645896e-06
288.4049999998586,3.836227e-05,288.4049999998586,4.632213e-05,288.4049999998586,4.20629e-06,288.4049999998586,7.752019e-06
288.4199999998586,3.77892e-05,288.4199999998586,4.47393e-05,288.4199999998586,4.182782e-06,288.4199999998586,7.771981e-06
288.4349999998586,3.949097e-05,288.4349999998586,4.340485e-05,288.4349999998586,4.373753e-06,288.4349999998586,9.269777e-06
288.44999999985856,3.378026e-05,288.44999999985856,4.468574e-05,288.44999999985856,4.269446e-06,288.44999999985856,9.088692e-06
288.46499999985855,3.171685e-05,288.46499999985855,4.407889e-05,288.46499999985855,4.308857e-06,288.46499999985855,9.184283e-06
288.47999999985853,3.765289e-05,288.47999999985853,4.499393e-05,288.47999999985853,4.152361e-06,288.47999999985853,9.65972e-06
288.4949999998585,4.197607e-05,288.4949999998585,4.498579e-05,288.4949999998585,4.246287e-06,288.4949999998585,1.011422e-05
288.5099999998585,4.15175e-05,288.5099999998585,4.471284e-05,288.5099999998585,4.279333e-06,288.5099999998585,1.014482e-05
288.5249999998585,4.488735e-05,288.5249999998585,4.504243e-05,288.5249999998585,4.138769e-06,288.5249999998585,1.079207e-05
288.5399999998585,4.957751e-05,288.5399999998585,4.530562e-05,288.5399999998585,4.196231e-06,288.5399999998585,1.16616e-05
288.55499999985847,4.875378e-05,288.55499999985847,4.514989e-05,288.55499999985847,4.038859e-06,288.55499999985847,1.180566e-05
288.56999999985845,5.010405e-05,288.56999999985845,4.564543e-05,288.56999999985845,4.11145e-06,288.56999999985845,1.280724e-05
288.58499999985844,5.780451e-05,288.58499999985844,4.808376e-05,288.58499999985844,4.155752e-06,288.58499999985844,1.752799e-05
288.5999999998584,5.970174e-05,288.5999999998584,4.766741e-05,288.5999999998584,4.15914e-06,288.5999999998584,1.938205e-05
288.6149999998584,6.187015e-05,288.6149999998584,4.792265e-05,288.6149999998584,4.36408e-06,288.6149999998584,2.513259e-05
288.6299999998584,6.313698e-05,288.6299999998584,4.882249e-05,288.6299999998584,4.338181e-06,288.6299999998584,2.808304e-05
288.6449999998584,6.486912e-05,288.6449999998584,5.580829e-05,288.6449999998584,4.48192e-06,288.6449999998584,4.225469e-05
288.65999999985837,6.606952e-05,288.65999999985837,5.660801e-05,288.65999999985837,4.556728e-06,288.65999999985837,4.377359e-05
288.67499999985836,8.197077e-05,288.67499999985836,6.570714e-05,288.67499999985836,5.278585e-06,288.67499999985836,4.837117e-05
288.68999999985834,9.327481e-05,288.68999999985834,7.05534e-05,288.68999999985834,6.356147e-06,288.68999999985834,5.235928e-05
288.70499999985833,9.48862e-05,288.70499999985833,7.157782e-05,288.70499999985833,6.867475e-06,288.70499999985833,5.340614e-05
288.7199999998583,9.704735e-05,288.7199999998583,7.665089e-05,288.7199999998583,7.142966e-06,288.7199999998583,5.340033e-05
288.7349999998583,0.0001020747,288.7349999998583,7.892592e-05,288.7349999998583,9.349971e-06,288.7349999998583,5.39209e-05
288.7499999998583,0.0001095339,288.7499999998583,7.936838e-05,288.7499999998583,1.425928e-05,288.7499999998583,5.556647e-05
288.7649999998583,0.0001138481,288.7649999998583,8.034861e-05,288.7649999998583,1.964338e-05,288.7649999998583,5.726858e-05
288.77999999985826,0.0001136913,288.77999999985826,8.414472e-05,288.77999999985826,2.304919e-05,288.77999999985826,5.768229e-05
288.79499999985825,0.0001181458,288.79499999985825,9.402494e-05,288.79499999985825,2.335217e-05,288.79499999985825,6.088741e-05
288.80999999985823,0.0001192518,288.80999999985823,9.489585e-05,288.80999999985823,2.806648e-05,288.80999999985823,6.393734e-05
288.8249999998582,0.0001179554,288.8249999998582,9.481328e-05,288.8249999998582,4.042693e-05,288.8249999998582,6.358607e-05
288.8399999998582,0.0001156563,288.8399999998582,9.448943e-05,288.8399999998582,5.12163e-05,288.8399999998582,6.333746e-05
288.8549999998582,0.0001158112,288.8549999998582,9.506833e-05,288.8549999998582,5.456753e-05,288.8549999998582,6.348674e-05
288.8699999998582,0.0001162735,288.8699999998582,9.532936e-05,288.8699999998582,5.512717e-05,288.8699999998582,6.354862e-05
288.88499999985817,0.0001158319,288.88499999985817,9.370724e-05,288.88499999985817,5.931447e-05,288.88499999985817,6.060404e-05
288.89999999985815,0.0001152847,288.89999999985815,9.089187e-05,288.89999999985815,6.577378e-05,288.89999999985815,5.503024e-05
288.91499999985814,0.0001148955,288.91499999985814,9.080396e-05,288.91499999985814,6.945978e-05,288.91499999985814,5.482661e-05
288.9299999998581,0.0001032398,288.9299999998581,8.342968e-05,288.9299999998581,6.993314e-05,288.9299999998581,5.074935e-05
288.9449999998581,9.670811e-05,288.9449999998581,8.122551e-05,288.9449999998581,6.980511e-05,288.9449999998581,4.767007e-05
288.9599999998581,0.0001031982,288.9599999998581,8.784178e-05,288.9599999998581,7.049028e-05,288.9599999998581,4.827176e-05
288.9749999998581,0.0001100981,288.9749999998581,9.513307e-05,288.9749999998581,7.176198e-05,288.9749999998581,5.048887e-05
288.98999999985807,0.0001048635,288.98999999985807,9.635921e-05,288.98999999985807,7.267349e-05,288.98999999985807,5.07857e-05
289.00499999985806,0.0001223437,289.00499999985806,0.000121891,289.00499999985806,7.150594e-05,289.00499999985806,5.320186e-05
289.01999999985804,0.0001231398,289.01999999985804,0.0001267904,289.01999999985804,6.9252e-05,289.01999999985804,5.24998e-05
289.03499999985803,0.0001265714,289.03499999985803,0.0001253302,289.03499999985803,6.802928e-05,289.03499999985803,5.223861e-05
289.049999999858,0.0001237876,289.049999999858,0.0001224977,289.049999999858,6.837647e-05,289.049999999858,4.723279e-05
289.064999999858,0.0001241809,289.064999999858,0.0001237499,289.064999999858,6.649521e-05,289.064999999858,4.506088e-05
289.079999999858,0.0001241696,289.079999999858,0.0001263878,289.079999999858,5.852236e-05,289.079999999858,4.552584e-05
289.094999999858,0.0001248453,289.094999999858,0.0001265014,289.094999999858,4.965104e-05,289.094999999858,4.500833e-05
289.10999999985796,0.0001229294,289.10999999985796,0.0001261895,289.10999999985796,4.560622e-05,289.10999999985796,4.31699e-05
289.12499999985795,0.0001242403,289.12499999985795,0.0001247481,289.12499999985795,4.50865e-05,289.12499999985795,3.920349e-05
289.13999999985793,0.0001250493,289.13999999985793,0.0001250347,289.13999999985793,4.023378e-05,289.13999999985793,3.923582e-05
289.1549999998579,0.0001243319,289.1549999998579,0.0001258166,289.1549999998579,3.049964e-05,289.1549999998579,3.83248e-05
289.1699999998579,0.0001245898,289.1699999998579,0.0001260525,289.1699999998579,2.354022e-05,289.1699999998579,3.792947e-05
289.1849999998579,0.0001237824,289.1849999998579,0.0001265261,289.1849999998579,2.178163e-05,289.1849999998579,3.861919e-05
289.1999999998579,0.0001212937,289.1999999998579,0.0001235128,289.1999999998579,2.158348e-05,289.1999999998579,3.815313e-05
289.21499999985787,0.0001309807,289.21499999985787,0.0001263054,289.21499999985787,1.93209e-05,289.21499999985787,3.923402e-05
289.22999999985785,0.0001307899,289.22999999985785,0.0001246833,289.22999999985785,1.49913e-05,289.22999999985785,3.944207e-05
289.24499999985784,0.0001318305,289.24499999985784,0.0001221738,289.24499999985784,9.239335e-06,289.24499999985784,3.719139e-05
289.2599999998578,0.0001243904,289.2599999998578,0.0001091467,289.2599999998578,9.187351e-06,289.2599999998578,3.412834e-05
289.2749999998578,0.0001158253,289.2749999998578,0.0001028613,289.2749999998578,9.219493e-06,289.2749999998578,3.231915e-05
289.2899999998578,0.0001147281,289.2899999998578,0.0001032084,289.2899999998578,8.599714e-06,289.2899999998578,3.234834e-05
289.3049999998578,0.0001134313,289.3049999998578,9.94767e-05,289.3049999998578,7.329844e-06,289.3049999998578,3.148102e-05
289.31999999985777,0.0001134044,289.31999999985777,9.818578e-05,289.31999999985777,6.11902e-06,289.31999999985777,3.169907e-05
289.33499999985776,0.0001150876,289.33499999985776,9.538431e-05,289.33499999985776,6.11211e-06,289.33499999985776,3.129702e-05
289.34999999985774,0.0001134221,289.34999999985774,9.509145e-05,289.34999999985774,5.716739e-06,289.34999999985774,3.126775e-05
289.36499999985773,0.000112961,289.36499999985773,9.55593e-05,289.36499999985773,6.030905e-06,289.36499999985773,3.141831e-05
289.3799999998577,0.0001115309,289.3799999998577,9.525308e-05,289.3799999998577,6.141998e-06,289.3799999998577,3.092391e-05
289.3949999998577,0.000110809,289.3949999998577,9.477197e-05,289.3949999998577,5.809621e-06,289.3949999998577,3.067695e-05
289.4099999998577,0.0001112034,289.4099999998577,9.383298e-05,289.4099999998577,6.322817e-06,289.4099999998577,3.068888e-05
289.4249999998577,0.0001102223,289.4249999998577,9.158787e-05,289.4249999998577,6.404719e-06,289.4249999998577,2.91043e-05
289.43999999985766,0.0001092299,289.43999999985766,8.916508e-05,289.43999999985766,6.287069e-06,289.43999999985766,2.803434e-05
289.45499999985765,9.869421e-05,289.45499999985765,8.209664e-05,289.45499999985765,6.426676e-06,289.45499999985765,2.465042e-05
289.46999999985763,8.523387e-05,289.46999999985763,7.575098e-05,289.46999999985763,6.53104e-06,289.46999999985763,2.210008e-05
289.4849999998576,7.34221e-05,289.4849999998576,6.480611e-05,289.4849999998576,6.33617e-06,289.4849999998576,1.760178e-05
289.4999999998576,5.296887e-05,289.4999999998576,4.536434e-05,289.4999999998576,6.455107e-06,289.4999999998576,1.527705e-05
289.5149999998576,4.473269e-05,289.5149999998576,4.066873e-05,289.5149999998576,6.455107e-06,289.5149999998576,1.511482e-05
289.5299999998576,4.206357e-05,289.5299999998576,3.336529e-05,289.5299999998576,6.496438e-06,289.5299999998576,1.390011e-05
289.54499999985757,3.947385e-05,289.54499999985757,3.078558e-05,289.54499999985757,6.48993e-06,289.54499999985757,1.376568e-05
289.55999999985755,3.930576e-05,289.55999999985755,3.003939e-05,289.55999999985755,6.461651e-06,289.55999999985755,1.322925e-05
289.57499999985754,3.678963e-05,289.57499999985754,2.671283e-05,289.57499999985754,6.565459e-06,289.57499999985754,1.173385e-05
289.5899999998575,3.043723e-05,289.5899999998575,2.391248e-05,289.5899999998575,6.513761e-06,289.5899999998575,1.095401e-05
289.6049999998575,3.019887e-05,289.6049999998575,1.991544e-05,289.6049999998575,6.402519e-06,289.6049999998575,1.048218e-05
289.6199999998575,2.971169e-05,289.6199999998575,1.674796e-05,289.6199999998575,6.371642e-06,289.6199999998575,1.031966e-05
289.6349999998575,2.8659e-05,289.6349999998575,1.47134e-05,289.6349999998575,6.413511e-06,289.6349999998575,1.006956e-05
289.64999999985747,2.840325e-05,289.64999999985747,1.438322e-05,289.64999999985747,5.848288e-06,289.64999999985747,9.931514e-06
289.66499999985746,2.456283e-05,289.66499999985746,1.131707e-05,289.66499999985746,5.368553e-06,289.66499999985746,9.352983e-06
289.67999999985744,2.036171e-05,289.67999999985744,1.235603e-05,289.67999999985744,5.389503e-06,289.67999999985744,9.626121e-06
289.69499999985743,2.056273e-05,289.69499999985743,1.328662e-05,289.69499999985743,5.508422e-06,289.69499999985743,9.548246e-06
289.7099999998574,2.32603e-05,289.7099999998574,1.464527e-05,289.7099999998574,5.415577e-06,289.7099999998574,1.022366e-05
289.7249999998574,2.653876e-05,289.7249999998574,1.912671e-05,289.7249999998574,5.649817e-06,289.7249999998574,1.088176e-05
289.7399999998574,2.710648e-05,289.7399999998574,1.938931e-05,289.7399999998574,5.469929e-06,289.7399999998574,1.0306e-05
289.7549999998574,3.017881e-05,289.7549999998574,2.052982e-05,289.7549999998574,5.326404e-06,289.7549999998574,1.096558e-05
289.76999999985736,3.151233e-05,289.76999999985736,2.321604e-05,289.76999999985736,5.214144e-06,289.76999999985736,1.2465e-05
289.78499999985735,3.185644e-05,289.78499999985735,2.379319e-05,289.78499999985735,5.307859e-06,289.78499999985735,1.282153e-05
289.79999999985733,3.181131e-05,289.79999999985733,2.387593e-05,289.79999999985733,5.278585e-06,289.79999999985733,1.267679e-05
289.8149999998573,3.157396e-05,289.8149999998573,2.39672e-05,289.8149999998573,5.425972e-06,289.8149999998573,1.284677e-05
289.8299999998573,3.347909e-05,289.8299999998573,2.511857e-05,289.8299999998573,5.197909e-06,289.8299999998573,1.337644e-05
289.8449999998573,3.35497e-05,289.8449999998573,2.518242e-05,289.8449999998573,5.797484e-06,289.8449999998573,1.338381e-05
289.8599999998573,3.454148e-05,289.8599999998573,2.562162e-05,289.8599999998573,7.001547e-06,289.8599999998573,1.32845e-05
289.87499999985727,4.024638e-05,289.87499999985727,2.638599e-05,289.87499999985727,7.099447e-06,289.87499999985727,1.347611e-05
289.88999999985725,5.206601e-05,289.88999999985725,2.777943e-05,289.88999999985725,7.498936e-06,289.88999999985725,1.351473e-05
289.90499999985724,6.008581e-05,289.90499999985724,3.160651e-05,289.90499999985724,1.155846e-05,289.90499999985724,1.401114e-05
289.9199999998572,7.793213e-05,289.9199999998572,3.360508e-05,289.9199999998572,1.442332e-05,289.9199999998572,1.436754e-05
289.9349999998572,0.00010385,289.9349999998572,6.245729e-05,289.9349999998572,1.562351e-05,289.9349999998572,1.693864e-05
289.9499999998572,0.0001102436,289.9499999998572,6.517935e-05,289.9499999998572,1.756974e-05,289.9499999998572,1.824005e-05
289.9649999998572,0.0001291649,289.9649999998572,6.823913e-05,289.9649999998572,2.239074e-05,289.9649999998572,1.955065e-05
289.97999999985717,0.0001419816,289.97999999985717,6.832949e-05,289.97999999985717,2.251496e-05,289.97999999985717,2.461897e-05
289.99499999985716,0.0001582858,289.99499999985716,7.00201e-05,289.99499999985716,2.27688e-05,289.99499999985716,2.692137e-05
290.00999999985714,0.0001772995,290.00999999985714,7.341519e-05,290.00999999985714,2.390835e-05,290.00999999985714,2.71501e-05
290.02499999985713,0.0001825555,290.02499999985713,7.509842e-05,290.02499999985713,2.948085e-05,290.02499999985713,2.936498e-05
290.0399999998571,0.0001835681,290.0399999998571,7.722488e-05,290.0399999998571,3.205393e-05,290.0399999998571,3.225414e-05
290.0549999998571,0.0001846869,290.0549999998571,7.78265e-05,290.0549999998571,3.231305e-05,290.0549999998571,3.285175e-05
290.0699999998571,0.0001944033,290.0699999998571,8.192436e-05,290.0699999998571,3.34875e-05,290.0699999998571,3.315522e-05
290.0849999998571,0.0002021221,290.0849999998571,8.566726e-05,290.0849999998571,3.461115e-05,290.0849999998571,3.416299e-05
290.09999999985706,0.0002043872,290.09999999985706,8.851672e-05,290.09999999985706,3.476546e-05,290.09999999985706,3.497835e-05
290.11499999985705,0.0002046951,290.11499999985705,8.972621e-05,290.11499999985705,3.463841e-05,290.11499999985705,3.496425e-05
290.12999999985703,0.000204895,290.12999999985703,9.020815e-05,290.12999999985703,3.515871e-05,290.12999999985703,3.492434e-05
290.144999999857,0.0002009855,290.144999999857,8.964689e-05,290.144999999857,3.797513e-05,290.144999999857,3.488721e-05
290.159999999857,0.0002004803,290.159999999857,8.881287e-05,290.159999999857,4.207998e-05,290.159999999857,3.482659e-05
290.174999999857,0.0001914103,290.174999999857,8.766954e-05,290.174999999857,4.175096e-05,290.174999999857,3.506161e-05
290.189999999857,0.0001850586,290.189999999857,7.139238e-05,290.189999999857,4.149884e-05,290.189999999857,3.420626e-05
290.20499999985697,0.0001869247,290.20499999985697,7.362404e-05,290.20499999985697,3.99266e-05,290.20499999985697,3.406182e-05
290.21999999985695,0.0001731019,290.21999999985695,7.281214e-05,290.21999999985695,3.8447e-05,290.21999999985695,3.319174e-05
290.23499999985694,0.0001680069,290.23499999985694,7.30956e-05,290.23499999985694,3.829538e-05,290.23499999985694,2.900588e-05
290.2499999998569,0.0001421771,290.2499999998569,7.026811e-05,290.2499999998569,3.802221e-05,290.2499999998569,2.792459e-05
290.2649999998569,0.0001233384,290.2649999998569,6.785533e-05,290.2649999998569,3.65715e-05,290.2649999998569,2.704822e-05
290.2799999998569,0.0001202142,290.2799999998569,6.735211e-05,290.2799999998569,3.240664e-05,290.2799999998569,2.533189e-05
290.2949999998569,0.0001208572,290.2949999998569,6.5156e-05,290.2949999998569,3.065857e-05,290.2949999998569,2.204967e-05
290.30999999985687,0.0001200113,290.30999999985687,6.686386e-05,290.30999999985687,3.041732e-05,290.30999999985687,2.194272e-05
290.32499999985686,0.0001047073,290.32499999985686,6.17651e-05,290.32499999985686,2.909365e-05,290.32499999985686,2.107227e-05
290.33999999985684,9.093231e-05,290.33999999985684,5.514403e-05,290.33999999985684,2.83377e-05,290.33999999985684,1.858281e-05
290.35499999985683,9.268911e-05,290.35499999985683,5.858852e-05,290.35499999985683,2.805694e-05,290.35499999985683,2.013701e-05
290.3699999998568,9.295439e-05,290.3699999998568,5.916323e-05,290.3699999998568,2.790087e-05,290.3699999998568,2.118959e-05
290.3849999998568,9.063315e-05,290.3849999998568,5.946271e-05,290.3849999998568,2.631007e-05,290.3849999998568,2.149585e-05
290.3999999998568,8.806552e-05,290.3999999998568,6.207541e-05,290.3999999998568,1.255508e-05,290.3999999998568,2.183718e-05
290.4149999998568,8.780714e-05,290.4149999998568,6.126934e-05,290.4149999998568,8.446003e-06,290.4149999998568,2.197095e-05
290.42999999985676,9.176734e-05,290.42999999985676,5.916894e-05,290.42999999985676,7.497057e-06,290.42999999985676,2.492717e-05
290.44499999985675,8.700519e-05,290.44499999985675,5.954699e-05,290.44499999985675,8.226325e-06,290.44499999985675,2.499714e-05
290.45999999985673,8.128151e-05,290.45999999985673,5.692119e-05,290.45999999985673,8.40923e-06,290.45999999985673,3.263492e-05
290.4749999998567,7.704646e-05,290.4749999998567,6.658201e-05,290.4749999998567,7.682656e-06,290.4749999998567,3.95195e-05
290.4899999998567,7.734263e-05,290.4899999998567,6.801168e-05,290.4899999998567,7.513949e-06,290.4899999998567,4.002104e-05
290.5049999998567,8.190579e-05,290.5049999998567,7.342114e-05,290.5049999998567,7.910313e-06,290.5049999998567,4.157209e-05
290.5199999998567,8.184367e-05,290.5199999998567,7.390438e-05,290.5199999998567,8.37566e-06,290.5199999998567,4.382698e-05
290.53499999985667,7.990064e-05,290.53499999985667,7.222707e-05,290.53499999985667,8.674737e-06,290.53499999985667,4.434525e-05
290.54999999985665,7.980433e-05,290.54999999985665,7.2222e-05,290.54999999985665,8.808488e-06,290.54999999985665,4.469678e-05
290.56499999985664,7.834731e-05,290.56499999985664,7.004846e-05,290.56499999985664,8.671489e-06,290.56499999985664,4.4893e-05
290.5799999998566,7.983697e-05,290.5799999998566,7.081885e-05,290.5799999998566,8.760379e-06,290.5799999998566,4.489332e-05
290.5949999998566,7.799393e-05,290.5949999998566,6.894498e-05,290.5949999998566,9.097987e-06,290.5949999998566,4.43732e-05
290.6099999998566,7.730565e-05,290.6099999998566,6.724033e-05,290.6099999998566,9.254569e-06,290.6099999998566,4.415328e-05
290.6249999998566,7.635093e-05,290.6249999998566,6.531148e-05,290.6249999998566,9.283444e-06,290.6249999998566,4.377295e-05
290.63999999985657,7.823233e-05,290.63999999985657,6.516962e-05,290.63999999985657,9.185817e-06,290.63999999985657,4.384529e-05
290.65499999985656,7.650907e-05,290.65499999985656,6.375311e-05,290.65499999985656,9.195013e-06,290.65499999985656,4.442776e-05
290.66999999985654,7.3822e-05,290.66999999985654,6.485674e-05,290.66999999985654,9.155096e-06,290.66999999985654,4.364177e-05
290.68499999985653,7.073965e-05,290.68499999985653,6.519944e-05,290.68499999985653,8.941813e-06,290.68499999985653,4.207562e-05
290.6999999998565,6.408918e-05,290.6999999998565,6.540523e-05,290.6999999998565,8.204034e-06,290.6999999998565,4.237188e-05
290.7149999998565,6.608807e-05,290.7149999998565,6.633338e-05,290.7149999998565,8.542191e-06,290.7149999998565,3.421491e-05
290.7299999998565,8.320194e-05,290.7299999998565,7.488353e-05,290.7299999998565,8.726546e-06,290.7299999998565,3.167996e-05
290.7449999998565,9.969284e-05,290.7449999998565,8.181682e-05,290.7449999998565,8.724932e-06,290.7449999998565,3.220957e-05
290.75999999985646,0.0001006872,290.75999999985646,7.913393e-05,290.75999999985646,8.277538e-06,290.75999999985646,3.03422e-05
290.77499999985645,0.0001032333,290.77499999985645,8.140758e-05,290.77499999985645,1.170861e-05,290.77499999985645,2.775e-05
290.78999999985643,0.0001024771,290.78999999985643,8.198503e-05,290.78999999985643,1.485821e-05,290.78999999985643,2.719158e-05
290.8049999998564,0.0001011357,290.8049999998564,8.474359e-05,290.8049999998564,1.592092e-05,290.8049999998564,2.685955e-05
290.8199999998564,0.0001033806,290.8199999998564,8.498892e-05,290.8199999998564,1.721826e-05,290.8199999998564,2.655097e-05
290.8349999998564,0.0001038074,290.8349999998564,8.378065e-05,290.8349999998564,1.78655e-05,290.8349999998564,2.651115e-05
290.8499999998564,0.0001028565,290.8499999998564,8.559455e-05,290.8499999998564,3.056285e-05,290.8499999998564,2.651912e-05
290.86499999985637,0.0001022867,290.86499999985637,8.582875e-05,290.86499999985637,3.405396e-05,290.86499999985637,2.618125e-05
290.87999999985635,0.0001017675,290.87999999985635,8.53843e-05,290.87999999985635,3.430906e-05,290.87999999985635,2.589942e-05
290.89499999985634,0.000100343,290.89499999985634,8.504906e-05,290.89499999985634,3.432219e-05,290.89499999985634,2.487569e-05
290.9099999998563,0.000100663,290.9099999998563,8.386535e-05,290.9099999998563,3.436034e-05,290.9099999998563,2.385527e-05
290.9249999998563,0.0001012774,290.9249999998563,8.369166e-05,290.9249999998563,3.479786e-05,290.9249999998563,2.368519e-05
290.9399999998563,0.0001007501,290.9399999998563,8.331141e-05,290.9399999998563,3.524275e-05,290.9399999998563,2.316015e-05
290.9549999998563,9.963122e-05,290.9549999998563,8.126608e-05,290.9549999998563,3.533854e-05,290.9549999998563,2.126061e-05
290.96999999985627,9.509944e-05,290.96999999985627,7.374945e-05,290.96999999985627,3.521916e-05,290.96999999985627,1.893947e-05
290.98499999985626,7.285411e-05,290.98499999985626,5.083754e-05,290.98499999985626,3.518234e-05,290.98499999985626,1.362063e-05
290.99999999985624,5.66411e-05,290.99999999985624,4.284859e-05,290.99999999985624,3.515189e-05,290.99999999985624,1.107932e-05
291.01499999985623,5.116402e-05,291.01499999985623,4.136011e-05,291.01499999985623,3.509936e-05,291.01499999985623,1.030053e-05
291.0299999998562,4.737602e-05,291.0299999998562,3.901114e-05,291.0299999998562,3.341718e-05,291.0299999998562,9.850334e-06
291.0449999998562,4.499988e-05,291.0449999998562,3.44226e-05,291.0449999998562,3.243141e-05,291.0449999998562,9.031162e-06
291.0599999998562,4.465074e-05,291.0599999998562,2.793871e-05,291.0599999998562,3.124792e-05,291.0599999998562,7.708283e-06
291.0749999998562,3.780858e-05,291.0749999998562,2.64521e-05,291.0749999998562,3.026224e-05,291.0749999998562,7.331766e-06
291.08999999985616,3.38415e-05,291.08999999985616,2.552964e-05,291.08999999985616,2.865802e-05,291.08999999985616,7.266147e-06
291.10499999985615,3.373477e-05,291.10499999985615,1.885075e-05,291.10499999985615,1.549768e-05,291.10499999985615,7.186222e-06
291.11999999985613,3.288646e-05,291.11999999985613,1.801312e-05,291.11999999985613,9.873189e-06,291.11999999985613,7.00959e-06
291.1349999998561,3.248956e-05,291.1349999998561,1.778964e-05,291.1349999998561,8.614445e-06,291.1349999998561,6.957143e-06
291.1499999998561,3.261851e-05,291.1499999998561,1.80186e-05,291.1499999998561,8.34702e-06,291.1499999998561,7.352869e-06
291.1649999998561,2.883199e-05,291.1649999998561,1.90011e-05,291.1649999998561,8.023475e-06,291.1649999998561,7.314453e-06
291.1799999998561,2.925059e-05,291.1799999998561,1.97813e-05,291.1799999998561,6.711871e-06,291.1799999998561,8.041013e-06
291.19499999985607,3.096216e-05,291.19499999985607,2.233089e-05,291.19499999985607,4.93374e-06,291.19499999985607,8.976404e-06
291.20999999985605,3.122176e-05,291.20999999985605,2.372678e-05,291.20999999985605,4.162526e-06,291.20999999985605,9.248478e-06
291.22499999985604,3.01349e-05,291.22499999985604,2.277251e-05,291.22499999985604,3.484641e-06,291.22499999985604,9.090241e-06
291.239999999856,2.837347e-05,291.239999999856,2.239011e-05,291.239999999856,3.435788e-06,291.239999999856,9.30012e-06
291.254999999856,2.851659e-05,291.254999999856,2.306507e-05,291.254999999856,3.615583e-06,291.254999999856,9.690296e-06
291.269999999856,2.834118e-05,291.269999999856,2.354142e-05,291.269999999856,3.588207e-06,291.269999999856,1.00289e-05
291.284999999856,2.912124e-05,291.284999999856,2.467498e-05,291.284999999856,3.464369e-06,291.284999999856,1.042018e-05
291.29999999985597,3.0682e-05,291.29999999985597,2.516843e-05,291.29999999985597,3.36955e-06,291.29999999985597,1.075415e-05
291.31499999985596,3.019981e-05,291.31499999985596,2.524834e-05,291.31499999985596,3.452149e-06,291.31499999985596,1.073317e-05
291.32999999985594,3.022592e-05,291.32999999985594,2.56749e-05,291.32999999985594,3.496747e-06,291.32999999985594,1.090116e-05
291.34499999985593,3.09526e-05,291.34499999985593,2.603774e-05,291.34499999985593,3.580347e-06,291.34499999985593,1.084025e-05
291.3599999998559,3.21566e-05,291.3599999998559,2.638866e-05,291.3599999998559,3.638885e-06,291.3599999998559,1.078554e-05
291.3749999998559,3.186749e-05,291.3749999998559,2.818768e-05,291.3749999998559,4.028382e-06,291.3749999998559,1.078815e-05
291.3899999998559,3.010122e-05,291.3899999998559,2.817818e-05,291.3899999998559,4.135364e-06,291.3899999998559,1.066338e-05
291.4049999998559,3.128351e-05,291.4049999998559,2.824409e-05,291.4049999998559,4.128545e-06,291.4049999998559,1.051171e-05
291.41999999985586,3.581566e-05,291.41999999985586,2.758045e-05,291.41999999985586,4.131956e-06,291.41999999985586,1.035917e-05
291.43499999985585,3.611373e-05,291.43499999985585,2.629025e-05,291.43499999985585,4.155752e-06,291.43499999985585,9.63051e-06
291.44999999985583,3.50013e-05,291.44999999985583,2.412537e-05,291.44999999985583,4.27604e-06,291.44999999985583,9.596809e-06
291.4649999998558,3.513867e-05,291.4649999998558,2.414988e-05,291.4649999998558,4.447213e-06,291.4649999998558,1.037955e-05
291.4799999998558,3.806442e-05,291.4799999998558,2.490681e-05,291.4799999998558,4.360851e-06,291.4799999998558,1.030873e-05
291.4949999998558,3.935734e-05,291.4949999998558,2.394721e-05,291.4949999998558,4.266145e-06,291.4949999998558,9.958426e-06
291.5099999998558,3.91402e-05,291.5099999998558,2.394133e-05,291.5099999998558,4.272744e-06,291.5099999998558,9.891719e-06
291.52499999985577,3.872737e-05,291.52499999985577,2.322454e-05,291.52499999985577,4.35115e-06,291.52499999985577,9.570351e-06
291.53999999985575,3.81173e-05,291.53999999985575,2.251246e-05,291.53999999985575,4.31539e-06,291.53999999985575,9.170469e-06
291.55499999985574,3.785624e-05,291.55499999985574,2.27025e-05,291.55499999985574,4.485062e-06,291.55499999985574,9.043632e-06
291.5699999998557,3.862101e-05,291.5699999998557,2.268326e-05,291.5699999998557,4.648545e-06,291.5699999998557,9.051417e-06
291.5849999998557,3.831377e-05,291.5849999998557,2.201386e-05,291.5849999998557,4.711753e-06,291.5849999998557,8.973265e-06
291.5999999998557,3.714591e-05,291.5999999998557,2.167401e-05,291.5999999998557,4.66971e-06,291.5999999998557,9.021799e-06
291.6149999998557,3.718457e-05,291.6149999998557,2.135119e-05,291.6149999998557,4.624239e-06,291.6149999998557,9.074732e-06
291.62999999985567,3.764354e-05,291.62999999985567,2.008167e-05,291.62999999985567,4.405843e-06,291.62999999985567,9.048304e-06
291.64499999985566,3.736936e-05,291.64499999985566,1.972925e-05,291.64499999985566,4.418613e-06,291.64499999985566,9.208791e-06
291.65999999985564,3.565997e-05,291.65999999985564,1.972568e-05,291.65999999985564,4.497608e-06,291.65999999985564,8.933933e-06
291.67499999985563,3.056838e-05,291.67499999985563,1.993665e-05,291.67499999985563,4.75046e-06,291.67499999985563,8.840414e-06
291.6899999998556,2.928188e-05,291.6899999998556,2.002126e-05,291.6899999998556,4.780021e-06,291.6899999998556,8.824465e-06
291.7049999998556,3.129207e-05,291.7049999998556,2.079841e-05,291.7049999998556,4.741556e-06,291.7049999998556,8.150632e-06
291.7199999998556,2.90641e-05,291.7199999998556,1.843746e-05,291.7199999998556,4.832776e-06,291.7199999998556,7.543885e-06
291.7349999998556,2.724127e-05,291.7349999998556,1.770312e-05,291.7349999998556,5.230329e-06,291.7349999998556,8.221186e-06
291.74999999985556,2.809056e-05,291.74999999985556,1.942705e-05,291.74999999985556,6.214957e-06,291.74999999985556,8.744285e-06
291.76499999985555,2.845923e-05,291.76499999985555,1.992675e-05,291.76499999985555,6.214957e-06,291.76499999985555,8.515764e-06
291.77999999985553,3.384317e-05,291.77999999985553,2.710752e-05,291.77999999985553,6.105191e-06,291.77999999985553,1.045392e-05
291.7949999998555,4.059975e-05,291.7949999998555,3.901295e-05,291.7949999998555,6.351713e-06,291.7949999998555,1.25135e-05
291.8099999998555,5.197584e-05,291.8099999998555,5.047855e-05,291.8099999998555,7.314453e-06,291.8099999998555,1.627878e-05
291.8249999998555,5.326457e-05,291.8249999998555,5.255397e-05,291.8249999998555,7.69548e-06,291.8249999998555,1.75288e-05
291.8399999998555,6.581916e-05,291.8399999998555,6.158009e-05,291.8399999998555,7.818965e-06,291.8399999998555,2.090852e-05
291.85499999985547,7.493298e-05,291.85499999985547,6.920662e-05,291.85499999985547,8.053266e-06,291.85499999985547,2.352645e-05
291.86999999985545,7.651864e-05,291.86999999985545,7.296057e-05,291.86999999985545,8.107309e-06,291.86999999985545,2.396426e-05
291.88499999985544,7.653171e-05,291.88499999985544,7.368754e-05,291.88499999985544,8.011176e-06,291.88499999985544,2.40985e-05
291.8999999998554,7.756851e-05,291.8999999998554,7.447647e-05,291.8999999998554,8.055015e-06,291.8999999998554,2.421571e-05
291.9149999998554,7.878461e-05,291.9149999998554,7.467745e-05,291.9149999998554,8.31828e-06,291.9149999998554,2.435203e-05
291.9299999998554,8.095451e-05,291.9299999998554,7.542746e-05,291.9299999998554,8.509145e-06,291.9299999998554,2.50101e-05
291.9449999998554,8.11535e-05,291.9449999998554,7.569424e-05,291.9449999998554,8.589881e-06,291.9449999998554,2.532911e-05
291.95999999985537,8.121198e-05,291.95999999985537,7.574317e-05,291.95999999985537,8.548785e-06,291.95999999985537,2.570506e-05
291.97499999985536,8.232881e-05,291.97499999985536,7.728323e-05,291.97499999985536,8.519072e-06,291.97499999985536,2.606316e-05
291.98999999985534,8.383595e-05,291.98999999985534,7.887343e-05,291.98999999985534,8.405879e-06,291.98999999985534,2.67455e-05
292.00499999985533,8.820841e-05,292.00499999985533,8.457003e-05,292.00499999985533,7.691819e-06,292.00499999985533,2.809357e-05
292.0199999998553,8.885997e-05,292.0199999998553,8.557151e-05,292.0199999998553,7.965326e-06,292.0199999998553,2.813916e-05
292.0349999998553,8.451205e-05,292.0349999998553,8.023457e-05,292.0349999998553,7.677153e-06,292.0349999998553,2.67065e-05
292.0499999998553,8.371555e-05,292.0499999998553,7.799537e-05,292.0499999998553,7.364355e-06,292.0499999998553,2.648936e-05
292.0649999998553,7.867744e-05,292.0649999998553,7.234595e-05,292.0649999998553,6.671875e-06,292.0649999998553,2.461897e-05
292.07999999985526,7.711536e-05,292.07999999985526,7.06408e-05,292.07999999985526,6.494269e-06,292.07999999985526,2.3659e-05
292.09499999985525,6.244736e-05,292.09499999985525,5.950486e-05,292.09499999985525,6.228541e-06,292.09499999985525,1.98609e-05
292.10999999985523,5.636587e-05,292.10999999985523,5.323335e-05,292.10999999985523,6.11902e-06,292.10999999985523,1.798808e-05
292.1249999998552,5.550483e-05,292.1249999998552,5.222432e-05,292.1249999998552,6.014533e-06,292.1249999998552,1.787811e-05
292.1399999998552,5.486334e-05,292.1399999998552,5.097037e-05,292.1399999998552,5.986361e-06,292.1399999998552,1.774683e-05
292.1549999998552,5.438548e-05,292.1549999998552,5.092779e-05,292.1549999998552,5.753582e-06,292.1549999998552,1.773175e-05
292.1699999998552,5.204978e-05,292.1699999998552,5.029375e-05,292.1699999998552,5.446701e-06,292.1699999998552,1.732103e-05
292.18499999985517,4.897949e-05,292.18499999985517,4.882134e-05,292.18499999985517,4.925167e-06,292.18499999985517,1.620941e-05
292.19999999985515,4.77893e-05,292.19999999985515,4.821862e-05,292.19999999985515,4.939447e-06,292.19999999985515,1.543392e-05
292.21499999985514,4.710407e-05,292.21499999985514,4.746247e-05,292.21499999985514,4.973552e-06,292.21499999985514,1.495743e-05
292.2299999998551,4.50865e-05,292.2299999998551,4.47777e-05,292.2299999998551,4.485062e-06,292.2299999998551,1.370415e-05
292.2449999998551,4.187224e-05,292.2449999998551,4.160901e-05,292.2449999998551,4.101159e-06,292.2449999998551,1.2465e-05
292.2599999998551,3.030411e-05,292.2599999998551,2.647074e-05,292.2599999998551,3.860533e-06,292.2599999998551,8.726546e-06
292.2749999998551,2.931649e-05,292.2749999998551,2.492943e-05,292.2749999998551,3.878734e-06,292.2749999998551,8.492574e-06
292.28999999985507,2.559522e-05,292.28999999985507,2.277437e-05,292.28999999985507,3.820184e-06,292.28999999985507,7.799122e-06
292.30499999985506,2.176805e-05,292.30499999985506,2.051335e-05,292.30499999985506,3.801702e-06,292.30499999985506,6.861319e-06
292.31999999985504,2.175899e-05,292.31999999985504,2.043974e-05,292.31999999985504,3.84957e-06,292.31999999985504,7.119262e-06
292.33499999985503,2.251809e-05,292.33499999985503,2.1575e-05,292.33499999985503,3.889614e-06,292.33499999985503,7.50457e-06
292.349999999855,2.285155e-05,292.349999999855,1.954921e-05,292.349999999855,3.972038e-06,292.349999999855,7.568121e-06
292.364999999855,2.238444e-05,292.364999999855,1.839003e-05,292.364999999855,3.885991e-06,292.364999999855,7.379642e-06
292.379999999855,2.603341e-05,292.379999999855,2.43526e-05,292.379999999855,4.003829e-06,292.379999999855,8.497549e-06
292.394999999855,2.862752e-05,292.394999999855,2.691194e-05,292.394999999855,4.052786e-06,292.394999999855,8.800488e-06
292.40999999985496,3.011573e-05,292.40999999985496,3.055732e-05,292.40999999985496,4.007346e-06,292.40999999985496,9.447393e-06
292.42499999985495,3.04525e-05,292.42499999985495,3.375022e-05,292.42499999985495,3.957827e-06,292.42499999985495,9.765595e-06
292.43999999985493,3.014378e-05,292.43999999985493,3.634314e-05,292.43999999985493,4.05626e-06,292.43999999985493,1.000218e-05
292.4549999998549,3.029016e-05,292.4549999998549,3.916898e-05,292.4549999998549,4.179412e-06,292.4549999998549,1.024156e-05
292.4699999998549,3.034824e-05,292.4699999998549,4.031772e-05,292.4699999998549,4.497608e-06,292.4699999998549,1.027725e-05
292.4849999998549,3.063513e-05,292.4849999998549,4.030934e-05,292.4849999998549,4.525708e-06,292.4849999998549,1.042018e-05
292.4999999998549,3.084638e-05,292.4999999998549,4.068085e-05,292.4999999998549,5.178904e-06,292.4999999998549,1.062235e-05
292.51499999985487,3.129297e-05,292.51499999985487,4.112512e-05,292.51499999985487,5.934367e-06,292.51499999985487,1.069372e-05
292.52999999985485,3.088107e-05,292.52999999985485,4.143837e-05,292.52999999985485,5.879517e-06,292.52999999985485,1.063031e-05
292.54499999985484,3.158823e-05,292.54499999985484,4.183421e-05,292.54499999985484,6.056544e-06,292.54499999985484,1.075415e-05
292.5599999998548,3.205217e-05,292.5599999998548,4.197674e-05,292.5599999998548,6.051891e-06,292.5599999998548,1.066074e-05
292.5749999998548,3.190902e-05,292.5749999998548,4.173139e-05,292.5749999998548,6.077441e-06,292.5749999998548,1.049158e-05
292.5899999998548,3.122582e-05,292.5899999998548,4.090841e-05,292.5899999998548,6.023894e-06,292.5899999998548,1.025942e-05
292.6049999998548,3.095442e-05,292.6049999998548,4.040811e-05,292.6049999998548,5.988714e-06,292.6049999998548,1.016978e-05
292.61999999985477,2.909075e-05,292.61999999985477,3.843418e-05,292.61999999985477,6.338393e-06,292.61999999985477,9.426494e-06
292.63499999985476,2.743758e-05,292.63499999985476,3.821659e-05,292.63499999985476,6.273611e-06,292.63499999985476,9.653885e-06
292.64999999985474,2.406633e-05,292.64999999985474,3.570339e-05,292.64999999985474,6.535352e-06,292.64999999985474,9.071627e-06
292.66499999985473,2.28534e-05,292.66499999985473,3.376316e-05,292.66499999985473,6.908378e-06,292.66499999985473,8.340267e-06
292.6799999998547,2.39219e-05,292.6799999998547,2.953097e-05,292.6799999998547,7.188182e-06,292.6799999998547,9.271297e-06
292.6949999998547,2.430049e-05,292.6949999998547,2.773782e-05,292.6949999998547,7.131124e-06,292.6949999998547,9.038959e-06
292.7099999998547,2.574831e-05,292.7099999998547,2.46607e-05,292.7099999998547,7.10738e-06,292.7099999998547,9.775687e-06
292.7249999998547,2.8659e-05,292.7249999998547,2.621459e-05,292.7249999998547,6.890002e-06,292.7249999998547,1.156699e-05
292.73999999985466,3.202051e-05,292.73999999985466,3.04062e-05,292.73999999985466,6.450741e-06,292.73999999985466,1.35574e-05
292.75499999985465,3.30761e-05,292.75499999985465,3.033338e-05,292.75499999985465,6.233063e-06,292.75499999985465,1.382695e-05
292.76999999985463,4.241076e-05,292.76999999985463,3.839054e-05,292.76999999985463,5.711809e-06,292.76999999985463,1.516321e-05
292.7849999998546,4.407569e-05,292.7849999998546,3.897971e-05,292.7849999998546,5.821732e-06,292.7849999998546,1.538547e-05
292.7999999998546,5.27693e-05,292.7999999998546,4.53572e-05,292.7999999998546,5.729046e-06,292.7999999998546,1.620332e-05
292.8149999998546,5.39465e-05,292.8149999998546,4.705859e-05,292.8149999998546,5.760922e-06,292.8149999998546,1.685945e-05
292.8299999998546,5.420881e-05,292.8299999998546,4.727065e-05,292.8299999998546,5.824151e-06,292.8299999998546,1.690534e-05
292.84499999985456,5.763978e-05,292.84499999985456,4.972589e-05,292.84499999985456,5.958057e-06,292.84499999985456,1.763855e-05
292.85999999985455,6.000581e-05,292.85999999985455,5.080733e-05,292.85999999985455,5.927241e-06,292.85999999985455,1.822614e-05
292.87499999985454,6.146239e-05,292.87499999985454,5.429968e-05,292.87499999985454,5.431162e-06,292.87499999985454,1.91304e-05
292.8899999998545,6.160822e-05,292.8899999998545,5.359729e-05,292.8899999998545,5.56693e-06,292.8899999998545,1.915983e-05
292.9049999998545,6.379066e-05,292.9049999998545,5.399034e-05,292.9049999998545,5.291911e-06,292.9049999998545,1.954849e-05
292.9199999998545,6.406105e-05,292.9199999998545,5.455823e-05,292.9199999998545,4.738583e-06,292.9199999998545,1.939077e-05
292.9349999998545,6.497132e-05,292.9349999998545,5.714127e-05,292.9349999998545,4.510119e-06,292.9349999998545,1.958593e-05
292.94999999985447,6.633168e-05,292.94999999985447,5.901805e-05,292.94999999985447,4.584466e-06,292.94999999985447,1.97421e-05
292.96499999985446,6.590792e-05,292.96499999985446,6.087446e-05,292.96499999985446,4.657627e-06,292.96499999985446,1.98609e-05
292.97999999985444,6.438216e-05,292.97999999985444,6.270601e-05,292.97999999985444,4.621192e-06,292.97999999985444,1.927564e-05
292.99499999985443,6.232069e-05,292.99499999985443,6.100206e-05,292.99499999985443,4.572159e-06,292.99499999985443,1.81145e-05
293.0099999998544,6.07445e-05,293.0099999998544,5.996189e-05,293.0099999998544,4.575239e-06,293.0099999998544,1.937914e-05
293.0249999998544,5.634612e-05,293.0249999998544,5.67735e-05,293.0249999998544,4.373753e-06,293.0249999998544,2.004376e-05
293.0399999998544,5.721296e-05,293.0399999998544,5.990831e-05,293.0399999998544,6.061194e-06,293.0399999998544,2.103681e-05
293.0549999998544,5.016643e-05,293.0549999998544,5.537753e-05,293.0549999998544,7.904969e-06,293.0549999998544,2.043491e-05
293.06999999985436,5.103169e-05,293.06999999985436,5.711241e-05,293.06999999985436,8.109047e-06,293.06999999985436,2.040456e-05
293.08499999985435,4.995003e-05,293.08499999985435,5.664955e-05,293.08499999985435,8.198881e-06,293.08499999985435,2.016148e-05
293.09999999985433,4.760975e-05,293.09999999985433,5.669007e-05,293.09999999985433,8.233172e-06,293.09999999985433,1.966632e-05
293.1149999998543,4.58674e-05,293.1149999998543,5.503792e-05,293.1149999998543,8.297934e-06,293.1149999998543,1.91804e-05
293.1299999998543,4.657809e-05,293.1299999998543,5.399843e-05,293.1299999998543,8.248557e-06,293.1299999998543,1.885e-05
293.1449999998543,4.63194e-05,293.1449999998543,5.456856e-05,293.1449999998543,8.229749e-06,293.1449999998543,1.867658e-05
293.1599999998543,4.544439e-05,293.1599999998543,5.412897e-05,293.1599999998543,8.25709e-06,293.1599999998543,1.900406e-05
293.17499999985426,4.494193e-05,293.17499999985426,5.239989e-05,293.17499999985426,8.612809e-06,293.17499999985426,1.834938e-05
293.18999999985425,4.547693e-05,293.18999999985425,5.596054e-05,293.18999999985425,9.847473e-06,293.18999999985425,1.825394e-05
293.20499999985424,4.699928e-05,293.20499999985424,5.441604e-05,293.20499999985424,1.008493e-05,293.20499999985424,1.798887e-05
293.2199999998542,4.830998e-05,293.2199999998542,5.151987e-05,293.2199999998542,1.010865e-05,293.2199999998542,1.726564e-05
293.2349999998542,4.984048e-05,293.2349999998542,4.959853e-05,293.2349999998542,1.017809e-05,293.2349999998542,1.678073e-05
293.2499999998542,5.087411e-05,293.2499999998542,4.98645e-05,293.2499999998542,1.016008e-05,293.2499999998542,1.62207e-05
293.2649999998542,4.983427e-05,293.2649999998542,5.087466e-05,293.2649999998542,1.012675e-05,293.2649999998542,1.371648e-05
293.27999999985417,4.979553e-05,293.27999999985417,5.192812e-05,293.27999999985417,1.005135e-05,293.27999999985417,1.237426e-05
293.29499999985416,4.86676e-05,293.29499999985416,5.101071e-05,293.29499999985416,9.013988e-06,293.29499999985416,1.079729e-05
293.30999999985414,4.528851e-05,293.30999999985414,5.035281e-05,293.30999999985414,8.086432e-06,293.30999999985414,1.006816e-05
293.3249999998541,4.55181e-05,293.3249999998541,4.840086e-05,293.3249999998541,8.246849e-06,293.3249999998541,1.121203e-05
293.3399999998541,4.62046e-05,293.3399999998541,4.787089e-05,293.3399999998541,8.147174e-06,293.3399999998541,1.201031e-05
293.3549999998541,4.596496e-05,293.3549999998541,4.660651e-05,293.3549999998541,8.075974e-06,293.3549999998541,1.175784e-05
293.3699999998541,4.406962e-05,293.3699999998541,4.746484e-05,293.3699999998541,8.046266e-06,293.3699999998541,1.159861e-05
293.3849999998541,4.220299e-05,293.3849999998541,4.742595e-05,293.3849999998541,8.034001e-06,293.3849999998541,1.20513e-05
293.39999999985406,4.284432e-05,293.39999999985406,4.771703e-05,293.39999999985406,8.072484e-06,293.39999999985406,1.280504e-05
293.41499999985405,4.008892e-05,293.41499999985405,4.844974e-05,293.41499999985405,8.077717e-06,293.41499999985405,1.212704e-05
293.42999999985403,4.049726e-05,293.42999999985403,4.717191e-05,293.42999999985403,7.664298e-06,293.42999999985403,1.233092e-05
293.444999999854,3.790086e-05,293.444999999854,4.275743e-05,293.444999999854,5.993417e-06,293.444999999854,1.252137e-05
293.459999999854,3.400884e-05,293.459999999854,4.21335e-05,293.459999999854,5.746233e-06,293.459999999854,1.256741e-05
293.474999999854,3.55143e-05,293.474999999854,4.264593e-05,293.474999999854,5.920107e-06,293.474999999854,1.308471e-05
293.489999999854,3.296775e-05,293.489999999854,4.226702e-05,293.489999999854,6.01219e-06,293.489999999854,1.315129e-05
293.50499999985396,3.176078e-05,293.50499999985396,4.313954e-05,293.50499999985396,6.056544e-06,293.50499999985396,1.337012e-05
293.51999999985395,3.176566e-05,293.51999999985395,3.951629e-05,293.51999999985395,6.148874e-06,293.51999999985395,1.435087e-05
293.53499999985394,3.0918e-05,293.53499999985394,4.098891e-05,293.53499999985394,6.005157e-06,293.53499999985394,1.559915e-05
293.5499999998539,3.062041e-05,293.5499999998539,3.836705e-05,293.5499999998539,5.659781e-06,293.5499999998539,1.563883e-05
293.5649999998539,3.352534e-05,293.5649999998539,4.295334e-05,293.5649999998539,5.299891e-06,293.5649999998539,1.656018e-05
293.5799999998539,3.333614e-05,293.5799999998539,4.735669e-05,293.5799999998539,5.748683e-06,293.5799999998539,1.586597e-05
293.5949999998539,3.320743e-05,293.5949999998539,4.958575e-05,293.5949999998539,6.125922e-06,293.5949999998539,1.552855e-05
293.60999999985387,3.275555e-05,293.60999999985387,4.984557e-05,293.60999999985387,6.19225e-06,293.60999999985387,1.62632e-05
293.62499999985386,3.73158e-05,293.62499999985386,4.888449e-05,293.62499999985386,6.219488e-06,293.62499999985386,1.644152e-05
293.63999999985384,3.946706e-05,293.63999999985384,4.974175e-05,293.63999999985384,6.298262e-06,293.63999999985384,1.661114e-05
293.6549999998538,3.880985e-05,293.6549999998538,5.04079e-05,293.6549999998538,6.162605e-06,293.6549999998538,1.619897e-05
293.6699999998538,4.030479e-05,293.6699999998538,5.276984e-05,293.6699999998538,6.296025e-06,293.6699999998538,1.662131e-05
293.6849999998538,4.213384e-05,293.6849999998538,5.619842e-05,293.6849999998538,6.601833e-06,293.6849999998538,1.647319e-05
293.6999999998538,4.371949e-05,293.6999999998538,5.627958e-05,293.6999999998538,6.789081e-06,293.6999999998538,1.719697e-05
293.7149999998538,4.888218e-05,293.7149999998538,5.632862e-05,293.7149999998538,6.520246e-06,293.7149999998538,1.741269e-05
293.72999999985376,4.870752e-05,293.72999999985376,5.598319e-05,293.72999999985376,6.4921e-06,293.72999999985376,1.720844e-05
293.74499999985375,4.910444e-05,293.74499999985375,5.70485e-05,293.74499999985375,6.776621e-06,293.74499999985375,1.803501e-05
293.75999999985373,4.99599e-05,293.75999999985373,5.839321e-05,293.75999999985373,7.279705e-06,293.75999999985373,1.83394e-05
293.7749999998537,4.975902e-05,293.7749999998537,5.834349e-05,293.7749999998537,7.29903e-06,293.7749999998537,1.710087e-05
293.7899999998537,5.011811e-05,293.7899999998537,5.737941e-05,293.7899999998537,7.316379e-06,293.7899999998537,1.682683e-05
293.8049999998537,5.244852e-05,293.8049999998537,5.694321e-05,293.8049999998537,7.339447e-06,293.8049999998537,1.705798e-05
293.8199999998537,5.277144e-05,293.8199999998537,5.468718e-05,293.8199999998537,7.069622e-06,293.8199999998537,1.604871e-05
293.83499999985366,5.259202e-05,293.83499999985366,5.294094e-05,293.83499999985366,6.395915e-06,293.83499999985366,1.607589e-05
293.84999999985365,5.3491e-05,293.84999999985365,5.169702e-05,293.84999999985365,6.413511e-06,293.84999999985365,1.529824e-05
293.86499999985364,5.348073e-05,293.86499999985364,5.119567e-05,293.86499999985364,6.367219e-06,293.86499999985364,1.5126e-05
293.8799999998536,4.98026e-05,293.8799999998536,5.16714e-05,293.8799999998536,6.320588e-06,293.8799999998536,1.477836e-05
293.8949999998536,4.923222e-05,293.8949999998536,5.271001e-05,293.8949999998536,6.345057e-06,293.8949999998536,1.412928e-05
293.9099999998536,4.901025e-05,293.9099999998536,5.283573e-05,293.9099999998536,6.353931e-06,293.9099999998536,1.446136e-05
293.9249999998536,4.609533e-05,293.9249999998536,4.754402e-05,293.9249999998536,6.169459e-06,293.9249999998536,1.443308e-05
293.93999999985357,4.485565e-05,293.93999999985357,4.54605e-05,293.93999999985357,5.812045e-06,293.93999999985357,1.406432e-05
293.95499999985356,4.444647e-05,293.95499999985356,4.621466e-05,293.95499999985356,5.321112e-06,293.95499999985356,1.304373e-05
293.96999999985354,3.979373e-05,293.96999999985354,4.758607e-05,293.96999999985354,5.321112e-06,293.96999999985354,1.309762e-05
293.9849999998535,4.049135e-05,293.9849999998535,4.801955e-05,293.9849999998535,5.235713e-06,293.9849999998535,1.321753e-05
293.9999999998535,4.29005e-05,293.9999999998535,4.670825e-05,293.9999999998535,4.444044e-06,293.9999999998535,1.364233e-05
294.0149999998535,5.090981e-05,294.0149999998535,4.471505e-05,294.0149999998535,3.939991e-06,294.0149999998535,1.689868e-05
294.0299999998535,5.093803e-05,294.0299999998535,4.432587e-05,294.0299999998535,3.961384e-06,294.0299999998535,1.844968e-05
294.0449999998535,5.293322e-05,294.0449999998535,4.462644e-05,294.0449999998535,3.957827e-06,294.0449999998535,1.88111e-05
294.05999999985346,5.148706e-05,294.05999999985346,4.037463e-05,294.05999999985346,3.896851e-06,294.05999999985346,2.006343e-05
294.07499999985345,5.057278e-05,294.07499999985345,4.044017e-05,294.07499999985345,4.131956e-06,294.07499999985345,2.110967e-05
294.08999999985343,4.988484e-05,294.08999999985343,3.921966e-05,294.08999999985343,4.162526e-06,294.08999999985343,2.12957e-05
294.1049999998534,4.921819e-05,294.1049999998534,3.817602e-05,294.1049999998534,4.182782e-06,294.1049999998534,2.146109e-05
294.1199999998534,4.888593e-05,294.1199999998534,3.803628e-05,294.1199999998534,4.236323e-06,294.1199999998534,2.155409e-05
294.1349999998534,4.857459e-05,294.1349999998534,3.441646e-05,294.1349999998534,4.266145e-06,294.1349999998534,2.154886e-05
294.1499999998534,4.836389e-05,294.1499999998534,3.248262e-05,294.1499999998534,4.216325e-06,294.1499999998534,2.110633e-05
294.16499999985336,4.858329e-05,294.16499999985336,3.05338e-05,294.16499999985336,4.17604e-06,294.16499999985336,2.078689e-05
294.17999999985335,4.804976e-05,294.17999999985335,2.842506e-05,294.17999999985335,4.128545e-06,294.17999999985335,2.072173e-05
294.19499999985334,4.771644e-05,294.19499999985334,2.728054e-05,294.19499999985334,4.20629e-06,294.19499999985334,2.062839e-05
294.2099999998533,4.612435e-05,294.2099999998533,2.610852e-05,294.2099999998533,4.334932e-06,294.2099999998533,2.038176e-05
294.2249999998533,4.545834e-05,294.2249999998533,2.274218e-05,294.2249999998533,4.279333e-06,294.2249999998533,2.012022e-05
294.2399999998533,4.482737e-05,294.2399999998533,2.226012e-05,294.2399999998533,4.627284e-06,294.2399999998533,2.008448e-05
294.2549999998533,4.05935e-05,294.2549999998533,2.021521e-05,294.2549999998533,4.565993e-06,294.2549999998533,1.903147e-05
294.26999999985327,3.097171e-05,294.26999999985327,2.067273e-05,294.26999999985327,4.516361e-06,294.26999999985327,1.605572e-05
294.28499999985326,3.128081e-05,294.28499999985326,2.208988e-05,294.28499999985326,4.440873e-06,294.28499999985326,1.551494e-05
294.29999999985324,2.648563e-05,294.29999999985324,2.200938e-05,294.29999999985324,4.478776e-06,294.29999999985324,1.508217e-05
294.3149999998532,2.394015e-05,294.3149999998532,2.126922e-05,294.3149999998532,4.478776e-06,294.3149999998532,1.350952e-05
294.3299999998532,2.43971e-05,294.3299999998532,2.088223e-05,294.3299999998532,4.393035e-06,294.3299999998532,1.285335e-05
294.3449999998532,2.515164e-05,294.3449999998532,2.096839e-05,294.3449999998532,4.354386e-06,294.3449999998532,1.327071e-05
294.3599999998532,2.509837e-05,294.3599999998532,2.107227e-05,294.3599999998532,4.389827e-06,294.3599999998532,1.329722e-05
294.3749999998532,2.523774e-05,294.3749999998532,2.134327e-05,294.3749999998532,4.584466e-06,294.3749999998532,1.332685e-05
